1569336642.25068
1569336642.2663
1569336642.28193
1569336642.29755
1569336642.31318
1569336642.3288
1569336642.34443
1569336642.36006
1569336642.37568
1569336642.39131
1569336642.40693
1569336642.42256
1569336642.43819
1569336642.45381
1569336642.46944
1569336642.48506
1569336642.50069
1569336642.51631
1569336642.53194
1569336642.54757
1569336642.56319
1569336642.57882
1569336642.59444
1569336642.61007
1569336642.62569
1569336642.64132
1569336642.65695
1569336642.67257
1569336642.6882
1569336642.70382
1569336642.71945
1569336642.73507
1569336642.7507
1569336642.76633
1569336642.78195
1569336642.79758
1569336642.8132
1569336642.82883
1569336642.84445
1569336642.86008
1569336642.87571
1569336642.89133
1569336642.90696
1569336642.92258
1569336642.93821
1569336642.95383
1569336642.96946
1569336642.98509
1569336643.00071
1569336643.01634
1569336643.03196
1569336643.04759
1569336643.06321
1569336643.07884
1569336643.09447
1569336643.11009
1569336643.12572
1569336643.14134
1569336643.15697
1569336643.17259
1569336643.18822
1569336643.20385
1569336643.21947
1569336643.2351
1569336643.25072
1569336643.26635
1569336643.28197
1569336643.2976
1569336643.31323
1569336643.32885
1569336643.34448
1569336643.3601
1569336643.37573
1569336643.39135
1569336643.40698
1569336643.42261
1569336643.43823
1569336643.45386
1569336643.46948
1569336643.48511
1569336643.50073
1569336643.51636
1569336643.53199
1569336643.54761
1569336643.56324
1569336643.57886
1569336643.59449
1569336643.61011
1569336643.62574
1569336643.64137
1569336643.65699
1569336643.67262
1569336643.68824
1569336643.70387
1569336643.71949
1569336643.73512
1569336643.75075
1569336643.76637
1569336643.782
1569336643.79762
1569336643.81325
1569336643.82887
1569336643.8445
1569336643.86013
1569336643.87575
1569336643.89138
1569336643.907
1569336643.92263
1569336643.93825
1569336643.95388
1569336643.96951
1569336643.98513
1569336644.00076
1569336644.01638
1569336644.03201
1569336644.04763
1569336644.06326
1569336644.07889
1569336644.09451
1569336644.11014
1569336644.12576
1569336644.14139
1569336644.15701
1569336644.17264
1569336644.18827
1569336644.20389
1569336644.21952
1569336644.23514
1569336644.25077
1569336644.26639
1569336644.28202
1569336644.29765
1569336644.31327
1569336644.3289
1569336644.34452
1569336644.36015
1569336644.37577
1569336644.3914
1569336644.40703
1569336644.42265
1569336644.43828
1569336644.4539
1569336644.46953
1569336644.48515
1569336644.50078
1569336644.51641
1569336644.53203
1569336644.54766
1569336644.56328
1569336644.57891
1569336644.59453
1569336644.61016
1569336644.62579
1569336644.64141
1569336644.65704
1569336644.67266
1569336644.68829
1569336644.70392
1569336644.71954
1569336644.73517
1569336644.75079
1569336644.76642
1569336644.78204
1569336644.79767
1569336644.8133
1569336644.82892
1569336644.84455
1569336644.86017
1569336644.8758
1569336644.89142
1569336644.90705
1569336644.92268
1569336644.9383
1569336644.95393
1569336644.96955
1569336644.98518
1569336645.0008
1569336645.01643
1569336645.03206
1569336645.04768
1569336645.06331
1569336645.07893
1569336645.09456
1569336645.11018
1569336645.12581
1569336645.14144
1569336645.15706
1569336645.17269
1569336645.18831
1569336645.20394
1569336645.21956
1569336645.23519
1569336645.25082
1569336645.26644
1569336645.28207
1569336645.29769
1569336645.31332
1569336645.32894
1569336645.34457
1569336645.3602
1569336645.37582
1569336645.39145
1569336645.40707
1569336645.4227
1569336645.43832
1569336645.45395
1569336645.46958
1569336645.4852
1569336645.50083
1569336645.51645
1569336645.53208
1569336645.5477
1569336645.56333
1569336645.57896
1569336645.59458
1569336645.61021
1569336645.62583
1569336645.64146
1569336645.65708
1569336645.67271
1569336645.68834
1569336645.70396
1569336645.71959
1569336645.73521
1569336645.75084
1569336645.76646
1569336645.78209
1569336645.79772
1569336645.81334
1569336645.82897
1569336645.84459
1569336645.86022
1569336645.87584
1569336645.89147
1569336645.9071
1569336645.92272
1569336645.93835
1569336645.95397
1569336645.9696
1569336645.98522
1569336646.00085
1569336646.01648
1569336646.0321
1569336646.04773
1569336646.06335
1569336646.07898
1569336646.0946
1569336646.11023
1569336646.12586
1569336646.14148
1569336646.15711
1569336646.17273
1569336646.18836
1569336646.20398
1569336646.21961
1569336646.23524
1569336646.25086
1569336646.26649
1569336646.28211
1569336646.29774
1569336646.31336
1569336646.32899
1569336646.34462
1569336646.36024
1569336646.37587
1569336646.39149
1569336646.40712
1569336646.42274
1569336646.43837
1569336646.454
1569336646.46962
1569336646.48525
1569336646.50087
1569336646.5165
1569336646.53212
1569336646.54775
1569336646.56338
1569336646.579
1569336646.59463
1569336646.61025
1569336646.62588
1569336646.6415
1569336646.65713
1569336646.67276
1569336646.68838
1569336646.70401
1569336646.71963
1569336646.73526
1569336646.75088
1569336646.76651
1569336646.78214
1569336646.79776
1569336646.81339
1569336646.82901
1569336646.84464
1569336646.86027
1569336646.87589
1569336646.89152
1569336646.90714
1569336646.92277
1569336646.93839
1569336646.95402
1569336646.96965
1569336646.98527
1569336647.0009
1569336647.01652
1569336647.03215
1569336647.04777
1569336647.0634
1569336647.07903
1569336647.09465
1569336647.11028
1569336647.1259
1569336647.14153
1569336647.15715
1569336647.17278
1569336647.18841
1569336647.20403
1569336647.21966
1569336647.23528
1569336647.25091
1569336647.26653
1569336647.28216
1569336647.29779
1569336647.31341
1569336647.32904
1569336647.34466
1569336647.36029
1569336647.37591
1569336647.39154
1569336647.40717
1569336647.42279
1569336647.43842
1569336647.45404
1569336647.46967
1569336647.48529
1569336647.50092
1569336647.51655
1569336647.53217
1569336647.5478
1569336647.56342
1569336647.57905
1569336647.59467
1569336647.6103
1569336647.62593
1569336647.64155
1569336647.65718
1569336647.6728
1569336647.68843
1569336647.70405
1569336647.71968
1569336647.73531
1569336647.75093
1569336647.76656
1569336647.78218
1569336647.79781
1569336647.81343
1569336647.82906
1569336647.84469
1569336647.86031
1569336647.87594
1569336647.89156
1569336647.90719
1569336647.92281
1569336647.93844
1569336647.95407
1569336647.96969
1569336647.98532
1569336648.00094
1569336648.01657
1569336648.03219
1569336648.04782
1569336648.06345
1569336648.07907
1569336648.0947
1569336648.11032
1569336648.12595
1569336648.14157
1569336648.1572
1569336648.17283
1569336648.18845
1569336648.20408
1569336648.2197
1569336648.23533
1569336648.25095
1569336648.26658
1569336648.28221
1569336648.29783
1569336648.31346
1569336648.32908
1569336648.34471
1569336648.36033
1569336648.37596
1569336648.39159
1569336648.40721
1569336648.42284
1569336648.43846
1569336648.45409
1569336648.46971
1569336648.48534
1569336648.50097
1569336648.51659
1569336648.53222
1569336648.54784
1569336648.56347
1569336648.57909
1569336648.59472
1569336648.61035
1569336648.62597
1569336648.6416
1569336648.65722
1569336648.67285
1569336648.68847
1569336648.7041
1569336648.71973
1569336648.73535
1569336648.75098
1569336648.7666
1569336648.78223
1569336648.79785
1569336648.81348
1569336648.82911
1569336648.84473
1569336648.86036
1569336648.87598
1569336648.89161
1569336648.90723
1569336648.92286
1569336648.93849
1569336648.95411
1569336648.96974
1569336648.98536
1569336649.00099
1569336649.01661
1569336649.03224
1569336649.04787
1569336649.06349
1569336649.07912
1569336649.09474
1569336649.11037
1569336649.12599
1569336649.14162
1569336649.15725
1569336649.17287
1569336649.1885
1569336649.20412
1569336649.21975
1569336649.23537
1569336649.251
1569336649.26663
1569336649.28225
1569336649.29788
1569336649.3135
1569336649.32913
1569336649.34475
1569336649.36038
1569336649.37601
1569336649.39163
1569336649.40726
1569336649.42288
1569336649.43851
1569336649.45413
1569336649.46976
1569336649.48539
1569336649.50101
1569336649.51664
1569336649.53226
1569336649.54789
1569336649.56352
1569336649.57914
1569336649.59477
1569336649.61039
1569336649.62602
1569336649.64164
1569336649.65727
1569336649.6729
1569336649.68852
1569336649.70415
1569336649.71977
1569336649.7354
1569336649.75102
1569336649.76665
1569336649.78228
1569336649.7979
1569336649.81353
1569336649.82915
1569336649.84478
1569336649.8604
1569336649.87603
1569336649.89166
1569336649.90728
1569336649.92291
1569336649.93853
1569336649.95416
1569336649.96978
1569336649.98541
1569336650.00104
1569336650.01666
1569336650.03229
1569336650.04791
1569336650.06354
1569336650.07916
1569336650.09479
1569336650.11042
1569336650.12604
1569336650.14167
1569336650.15729
1569336650.17292
1569336650.18854
1569336650.20417
1569336650.2198
1569336650.23542
1569336650.25105
1569336650.26667
1569336650.2823
1569336650.29792
1569336650.31355
1569336650.32918
1569336650.3448
1569336650.36043
1569336650.37605
1569336650.39168
1569336650.4073
1569336650.42293
1569336650.43856
1569336650.45418
1569336650.46981
1569336650.48543
1569336650.50106
1569336650.51668
1569336650.53231
1569336650.54794
1569336650.56356
1569336650.57919
1569336650.59481
1569336650.61044
1569336650.62606
1569336650.64169
1569336650.65732
1569336650.67294
1569336650.68857
1569336650.70419
1569336650.71982
1569336650.73544
1569336650.75107
1569336650.7667
1569336650.78232
1569336650.79795
1569336650.81357
1569336650.8292
1569336650.84482
1569336650.86045
1569336650.87608
1569336650.8917
1569336650.90733
1569336650.92295
1569336650.93858
1569336650.9542
1569336650.96983
1569336650.98546
1569336651.00108
1569336651.01671
1569336651.03233
1569336651.04796
1569336651.06358
1569336651.07921
1569336651.09484
1569336651.11046
1569336651.12609
1569336651.14171
1569336651.15734
1569336651.17296
1569336651.18859
1569336651.20422
1569336651.21984
1569336651.23547
1569336651.25109
1569336651.26672
1569336651.28234
1569336651.29797
1569336651.3136
1569336651.32922
1569336651.34485
1569336651.36047
1569336651.3761
1569336651.39172
1569336651.40735
1569336651.42298
1569336651.4386
1569336651.45423
1569336651.46985
1569336651.48548
1569336651.5011
1569336651.51673
1569336651.53236
1569336651.54798
1569336651.56361
1569336651.57923
1569336651.59486
1569336651.61048
1569336651.62611
1569336651.64174
1569336651.65736
1569336651.67299
1569336651.68861
1569336651.70424
1569336651.71987
1569336651.73549
1569336651.75112
1569336651.76674
1569336651.78237
1569336651.79799
1569336651.81362
1569336651.82925
1569336651.84487
1569336651.8605
1569336651.87612
1569336651.89175
1569336651.90737
1569336651.923
1569336651.93863
1569336651.95425
1569336651.96988
1569336651.9855
1569336652.00113
1569336652.01675
1569336652.03238
1569336652.04801
1569336652.06363
1569336652.07926
1569336652.09488
1569336652.11051
1569336652.12613
1569336652.14176
1569336652.15739
1569336652.17301
1569336652.18864
1569336652.20426
1569336652.21989
1569336652.23551
1569336652.25114
1569336652.26677
1569336652.28239
1569336652.29802
1569336652.31364
1569336652.32927
1569336652.34489
1569336652.36052
1569336652.37615
1569336652.39177
1569336652.4074
1569336652.42302
1569336652.43865
1569336652.45427
1569336652.4699
1569336652.48553
1569336652.50115
1569336652.51678
1569336652.5324
1569336652.54803
1569336652.56365
1569336652.57928
1569336652.59491
1569336652.61053
1569336652.62616
1569336652.64178
1569336652.65741
1569336652.67303
1569336652.68866
1569336652.70429
1569336652.71991
1569336652.73554
1569336652.75116
1569336652.76679
1569336652.78241
1569336652.79804
1569336652.81367
1569336652.82929
1569336652.84492
1569336652.86054
1569336652.87617
1569336652.89179
1569336652.90742
1569336652.92305
1569336652.93867
1569336652.9543
1569336652.96992
1569336652.98555
1569336653.00117
1569336653.0168
1569336653.03243
1569336653.04805
1569336653.06368
1569336653.0793
1569336653.09493
1569336653.11055
1569336653.12618
1569336653.14181
1569336653.15743
1569336653.17306
1569336653.18868
1569336653.20431
1569336653.21993
1569336653.23556
1569336653.25119
1569336653.26681
1569336653.28244
1569336653.29806
1569336653.31369
1569336653.32931
1569336653.34494
1569336653.36057
1569336653.37619
1569336653.39182
1569336653.40744
1569336653.42307
1569336653.43869
1569336653.45432
1569336653.46995
1569336653.48557
1569336653.5012
1569336653.51682
1569336653.53245
1569336653.54807
1569336653.5637
1569336653.57933
1569336653.59495
1569336653.61058
1569336653.6262
1569336653.64183
1569336653.65745
1569336653.67308
1569336653.68871
1569336653.70433
1569336653.71996
1569336653.73558
1569336653.75121
1569336653.76683
1569336653.78246
1569336653.79809
1569336653.81371
1569336653.82934
1569336653.84496
1569336653.86059
1569336653.87621
1569336653.89184
1569336653.90747
1569336653.92309
1569336653.93872
1569336653.95434
1569336653.96997
1569336653.98559
1569336654.00122
1569336654.01685
1569336654.03247
1569336654.0481
1569336654.06372
1569336654.07935
1569336654.09497
1569336654.1106
1569336654.12623
1569336654.14185
1569336654.15748
1569336654.1731
1569336654.18873
1569336654.20436
1569336654.21998
1569336654.23561
1569336654.25123
1569336654.26686
1569336654.28248
1569336654.29811
1569336654.31374
1569336654.32936
1569336654.34499
1569336654.36061
1569336654.37624
1569336654.39186
1569336654.40749
1569336654.42312
1569336654.43874
1569336654.45437
1569336654.46999
1569336654.48562
1569336654.50124
1569336654.51687
1569336654.5325
1569336654.54812
1569336654.56375
1569336654.57937
1569336654.595
1569336654.61062
1569336654.62625
1569336654.64188
1569336654.6575
1569336654.67313
1569336654.68875
1569336654.70438
1569336654.72
1569336654.73563
1569336654.75126
1569336654.76688
1569336654.78251
1569336654.79813
1569336654.81376
1569336654.82938
1569336654.84501
1569336654.86064
1569336654.87626
1569336654.89189
1569336654.90751
1569336654.92314
1569336654.93876
1569336654.95439
1569336654.97002
1569336654.98564
1569336655.00127
1569336655.01689
1569336655.03252
1569336655.04814
1569336655.06377
1569336655.0794
1569336655.09502
1569336655.11065
1569336655.12627
1569336655.1419
1569336655.15752
1569336655.17315
1569336655.18878
1569336655.2044
1569336655.22003
1569336655.23565
1569336655.25128
1569336655.2669
1569336655.28253
1569336655.29816
1569336655.31378
1569336655.32941
1569336655.34503
1569336655.36066
1569336655.37628
1569336655.39191
1569336655.40754
1569336655.42316
1569336655.43879
1569336655.45441
1569336655.47004
1569336655.48566
1569336655.50129
1569336655.51692
1569336655.53254
1569336655.54817
1569336655.56379
1569336655.57942
1569336655.59504
1569336655.61067
1569336655.6263
1569336655.64192
1569336655.65755
1569336655.67317
1569336655.6888
1569336655.70442
1569336655.72005
1569336655.73568
1569336655.7513
1569336655.76693
1569336655.78255
1569336655.79818
1569336655.8138
1569336655.82943
1569336655.84506
1569336655.86068
1569336655.87631
1569336655.89193
1569336655.90756
1569336655.92318
1569336655.93881
1569336655.95444
1569336655.97006
1569336655.98569
1569336656.00131
1569336656.01694
1569336656.03256
1569336656.04819
1569336656.06382
1569336656.07944
1569336656.09507
1569336656.11069
1569336656.12632
1569336656.14194
1569336656.15757
1569336656.1732
1569336656.18882
1569336656.20445
1569336656.22007
1569336656.2357
1569336656.25132
1569336656.26695
1569336656.28258
1569336656.2982
1569336656.31383
1569336656.32945
1569336656.34508
1569336656.3607
1569336656.37633
1569336656.39196
1569336656.40758
1569336656.42321
1569336656.43883
1569336656.45446
1569336656.47008
1569336656.48571
1569336656.50134
1569336656.51696
1569336656.53259
1569336656.54821
1569336656.56384
1569336656.57946
1569336656.59509
1569336656.61072
1569336656.62634
1569336656.64197
1569336656.65759
1569336656.67322
1569336656.68885
1569336656.70447
1569336656.7201
1569336656.73572
1569336656.75135
1569336656.76697
1569336656.7826
1569336656.79823
1569336656.81385
1569336656.82948
1569336656.8451
1569336656.86073
1569336656.87635
1569336656.89198
1569336656.90761
1569336656.92323
1569336656.93886
1569336656.95448
1569336656.97011
1569336656.98573
1569336657.00136
1569336657.01699
1569336657.03261
1569336657.04824
1569336657.06386
1569336657.07949
1569336657.09511
1569336657.11074
1569336657.12637
1569336657.14199
1569336657.15762
1569336657.17324
1569336657.18887
1569336657.20449
1569336657.22012
1569336657.23575
1569336657.25137
1569336657.267
1569336657.28262
1569336657.29825
1569336657.31387
1569336657.3295
1569336657.34513
1569336657.36075
1569336657.37638
1569336657.392
1569336657.40763
1569336657.42325
1569336657.43888
1569336657.45451
1569336657.47013
1569336657.48576
1569336657.50138
1569336657.51701
1569336657.53263
1569336657.54826
1569336657.56389
1569336657.57951
1569336657.59514
1569336657.61076
1569336657.62639
1569336657.64201
1569336657.65764
1569336657.67327
1569336657.68889
1569336657.70452
1569336657.72014
1569336657.73577
1569336657.75139
1569336657.76702
1569336657.78265
1569336657.79827
1569336657.8139
1569336657.82952
1569336657.84515
1569336657.86077
1569336657.8764
1569336657.89203
1569336657.90765
1569336657.92328
1569336657.9389
1569336657.95453
1569336657.97015
1569336657.98578
1569336658.00141
1569336658.01703
1569336658.03266
1569336658.04828
1569336658.06391
1569336658.07953
1569336658.09516
1569336658.11079
1569336658.12641
1569336658.14204
1569336658.15766
1569336658.17329
1569336658.18891
1569336658.20454
1569336658.22017
1569336658.23579
1569336658.25142
1569336658.26704
1569336658.28267
1569336658.29829
1569336658.31392
1569336658.32955
1569336658.34517
1569336658.3608
1569336658.37642
1569336658.39205
1569336658.40767
1569336658.4233
1569336658.43893
1569336658.45455
1569336658.47018
1569336658.4858
1569336658.50143
1569336658.51705
1569336658.53268
1569336658.54831
1569336658.56393
1569336658.57956
1569336658.59518
1569336658.61081
1569336658.62643
1569336658.64206
1569336658.65769
1569336658.67331
1569336658.68894
1569336658.70456
1569336658.72019
1569336658.73581
1569336658.75144
1569336658.76707
1569336658.78269
1569336658.79832
1569336658.81394
1569336658.82957
1569336658.8452
1569336658.86082
1569336658.87645
1569336658.89207
1569336658.9077
1569336658.92332
1569336658.93895
1569336658.95458
1569336658.9702
1569336658.98583
1569336659.00145
1569336659.01708
1569336659.0327
1569336659.04833
1569336659.06396
1569336659.07958
1569336659.09521
1569336659.11083
1569336659.12646
1569336659.14208
1569336659.15771
1569336659.17334
1569336659.18896
1569336659.20459
1569336659.22021
1569336659.23584
1569336659.25146
1569336659.26709
1569336659.28272
1569336659.29834
1569336659.31397
1569336659.32959
1569336659.34522
1569336659.36084
1569336659.37647
1569336659.3921
1569336659.40772
1569336659.42335
1569336659.43897
1569336659.4546
1569336659.47022
1569336659.48585
1569336659.50148
1569336659.5171
1569336659.53273
1569336659.54835
1569336659.56398
1569336659.5796
1569336659.59523
1569336659.61086
1569336659.62648
1569336659.64211
1569336659.65773
1569336659.67336
1569336659.68898
1569336659.70461
1569336659.72024
1569336659.73586
1569336659.75149
1569336659.76711
1569336659.78274
1569336659.79836
1569336659.81399
1569336659.82962
1569336659.84524
1569336659.86087
1569336659.87649
1569336659.89212
1569336659.90774
1569336659.92337
1569336659.939
1569336659.95462
1569336659.97025
1569336659.98587
1569336660.0015
1569336660.01712
1569336660.03275
1569336660.04838
1569336660.064
1569336660.07963
1569336660.09525
1569336660.11088
1569336660.1265
1569336660.14213
1569336660.15776
1569336660.17338
1569336660.18901
1569336660.20463
1569336660.22026
1569336660.23588
1569336660.25151
1569336660.26714
1569336660.28276
1569336660.29839
1569336660.31401
1569336660.32964
1569336660.34526
1569336660.36089
1569336660.37652
1569336660.39214
1569336660.40777
1569336660.42339
1569336660.43902
1569336660.45464
1569336660.47027
1569336660.4859
1569336660.50152
1569336660.51715
1569336660.53277
1569336660.5484
1569336660.56402
1569336660.57965
1569336660.59528
1569336660.6109
1569336660.62653
1569336660.64215
1569336660.65778
1569336660.6734
1569336660.68903
1569336660.70466
1569336660.72028
1569336660.73591
1569336660.75153
1569336660.76716
1569336660.78278
1569336660.79841
1569336660.81404
1569336660.82966
1569336660.84529
1569336660.86091
1569336660.87654
1569336660.89216
1569336660.90779
1569336660.92342
1569336660.93904
1569336660.95467
1569336660.97029
1569336660.98592
1569336661.00154
1569336661.01717
1569336661.0328
1569336661.04842
1569336661.06405
1569336661.07967
1569336661.0953
1569336661.11092
1569336661.12655
1569336661.14218
1569336661.1578
1569336661.17343
1569336661.18905
1569336661.20468
1569336661.2203
1569336661.23593
1569336661.25156
1569336661.26718
1569336661.28281
1569336661.29843
1569336661.31406
1569336661.32968
1569336661.34531
1569336661.36094
1569336661.37656
1569336661.39219
1569336661.40781
1569336661.42344
1569336661.43906
1569336661.45469
1569336661.47032
1569336661.48594
1569336661.50157
1569336661.51719
1569336661.53282
1569336661.54845
1569336661.56407
1569336661.5797
1569336661.59532
1569336661.61095
1569336661.62657
1569336661.6422
1569336661.65783
1569336661.67345
1569336661.68908
1569336661.7047
1569336661.72033
1569336661.73595
1569336661.75158
1569336661.76721
1569336661.78283
1569336661.79846
1569336661.81408
1569336661.82971
1569336661.84533
1569336661.86096
1569336661.87659
1569336661.89221
1569336661.90784
1569336661.92346
1569336661.93909
1569336661.95471
1569336661.97034
1569336661.98597
1569336662.00159
1569336662.01722
1569336662.03284
1569336662.04847
1569336662.06409
1569336662.07972
1569336662.09535
1569336662.11097
1569336662.1266
1569336662.14222
1569336662.15785
1569336662.17347
1569336662.1891
1569336662.20473
1569336662.22035
1569336662.23598
1569336662.2516
1569336662.26723
1569336662.28285
1569336662.29848
1569336662.31411
1569336662.32973
1569336662.34536
1569336662.36098
1569336662.37661
1569336662.39223
1569336662.40786
1569336662.42349
1569336662.43911
1569336662.45474
1569336662.47036
1569336662.48599
1569336662.50161
1569336662.51724
1569336662.53287
1569336662.54849
1569336662.56412
1569336662.57974
1569336662.59537
1569336662.61099
1569336662.62662
1569336662.64225
1569336662.65787
1569336662.6735
1569336662.68912
1569336662.70475
1569336662.72037
1569336662.736
1569336662.75163
1569336662.76725
1569336662.78288
1569336662.7985
1569336662.81413
1569336662.82975
1569336662.84538
1569336662.86101
1569336662.87663
1569336662.89226
1569336662.90788
1569336662.92351
1569336662.93913
1569336662.95476
1569336662.97039
1569336662.98601
1569336663.00164
1569336663.01726
1569336663.03289
1569336663.04851
1569336663.06414
1569336663.07977
1569336663.09539
1569336663.11102
1569336663.12664
1569336663.14227
1569336663.15789
1569336663.17352
1569336663.18915
1569336663.20477
1569336663.2204
1569336663.23602
1569336663.25165
1569336663.26727
1569336663.2829
1569336663.29853
1569336663.31415
1569336663.32978
1569336663.3454
1569336663.36103
1569336663.37665
1569336663.39228
1569336663.40791
1569336663.42353
1569336663.43916
1569336663.45478
1569336663.47041
1569336663.48603
1569336663.50166
1569336663.51729
1569336663.53291
1569336663.54854
1569336663.56416
1569336663.57979
1569336663.59541
1569336663.61104
1569336663.62667
1569336663.64229
1569336663.65792
1569336663.67354
1569336663.68917
1569336663.7048
1569336663.72042
1569336663.73605
1569336663.75167
1569336663.7673
1569336663.78292
1569336663.79855
1569336663.81418
1569336663.8298
1569336663.84543
1569336663.86105
1569336663.87668
1569336663.8923
1569336663.90793
1569336663.92356
1569336663.93918
1569336663.95481
1569336663.97043
1569336663.98606
1569336664.00168
1569336664.01731
1569336664.03294
1569336664.04856
1569336664.06419
1569336664.07981
1569336664.09544
1569336664.11106
1569336664.12669
1569336664.14232
1569336664.15794
1569336664.17357
1569336664.18919
1569336664.20482
1569336664.22044
1569336664.23607
1569336664.2517
1569336664.26732
1569336664.28295
1569336664.29857
1569336664.3142
1569336664.32982
1569336664.34545
1569336664.36108
1569336664.3767
1569336664.39233
1569336664.40795
1569336664.42358
1569336664.4392
1569336664.45483
1569336664.47046
1569336664.48608
1569336664.50171
1569336664.51733
1569336664.53296
1569336664.54858
1569336664.56421
1569336664.57984
1569336664.59546
1569336664.61109
1569336664.62671
1569336664.64234
1569336664.65796
1569336664.67359
1569336664.68922
1569336664.70484
1569336664.72047
1569336664.73609
1569336664.75172
1569336664.76734
1569336664.78297
1569336664.7986
1569336664.81422
1569336664.82985
1569336664.84547
1569336664.8611
1569336664.87672
1569336664.89235
1569336664.90798
1569336664.9236
1569336664.93923
1569336664.95485
1569336664.97048
1569336664.9861
1569336665.00173
1569336665.01736
1569336665.03298
1569336665.04861
1569336665.06423
1569336665.07986
1569336665.09548
1569336665.11111
1569336665.12674
1569336665.14236
1569336665.15799
1569336665.17361
1569336665.18924
1569336665.20486
1569336665.22049
1569336665.23612
1569336665.25174
1569336665.26737
1569336665.28299
1569336665.29862
1569336665.31424
1569336665.32987
1569336665.3455
1569336665.36112
1569336665.37675
1569336665.39237
1569336665.408
1569336665.42362
1569336665.43925
1569336665.45488
1569336665.4705
1569336665.48613
1569336665.50175
1569336665.51738
1569336665.533
1569336665.54863
1569336665.56426
1569336665.57988
1569336665.59551
1569336665.61113
1569336665.62676
1569336665.64238
1569336665.65801
1569336665.67364
1569336665.68926
1569336665.70489
1569336665.72051
1569336665.73614
1569336665.75176
1569336665.76739
1569336665.78302
1569336665.79864
1569336665.81427
1569336665.82989
1569336665.84552
1569336665.86114
1569336665.87677
1569336665.8924
1569336665.90802
1569336665.92365
1569336665.93927
1569336665.9549
1569336665.97053
1569336665.98615
1569336666.00178
1569336666.0174
1569336666.03303
1569336666.04865
1569336666.06428
1569336666.07991
1569336666.09553
1569336666.11116
1569336666.12678
1569336666.14241
1569336666.15803
1569336666.17366
1569336666.18929
1569336666.20491
1569336666.22054
1569336666.23616
1569336666.25179
1569336666.26741
1569336666.28304
1569336666.29867
1569336666.31429
1569336666.32992
1569336666.34554
1569336666.36117
1569336666.37679
1569336666.39242
1569336666.40805
1569336666.42367
1569336666.4393
1569336666.45492
1569336666.47055
1569336666.48617
1569336666.5018
1569336666.51743
1569336666.53305
1569336666.54868
1569336666.5643
1569336666.57993
1569336666.59555
1569336666.61118
1569336666.62681
1569336666.64243
1569336666.65806
1569336666.67368
1569336666.68931
1569336666.70493
1569336666.72056
1569336666.73619
1569336666.75181
1569336666.76744
1569336666.78306
1569336666.79869
1569336666.81431
1569336666.82994
1569336666.84557
1569336666.86119
1569336666.87682
1569336666.89244
1569336666.90807
1569336666.92369
1569336666.93932
1569336666.95495
1569336666.97057
1569336666.9862
1569336667.00182
1569336667.01745
1569336667.03307
1569336667.0487
1569336667.06433
1569336667.07995
1569336667.09558
1569336667.1112
1569336667.12683
1569336667.14245
1569336667.15808
1569336667.17371
1569336667.18933
1569336667.20496
1569336667.22058
1569336667.23621
1569336667.25183
1569336667.26746
1569336667.28309
1569336667.29871
1569336667.31434
1569336667.32996
1569336667.34559
1569336667.36121
1569336667.37684
1569336667.39247
1569336667.40809
1569336667.42372
1569336667.43934
1569336667.45497
1569336667.47059
1569336667.48622
1569336667.50185
1569336667.51747
1569336667.5331
1569336667.54872
1569336667.56435
1569336667.57997
1569336667.5956
1569336667.61123
1569336667.62685
1569336667.64248
1569336667.6581
1569336667.67373
1569336667.68935
1569336667.70498
1569336667.72061
1569336667.73623
1569336667.75186
1569336667.76748
1569336667.78311
1569336667.79873
1569336667.81436
1569336667.82999
1569336667.84561
1569336667.86124
1569336667.87686
1569336667.89249
1569336667.90811
1569336667.92374
1569336667.93937
1569336667.95499
1569336667.97062
1569336667.98624
1569336668.00187
1569336668.01749
1569336668.03312
1569336668.04875
1569336668.06437
1569336668.08
1569336668.09562
1569336668.11125
1569336668.12687
1569336668.1425
1569336668.15813
1569336668.17375
1569336668.18938
1569336668.205
1569336668.22063
1569336668.23625
1569336668.25188
1569336668.26751
1569336668.28313
1569336668.29876
1569336668.31438
1569336668.33001
1569336668.34563
1569336668.36126
1569336668.37689
1569336668.39251
1569336668.40814
1569336668.42376
1569336668.43939
1569336668.45501
1569336668.47064
1569336668.48627
1569336668.50189
1569336668.51752
1569336668.53314
1569336668.54877
1569336668.5644
1569336668.58002
1569336668.59565
1569336668.61127
1569336668.6269
1569336668.64252
1569336668.65815
1569336668.67378
1569336668.6894
1569336668.70503
1569336668.72065
1569336668.73628
1569336668.7519
1569336668.76753
1569336668.78316
1569336668.79878
1569336668.81441
1569336668.83003
1569336668.84566
1569336668.86128
1569336668.87691
1569336668.89254
1569336668.90816
1569336668.92379
1569336668.93941
1569336668.95504
1569336668.97066
1569336668.98629
1569336669.00192
1569336669.01754
1569336669.03317
1569336669.04879
1569336669.06442
1569336669.08004
1569336669.09567
1569336669.1113
1569336669.12692
1569336669.14255
1569336669.15817
1569336669.1738
1569336669.18942
1569336669.20505
1569336669.22068
1569336669.2363
1569336669.25193
1569336669.26755
1569336669.28318
1569336669.2988
1569336669.31443
1569336669.33006
1569336669.34568
1569336669.36131
1569336669.37693
1569336669.39256
1569336669.40818
1569336669.42381
1569336669.43944
1569336669.45506
1569336669.47069
1569336669.48631
1569336669.50194
1569336669.51756
1569336669.53319
1569336669.54882
1569336669.56444
1569336669.58007
1569336669.59569
1569336669.61132
1569336669.62694
1569336669.64257
1569336669.6582
1569336669.67382
1569336669.68945
1569336669.70507
1569336669.7207
1569336669.73632
1569336669.75195
1569336669.76758
1569336669.7832
1569336669.79883
1569336669.81445
1569336669.83008
1569336669.8457
1569336669.86133
1569336669.87696
1569336669.89258
1569336669.90821
1569336669.92383
1569336669.93946
1569336669.95508
1569336669.97071
1569336669.98634
1569336670.00196
1569336670.01759
1569336670.03321
1569336670.04884
1569336670.06446
1569336670.08009
1569336670.09572
1569336670.11134
1569336670.12697
1569336670.14259
1569336670.15822
1569336670.17384
1569336670.18947
1569336670.2051
1569336670.22072
1569336670.23635
1569336670.25197
1569336670.2676
1569336670.28322
1569336670.29885
1569336670.31448
1569336670.3301
1569336670.34573
1569336670.36135
1569336670.37698
1569336670.3926
1569336670.40823
1569336670.42386
1569336670.43948
1569336670.45511
1569336670.47073
1569336670.48636
1569336670.50198
1569336670.51761
1569336670.53324
1569336670.54886
1569336670.56449
1569336670.58011
1569336670.59574
1569336670.61136
1569336670.62699
1569336670.64262
1569336670.65824
1569336670.67387
1569336670.68949
1569336670.70512
1569336670.72074
1569336670.73637
1569336670.752
1569336670.76762
1569336670.78325
1569336670.79887
1569336670.8145
1569336670.83013
1569336670.84575
1569336670.86138
1569336670.877
1569336670.89263
1569336670.90825
1569336670.92388
1569336670.93951
1569336670.95513
1569336670.97076
1569336670.98638
1569336671.00201
1569336671.01763
1569336671.03326
1569336671.04889
1569336671.06451
1569336671.08014
1569336671.09576
1569336671.11139
1569336671.12701
1569336671.14264
1569336671.15827
1569336671.17389
1569336671.18952
1569336671.20514
1569336671.22077
1569336671.23639
1569336671.25202
1569336671.26765
1569336671.28327
1569336671.2989
1569336671.31452
1569336671.33015
1569336671.34577
1569336671.3614
1569336671.37703
1569336671.39265
1569336671.40828
1569336671.4239
1569336671.43953
1569336671.45515
1569336671.47078
1569336671.48641
1569336671.50203
1569336671.51766
1569336671.53328
1569336671.54891
1569336671.56453
1569336671.58016
1569336671.59579
1569336671.61141
1569336671.62704
1569336671.64266
1569336671.65829
1569336671.67391
1569336671.68954
1569336671.70517
1569336671.72079
1569336671.73642
1569336671.75204
1569336671.76767
1569336671.78329
1569336671.79892
1569336671.81455
1569336671.83017
1569336671.8458
1569336671.86142
1569336671.87705
1569336671.89267
1569336671.9083
1569336671.92393
1569336671.93955
1569336671.95518
1569336671.9708
1569336671.98643
1569336672.00205
1569336672.01768
1569336672.03331
1569336672.04893
1569336672.06456
1569336672.08018
1569336672.09581
1569336672.11143
1569336672.12706
1569336672.14269
1569336672.15831
1569336672.17394
1569336672.18956
1569336672.20519
1569336672.22081
1569336672.23644
1569336672.25207
1569336672.26769
1569336672.28332
1569336672.29894
1569336672.31457
1569336672.33019
1569336672.34582
1569336672.36145
1569336672.37707
1569336672.3927
1569336672.40832
1569336672.42395
1569336672.43957
1569336672.4552
1569336672.47083
1569336672.48645
1569336672.50208
1569336672.5177
1569336672.53333
1569336672.54895
1569336672.56458
1569336672.58021
1569336672.59583
1569336672.61146
1569336672.62708
1569336672.64271
1569336672.65833
1569336672.67396
1569336672.68959
1569336672.70521
1569336672.72084
1569336672.73646
1569336672.75209
1569336672.76771
1569336672.78334
1569336672.79897
1569336672.81459
1569336672.83022
1569336672.84584
1569336672.86147
1569336672.87709
1569336672.89272
1569336672.90835
1569336672.92397
1569336672.9396
1569336672.95522
1569336672.97085
1569336672.98647
1569336673.0021
1569336673.01773
1569336673.03335
1569336673.04898
1569336673.0646
1569336673.08023
1569336673.09586
1569336673.11148
1569336673.12711
1569336673.14273
1569336673.15836
1569336673.17398
1569336673.18961
1569336673.20524
1569336673.22086
1569336673.23649
1569336673.25211
1569336673.26774
1569336673.28336
1569336673.29899
1569336673.31462
1569336673.33024
1569336673.34587
1569336673.36149
1569336673.37712
1569336673.39274
1569336673.40837
1569336673.424
1569336673.43962
1569336673.45525
1569336673.47087
1569336673.4865
1569336673.50212
1569336673.51775
1569336673.53338
1569336673.549
1569336673.56463
1569336673.58025
1569336673.59588
1569336673.6115
1569336673.62713
1569336673.64276
1569336673.65838
1569336673.67401
1569336673.68963
1569336673.70526
1569336673.72088
1569336673.73651
1569336673.75214
1569336673.76776
1569336673.78339
1569336673.79901
1569336673.81464
1569336673.83026
1569336673.84589
1569336673.86152
1569336673.87714
1569336673.89277
1569336673.90839
1569336673.92402
1569336673.93964
1569336673.95527
1569336673.9709
1569336673.98652
1569336674.00215
1569336674.01777
1569336674.0334
1569336674.04902
1569336674.06465
1569336674.08028
1569336674.0959
1569336674.11153
1569336674.12715
1569336674.14278
1569336674.1584
1569336674.17403
1569336674.18966
1569336674.20528
1569336674.22091
1569336674.23653
1569336674.25216
1569336674.26778
1569336674.28341
1569336674.29904
1569336674.31466
1569336674.33029
1569336674.34591
1569336674.36154
1569336674.37716
1569336674.39279
1569336674.40842
1569336674.42404
1569336674.43967
1569336674.45529
1569336674.47092
1569336674.48654
1569336674.50217
1569336674.5178
1569336674.53342
1569336674.54905
1569336674.56467
1569336674.5803
1569336674.59592
1569336674.61155
1569336674.62718
1569336674.6428
1569336674.65843
1569336674.67405
1569336674.68968
1569336674.7053
1569336674.72093
1569336674.73656
1569336674.75218
1569336674.76781
1569336674.78343
1569336674.79906
1569336674.81468
1569336674.83031
1569336674.84594
1569336674.86156
1569336674.87719
1569336674.89281
1569336674.90844
1569336674.92406
1569336674.93969
1569336674.95532
1569336674.97094
1569336674.98657
1569336675.00219
1569336675.01782
1569336675.03344
1569336675.04907
1569336675.0647
1569336675.08032
1569336675.09595
1569336675.11157
1569336675.1272
1569336675.14282
1569336675.15845
1569336675.17408
1569336675.1897
1569336675.20533
1569336675.22095
1569336675.23658
1569336675.2522
1569336675.26783
1569336675.28346
1569336675.29908
1569336675.31471
1569336675.33033
1569336675.34596
1569336675.36158
1569336675.37721
1569336675.39284
1569336675.40846
1569336675.42409
1569336675.43971
1569336675.45534
1569336675.47096
1569336675.48659
1569336675.50222
1569336675.51784
1569336675.53347
1569336675.54909
1569336675.56472
1569336675.58034
1569336675.59597
1569336675.6116
1569336675.62722
1569336675.64285
1569336675.65847
1569336675.6741
1569336675.68973
1569336675.70535
1569336675.72098
1569336675.7366
1569336675.75223
1569336675.76785
1569336675.78348
1569336675.79911
1569336675.81473
1569336675.83036
1569336675.84598
1569336675.86161
1569336675.87723
1569336675.89286
1569336675.90849
1569336675.92411
1569336675.93974
1569336675.95536
1569336675.97099
1569336675.98661
1569336676.00224
1569336676.01787
1569336676.03349
1569336676.04912
1569336676.06474
1569336676.08037
1569336676.09599
1569336676.11162
1569336676.12725
1569336676.14287
1569336676.1585
1569336676.17412
1569336676.18975
1569336676.20537
1569336676.221
1569336676.23663
1569336676.25225
1569336676.26788
1569336676.2835
1569336676.29913
1569336676.31475
1569336676.33038
1569336676.34601
1569336676.36163
1569336676.37726
1569336676.39288
1569336676.40851
1569336676.42413
1569336676.43976
1569336676.45539
1569336676.47101
1569336676.48664
1569336676.50226
1569336676.51789
1569336676.53351
1569336676.54914
1569336676.56477
1569336676.58039
1569336676.59602
1569336676.61164
1569336676.62727
1569336676.64289
1569336676.65852
1569336676.67415
1569336676.68977
1569336676.7054
1569336676.72102
1569336676.73665
1569336676.75227
1569336676.7679
1569336676.78353
1569336676.79915
1569336676.81478
1569336676.8304
1569336676.84603
1569336676.86165
1569336676.87728
1569336676.89291
1569336676.90853
1569336676.92416
1569336676.93978
1569336676.95541
1569336676.97103
1569336676.98666
1569336677.00229
1569336677.01791
1569336677.03354
1569336677.04916
1569336677.06479
1569336677.08041
1569336677.09604
1569336677.11167
1569336677.12729
1569336677.14292
1569336677.15854
1569336677.17417
1569336677.18979
1569336677.20542
1569336677.22105
1569336677.23667
1569336677.2523
1569336677.26792
1569336677.28355
1569336677.29917
1569336677.3148
1569336677.33043
1569336677.34605
1569336677.36168
1569336677.3773
1569336677.39293
1569336677.40855
1569336677.42418
1569336677.43981
1569336677.45543
1569336677.47106
1569336677.48668
1569336677.50231
1569336677.51793
1569336677.53356
1569336677.54919
1569336677.56481
1569336677.58044
1569336677.59606
1569336677.61169
1569336677.62731
1569336677.64294
1569336677.65857
1569336677.67419
1569336677.68982
1569336677.70544
1569336677.72107
1569336677.73669
1569336677.75232
1569336677.76795
1569336677.78357
1569336677.7992
1569336677.81482
1569336677.83045
1569336677.84608
1569336677.8617
1569336677.87733
1569336677.89295
1569336677.90858
1569336677.9242
1569336677.93983
1569336677.95546
1569336677.97108
1569336677.98671
1569336678.00233
1569336678.01796
1569336678.03358
1569336678.04921
1569336678.06484
1569336678.08046
1569336678.09609
1569336678.11171
1569336678.12734
1569336678.14296
1569336678.15859
1569336678.17422
1569336678.18984
1569336678.20547
1569336678.22109
1569336678.23672
1569336678.25234
1569336678.26797
1569336678.2836
1569336678.29922
1569336678.31485
1569336678.33047
1569336678.3461
1569336678.36172
1569336678.37735
1569336678.39298
1569336678.4086
1569336678.42423
1569336678.43985
1569336678.45548
1569336678.4711
1569336678.48673
1569336678.50236
1569336678.51798
1569336678.53361
1569336678.54923
1569336678.56486
1569336678.58048
1569336678.59611
1569336678.61174
1569336678.62736
1569336678.64299
1569336678.65861
1569336678.67424
1569336678.68986
1569336678.70549
1569336678.72112
1569336678.73674
1569336678.75237
1569336678.76799
1569336678.78362
1569336678.79924
1569336678.81487
1569336678.8305
1569336678.84612
1569336678.86175
1569336678.87737
1569336678.893
1569336678.90862
1569336678.92425
1569336678.93988
1569336678.9555
1569336678.97113
1569336678.98675
1569336679.00238
1569336679.018
1569336679.03363
1569336679.04926
1569336679.06488
1569336679.08051
1569336679.09613
1569336679.11176
1569336679.12738
1569336679.14301
1569336679.15864
1569336679.17426
1569336679.18989
1569336679.20551
1569336679.22114
1569336679.23676
1569336679.25239
1569336679.26802
1569336679.28364
1569336679.29927
1569336679.31489
1569336679.33052
1569336679.34614
1569336679.36177
1569336679.3774
1569336679.39302
1569336679.40865
1569336679.42427
1569336679.4399
1569336679.45552
1569336679.47115
1569336679.48678
1569336679.5024
1569336679.51803
1569336679.53365
1569336679.54928
1569336679.5649
1569336679.58053
1569336679.59616
1569336679.61178
1569336679.62741
1569336679.64303
1569336679.65866
1569336679.67428
1569336679.68991
1569336679.70554
1569336679.72116
1569336679.73679
1569336679.75241
1569336679.76804
1569336679.78366
1569336679.79929
1569336679.81492
1569336679.83054
1569336679.84617
1569336679.86179
1569336679.87742
1569336679.89304
1569336679.90867
1569336679.9243
1569336679.93992
1569336679.95555
1569336679.97117
1569336679.9868
1569336680.00242
1569336680.01805
1569336680.03368
1569336680.0493
1569336680.06493
1569336680.08055
1569336680.09618
1569336680.1118
1569336680.12743
1569336680.14306
1569336680.15868
1569336680.17431
1569336680.18993
1569336680.20556
1569336680.22118
1569336680.23681
1569336680.25244
1569336680.26806
1569336680.28369
1569336680.29931
1569336680.31494
1569336680.33056
1569336680.34619
1569336680.36182
1569336680.37744
1569336680.39307
1569336680.40869
1569336680.42432
1569336680.43994
1569336680.45557
1569336680.4712
1569336680.48682
1569336680.50245
1569336680.51807
1569336680.5337
1569336680.54933
1569336680.56495
1569336680.58058
1569336680.5962
1569336680.61183
1569336680.62745
1569336680.64308
1569336680.65871
1569336680.67433
1569336680.68996
1569336680.70558
1569336680.72121
1569336680.73683
1569336680.75246
1569336680.76809
1569336680.78371
1569336680.79934
1569336680.81496
1569336680.83059
1569336680.84621
1569336680.86184
1569336680.87747
1569336680.89309
1569336680.90872
1569336680.92434
1569336680.93997
1569336680.95559
1569336680.97122
1569336680.98685
1569336681.00247
1569336681.0181
1569336681.03372
1569336681.04935
1569336681.06497
1569336681.0806
1569336681.09623
1569336681.11185
1569336681.12748
1569336681.1431
1569336681.15873
1569336681.17435
1569336681.18998
1569336681.20561
1569336681.22123
1569336681.23686
1569336681.25248
1569336681.26811
1569336681.28373
1569336681.29936
1569336681.31499
1569336681.33061
1569336681.34624
1569336681.36186
1569336681.37749
1569336681.39311
1569336681.40874
1569336681.42437
1569336681.43999
1569336681.45562
1569336681.47124
1569336681.48687
1569336681.50249
1569336681.51812
1569336681.53375
1569336681.54937
1569336681.565
1569336681.58062
1569336681.59625
1569336681.61187
1569336681.6275
1569336681.64313
1569336681.65875
1569336681.67438
1569336681.69
1569336681.70563
1569336681.72125
1569336681.73688
1569336681.75251
1569336681.76813
1569336681.78376
1569336681.79938
1569336681.81501
1569336681.83063
1569336681.84626
1569336681.86189
1569336681.87751
1569336681.89314
1569336681.90876
1569336681.92439
1569336681.94001
1569336681.95564
1569336681.97127
1569336681.98689
1569336682.00252
1569336682.01814
1569336682.03377
1569336682.04939
1569336682.06502
1569336682.08065
1569336682.09627
1569336682.1119
1569336682.12752
1569336682.14315
1569336682.15877
1569336682.1744
1569336682.19003
1569336682.20565
1569336682.22128
1569336682.2369
1569336682.25253
1569336682.26815
1569336682.28378
1569336682.29941
1569336682.31503
1569336682.33066
1569336682.34628
1569336682.36191
1569336682.37753
1569336682.39316
1569336682.40879
1569336682.42441
1569336682.44004
1569336682.45566
1569336682.47129
1569336682.48691
1569336682.50254
1569336682.51817
1569336682.53379
1569336682.54942
1569336682.56504
1569336682.58067
1569336682.59629
1569336682.61192
1569336682.62755
1569336682.64317
1569336682.6588
1569336682.67442
1569336682.69005
1569336682.70567
1569336682.7213
1569336682.73693
1569336682.75255
1569336682.76818
1569336682.7838
1569336682.79943
1569336682.81506
1569336682.83068
1569336682.84631
1569336682.86193
1569336682.87756
1569336682.89318
1569336682.90881
1569336682.92444
1569336682.94006
1569336682.95569
1569336682.97131
1569336682.98694
1569336683.00256
1569336683.01819
1569336683.03382
1569336683.04944
1569336683.06507
1569336683.08069
1569336683.09632
1569336683.11194
1569336683.12757
1569336683.1432
1569336683.15882
1569336683.17445
1569336683.19007
1569336683.2057
1569336683.22132
1569336683.23695
1569336683.25258
1569336683.2682
1569336683.28383
1569336683.29945
1569336683.31508
1569336683.3307
1569336683.34633
1569336683.36196
1569336683.37758
1569336683.39321
1569336683.40883
1569336683.42446
1569336683.44008
1569336683.45571
1569336683.47134
1569336683.48696
1569336683.50259
1569336683.51821
1569336683.53384
1569336683.54946
1569336683.56509
1569336683.58072
1569336683.59634
1569336683.61197
1569336683.62759
1569336683.64322
1569336683.65884
1569336683.67447
1569336683.6901
1569336683.70572
1569336683.72135
1569336683.73697
1569336683.7526
1569336683.76822
1569336683.78385
1569336683.79948
1569336683.8151
1569336683.83073
1569336683.84635
1569336683.86198
1569336683.8776
1569336683.89323
1569336683.90886
1569336683.92448
1569336683.94011
1569336683.95573
1569336683.97136
1569336683.98698
1569336684.00261
1569336684.01824
1569336684.03386
1569336684.04949
1569336684.06511
1569336684.08074
1569336684.09636
1569336684.11199
1569336684.12762
1569336684.14324
1569336684.15887
1569336684.17449
1569336684.19012
1569336684.20574
1569336684.22137
1569336684.237
1569336684.25262
1569336684.26825
1569336684.28387
1569336684.2995
1569336684.31512
1569336684.33075
1569336684.34638
1569336684.362
1569336684.37763
1569336684.39325
1569336684.40888
1569336684.4245
1569336684.44013
1569336684.45576
1569336684.47138
1569336684.48701
1569336684.50263
1569336684.51826
1569336684.53388
1569336684.54951
1569336684.56514
1569336684.58076
1569336684.59639
1569336684.61201
1569336684.62764
1569336684.64326
1569336684.65889
1569336684.67452
1569336684.69014
1569336684.70577
1569336684.72139
1569336684.73702
1569336684.75264
1569336684.76827
1569336684.7839
1569336684.79952
1569336684.81515
1569336684.83077
1569336684.8464
1569336684.86202
1569336684.87765
1569336684.89328
1569336684.9089
1569336684.92453
1569336684.94015
1569336684.95578
1569336684.97141
1569336684.98703
1569336685.00266
1569336685.01828
1569336685.03391
1569336685.04953
1569336685.06516
1569336685.08079
1569336685.09641
1569336685.11204
1569336685.12766
1569336685.14329
1569336685.15891
1569336685.17454
1569336685.19017
1569336685.20579
1569336685.22142
1569336685.23704
1569336685.25267
1569336685.26829
1569336685.28392
1569336685.29955
1569336685.31517
1569336685.3308
1569336685.34642
1569336685.36205
1569336685.37767
1569336685.3933
1569336685.40893
1569336685.42455
1569336685.44018
1569336685.4558
1569336685.47143
1569336685.48705
1569336685.50268
1569336685.51831
1569336685.53393
1569336685.54956
1569336685.56518
1569336685.58081
1569336685.59643
1569336685.61206
1569336685.62769
1569336685.64331
1569336685.65894
1569336685.67456
1569336685.69019
1569336685.70581
1569336685.72144
1569336685.73707
1569336685.75269
1569336685.76832
1569336685.78394
1569336685.79957
1569336685.81519
1569336685.83082
1569336685.84645
1569336685.86207
1569336685.8777
1569336685.89332
1569336685.90895
1569336685.92457
1569336685.9402
1569336685.95583
1569336685.97145
1569336685.98708
1569336686.0027
1569336686.01833
1569336686.03395
1569336686.04958
1569336686.06521
1569336686.08083
1569336686.09646
1569336686.11208
1569336686.12771
1569336686.14333
1569336686.15896
1569336686.17459
1569336686.19021
1569336686.20584
1569336686.22146
1569336686.23709
1569336686.25271
1569336686.26834
1569336686.28397
1569336686.29959
1569336686.31522
1569336686.33084
1569336686.34647
1569336686.36209
1569336686.37772
1569336686.39335
1569336686.40897
1569336686.4246
1569336686.44022
1569336686.45585
1569336686.47147
1569336686.4871
1569336686.50273
1569336686.51835
1569336686.53398
1569336686.5496
1569336686.56523
1569336686.58085
1569336686.59648
1569336686.61211
1569336686.62773
1569336686.64336
1569336686.65898
1569336686.67461
1569336686.69023
1569336686.70586
1569336686.72149
1569336686.73711
1569336686.75274
1569336686.76836
1569336686.78399
1569336686.79961
1569336686.81524
1569336686.83087
1569336686.84649
1569336686.86212
1569336686.87774
1569336686.89337
1569336686.90899
1569336686.92462
1569336686.94025
1569336686.95587
1569336686.9715
1569336686.98712
1569336687.00275
1569336687.01837
1569336687.034
1569336687.04963
1569336687.06525
1569336687.08088
1569336687.0965
1569336687.11213
1569336687.12775
1569336687.14338
1569336687.15901
1569336687.17463
1569336687.19026
1569336687.20588
1569336687.22151
1569336687.23713
1569336687.25276
1569336687.26839
1569336687.28401
1569336687.29964
1569336687.31526
1569336687.33089
1569336687.34651
1569336687.36214
1569336687.37777
1569336687.39339
1569336687.40902
1569336687.42464
1569336687.44027
1569336687.45589
1569336687.47152
1569336687.48715
1569336687.50277
1569336687.5184
1569336687.53402
1569336687.54965
1569336687.56527
1569336687.5809
1569336687.59653
1569336687.61215
1569336687.62778
1569336687.6434
1569336687.65903
1569336687.67466
1569336687.69028
1569336687.70591
1569336687.72153
1569336687.73716
1569336687.75278
1569336687.76841
1569336687.78404
1569336687.79966
1569336687.81529
1569336687.83091
1569336687.84654
1569336687.86216
1569336687.87779
1569336687.89342
1569336687.90904
1569336687.92467
1569336687.94029
1569336687.95592
1569336687.97154
1569336687.98717
1569336688.0028
1569336688.01842
1569336688.03405
1569336688.04967
1569336688.0653
1569336688.08092
1569336688.09655
1569336688.11218
1569336688.1278
1569336688.14343
1569336688.15905
1569336688.17468
1569336688.1903
1569336688.20593
1569336688.22156
1569336688.23718
1569336688.25281
1569336688.26843
1569336688.28406
1569336688.29968
1569336688.31531
1569336688.33094
1569336688.34656
1569336688.36219
1569336688.37781
1569336688.39344
1569336688.40906
1569336688.42469
1569336688.44032
1569336688.45594
1569336688.47157
1569336688.48719
1569336688.50282
1569336688.51844
1569336688.53407
1569336688.5497
1569336688.56532
1569336688.58095
1569336688.59657
1569336688.6122
1569336688.62782
1569336688.64345
1569336688.65908
1569336688.6747
1569336688.69033
1569336688.70595
1569336688.72158
1569336688.7372
1569336688.75283
1569336688.76846
1569336688.78408
1569336688.79971
1569336688.81533
1569336688.83096
1569336688.84658
1569336688.86221
1569336688.87784
1569336688.89346
1569336688.90909
1569336688.92471
1569336688.94034
1569336688.95596
1569336688.97159
1569336688.98722
1569336689.00284
1569336689.01847
1569336689.03409
1569336689.04972
1569336689.06534
1569336689.08097
1569336689.0966
1569336689.11222
1569336689.12785
1569336689.14347
1569336689.1591
1569336689.17472
1569336689.19035
1569336689.20598
1569336689.2216
1569336689.23723
1569336689.25285
1569336689.26848
1569336689.2841
1569336689.29973
1569336689.31536
1569336689.33098
1569336689.34661
1569336689.36223
1569336689.37786
1569336689.39348
1569336689.40911
1569336689.42474
1569336689.44036
1569336689.45599
1569336689.47161
1569336689.48724
1569336689.50286
1569336689.51849
1569336689.53412
1569336689.54974
1569336689.56537
1569336689.58099
1569336689.59662
1569336689.61224
1569336689.62787
1569336689.6435
1569336689.65912
1569336689.67475
1569336689.69037
1569336689.706
1569336689.72162
1569336689.73725
1569336689.75288
1569336689.7685
1569336689.78413
1569336689.79975
1569336689.81538
1569336689.83101
1569336689.84663
1569336689.86226
1569336689.87788
1569336689.89351
1569336689.90913
1569336689.92476
1569336689.94039
1569336689.95601
1569336689.97164
1569336689.98726
1569336690.00289
1569336690.01851
1569336690.03414
1569336690.04977
1569336690.06539
1569336690.08102
1569336690.09664
1569336690.11227
1569336690.12789
1569336690.14352
1569336690.15915
1569336690.17477
1569336690.1904
1569336690.20602
1569336690.22165
1569336690.23727
1569336690.2529
1569336690.26853
1569336690.28415
1569336690.29978
1569336690.3154
1569336690.33103
1569336690.34665
1569336690.36228
1569336690.37791
1569336690.39353
1569336690.40916
1569336690.42478
1569336690.44041
1569336690.45603
1569336690.47166
1569336690.48729
1569336690.50291
1569336690.51854
1569336690.53416
1569336690.54979
1569336690.56541
1569336690.58104
1569336690.59667
1569336690.61229
1569336690.62792
1569336690.64354
1569336690.65917
1569336690.67479
1569336690.69042
1569336690.70605
1569336690.72167
1569336690.7373
1569336690.75292
1569336690.76855
1569336690.78417
1569336690.7998
1569336690.81543
1569336690.83105
1569336690.84668
1569336690.8623
1569336690.87793
1569336690.89355
1569336690.90918
1569336690.92481
1569336690.94043
1569336690.95606
1569336690.97168
1569336690.98731
1569336691.00293
1569336691.01856
1569336691.03419
1569336691.04981
1569336691.06544
1569336691.08106
1569336691.09669
1569336691.11231
1569336691.12794
1569336691.14357
1569336691.15919
1569336691.17482
1569336691.19044
1569336691.20607
1569336691.22169
1569336691.23732
1569336691.25295
1569336691.26857
1569336691.2842
1569336691.29982
1569336691.31545
1569336691.33107
1569336691.3467
1569336691.36233
1569336691.37795
1569336691.39358
1569336691.4092
1569336691.42483
1569336691.44045
1569336691.45608
1569336691.47171
1569336691.48733
1569336691.50296
1569336691.51858
1569336691.53421
1569336691.54983
1569336691.56546
1569336691.58109
1569336691.59671
1569336691.61234
1569336691.62796
1569336691.64359
1569336691.65921
1569336691.67484
1569336691.69047
1569336691.70609
1569336691.72172
1569336691.73734
1569336691.75297
1569336691.76859
1569336691.78422
1569336691.79985
1569336691.81547
1569336691.8311
1569336691.84672
1569336691.86235
1569336691.87797
1569336691.8936
1569336691.90923
1569336691.92485
1569336691.94048
1569336691.9561
1569336691.97173
1569336691.98735
1569336692.00298
1569336692.01861
1569336692.03423
1569336692.04986
1569336692.06548
1569336692.08111
1569336692.09674
1569336692.11236
1569336692.12799
1569336692.14361
1569336692.15924
1569336692.17486
1569336692.19049
1569336692.20612
1569336692.22174
1569336692.23737
1569336692.25299
1569336692.26862
1569336692.28424
1569336692.29987
1569336692.3155
1569336692.33112
1569336692.34675
1569336692.36237
1569336692.378
1569336692.39362
1569336692.40925
1569336692.42488
1569336692.4405
1569336692.45613
1569336692.47175
1569336692.48738
1569336692.503
1569336692.51863
1569336692.53426
1569336692.54988
1569336692.56551
1569336692.58113
1569336692.59676
1569336692.61238
1569336692.62801
1569336692.64364
1569336692.65926
1569336692.67489
1569336692.69051
1569336692.70614
1569336692.72176
1569336692.73739
1569336692.75302
1569336692.76864
1569336692.78427
1569336692.79989
1569336692.81552
1569336692.83114
1569336692.84677
1569336692.8624
1569336692.87802
1569336692.89365
1569336692.90927
1569336692.9249
1569336692.94052
1569336692.95615
1569336692.97178
1569336692.9874
1569336693.00303
1569336693.01865
1569336693.03428
1569336693.0499
1569336693.06553
1569336693.08116
1569336693.09678
1569336693.11241
1569336693.12803
1569336693.14366
1569336693.15928
1569336693.17491
1569336693.19054
1569336693.20616
1569336693.22179
1569336693.23741
1569336693.25304
1569336693.26866
1569336693.28429
1569336693.29992
1569336693.31554
1569336693.33117
1569336693.34679
1569336693.36242
1569336693.37804
1569336693.39367
1569336693.4093
1569336693.42492
1569336693.44055
1569336693.45617
1569336693.4718
1569336693.48742
1569336693.50305
1569336693.51868
1569336693.5343
1569336693.54993
1569336693.56555
1569336693.58118
1569336693.5968
1569336693.61243
1569336693.62806
1569336693.64368
1569336693.65931
1569336693.67493
1569336693.69056
1569336693.70618
1569336693.72181
1569336693.73744
1569336693.75306
1569336693.76869
1569336693.78431
1569336693.79994
1569336693.81556
1569336693.83119
1569336693.84682
1569336693.86244
1569336693.87807
1569336693.89369
1569336693.90932
1569336693.92494
1569336693.94057
1569336693.9562
1569336693.97182
1569336693.98745
1569336694.00307
1569336694.0187
1569336694.03432
1569336694.04995
1569336694.06558
1569336694.0812
1569336694.09683
1569336694.11245
1569336694.12808
1569336694.1437
1569336694.15933
1569336694.17496
1569336694.19058
1569336694.20621
1569336694.22183
1569336694.23746
1569336694.25308
1569336694.26871
1569336694.28434
1569336694.29996
1569336694.31559
1569336694.33121
1569336694.34684
1569336694.36246
1569336694.37809
1569336694.39372
1569336694.40934
1569336694.42497
1569336694.44059
1569336694.45622
1569336694.47184
1569336694.48747
1569336694.5031
1569336694.51872
1569336694.53435
1569336694.54997
1569336694.5656
1569336694.58122
1569336694.59685
1569336694.61248
1569336694.6281
1569336694.64373
1569336694.65935
1569336694.67498
1569336694.69061
1569336694.70623
1569336694.72186
1569336694.73748
1569336694.75311
1569336694.76873
1569336694.78436
1569336694.79999
1569336694.81561
1569336694.83124
1569336694.84686
1569336694.86249
1569336694.87811
1569336694.89374
1569336694.90937
1569336694.92499
1569336694.94062
1569336694.95624
1569336694.97187
1569336694.98749
1569336695.00312
1569336695.01875
1569336695.03437
1569336695.05
1569336695.06562
1569336695.08125
1569336695.09687
1569336695.1125
1569336695.12813
1569336695.14375
1569336695.15938
1569336695.175
1569336695.19063
1569336695.20625
1569336695.22188
1569336695.23751
1569336695.25313
1569336695.26876
1569336695.28438
1569336695.30001
1569336695.31563
1569336695.33126
1569336695.34689
1569336695.36251
1569336695.37814
1569336695.39376
1569336695.40939
1569336695.42501
1569336695.44064
1569336695.45627
1569336695.47189
1569336695.48752
1569336695.50314
1569336695.51877
1569336695.53439
1569336695.55002
1569336695.56565
1569336695.58127
1569336695.5969
1569336695.61252
1569336695.62815
1569336695.64377
1569336695.6594
1569336695.67503
1569336695.69065
1569336695.70628
1569336695.7219
1569336695.73753
1569336695.75315
1569336695.76878
1569336695.78441
1569336695.80003
1569336695.81566
1569336695.83128
1569336695.84691
1569336695.86253
1569336695.87816
1569336695.89379
1569336695.90941
1569336695.92504
1569336695.94066
1569336695.95629
1569336695.97191
1569336695.98754
1569336696.00317
1569336696.01879
1569336696.03442
1569336696.05004
1569336696.06567
1569336696.08129
1569336696.09692
1569336696.11255
1569336696.12817
1569336696.1438
1569336696.15942
1569336696.17505
1569336696.19067
1569336696.2063
1569336696.22193
1569336696.23755
1569336696.25318
1569336696.2688
1569336696.28443
1569336696.30005
1569336696.31568
1569336696.33131
1569336696.34693
1569336696.36256
1569336696.37818
1569336696.39381
1569336696.40943
1569336696.42506
1569336696.44069
1569336696.45631
1569336696.47194
1569336696.48756
1569336696.50319
1569336696.51881
1569336696.53444
1569336696.55007
1569336696.56569
1569336696.58132
1569336696.59694
1569336696.61257
1569336696.62819
1569336696.64382
1569336696.65945
1569336696.67507
1569336696.6907
1569336696.70632
1569336696.72195
1569336696.73757
1569336696.7532
1569336696.76883
1569336696.78445
1569336696.80008
1569336696.8157
1569336696.83133
1569336696.84695
1569336696.86258
1569336696.87821
1569336696.89383
1569336696.90946
1569336696.92508
1569336696.94071
1569336696.95634
1569336696.97196
1569336696.98759
1569336697.00321
1569336697.01884
1569336697.03446
1569336697.05009
1569336697.06572
1569336697.08134
1569336697.09697
1569336697.11259
1569336697.12822
1569336697.14384
1569336697.15947
1569336697.1751
1569336697.19072
1569336697.20635
1569336697.22197
1569336697.2376
1569336697.25322
1569336697.26885
1569336697.28448
1569336697.3001
1569336697.31573
1569336697.33135
1569336697.34698
1569336697.3626
1569336697.37823
1569336697.39386
1569336697.40948
1569336697.42511
1569336697.44073
1569336697.45636
1569336697.47198
1569336697.48761
1569336697.50324
1569336697.51886
1569336697.53449
1569336697.55011
1569336697.56574
1569336697.58136
1569336697.59699
1569336697.61262
1569336697.62824
1569336697.64387
1569336697.65949
1569336697.67512
1569336697.69074
1569336697.70637
1569336697.722
1569336697.73762
1569336697.75325
1569336697.76887
1569336697.7845
1569336697.80012
1569336697.81575
1569336697.83138
1569336697.847
1569336697.86263
1569336697.87825
1569336697.89388
1569336697.9095
1569336697.92513
1569336697.94076
1569336697.95638
1569336697.97201
1569336697.98763
1569336698.00326
1569336698.01888
1569336698.03451
1569336698.05014
1569336698.06576
1569336698.08139
1569336698.09701
1569336698.11264
1569336698.12826
1569336698.14389
1569336698.15952
1569336698.17514
1569336698.19077
1569336698.20639
1569336698.22202
1569336698.23764
1569336698.25327
1569336698.2689
1569336698.28452
1569336698.30015
1569336698.31577
1569336698.3314
1569336698.34702
1569336698.36265
1569336698.37828
1569336698.3939
1569336698.40953
1569336698.42515
1569336698.44078
1569336698.4564
1569336698.47203
1569336698.48766
1569336698.50328
1569336698.51891
1569336698.53453
1569336698.55016
1569336698.56578
1569336698.58141
1569336698.59704
1569336698.61266
1569336698.62829
1569336698.64391
1569336698.65954
1569336698.67516
1569336698.69079
1569336698.70642
1569336698.72204
1569336698.73767
1569336698.75329
1569336698.76892
1569336698.78454
1569336698.80017
1569336698.8158
1569336698.83142
1569336698.84705
1569336698.86267
1569336698.8783
1569336698.89392
1569336698.90955
1569336698.92518
1569336698.9408
1569336698.95643
1569336698.97205
1569336698.98768
1569336699.0033
1569336699.01893
1569336699.03456
1569336699.05018
1569336699.06581
1569336699.08143
1569336699.09706
1569336699.11268
1569336699.12831
1569336699.14394
1569336699.15956
1569336699.17519
1569336699.19081
1569336699.20644
1569336699.22206
1569336699.23769
1569336699.25332
1569336699.26894
1569336699.28457
1569336699.30019
1569336699.31582
1569336699.33144
1569336699.34707
1569336699.3627
1569336699.37832
1569336699.39395
1569336699.40957
1569336699.4252
1569336699.44082
1569336699.45645
1569336699.47208
1569336699.4877
1569336699.50333
1569336699.51895
1569336699.53458
1569336699.55021
1569336699.56583
1569336699.58146
1569336699.59708
1569336699.61271
1569336699.62833
1569336699.64396
1569336699.65959
1569336699.67521
1569336699.69084
1569336699.70646
1569336699.72209
1569336699.73771
1569336699.75334
1569336699.76897
1569336699.78459
1569336699.80022
1569336699.81584
1569336699.83147
1569336699.84709
1569336699.86272
1569336699.87835
1569336699.89397
1569336699.9096
1569336699.92522
1569336699.94085
1569336699.95647
1569336699.9721
1569336699.98773
1569336700.00335
1569336700.01898
1569336700.0346
1569336700.05023
1569336700.06585
1569336700.08148
1569336700.09711
1569336700.11273
1569336700.12836
1569336700.14398
1569336700.15961
1569336700.17523
1569336700.19086
1569336700.20649
1569336700.22211
1569336700.23774
1569336700.25336
1569336700.26899
1569336700.28461
1569336700.30024
1569336700.31587
1569336700.33149
1569336700.34712
1569336700.36274
1569336700.37837
1569336700.39399
1569336700.40962
1569336700.42525
1569336700.44087
1569336700.4565
1569336700.47212
1569336700.48775
1569336700.50337
1569336700.519
1569336700.53463
1569336700.55025
1569336700.56588
1569336700.5815
1569336700.59713
1569336700.61275
1569336700.62838
1569336700.64401
1569336700.65963
1569336700.67526
1569336700.69088
1569336700.70651
1569336700.72213
1569336700.73776
1569336700.75339
1569336700.76901
1569336700.78464
1569336700.80026
1569336700.81589
1569336700.83151
1569336700.84714
1569336700.86277
1569336700.87839
1569336700.89402
1569336700.90964
1569336700.92527
1569336700.94089
1569336700.95652
1569336700.97215
1569336700.98777
1569336701.0034
1569336701.01902
1569336701.03465
1569336701.05027
1569336701.0659
1569336701.08153
1569336701.09715
1569336701.11278
1569336701.1284
1569336701.14403
1569336701.15965
1569336701.17528
1569336701.19091
1569336701.20653
1569336701.22216
1569336701.23778
1569336701.25341
1569336701.26903
1569336701.28466
1569336701.30029
1569336701.31591
1569336701.33154
1569336701.34716
1569336701.36279
1569336701.37841
1569336701.39404
1569336701.40967
1569336701.42529
1569336701.44092
1569336701.45654
1569336701.47217
1569336701.48779
1569336701.50342
1569336701.51905
1569336701.53467
1569336701.5503
1569336701.56592
1569336701.58155
1569336701.59717
1569336701.6128
1569336701.62843
1569336701.64405
1569336701.65968
1569336701.6753
1569336701.69093
1569336701.70655
1569336701.72218
1569336701.73781
1569336701.75343
1569336701.76906
1569336701.78468
1569336701.80031
1569336701.81594
1569336701.83156
1569336701.84719
1569336701.86281
1569336701.87844
1569336701.89406
1569336701.90969
1569336701.92532
1569336701.94094
1569336701.95657
1569336701.97219
1569336701.98782
1569336702.00344
1569336702.01907
1569336702.0347
1569336702.05032
1569336702.06595
1569336702.08157
1569336702.0972
1569336702.11282
1569336702.12845
1569336702.14408
1569336702.1597
1569336702.17533
1569336702.19095
1569336702.20658
1569336702.2222
1569336702.23783
1569336702.25346
1569336702.26908
1569336702.28471
1569336702.30033
1569336702.31596
1569336702.33158
1569336702.34721
1569336702.36284
1569336702.37846
1569336702.39409
1569336702.40971
1569336702.42534
1569336702.44096
1569336702.45659
1569336702.47222
1569336702.48784
1569336702.50347
1569336702.51909
1569336702.53472
1569336702.55034
1569336702.56597
1569336702.5816
1569336702.59722
1569336702.61285
1569336702.62847
1569336702.6441
1569336702.65972
1569336702.67535
1569336702.69098
1569336702.7066
1569336702.72223
1569336702.73785
1569336702.75348
1569336702.7691
1569336702.78473
1569336702.80036
1569336702.81598
1569336702.83161
1569336702.84723
1569336702.86286
1569336702.87848
1569336702.89411
1569336702.90974
1569336702.92536
1569336702.94099
1569336702.95661
1569336702.97224
1569336702.98786
1569336703.00349
1569336703.01912
1569336703.03474
1569336703.05037
1569336703.06599
1569336703.08162
1569336703.09724
1569336703.11287
1569336703.1285
1569336703.14412
1569336703.15975
1569336703.17537
1569336703.191
1569336703.20662
1569336703.22225
1569336703.23788
1569336703.2535
1569336703.26913
1569336703.28475
1569336703.30038
1569336703.316
1569336703.33163
1569336703.34726
1569336703.36288
1569336703.37851
1569336703.39413
1569336703.40976
1569336703.42538
1569336703.44101
1569336703.45664
1569336703.47226
1569336703.48789
1569336703.50351
1569336703.51914
1569336703.53476
1569336703.55039
1569336703.56602
1569336703.58164
1569336703.59727
1569336703.61289
1569336703.62852
1569336703.64414
1569336703.65977
1569336703.6754
1569336703.69102
1569336703.70665
1569336703.72227
1569336703.7379
1569336703.75352
1569336703.76915
1569336703.78478
1569336703.8004
1569336703.81603
1569336703.83165
1569336703.84728
1569336703.8629
1569336703.87853
1569336703.89416
1569336703.90978
1569336703.92541
1569336703.94103
1569336703.95666
1569336703.97229
1569336703.98791
1569336704.00354
1569336704.01916
1569336704.03479
1569336704.05041
1569336704.06604
1569336704.08167
1569336704.09729
1569336704.11292
1569336704.12854
1569336704.14417
1569336704.15979
1569336704.17542
1569336704.19105
1569336704.20667
1569336704.2223
1569336704.23792
1569336704.25355
1569336704.26917
1569336704.2848
1569336704.30043
1569336704.31605
1569336704.33168
1569336704.3473
1569336704.36293
1569336704.37855
1569336704.39418
1569336704.40981
1569336704.42543
1569336704.44106
1569336704.45668
1569336704.47231
1569336704.48793
1569336704.50356
1569336704.51919
1569336704.53481
1569336704.55044
1569336704.56606
1569336704.58169
1569336704.59731
1569336704.61294
1569336704.62857
1569336704.64419
1569336704.65982
1569336704.67544
1569336704.69107
1569336704.70669
1569336704.72232
1569336704.73795
1569336704.75357
1569336704.7692
1569336704.78482
1569336704.80045
1569336704.81607
1569336704.8317
1569336704.84733
1569336704.86295
1569336704.87858
1569336704.8942
1569336704.90983
1569336704.92545
1569336704.94108
1569336704.95671
1569336704.97233
1569336704.98796
1569336705.00358
1569336705.01921
1569336705.03483
1569336705.05046
1569336705.06609
1569336705.08171
1569336705.09734
1569336705.11296
1569336705.12859
1569336705.14421
1569336705.15984
1569336705.17547
1569336705.19109
1569336705.20672
1569336705.22234
1569336705.23797
1569336705.25359
1569336705.26922
1569336705.28485
1569336705.30047
1569336705.3161
1569336705.33172
1569336705.34735
1569336705.36297
1569336705.3786
1569336705.39423
1569336705.40985
1569336705.42548
1569336705.4411
1569336705.45673
1569336705.47235
1569336705.48798
1569336705.50361
1569336705.51923
1569336705.53486
1569336705.55048
1569336705.56611
1569336705.58173
1569336705.59736
1569336705.61299
1569336705.62861
1569336705.64424
1569336705.65986
1569336705.67549
1569336705.69111
1569336705.70674
1569336705.72237
1569336705.73799
1569336705.75362
1569336705.76924
1569336705.78487
1569336705.80049
1569336705.81612
1569336705.83175
1569336705.84737
1569336705.863
1569336705.87862
1569336705.89425
1569336705.90987
1569336705.9255
1569336705.94113
1569336705.95675
1569336705.97238
1569336705.988
1569336706.00363
1569336706.01925
1569336706.03488
1569336706.05051
1569336706.06613
1569336706.08176
1569336706.09738
1569336706.11301
1569336706.12863
1569336706.14426
1569336706.15989
1569336706.17551
1569336706.19114
1569336706.20676
1569336706.22239
1569336706.23801
1569336706.25364
1569336706.26927
1569336706.28489
1569336706.30052
1569336706.31614
1569336706.33177
1569336706.34739
1569336706.36302
1569336706.37865
1569336706.39427
1569336706.4099
1569336706.42552
1569336706.44115
1569336706.45677
1569336706.4724
1569336706.48803
1569336706.50365
1569336706.51928
1569336706.5349
1569336706.55053
1569336706.56615
1569336706.58178
1569336706.59741
1569336706.61303
1569336706.62866
1569336706.64428
1569336706.65991
1569336706.67554
1569336706.69116
1569336706.70679
1569336706.72241
1569336706.73804
1569336706.75366
1569336706.76929
1569336706.78492
1569336706.80054
1569336706.81617
1569336706.83179
1569336706.84742
1569336706.86304
1569336706.87867
1569336706.8943
1569336706.90992
1569336706.92555
1569336706.94117
1569336706.9568
1569336706.97242
1569336706.98805
1569336707.00368
1569336707.0193
1569336707.03493
1569336707.05055
1569336707.06618
1569336707.0818
1569336707.09743
1569336707.11306
1569336707.12868
1569336707.14431
1569336707.15993
1569336707.17556
1569336707.19118
1569336707.20681
1569336707.22244
1569336707.23806
1569336707.25369
1569336707.26931
1569336707.28494
1569336707.30056
1569336707.31619
1569336707.33182
1569336707.34744
1569336707.36307
1569336707.37869
1569336707.39432
1569336707.40994
1569336707.42557
1569336707.4412
1569336707.45682
1569336707.47245
1569336707.48807
1569336707.5037
1569336707.51932
1569336707.53495
1569336707.55058
1569336707.5662
1569336707.58183
1569336707.59745
1569336707.61308
1569336707.6287
1569336707.64433
1569336707.65996
1569336707.67558
1569336707.69121
1569336707.70683
1569336707.72246
1569336707.73808
1569336707.75371
1569336707.76934
1569336707.78496
1569336707.80059
1569336707.81621
1569336707.83184
1569336707.84746
1569336707.86309
1569336707.87872
1569336707.89434
1569336707.90997
1569336707.92559
1569336707.94122
1569336707.95684
1569336707.97247
1569336707.9881
1569336708.00372
1569336708.01935
1569336708.03497
1569336708.0506
1569336708.06622
1569336708.08185
1569336708.09748
1569336708.1131
1569336708.12873
1569336708.14435
1569336708.15998
1569336708.1756
1569336708.19123
1569336708.20686
1569336708.22248
1569336708.23811
1569336708.25373
1569336708.26936
1569336708.28498
1569336708.30061
1569336708.31624
1569336708.33186
1569336708.34749
1569336708.36311
1569336708.37874
1569336708.39436
1569336708.40999
1569336708.42562
1569336708.44124
1569336708.45687
1569336708.47249
1569336708.48812
1569336708.50374
1569336708.51937
1569336708.535
1569336708.55062
1569336708.56625
1569336708.58187
1569336708.5975
1569336708.61312
1569336708.62875
1569336708.64438
1569336708.66
1569336708.67563
1569336708.69125
1569336708.70688
1569336708.7225
1569336708.73813
1569336708.75376
1569336708.76938
1569336708.78501
1569336708.80063
1569336708.81626
1569336708.83189
1569336708.84751
1569336708.86314
1569336708.87876
1569336708.89439
1569336708.91001
1569336708.92564
1569336708.94127
1569336708.95689
1569336708.97252
1569336708.98814
1569336709.00377
1569336709.01939
1569336709.03502
1569336709.05065
1569336709.06627
1569336709.0819
1569336709.09752
1569336709.11315
1569336709.12877
1569336709.1444
1569336709.16003
1569336709.17565
1569336709.19128
1569336709.2069
1569336709.22253
1569336709.23815
1569336709.25378
1569336709.26941
1569336709.28503
1569336709.30066
1569336709.31628
1569336709.33191
1569336709.34753
1569336709.36316
1569336709.37879
1569336709.39441
1569336709.41004
1569336709.42566
1569336709.44129
1569336709.45691
1569336709.47254
1569336709.48817
1569336709.50379
1569336709.51942
1569336709.53504
1569336709.55067
1569336709.56629
1569336709.58192
1569336709.59755
1569336709.61317
1569336709.6288
1569336709.64442
1569336709.66005
1569336709.67567
1569336709.6913
1569336709.70693
1569336709.72255
1569336709.73818
1569336709.7538
1569336709.76943
1569336709.78505
1569336709.80068
1569336709.81631
1569336709.83193
1569336709.84756
1569336709.86318
1569336709.87881
1569336709.89443
1569336709.91006
1569336709.92569
1569336709.94131
1569336709.95694
1569336709.97256
1569336709.98819
1569336710.00381
1569336710.01944
1569336710.03507
1569336710.05069
1569336710.06632
1569336710.08194
1569336710.09757
1569336710.11319
1569336710.12882
1569336710.14445
1569336710.16007
1569336710.1757
1569336710.19132
1569336710.20695
1569336710.22257
1569336710.2382
1569336710.25383
1569336710.26945
1569336710.28508
1569336710.3007
1569336710.31633
1569336710.33195
1569336710.34758
1569336710.36321
1569336710.37883
1569336710.39446
1569336710.41008
1569336710.42571
1569336710.44133
1569336710.45696
1569336710.47259
1569336710.48821
1569336710.50384
1569336710.51946
1569336710.53509
1569336710.55071
1569336710.56634
1569336710.58197
1569336710.59759
1569336710.61322
1569336710.62884
1569336710.64447
1569336710.66009
1569336710.67572
1569336710.69135
1569336710.70697
1569336710.7226
1569336710.73822
1569336710.75385
1569336710.76947
1569336710.7851
1569336710.80073
1569336710.81635
1569336710.83198
1569336710.8476
1569336710.86323
1569336710.87885
1569336710.89448
1569336710.91011
1569336710.92573
1569336710.94136
1569336710.95698
1569336710.97261
1569336710.98823
1569336711.00386
1569336711.01949
1569336711.03511
1569336711.05074
1569336711.06636
1569336711.08199
1569336711.09762
1569336711.11324
1569336711.12887
1569336711.14449
1569336711.16012
1569336711.17574
1569336711.19137
1569336711.207
1569336711.22262
1569336711.23825
1569336711.25387
1569336711.2695
1569336711.28512
1569336711.30075
1569336711.31638
1569336711.332
1569336711.34763
1569336711.36325
1569336711.37888
1569336711.3945
1569336711.41013
1569336711.42576
1569336711.44138
1569336711.45701
1569336711.47263
1569336711.48826
1569336711.50388
1569336711.51951
1569336711.53514
1569336711.55076
1569336711.56639
1569336711.58201
1569336711.59764
1569336711.61326
1569336711.62889
1569336711.64452
1569336711.66014
1569336711.67577
1569336711.69139
1569336711.70702
1569336711.72264
1569336711.73827
1569336711.7539
1569336711.76952
1569336711.78515
1569336711.80077
1569336711.8164
1569336711.83202
1569336711.84765
1569336711.86328
1569336711.8789
1569336711.89453
1569336711.91015
1569336711.92578
1569336711.9414
1569336711.95703
1569336711.97266
1569336711.98828
1569336712.00391
1569336712.01953
1569336712.03516
1569336712.05078
1569336712.06641
1569336712.08204
1569336712.09766
1569336712.11329
1569336712.12891
1569336712.14454
1569336712.16016
1569336712.17579
1569336712.19142
1569336712.20704
1569336712.22267
1569336712.23829
1569336712.25392
1569336712.26954
1569336712.28517
1569336712.3008
1569336712.31642
1569336712.33205
1569336712.34767
1569336712.3633
1569336712.37892
1569336712.39455
1569336712.41018
1569336712.4258
1569336712.44143
1569336712.45705
1569336712.47268
1569336712.4883
1569336712.50393
1569336712.51956
1569336712.53518
1569336712.55081
1569336712.56643
1569336712.58206
1569336712.59768
1569336712.61331
1569336712.62894
1569336712.64456
1569336712.66019
1569336712.67581
1569336712.69144
1569336712.70706
1569336712.72269
1569336712.73832
1569336712.75394
1569336712.76957
1569336712.78519
1569336712.80082
1569336712.81644
1569336712.83207
1569336712.8477
1569336712.86332
1569336712.87895
1569336712.89457
1569336712.9102
1569336712.92582
1569336712.94145
1569336712.95708
1569336712.9727
1569336712.98833
1569336713.00395
1569336713.01958
1569336713.0352
1569336713.05083
1569336713.06646
1569336713.08208
1569336713.09771
1569336713.11333
1569336713.12896
1569336713.14458
1569336713.16021
1569336713.17584
1569336713.19146
1569336713.20709
1569336713.22271
1569336713.23834
1569336713.25396
1569336713.26959
1569336713.28522
1569336713.30084
1569336713.31647
1569336713.33209
1569336713.34772
1569336713.36334
1569336713.37897
1569336713.3946
1569336713.41022
1569336713.42585
1569336713.44147
1569336713.4571
1569336713.47272
1569336713.48835
1569336713.50398
1569336713.5196
1569336713.53523
1569336713.55085
1569336713.56648
1569336713.5821
1569336713.59773
1569336713.61336
1569336713.62898
1569336713.64461
1569336713.66023
1569336713.67586
1569336713.69148
1569336713.70711
1569336713.72274
1569336713.73836
1569336713.75399
1569336713.76961
1569336713.78524
1569336713.80087
1569336713.81649
1569336713.83212
1569336713.84774
1569336713.86337
1569336713.87899
1569336713.89462
1569336713.91025
1569336713.92587
1569336713.9415
1569336713.95712
1569336713.97275
1569336713.98837
1569336714.004
1569336714.01963
1569336714.03525
1569336714.05088
1569336714.0665
1569336714.08213
1569336714.09775
1569336714.11338
1569336714.12901
1569336714.14463
1569336714.16026
1569336714.17588
1569336714.19151
1569336714.20713
1569336714.22276
1569336714.23839
1569336714.25401
1569336714.26964
1569336714.28526
1569336714.30089
1569336714.31651
1569336714.33214
1569336714.34777
1569336714.36339
1569336714.37902
1569336714.39464
1569336714.41027
1569336714.42589
1569336714.44152
1569336714.45715
1569336714.47277
1569336714.4884
1569336714.50402
1569336714.51965
1569336714.53527
1569336714.5509
1569336714.56653
1569336714.58215
1569336714.59778
1569336714.6134
1569336714.62903
1569336714.64465
1569336714.66028
1569336714.67591
1569336714.69153
1569336714.70716
1569336714.72278
1569336714.73841
1569336714.75403
1569336714.76966
1569336714.78529
1569336714.80091
1569336714.81654
1569336714.83216
1569336714.84779
1569336714.86341
1569336714.87904
1569336714.89467
1569336714.91029
1569336714.92592
1569336714.94154
1569336714.95717
1569336714.97279
1569336714.98842
1569336715.00405
1569336715.01967
1569336715.0353
1569336715.05092
1569336715.06655
1569336715.08217
1569336715.0978
1569336715.11343
1569336715.12905
1569336715.14468
1569336715.1603
1569336715.17593
1569336715.19155
1569336715.20718
1569336715.22281
1569336715.23843
1569336715.25406
1569336715.26968
1569336715.28531
1569336715.30093
1569336715.31656
1569336715.33219
1569336715.34781
1569336715.36344
1569336715.37906
1569336715.39469
1569336715.41031
1569336715.42594
1569336715.44157
1569336715.45719
1569336715.47282
1569336715.48844
1569336715.50407
1569336715.51969
1569336715.53532
1569336715.55095
1569336715.56657
1569336715.5822
1569336715.59782
1569336715.61345
1569336715.62907
1569336715.6447
1569336715.66033
1569336715.67595
1569336715.69158
1569336715.7072
1569336715.72283
1569336715.73845
1569336715.75408
1569336715.76971
1569336715.78533
1569336715.80096
1569336715.81658
1569336715.83221
1569336715.84783
1569336715.86346
1569336715.87909
1569336715.89471
1569336715.91034
1569336715.92596
1569336715.94159
1569336715.95722
1569336715.97284
1569336715.98847
1569336716.00409
1569336716.01972
1569336716.03534
1569336716.05097
1569336716.0666
1569336716.08222
1569336716.09785
1569336716.11347
1569336716.1291
1569336716.14472
1569336716.16035
1569336716.17598
1569336716.1916
1569336716.20723
1569336716.22285
1569336716.23848
1569336716.2541
1569336716.26973
1569336716.28536
1569336716.30098
1569336716.31661
1569336716.33223
1569336716.34786
1569336716.36348
1569336716.37911
1569336716.39474
1569336716.41036
1569336716.42599
1569336716.44161
1569336716.45724
1569336716.47286
1569336716.48849
1569336716.50412
1569336716.51974
1569336716.53537
1569336716.55099
1569336716.56662
1569336716.58224
1569336716.59787
1569336716.6135
1569336716.62912
1569336716.64475
1569336716.66037
1569336716.676
1569336716.69162
1569336716.70725
1569336716.72288
1569336716.7385
1569336716.75413
1569336716.76975
1569336716.78538
1569336716.801
1569336716.81663
1569336716.83226
1569336716.84788
1569336716.86351
1569336716.87913
1569336716.89476
1569336716.91038
1569336716.92601
1569336716.94164
1569336716.95726
1569336716.97289
1569336716.98851
1569336717.00414
1569336717.01976
1569336717.03539
1569336717.05102
1569336717.06664
1569336717.08227
1569336717.09789
1569336717.11352
1569336717.12914
1569336717.14477
1569336717.1604
1569336717.17602
1569336717.19165
1569336717.20727
1569336717.2229
1569336717.23852
1569336717.25415
1569336717.26978
1569336717.2854
1569336717.30103
1569336717.31665
1569336717.33228
1569336717.3479
1569336717.36353
1569336717.37916
1569336717.39478
1569336717.41041
1569336717.42603
1569336717.44166
1569336717.45728
1569336717.47291
1569336717.48854
1569336717.50416
1569336717.51979
1569336717.53541
1569336717.55104
1569336717.56666
1569336717.58229
1569336717.59792
1569336717.61354
1569336717.62917
1569336717.64479
1569336717.66042
1569336717.67604
1569336717.69167
1569336717.7073
1569336717.72292
1569336717.73855
1569336717.75417
1569336717.7698
1569336717.78542
1569336717.80105
1569336717.81668
1569336717.8323
1569336717.84793
1569336717.86355
1569336717.87918
1569336717.8948
1569336717.91043
1569336717.92606
1569336717.94168
1569336717.95731
1569336717.97293
1569336717.98856
1569336718.00418
1569336718.01981
1569336718.03544
1569336718.05106
1569336718.06669
1569336718.08231
1569336718.09794
1569336718.11356
1569336718.12919
1569336718.14482
1569336718.16044
1569336718.17607
1569336718.19169
1569336718.20732
1569336718.22294
1569336718.23857
1569336718.2542
1569336718.26982
1569336718.28545
1569336718.30107
1569336718.3167
1569336718.33232
1569336718.34795
1569336718.36358
1569336718.3792
1569336718.39483
1569336718.41045
1569336718.42608
1569336718.4417
1569336718.45733
1569336718.47296
1569336718.48858
1569336718.50421
1569336718.51983
1569336718.53546
1569336718.55109
1569336718.56671
1569336718.58234
1569336718.59796
1569336718.61359
1569336718.62921
1569336718.64484
1569336718.66047
1569336718.67609
1569336718.69172
1569336718.70734
1569336718.72297
1569336718.73859
1569336718.75422
1569336718.76985
1569336718.78547
1569336718.8011
1569336718.81672
1569336718.83235
1569336718.84797
1569336718.8636
1569336718.87923
1569336718.89485
1569336718.91048
1569336718.9261
1569336718.94173
1569336718.95735
1569336718.97298
1569336718.98861
1569336719.00423
1569336719.01986
1569336719.03548
1569336719.05111
1569336719.06673
1569336719.08236
1569336719.09799
1569336719.11361
1569336719.12924
1569336719.14486
1569336719.16049
1569336719.17611
1569336719.19174
1569336719.20737
1569336719.22299
1569336719.23862
1569336719.25424
1569336719.26987
1569336719.28549
1569336719.30112
1569336719.31675
1569336719.33237
1569336719.348
1569336719.36362
1569336719.37925
1569336719.39487
1569336719.4105
1569336719.42613
1569336719.44175
1569336719.45738
1569336719.473
1569336719.48863
1569336719.50425
1569336719.51988
1569336719.53551
1569336719.55113
1569336719.56676
1569336719.58238
1569336719.59801
1569336719.61363
1569336719.62926
1569336719.64489
1569336719.66051
1569336719.67614
1569336719.69176
1569336719.70739
1569336719.72301
1569336719.73864
1569336719.75427
1569336719.76989
1569336719.78552
1569336719.80114
1569336719.81677
1569336719.83239
1569336719.84802
1569336719.86365
1569336719.87927
1569336719.8949
1569336719.91052
1569336719.92615
1569336719.94177
1569336719.9574
1569336719.97303
1569336719.98865
1569336720.00428
1569336720.0199
1569336720.03553
1569336720.05115
1569336720.06678
1569336720.08241
1569336720.09803
1569336720.11366
1569336720.12928
1569336720.14491
1569336720.16053
1569336720.17616
1569336720.19179
1569336720.20741
1569336720.22304
1569336720.23866
1569336720.25429
1569336720.26991
1569336720.28554
1569336720.30117
1569336720.31679
1569336720.33242
1569336720.34804
1569336720.36367
1569336720.37929
1569336720.39492
1569336720.41055
1569336720.42617
1569336720.4418
1569336720.45742
1569336720.47305
1569336720.48867
1569336720.5043
1569336720.51993
1569336720.53555
1569336720.55118
1569336720.5668
1569336720.58243
1569336720.59805
1569336720.61368
1569336720.62931
1569336720.64493
1569336720.66056
1569336720.67618
1569336720.69181
1569336720.70743
1569336720.72306
1569336720.73869
1569336720.75431
1569336720.76994
1569336720.78556
1569336720.80119
1569336720.81682
1569336720.83244
1569336720.84807
1569336720.86369
1569336720.87932
1569336720.89494
1569336720.91057
1569336720.9262
1569336720.94182
1569336720.95745
1569336720.97307
1569336720.9887
1569336721.00432
1569336721.01995
1569336721.03558
1569336721.0512
1569336721.06683
1569336721.08245
1569336721.09808
1569336721.1137
1569336721.12933
1569336721.14496
1569336721.16058
1569336721.17621
1569336721.19183
1569336721.20746
1569336721.22308
1569336721.23871
1569336721.25434
1569336721.26996
1569336721.28559
1569336721.30121
1569336721.31684
1569336721.33246
1569336721.34809
1569336721.36372
1569336721.37934
1569336721.39497
1569336721.41059
1569336721.42622
1569336721.44184
1569336721.45747
1569336721.4731
1569336721.48872
1569336721.50435
1569336721.51997
1569336721.5356
1569336721.55122
1569336721.56685
1569336721.58248
1569336721.5981
1569336721.61373
1569336721.62935
1569336721.64498
1569336721.6606
1569336721.67623
1569336721.69186
1569336721.70748
1569336721.72311
1569336721.73873
1569336721.75436
1569336721.76998
1569336721.78561
1569336721.80124
1569336721.81686
1569336721.83249
1569336721.84811
1569336721.86374
1569336721.87936
1569336721.89499
1569336721.91062
1569336721.92624
1569336721.94187
1569336721.95749
1569336721.97312
1569336721.98874
1569336722.00437
1569336722.02
1569336722.03562
1569336722.05125
1569336722.06687
1569336722.0825
1569336722.09812
1569336722.11375
1569336722.12938
1569336722.145
1569336722.16063
1569336722.17625
1569336722.19188
1569336722.2075
1569336722.22313
1569336722.23876
1569336722.25438
1569336722.27001
1569336722.28563
1569336722.30126
1569336722.31688
1569336722.33251
1569336722.34814
1569336722.36376
1569336722.37939
1569336722.39501
1569336722.41064
1569336722.42626
1569336722.44189
1569336722.45752
1569336722.47314
1569336722.48877
1569336722.50439
1569336722.52002
1569336722.53564
1569336722.55127
1569336722.5669
1569336722.58252
1569336722.59815
1569336722.61377
1569336722.6294
1569336722.64502
1569336722.66065
1569336722.67628
1569336722.6919
1569336722.70753
1569336722.72315
1569336722.73878
1569336722.7544
1569336722.77003
1569336722.78566
1569336722.80128
1569336722.81691
1569336722.83253
1569336722.84816
1569336722.86378
1569336722.87941
1569336722.89504
1569336722.91066
1569336722.92629
1569336722.94191
1569336722.95754
1569336722.97316
1569336722.98879
1569336723.00442
1569336723.02004
1569336723.03567
1569336723.05129
1569336723.06692
1569336723.08255
1569336723.09817
1569336723.1138
1569336723.12942
1569336723.14505
1569336723.16067
1569336723.1763
1569336723.19193
1569336723.20755
1569336723.22318
1569336723.2388
1569336723.25443
1569336723.27005
1569336723.28568
1569336723.30131
1569336723.31693
1569336723.33256
1569336723.34818
1569336723.36381
1569336723.37943
1569336723.39506
1569336723.41069
1569336723.42631
1569336723.44194
1569336723.45756
1569336723.47319
1569336723.48881
1569336723.50444
1569336723.52007
1569336723.53569
1569336723.55132
1569336723.56694
1569336723.58257
1569336723.59819
1569336723.61382
1569336723.62945
1569336723.64507
1569336723.6607
1569336723.67632
1569336723.69195
1569336723.70757
1569336723.7232
1569336723.73883
1569336723.75445
1569336723.77008
1569336723.7857
1569336723.80133
1569336723.81695
1569336723.83258
1569336723.84821
1569336723.86383
1569336723.87946
1569336723.89508
1569336723.91071
1569336723.92633
1569336723.94196
1569336723.95759
1569336723.97321
1569336723.98884
1569336724.00446
1569336724.02009
1569336724.03571
1569336724.05134
1569336724.06697
1569336724.08259
1569336724.09822
1569336724.11384
1569336724.12947
1569336724.14509
1569336724.16072
1569336724.17635
1569336724.19197
1569336724.2076
1569336724.22322
1569336724.23885
1569336724.25447
1569336724.2701
1569336724.28573
1569336724.30135
1569336724.31698
1569336724.3326
1569336724.34823
1569336724.36385
1569336724.37948
1569336724.39511
1569336724.41073
1569336724.42636
1569336724.44198
1569336724.45761
1569336724.47323
1569336724.48886
1569336724.50449
1569336724.52011
1569336724.53574
1569336724.55136
1569336724.56699
1569336724.58261
1569336724.59824
1569336724.61387
1569336724.62949
1569336724.64512
1569336724.66074
1569336724.67637
1569336724.69199
1569336724.70762
1569336724.72325
1569336724.73887
1569336724.7545
1569336724.77012
1569336724.78575
1569336724.80137
1569336724.817
1569336724.83263
1569336724.84825
1569336724.86388
1569336724.8795
1569336724.89513
1569336724.91075
1569336724.92638
1569336724.94201
1569336724.95763
1569336724.97326
1569336724.98888
1569336725.00451
1569336725.02013
1569336725.03576
1569336725.05139
1569336725.06701
1569336725.08264
1569336725.09826
1569336725.11389
1569336725.12951
1569336725.14514
1569336725.16077
1569336725.17639
1569336725.19202
1569336725.20764
1569336725.22327
1569336725.23889
1569336725.25452
1569336725.27015
1569336725.28577
1569336725.3014
1569336725.31702
1569336725.33265
1569336725.34827
1569336725.3639
1569336725.37953
1569336725.39515
1569336725.41078
1569336725.4264
1569336725.44203
1569336725.45765
1569336725.47328
1569336725.48891
1569336725.50453
1569336725.52016
1569336725.53578
1569336725.55141
1569336725.56703
1569336725.58266
1569336725.59829
1569336725.61391
1569336725.62954
1569336725.64516
1569336725.66079
1569336725.67642
1569336725.69204
1569336725.70767
1569336725.72329
1569336725.73892
1569336725.75454
1569336725.77017
1569336725.7858
1569336725.80142
1569336725.81705
1569336725.83267
1569336725.8483
1569336725.86392
1569336725.87955
1569336725.89518
1569336725.9108
1569336725.92643
1569336725.94205
1569336725.95768
1569336725.9733
1569336725.98893
1569336726.00456
1569336726.02018
1569336726.03581
1569336726.05143
1569336726.06706
1569336726.08268
1569336726.09831
1569336726.11394
1569336726.12956
1569336726.14519
1569336726.16081
1569336726.17644
1569336726.19206
1569336726.20769
1569336726.22332
1569336726.23894
1569336726.25457
1569336726.27019
1569336726.28582
1569336726.30144
1569336726.31707
1569336726.3327
1569336726.34832
1569336726.36395
1569336726.37957
1569336726.3952
1569336726.41082
1569336726.42645
1569336726.44208
1569336726.4577
1569336726.47333
1569336726.48895
1569336726.50458
1569336726.5202
1569336726.53583
1569336726.55146
1569336726.56708
1569336726.58271
1569336726.59833
1569336726.61396
1569336726.62958
1569336726.64521
1569336726.66084
1569336726.67646
1569336726.69209
1569336726.70771
1569336726.72334
1569336726.73896
1569336726.75459
1569336726.77022
1569336726.78584
1569336726.80147
1569336726.81709
1569336726.83272
1569336726.84834
1569336726.86397
1569336726.8796
1569336726.89522
1569336726.91085
1569336726.92647
1569336726.9421
1569336726.95772
1569336726.97335
1569336726.98898
1569336727.0046
1569336727.02023
1569336727.03585
1569336727.05148
1569336727.0671
1569336727.08273
1569336727.09836
1569336727.11398
1569336727.12961
1569336727.14523
1569336727.16086
1569336727.17648
1569336727.19211
1569336727.20774
1569336727.22336
1569336727.23899
1569336727.25461
1569336727.27024
1569336727.28586
1569336727.30149
1569336727.31712
1569336727.33274
1569336727.34837
1569336727.36399
1569336727.37962
1569336727.39524
1569336727.41087
1569336727.4265
1569336727.44212
1569336727.45775
1569336727.47337
1569336727.489
1569336727.50462
1569336727.52025
1569336727.53588
1569336727.5515
1569336727.56713
1569336727.58275
1569336727.59838
1569336727.614
1569336727.62963
1569336727.64526
1569336727.66088
1569336727.67651
1569336727.69213
1569336727.70776
1569336727.72338
1569336727.73901
1569336727.75464
1569336727.77026
1569336727.78589
1569336727.80151
1569336727.81714
1569336727.83276
1569336727.84839
1569336727.86402
1569336727.87964
1569336727.89527
1569336727.91089
1569336727.92652
1569336727.94215
1569336727.95777
1569336727.9734
1569336727.98902
1569336728.00465
1569336728.02027
1569336728.0359
1569336728.05153
1569336728.06715
1569336728.08278
1569336728.0984
1569336728.11403
1569336728.12965
1569336728.14528
1569336728.16091
1569336728.17653
1569336728.19216
1569336728.20778
1569336728.22341
1569336728.23903
1569336728.25466
1569336728.27029
1569336728.28591
1569336728.30154
1569336728.31716
1569336728.33279
1569336728.34841
1569336728.36404
1569336728.37967
1569336728.39529
1569336728.41092
1569336728.42654
1569336728.44217
1569336728.45779
1569336728.47342
1569336728.48905
1569336728.50467
1569336728.5203
1569336728.53592
1569336728.55155
1569336728.56717
1569336728.5828
1569336728.59843
1569336728.61405
1569336728.62968
1569336728.6453
1569336728.66093
1569336728.67655
1569336728.69218
1569336728.70781
1569336728.72343
1569336728.73906
1569336728.75468
1569336728.77031
1569336728.78593
1569336728.80156
1569336728.81719
1569336728.83281
1569336728.84844
1569336728.86406
1569336728.87969
1569336728.89531
1569336728.91094
1569336728.92657
1569336728.94219
1569336728.95782
1569336728.97344
1569336728.98907
1569336729.00469
1569336729.02032
1569336729.03595
1569336729.05157
1569336729.0672
1569336729.08282
1569336729.09845
1569336729.11407
1569336729.1297
1569336729.14533
1569336729.16095
1569336729.17658
1569336729.1922
1569336729.20783
1569336729.22345
1569336729.23908
1569336729.25471
1569336729.27033
1569336729.28596
1569336729.30158
1569336729.31721
1569336729.33283
1569336729.34846
1569336729.36409
1569336729.37971
1569336729.39534
1569336729.41096
1569336729.42659
1569336729.44221
1569336729.45784
1569336729.47347
1569336729.48909
1569336729.50472
1569336729.52034
1569336729.53597
1569336729.55159
1569336729.56722
1569336729.58285
1569336729.59847
1569336729.6141
1569336729.62972
1569336729.64535
1569336729.66097
1569336729.6766
1569336729.69223
1569336729.70785
1569336729.72348
1569336729.7391
1569336729.75473
1569336729.77035
1569336729.78598
1569336729.80161
1569336729.81723
1569336729.83286
1569336729.84848
1569336729.86411
1569336729.87973
1569336729.89536
1569336729.91099
1569336729.92661
1569336729.94224
1569336729.95786
1569336729.97349
1569336729.98911
1569336730.00474
1569336730.02037
1569336730.03599
1569336730.05162
1569336730.06724
1569336730.08287
1569336730.0985
1569336730.11412
1569336730.12975
1569336730.14537
1569336730.161
1569336730.17662
1569336730.19225
1569336730.20788
1569336730.2235
1569336730.23913
1569336730.25475
1569336730.27038
1569336730.286
1569336730.30163
1569336730.31726
1569336730.33288
1569336730.34851
1569336730.36413
1569336730.37976
1569336730.39538
1569336730.41101
1569336730.42664
1569336730.44226
1569336730.45789
1569336730.47351
1569336730.48914
1569336730.50476
1569336730.52039
1569336730.53602
1569336730.55164
1569336730.56727
1569336730.58289
1569336730.59852
1569336730.61414
1569336730.62977
1569336730.6454
1569336730.66102
1569336730.67665
1569336730.69227
1569336730.7079
1569336730.72352
1569336730.73915
1569336730.75478
1569336730.7704
1569336730.78603
1569336730.80165
1569336730.81728
1569336730.8329
1569336730.84853
1569336730.86416
1569336730.87978
1569336730.89541
1569336730.91103
1569336730.92666
1569336730.94228
1569336730.95791
1569336730.97354
1569336730.98916
1569336731.00479
1569336731.02041
1569336731.03604
1569336731.05166
1569336731.06729
1569336731.08292
1569336731.09854
1569336731.11417
1569336731.12979
1569336731.14542
1569336731.16104
1569336731.17667
1569336731.1923
1569336731.20792
1569336731.22355
1569336731.23917
1569336731.2548
1569336731.27042
1569336731.28605
1569336731.30168
1569336731.3173
1569336731.33293
1569336731.34855
1569336731.36418
1569336731.3798
1569336731.39543
1569336731.41106
1569336731.42668
1569336731.44231
1569336731.45793
1569336731.47356
1569336731.48918
1569336731.50481
1569336731.52044
1569336731.53606
1569336731.55169
1569336731.56731
1569336731.58294
1569336731.59856
1569336731.61419
1569336731.62982
1569336731.64544
1569336731.66107
1569336731.67669
1569336731.69232
1569336731.70794
1569336731.72357
1569336731.7392
1569336731.75482
1569336731.77045
1569336731.78607
1569336731.8017
1569336731.81732
1569336731.83295
1569336731.84858
1569336731.8642
1569336731.87983
1569336731.89545
1569336731.91108
1569336731.9267
1569336731.94233
1569336731.95796
1569336731.97358
1569336731.98921
1569336732.00483
1569336732.02046
1569336732.03608
1569336732.05171
1569336732.06734
1569336732.08296
1569336732.09859
1569336732.11421
1569336732.12984
1569336732.14546
1569336732.16109
1569336732.17672
1569336732.19234
1569336732.20797
1569336732.22359
1569336732.23922
1569336732.25484
1569336732.27047
1569336732.2861
1569336732.30172
1569336732.31735
1569336732.33297
1569336732.3486
1569336732.36422
1569336732.37985
1569336732.39548
1569336732.4111
1569336732.42673
1569336732.44235
1569336732.45798
1569336732.4736
1569336732.48923
1569336732.50486
1569336732.52048
1569336732.53611
1569336732.55173
1569336732.56736
1569336732.58298
1569336732.59861
1569336732.61424
1569336732.62986
1569336732.64549
1569336732.66111
1569336732.67674
1569336732.69236
1569336732.70799
1569336732.72362
1569336732.73924
1569336732.75487
1569336732.77049
1569336732.78612
1569336732.80175
1569336732.81737
1569336732.833
1569336732.84862
1569336732.86425
1569336732.87987
1569336732.8955
1569336732.91113
1569336732.92675
1569336732.94238
1569336732.958
1569336732.97363
1569336732.98925
1569336733.00488
1569336733.02051
1569336733.03613
1569336733.05176
1569336733.06738
1569336733.08301
1569336733.09863
1569336733.11426
1569336733.12989
1569336733.14551
1569336733.16114
1569336733.17676
1569336733.19239
1569336733.20801
1569336733.22364
1569336733.23927
1569336733.25489
1569336733.27052
1569336733.28614
1569336733.30177
1569336733.31739
1569336733.33302
1569336733.34865
1569336733.36427
1569336733.3799
1569336733.39552
1569336733.41115
1569336733.42677
1569336733.4424
1569336733.45803
1569336733.47365
1569336733.48928
1569336733.5049
1569336733.52053
1569336733.53615
1569336733.55178
1569336733.56741
1569336733.58303
1569336733.59866
1569336733.61428
1569336733.62991
1569336733.64553
1569336733.66116
1569336733.67679
1569336733.69241
1569336733.70804
1569336733.72366
1569336733.73929
1569336733.75491
1569336733.77054
1569336733.78617
1569336733.80179
1569336733.81742
1569336733.83304
1569336733.84867
1569336733.86429
1569336733.87992
1569336733.89555
1569336733.91117
1569336733.9268
1569336733.94242
1569336733.95805
1569336733.97367
1569336733.9893
1569336734.00493
1569336734.02055
1569336734.03618
1569336734.0518
1569336734.06743
1569336734.08305
1569336734.09868
1569336734.11431
1569336734.12993
1569336734.14556
1569336734.16118
1569336734.17681
1569336734.19243
1569336734.20806
1569336734.22369
1569336734.23931
1569336734.25494
1569336734.27056
1569336734.28619
1569336734.30181
1569336734.31744
1569336734.33307
1569336734.34869
1569336734.36432
1569336734.37994
1569336734.39557
1569336734.41119
1569336734.42682
1569336734.44245
1569336734.45807
1569336734.4737
1569336734.48932
1569336734.50495
1569336734.52057
1569336734.5362
1569336734.55183
1569336734.56745
1569336734.58308
1569336734.5987
1569336734.61433
1569336734.62995
1569336734.64558
1569336734.66121
1569336734.67683
1569336734.69246
1569336734.70808
1569336734.72371
1569336734.73933
1569336734.75496
1569336734.77059
1569336734.78621
1569336734.80184
1569336734.81746
1569336734.83309
1569336734.84871
1569336734.86434
1569336734.87997
1569336734.89559
1569336734.91122
1569336734.92684
1569336734.94247
1569336734.9581
1569336734.97372
1569336734.98935
1569336735.00497
1569336735.0206
1569336735.03622
1569336735.05185
1569336735.06748
1569336735.0831
1569336735.09873
1569336735.11435
1569336735.12998
1569336735.1456
1569336735.16123
1569336735.17686
1569336735.19248
1569336735.20811
1569336735.22373
1569336735.23936
1569336735.25498
1569336735.27061
1569336735.28624
1569336735.30186
1569336735.31749
1569336735.33311
1569336735.34874
1569336735.36436
1569336735.37999
1569336735.39562
1569336735.41124
1569336735.42687
1569336735.44249
1569336735.45812
1569336735.47374
1569336735.48937
1569336735.505
1569336735.52062
1569336735.53625
1569336735.55187
1569336735.5675
1569336735.58312
1569336735.59875
1569336735.61438
1569336735.63
1569336735.64563
1569336735.66125
1569336735.67688
1569336735.6925
1569336735.70813
1569336735.72376
1569336735.73938
1569336735.75501
1569336735.77063
1569336735.78626
1569336735.80188
1569336735.81751
1569336735.83314
1569336735.84876
1569336735.86439
1569336735.88001
1569336735.89564
1569336735.91126
1569336735.92689
1569336735.94252
1569336735.95814
1569336735.97377
1569336735.98939
1569336736.00502
1569336736.02064
1569336736.03627
1569336736.0519
1569336736.06752
1569336736.08315
1569336736.09877
1569336736.1144
1569336736.13002
1569336736.14565
1569336736.16128
1569336736.1769
1569336736.19253
1569336736.20815
1569336736.22378
1569336736.2394
1569336736.25503
1569336736.27066
1569336736.28628
1569336736.30191
1569336736.31753
1569336736.33316
1569336736.34878
1569336736.36441
1569336736.38004
1569336736.39566
1569336736.41129
1569336736.42691
1569336736.44254
1569336736.45816
1569336736.47379
1569336736.48942
1569336736.50504
1569336736.52067
1569336736.53629
1569336736.55192
1569336736.56754
1569336736.58317
1569336736.5988
1569336736.61442
1569336736.63005
1569336736.64567
1569336736.6613
1569336736.67692
1569336736.69255
1569336736.70818
1569336736.7238
1569336736.73943
1569336736.75505
1569336736.77068
1569336736.7863
1569336736.80193
1569336736.81756
1569336736.83318
1569336736.84881
1569336736.86443
1569336736.88006
1569336736.89568
1569336736.91131
1569336736.92694
1569336736.94256
1569336736.95819
1569336736.97381
1569336736.98944
1569336737.00506
1569336737.02069
1569336737.03632
1569336737.05194
1569336737.06757
1569336737.08319
1569336737.09882
1569336737.11444
1569336737.13007
1569336737.1457
1569336737.16132
1569336737.17695
1569336737.19257
1569336737.2082
1569336737.22382
1569336737.23945
1569336737.25508
1569336737.2707
1569336737.28633
1569336737.30195
1569336737.31758
1569336737.3332
1569336737.34883
1569336737.36446
1569336737.38008
1569336737.39571
1569336737.41133
1569336737.42696
1569336737.44258
1569336737.45821
1569336737.47384
1569336737.48946
1569336737.50509
1569336737.52071
1569336737.53634
1569336737.55197
1569336737.56759
1569336737.58322
1569336737.59884
1569336737.61447
1569336737.63009
1569336737.64572
1569336737.66135
1569336737.67697
1569336737.6926
1569336737.70822
1569336737.72385
1569336737.73947
1569336737.7551
1569336737.77073
1569336737.78635
1569336737.80198
1569336737.8176
1569336737.83323
1569336737.84885
1569336737.86448
1569336737.88011
1569336737.89573
1569336737.91136
1569336737.92698
1569336737.94261
1569336737.95823
1569336737.97386
1569336737.98949
1569336738.00511
1569336738.02074
1569336738.03636
1569336738.05199
1569336738.06761
1569336738.08324
1569336738.09887
1569336738.11449
1569336738.13012
1569336738.14574
1569336738.16137
1569336738.17699
1569336738.19262
1569336738.20825
1569336738.22387
1569336738.2395
1569336738.25512
1569336738.27075
1569336738.28637
1569336738.302
1569336738.31763
1569336738.33325
1569336738.34888
1569336738.3645
1569336738.38013
1569336738.39575
1569336738.41138
1569336738.42701
1569336738.44263
1569336738.45826
1569336738.47388
1569336738.48951
1569336738.50513
1569336738.52076
1569336738.53639
1569336738.55201
1569336738.56764
1569336738.58326
1569336738.59889
1569336738.61451
1569336738.63014
1569336738.64577
1569336738.66139
1569336738.67702
1569336738.69264
1569336738.70827
1569336738.72389
1569336738.73952
1569336738.75515
1569336738.77077
1569336738.7864
1569336738.80202
1569336738.81765
1569336738.83327
1569336738.8489
1569336738.86453
1569336738.88015
1569336738.89578
1569336738.9114
1569336738.92703
1569336738.94265
1569336738.95828
1569336738.97391
1569336738.98953
1569336739.00516
1569336739.02078
1569336739.03641
1569336739.05203
1569336739.06766
1569336739.08329
1569336739.09891
1569336739.11454
1569336739.13016
1569336739.14579
1569336739.16141
1569336739.17704
1569336739.19267
1569336739.20829
1569336739.22392
1569336739.23954
1569336739.25517
1569336739.27079
1569336739.28642
1569336739.30205
1569336739.31767
1569336739.3333
1569336739.34892
1569336739.36455
1569336739.38017
1569336739.3958
1569336739.41143
1569336739.42705
1569336739.44268
1569336739.4583
1569336739.47393
1569336739.48955
1569336739.50518
1569336739.52081
1569336739.53643
1569336739.55206
1569336739.56768
1569336739.58331
1569336739.59893
1569336739.61456
1569336739.63019
1569336739.64581
1569336739.66144
1569336739.67706
1569336739.69269
1569336739.70831
1569336739.72394
1569336739.73957
1569336739.75519
1569336739.77082
1569336739.78644
1569336739.80207
1569336739.8177
1569336739.83332
1569336739.84895
1569336739.86457
1569336739.8802
1569336739.89582
1569336739.91145
1569336739.92708
1569336739.9427
1569336739.95833
1569336739.97395
1569336739.98958
1569336740.0052
1569336740.02083
1569336740.03646
1569336740.05208
1569336740.06771
1569336740.08333
1569336740.09896
1569336740.11458
1569336740.13021
1569336740.14584
1569336740.16146
1569336740.17709
1569336740.19271
1569336740.20834
1569336740.22396
1569336740.23959
1569336740.25522
1569336740.27084
1569336740.28647
1569336740.30209
1569336740.31772
1569336740.33334
1569336740.34897
1569336740.3646
1569336740.38022
1569336740.39585
1569336740.41147
1569336740.4271
1569336740.44272
1569336740.45835
1569336740.47398
1569336740.4896
1569336740.50523
1569336740.52085
1569336740.53648
1569336740.5521
1569336740.56773
1569336740.58336
1569336740.59898
1569336740.61461
1569336740.63023
1569336740.64586
1569336740.66148
1569336740.67711
1569336740.69274
1569336740.70836
1569336740.72399
1569336740.73961
1569336740.75524
1569336740.77086
1569336740.78649
1569336740.80212
1569336740.81774
1569336740.83337
1569336740.84899
1569336740.86462
1569336740.88024
1569336740.89587
1569336740.9115
1569336740.92712
1569336740.94275
1569336740.95837
1569336740.974
1569336740.98962
1569336741.00525
1569336741.02088
1569336741.0365
1569336741.05213
1569336741.06775
1569336741.08338
1569336741.099
1569336741.11463
1569336741.13026
1569336741.14588
1569336741.16151
1569336741.17713
1569336741.19276
1569336741.20838
1569336741.22401
1569336741.23964
1569336741.25526
1569336741.27089
1569336741.28651
1569336741.30214
1569336741.31776
1569336741.33339
1569336741.34902
1569336741.36464
1569336741.38027
1569336741.39589
1569336741.41152
1569336741.42714
1569336741.44277
1569336741.4584
1569336741.47402
1569336741.48965
1569336741.50527
1569336741.5209
1569336741.53652
1569336741.55215
1569336741.56778
1569336741.5834
1569336741.59903
1569336741.61465
1569336741.63028
1569336741.6459
1569336741.66153
1569336741.67716
1569336741.69278
1569336741.70841
1569336741.72403
1569336741.73966
1569336741.75528
1569336741.77091
1569336741.78654
1569336741.80216
1569336741.81779
1569336741.83341
1569336741.84904
1569336741.86466
1569336741.88029
1569336741.89592
1569336741.91154
1569336741.92717
1569336741.94279
1569336741.95842
1569336741.97404
1569336741.98967
1569336742.0053
1569336742.02092
1569336742.03655
1569336742.05217
1569336742.0678
1569336742.08343
1569336742.09905
1569336742.11468
1569336742.1303
1569336742.14593
1569336742.16155
1569336742.17718
1569336742.19281
1569336742.20843
1569336742.22406
1569336742.23968
1569336742.25531
1569336742.27093
1569336742.28656
1569336742.30219
1569336742.31781
1569336742.33344
1569336742.34906
1569336742.36469
1569336742.38031
1569336742.39594
1569336742.41157
1569336742.42719
1569336742.44282
1569336742.45844
1569336742.47407
1569336742.48969
1569336742.50532
1569336742.52095
1569336742.53657
1569336742.5522
1569336742.56782
1569336742.58345
1569336742.59907
1569336742.6147
1569336742.63033
1569336742.64595
1569336742.66158
1569336742.6772
1569336742.69283
1569336742.70845
1569336742.72408
1569336742.73971
1569336742.75533
1569336742.77096
1569336742.78658
1569336742.80221
1569336742.81783
1569336742.83346
1569336742.84909
1569336742.86471
1569336742.88034
1569336742.89596
1569336742.91159
1569336742.92721
1569336742.94284
1569336742.95847
1569336742.97409
1569336742.98972
1569336743.00534
1569336743.02097
1569336743.03659
1569336743.05222
1569336743.06785
1569336743.08347
1569336743.0991
1569336743.11472
1569336743.13035
1569336743.14597
1569336743.1616
1569336743.17723
1569336743.19285
1569336743.20848
1569336743.2241
1569336743.23973
1569336743.25535
1569336743.27098
1569336743.28661
1569336743.30223
1569336743.31786
1569336743.33348
1569336743.34911
1569336743.36473
1569336743.38036
1569336743.39599
1569336743.41161
1569336743.42724
1569336743.44286
1569336743.45849
1569336743.47411
1569336743.48974
1569336743.50537
1569336743.52099
1569336743.53662
1569336743.55224
1569336743.56787
1569336743.58349
1569336743.59912
1569336743.61475
1569336743.63037
1569336743.646
1569336743.66162
1569336743.67725
1569336743.69287
1569336743.7085
1569336743.72413
1569336743.73975
1569336743.75538
1569336743.771
1569336743.78663
1569336743.80225
1569336743.81788
1569336743.83351
1569336743.84913
1569336743.86476
1569336743.88038
1569336743.89601
1569336743.91163
1569336743.92726
1569336743.94289
1569336743.95851
1569336743.97414
1569336743.98976
1569336744.00539
1569336744.02101
1569336744.03664
1569336744.05227
1569336744.06789
1569336744.08352
1569336744.09914
1569336744.11477
1569336744.13039
1569336744.14602
1569336744.16165
1569336744.17727
1569336744.1929
1569336744.20852
1569336744.22415
1569336744.23977
1569336744.2554
1569336744.27103
1569336744.28665
1569336744.30228
1569336744.3179
1569336744.33353
1569336744.34915
1569336744.36478
1569336744.38041
1569336744.39603
1569336744.41166
1569336744.42728
1569336744.44291
1569336744.45853
1569336744.47416
1569336744.48979
1569336744.50541
1569336744.52104
1569336744.53666
1569336744.55229
1569336744.56791
1569336744.58354
1569336744.59917
1569336744.61479
1569336744.63042
1569336744.64604
1569336744.66167
1569336744.67729
1569336744.69292
1569336744.70855
1569336744.72417
1569336744.7398
1569336744.75542
1569336744.77105
1569336744.78668
1569336744.8023
1569336744.81793
1569336744.83355
1569336744.84918
1569336744.8648
1569336744.88043
1569336744.89606
1569336744.91168
1569336744.92731
1569336744.94293
1569336744.95856
1569336744.97418
1569336744.98981
1569336745.00544
1569336745.02106
1569336745.03669
1569336745.05231
1569336745.06794
1569336745.08356
1569336745.09919
1569336745.11482
1569336745.13044
1569336745.14607
1569336745.16169
1569336745.17732
1569336745.19294
1569336745.20857
1569336745.2242
1569336745.23982
1569336745.25545
1569336745.27107
1569336745.2867
1569336745.30232
1569336745.31795
1569336745.33358
1569336745.3492
1569336745.36483
1569336745.38045
1569336745.39608
1569336745.4117
1569336745.42733
1569336745.44296
1569336745.45858
1569336745.47421
1569336745.48983
1569336745.50546
1569336745.52108
1569336745.53671
1569336745.55234
1569336745.56796
1569336745.58359
1569336745.59921
1569336745.61484
1569336745.63046
1569336745.64609
1569336745.66172
1569336745.67734
1569336745.69297
1569336745.70859
1569336745.72422
1569336745.73984
1569336745.75547
1569336745.7711
1569336745.78672
1569336745.80235
1569336745.81797
1569336745.8336
1569336745.84922
1569336745.86485
1569336745.88048
1569336745.8961
1569336745.91173
1569336745.92735
1569336745.94298
1569336745.9586
1569336745.97423
1569336745.98986
1569336746.00548
1569336746.02111
1569336746.03673
1569336746.05236
1569336746.06798
1569336746.08361
1569336746.09924
1569336746.11486
1569336746.13049
1569336746.14611
1569336746.16174
1569336746.17736
1569336746.19299
1569336746.20862
1569336746.22424
1569336746.23987
1569336746.25549
1569336746.27112
1569336746.28674
1569336746.30237
1569336746.318
1569336746.33362
1569336746.34925
1569336746.36487
1569336746.3805
1569336746.39612
1569336746.41175
1569336746.42738
1569336746.443
1569336746.45863
1569336746.47425
1569336746.48988
1569336746.5055
1569336746.52113
1569336746.53676
1569336746.55238
1569336746.56801
1569336746.58363
1569336746.59926
1569336746.61488
1569336746.63051
1569336746.64614
1569336746.66176
1569336746.67739
1569336746.69301
1569336746.70864
1569336746.72426
1569336746.73989
1569336746.75552
1569336746.77114
1569336746.78677
1569336746.80239
1569336746.81802
1569336746.83364
1569336746.84927
1569336746.8649
1569336746.88052
1569336746.89615
1569336746.91177
1569336746.9274
1569336746.94303
1569336746.95865
1569336746.97428
1569336746.9899
1569336747.00553
1569336747.02115
1569336747.03678
1569336747.05241
1569336747.06803
1569336747.08366
1569336747.09928
1569336747.11491
1569336747.13053
1569336747.14616
1569336747.16179
1569336747.17741
1569336747.19304
1569336747.20866
1569336747.22429
1569336747.23991
1569336747.25554
1569336747.27117
1569336747.28679
1569336747.30242
1569336747.31804
1569336747.33367
1569336747.34929
1569336747.36492
1569336747.38055
1569336747.39617
1569336747.4118
1569336747.42742
1569336747.44305
1569336747.45867
1569336747.4743
1569336747.48993
1569336747.50555
1569336747.52118
1569336747.5368
1569336747.55243
1569336747.56805
1569336747.58368
1569336747.59931
1569336747.61493
1569336747.63056
1569336747.64618
1569336747.66181
1569336747.67743
1569336747.69306
1569336747.70869
1569336747.72431
1569336747.73994
1569336747.75556
1569336747.77119
1569336747.78681
1569336747.80244
1569336747.81807
1569336747.83369
1569336747.84932
1569336747.86494
1569336747.88057
1569336747.89619
1569336747.91182
1569336747.92745
1569336747.94307
1569336747.9587
1569336747.97432
1569336747.98995
1569336748.00557
1569336748.0212
1569336748.03683
1569336748.05245
1569336748.06808
1569336748.0837
1569336748.09933
1569336748.11495
1569336748.13058
1569336748.14621
1569336748.16183
1569336748.17746
1569336748.19308
1569336748.20871
1569336748.22433
1569336748.23996
1569336748.25559
1569336748.27121
1569336748.28684
1569336748.30246
1569336748.31809
1569336748.33371
1569336748.34934
1569336748.36497
1569336748.38059
1569336748.39622
1569336748.41184
1569336748.42747
1569336748.44309
1569336748.45872
1569336748.47435
1569336748.48997
1569336748.5056
1569336748.52122
1569336748.53685
1569336748.55247
1569336748.5681
1569336748.58373
1569336748.59935
1569336748.61498
1569336748.6306
1569336748.64623
1569336748.66185
1569336748.67748
1569336748.69311
1569336748.70873
1569336748.72436
1569336748.73998
1569336748.75561
1569336748.77123
1569336748.78686
1569336748.80249
1569336748.81811
1569336748.83374
1569336748.84936
1569336748.86499
1569336748.88061
1569336748.89624
1569336748.91187
1569336748.92749
1569336748.94312
1569336748.95874
1569336748.97437
1569336748.98999
1569336749.00562
1569336749.02125
1569336749.03687
1569336749.0525
1569336749.06812
1569336749.08375
1569336749.09937
1569336749.115
1569336749.13063
1569336749.14625
1569336749.16188
1569336749.1775
1569336749.19313
1569336749.20876
1569336749.22438
1569336749.24001
1569336749.25563
1569336749.27126
1569336749.28688
1569336749.30251
1569336749.31814
1569336749.33376
1569336749.34939
1569336749.36501
1569336749.38064
1569336749.39626
1569336749.41189
1569336749.42752
1569336749.44314
1569336749.45877
1569336749.47439
1569336749.49002
1569336749.50564
1569336749.52127
1569336749.5369
1569336749.55252
1569336749.56815
1569336749.58377
1569336749.5994
1569336749.61502
1569336749.63065
1569336749.64628
1569336749.6619
1569336749.67753
1569336749.69315
1569336749.70878
1569336749.7244
1569336749.74003
1569336749.75566
1569336749.77128
1569336749.78691
1569336749.80253
1569336749.81816
1569336749.83378
1569336749.84941
1569336749.86504
1569336749.88066
1569336749.89629
1569336749.91191
1569336749.92754
1569336749.94316
1569336749.95879
1569336749.97442
1569336749.99004
1569336750.00567
1569336750.02129
1569336750.03692
1569336750.05254
1569336750.06817
1569336750.0838
1569336750.09942
1569336750.11505
1569336750.13067
1569336750.1463
1569336750.16192
1569336750.17755
1569336750.19318
1569336750.2088
1569336750.22443
1569336750.24005
1569336750.25568
1569336750.2713
1569336750.28693
1569336750.30256
1569336750.31818
1569336750.33381
1569336750.34943
1569336750.36506
1569336750.38068
1569336750.39631
1569336750.41194
1569336750.42756
1569336750.44319
1569336750.45881
1569336750.47444
1569336750.49006
1569336750.50569
1569336750.52132
1569336750.53694
1569336750.55257
1569336750.56819
1569336750.58382
1569336750.59944
1569336750.61507
1569336750.6307
1569336750.64632
1569336750.66195
1569336750.67757
1569336750.6932
1569336750.70882
1569336750.72445
1569336750.74008
1569336750.7557
1569336750.77133
1569336750.78695
1569336750.80258
1569336750.8182
1569336750.83383
1569336750.84946
1569336750.86508
1569336750.88071
1569336750.89633
1569336750.91196
1569336750.92758
1569336750.94321
1569336750.95884
1569336750.97446
1569336750.99009
1569336751.00571
1569336751.02134
1569336751.03696
1569336751.05259
1569336751.06822
1569336751.08384
1569336751.09947
1569336751.11509
1569336751.13072
1569336751.14634
1569336751.16197
1569336751.1776
1569336751.19322
1569336751.20885
1569336751.22447
1569336751.2401
1569336751.25572
1569336751.27135
1569336751.28698
1569336751.3026
1569336751.31823
1569336751.33385
1569336751.34948
1569336751.3651
1569336751.38073
1569336751.39636
1569336751.41198
1569336751.42761
1569336751.44323
1569336751.45886
1569336751.47448
1569336751.49011
1569336751.50574
1569336751.52136
1569336751.53699
1569336751.55261
1569336751.56824
1569336751.58386
1569336751.59949
1569336751.61512
1569336751.63074
1569336751.64637
1569336751.66199
1569336751.67762
1569336751.69324
1569336751.70887
1569336751.7245
1569336751.74012
1569336751.75575
1569336751.77137
1569336751.787
1569336751.80263
1569336751.81825
1569336751.83388
1569336751.8495
1569336751.86513
1569336751.88075
1569336751.89638
1569336751.91201
1569336751.92763
1569336751.94326
1569336751.95888
1569336751.97451
1569336751.99013
1569336752.00576
1569336752.02139
1569336752.03701
1569336752.05264
1569336752.06826
1569336752.08389
1569336752.09951
1569336752.11514
1569336752.13077
1569336752.14639
1569336752.16202
1569336752.17764
1569336752.19327
1569336752.20889
1569336752.22452
1569336752.24015
1569336752.25577
1569336752.2714
1569336752.28702
1569336752.30265
1569336752.31827
1569336752.3339
1569336752.34953
1569336752.36515
1569336752.38078
1569336752.3964
1569336752.41203
1569336752.42765
1569336752.44328
1569336752.45891
1569336752.47453
1569336752.49016
1569336752.50578
1569336752.52141
1569336752.53703
1569336752.55266
1569336752.56829
1569336752.58391
1569336752.59954
1569336752.61516
1569336752.63079
1569336752.64641
1569336752.66204
1569336752.67767
1569336752.69329
1569336752.70892
1569336752.72454
1569336752.74017
1569336752.75579
1569336752.77142
1569336752.78705
1569336752.80267
1569336752.8183
1569336752.83392
1569336752.84955
1569336752.86517
1569336752.8808
1569336752.89643
1569336752.91205
1569336752.92768
1569336752.9433
1569336752.95893
1569336752.97455
1569336752.99018
1569336753.00581
1569336753.02143
1569336753.03706
1569336753.05268
1569336753.06831
1569336753.08393
1569336753.09956
1569336753.11519
1569336753.13081
1569336753.14644
1569336753.16206
1569336753.17769
1569336753.19331
1569336753.20894
1569336753.22457
1569336753.24019
1569336753.25582
