-17.35997
-18.35504
-18.92277
-19.30288
-19.69357
-20.20271
-20.79331
-21.28231
-21.35792
-20.60857
-18.65341
-15.24985
-10.39537
-4.381386
2.231068
8.72842
14.38144
18.59198
21.02129
21.61684
20.57066
18.25699
15.1195
11.60314
8.089336
4.86327
2.147602
0.07655334
-1.253979
-1.827641
-1.687653
-0.9541512
0.2031059
1.557877
2.837589
3.764771
4.112091
3.792599
2.873501
1.623024
0.3159027
-0.8168221
-1.704525
-2.438663
-3.179276
-4.042698
-5.043737
-6.086771
-7.006901
-7.694113
-8.082163
-8.217661
-8.210695
-8.239433
-8.480709
-9.038372
-9.829124
-10.51755
-10.56443
-9.378864
-6.540165
-2.016745
3.778467
10.09769
16.0724
20.97241
24.33272
25.97572
25.96774
24.53839
21.99961
18.72308
15.07432
11.38935
7.929832
4.915873
2.480909
0.7458553
-0.2295895
-0.4500217
-0.03232002
0.7948303
1.751566
2.545998
3.011097
3.085478
2.826025
2.282827
1.481247
0.3632965
-1.14897
-3.092777
-5.384577
-7.837395
-10.18517
-12.17632
-13.68727
-14.7063
-15.33555
-15.73801
-16.0824
-16.49346
-17.04718
-17.68087
-18.16221
-18.09282
-16.98854
-14.43299
-10.254
-4.62665
1.968578
8.776838
14.99657
19.92877
23.09624
24.35201
23.85559
22.00535
19.30773
16.26959
13.22654
10.36177
7.747133
5.404736
3.416906
1.915659
1.03211
0.7904968
1.097095
1.709707
2.342236
2.735796
2.713875
2.225828
1.33329
0.1674252
-1.139261
-2.483816
-3.862822
-5.32243
-6.923141
-8.705931
-10.63235
-12.58676
-14.39499
-15.89498
-16.97121
-17.59696
-17.86966
-17.96106
-18.07479
-18.37246
-18.88707
-19.46674
-19.73197
-19.13588
-17.10255
-13.24226
-7.509371
-0.3153543
7.553073
15.11138
21.41725
25.7944
27.95641
27.98908
26.27378
23.34671
19.75188
15.98451
12.43617
9.376008
6.944922
5.162593
3.977088
3.285383
2.967479
2.926622
3.070848
3.356786
3.731684
4.108962
4.334381
4.24528
3.691261
2.617166
1.083836
-0.7318926
-2.620025
-4.365784
-5.857793
-7.077328
-8.101088
-9.047184
-10.02295
-11.06305
-12.12209
-13.10953
-13.87722
-14.33235
-14.45911
-14.34735
-14.18927
-14.16788
-14.39246
-14.77498
-14.9749
-14.44513
-12.59421
-9.000421
-3.598547
3.203485
10.62314
17.67347
23.42532
27.22474
28.81493
28.34985
26.26406
23.15664
19.5865
16.02382
12.78859
10.05844
7.934916
6.410173
5.441917
4.928216
4.757715
4.783469
4.913753
5.097425
5.310638
5.533581
5.684649
5.656065
5.302521
4.500968
3.199318
1.463084
-0.5304537
-2.550987
-4.362594
-5.858834
-7.062038
-8.107592
-9.160258
-10.34112
-11.66806
-13.04937
-14.36569
-15.47526
-16.28824
-16.77527
-16.98467
-17.04005
-17.10565
-17.34638
-17.77839
-18.16328
-17.9883
-16.60235
-13.45943
-8.410736
-1.797968
5.593425
12.78229
18.89238
23.34289
25.92862
26.75481
26.08442
24.22637
21.48076
18.14549
14.53334
10.99371
7.867842
5.444437
3.866978
3.099823
2.942558
3.12763
3.418558
3.676816
3.902991
4.139388
4.380933
4.536338
4.431933
3.863249
2.754852
1.166385
-0.7181534
-2.596857
-4.22797
-5.482316
-6.402013
-7.13969
-7.892551
-8.785703
-9.867267
-11.06279
-12.27709
-13.39515
-14.32743
-15.02278
-15.42644
-15.56118
-15.51062
-15.45733
-15.54999
-15.75026
-15.73554
-14.92184
-12.67629
-8.575033
-2.688115
4.413938
11.78483
18.40098
23.44764
26.47608
27.45982
26.65612
24.49757
21.43397
17.89562
14.26414
10.84331
7.870522
5.502138
3.811581
2.787634
2.359086
2.369217
2.655874
3.079335
3.527549
3.982059
4.438864
4.845203
5.074404
4.940436
4.274265
3.003688
1.257475
-0.7104542
-2.579504
-4.105278
-5.242595
-6.122093
-6.97836
-8.031118
-9.380207
-10.94467
-12.51866
-13.86859
-14.80243
-15.29026
-15.41545
-15.36175
-15.33193
-15.46552
-15.77279
-16.1305
-16.24946
-15.71621
-14.10316
-11.02073
-6.33487
-0.1975431
6.868751
14.07626
20.51974
25.43609
28.38648
29.325
28.57808
26.63503
23.99288
20.99627
17.85937
14.6907
11.62164
8.848763
6.572769
4.962954
4.08353
3.880229
4.227839
4.977563
5.911062
6.798141
7.354271
7.303896
6.493683
4.936962
2.853111
0.5515289
-1.675232
-3.652086
-5.367407
-6.891729
-8.348494
-9.861845
-11.53073
-13.34536
-15.11572
-16.45669
-16.94337
-16.29259
-14.56779
-12.29136
-10.22308
-9.132322
-9.397354
-10.81073
-12.60209
-13.69617
-13.07979
-10.13217
-4.738934
2.742897
11.58154
20.77931
29.15939
35.47773
38.58328
37.69052
32.63364
24.02708
13.23808
2.027794
-7.936211
-15.58092
-20.62686
-23.44542
-24.63601
-24.63515
-23.5536
-21.28053
-17.8609
-13.69556
-9.543766
-6.226692
-4.244297
-3.535103
-3.559376
-3.640881
-3.302982
-2.502853
-1.496189
-0.6628456
-0.2443237
-0.2731628
-0.6205978
-1.160912
-1.880196
-2.829891
-4.077244
-5.56213
-7.123943
-8.524471
-9.576408
-10.19753
-10.46198
-10.55998
-10.69178
-10.98255
-11.31675
-11.33701
-10.47686
-8.164867
-4.035336
1.844173
8.919834
16.28045
22.87138
27.83761
30.65759
31.25662
29.85723
26.90555
22.91434
18.38652
13.79888
9.524868
5.825306
2.857746
0.7040443
-0.6306725
-1.156681
-0.937603
-0.1610565
0.9048309
1.880466
2.399334
2.225552
1.316166
-0.1883316
-2.054031
-4.020088
-5.927471
-7.68935
-9.314972
-10.86768
-12.40007
-13.97421
-15.58505
-17.14829
-18.49504
-19.45412
-19.87206
-19.73146
-19.12492
-18.27714
-17.4404
-16.76322
-16.21376
-15.50597
-14.20763
-11.85123
-8.115681
-2.984108
3.23941
9.965317
16.46065
22.02771
26.1181
28.34998
28.55461
26.76799
23.22815
18.40786
12.92171
7.423985
2.459583
-1.620983
-4.660347
-6.629265
-7.550243
-7.500401
-6.620567
-5.165257
-3.470451
-1.894577
-0.6961403
0.05609894
0.4262009
0.5667191
0.5227127
0.2384033
-0.4346581
-1.591904
-3.205517
-5.086197
-6.990143
-8.7192
-10.18325
-11.44434
-12.55397
-13.55087
-14.39682
-15.0533
-15.54573
-15.98883
-16.47446
-16.9451
-17.11315
-16.49238
-14.56741
-10.97745
-5.733307
0.7693977
7.79039
14.47924
20.05568
23.95213
25.89143
25.89754
24.24628
21.38596
17.84863
14.12357
10.59605
7.493534
4.920794
2.906733
1.456528
0.6058998
0.3993263
0.8274822
1.749907
2.902557
3.91234
4.468914
4.423119
3.823107
2.895987
1.86397
0.8609505
-0.1811657
-1.454458
-3.161045
-5.357128
-7.910091
-10.53723
-12.90796
-14.78181
-16.02517
-16.66008
-16.79668
-16.64636
-16.45429
-16.44164
-16.68587
-16.99616
-16.95627
-15.96749
-13.50728
-9.300734
-3.49575
3.367342
10.47776
16.95924
22.09365
25.39547
26.70567
26.14105
24.07824
21.02011
17.47703
13.87767
10.51218
7.5846
5.23248
3.580982
2.702251
2.589021
3.085482
3.92952
4.818115
5.494516
5.823718
5.767098
5.331031
4.523036
3.316648
1.690136
-0.3275652
-2.627331
-5.01648
-7.282882
-9.244711
-10.83745
-12.09291
-13.13046
-14.06558
-14.95467
-15.77096
-16.47694
-17.07595
-17.61486
-18.20021
-18.81953
-19.29849
-19.22475
-18.06095
-15.27746
-10.60236
-4.179648
3.401095
11.19655
18.13345
23.28646
26.16156
26.74674
25.4908
23.05414
20.05137
16.89587
13.76583
10.71768
7.812688
5.226216
3.210839
2.001685
1.665687
2.08537
2.978532
3.994848
4.845338
5.344201
5.430163
5.120253
4.424869
3.35348
1.879211
-0.007109642
-2.265006
-4.768569
-7.318959
-9.704168
-11.77972
-13.51233
-14.95609
-16.1924
-17.24654
-18.04673
-18.49622
-18.58289
-18.43539
-18.32226
-18.51647
-19.02929
-19.51868
-19.30452
-17.58006
-13.80087
-7.969065
-0.667696
7.090863
14.203
19.81539
23.49539
25.19638
25.16519
23.70625
21.15882
17.85987
14.19603
10.57483
7.384405
4.86908
3.106266
2.026363
1.484316
1.363245
1.615885
2.211239
3.079536
4.062727
4.943861
5.496096
5.615292
5.307032
4.646242
3.681328
2.391424
0.6914063
-1.432331
-3.880228
-6.449446
-8.88678
-11.01013
-12.74695
-14.1181
-15.19569
-16.05265
-16.72081
-17.2464
-17.69791
-18.15817
-18.6328
-18.9446
-18.71718
-17.44152
-14.63902
-10.05701
-3.841103
3.436256
10.87875
17.48882
22.43293
25.2817
26.01767
24.98023
22.6444
19.4525
15.75029
11.83575
8.006973
4.600895
1.967922
0.3384285
-0.2683296
-0.01140976
0.7802773
1.753021
2.629753
3.223034
3.453117
3.322147
2.882431
2.171688
1.224991
0.04132843
-1.371464
-2.974911
-4.645557
-6.217793
-7.552662
-8.579529
-9.350159
-9.959995
-10.47868
-10.90023
-11.19594
-11.33549
-11.31448
-11.1137
-10.57626
-9.402336
-7.208847
-3.718987
1.035194
6.633545
12.38078
17.52637
21.47961
23.94386
24.86602
24.3366
22.48114
19.42434
15.36813
10.67941
5.892418
1.615715
-1.629288
-3.562286
-4.235764
-3.963623
-3.191322
-2.317039
-1.546936
-0.9320145
-0.4419708
-0.07236481
0.0656662
-0.222496
-1.094627
-2.586578
-4.556015
-6.685448
-8.662483
-10.21879
-11.23347
-11.74259
-11.91071
-11.91196
-11.93471
-12.10541
-12.42171
-12.74168
-12.74741
-11.98981
-10.0159
-6.549225
-1.573837
4.550461
11.14854
17.4079
22.50184
25.83381
27.10831
26.36103
23.91145
20.25075
15.90971
11.39642
7.12645
3.413422
0.4905472
-1.500366
-2.527336
-2.64521
-2.042984
-1.018517
0.1088562
1.055092
1.61039
1.675285
1.226791
0.2567215
-1.195213
-3.048897
-5.13858
-7.22364
-9.024635
-10.33931
-11.11234
-11.4872
-11.72363
-12.05369
-12.57918
-13.16039
-13.45792
-13.0122
-11.37529
-8.213211
-3.448311
2.676285
9.566277
16.33019
21.99905
25.74914
27.14165
26.27193
23.65654
20.04636
16.1273
12.36707
8.974556
5.986488
3.410233
1.286331
-0.3123322
-1.352737
-1.878265
-2.012207
-1.868111
-1.51442
-0.97332
-0.3019791
0.3262711
0.6252365
0.2688675
-0.938446
-2.993645
-5.608047
-8.338577
-10.7262
-12.43745
-13.39249
-13.71526
-13.72211
-13.6752
-13.68978
-13.55605
-12.7552
-10.64669
-6.718414
-0.8949127
6.341293
14.03552
21.08681
26.5493
29.89453
31.05347
30.25784
27.9031
24.41178
20.21594
15.76413
11.51219
7.825485
4.878685
2.650444
0.9297867
-0.4979248
-1.750679
-2.805122
-3.525047
-3.767044
-3.516106
-2.936584
-2.323524
-2.060913
-2.422913
-3.512344
-5.245926
-7.340897
-9.429726
-11.21204
-12.50131
-13.27322
-13.67099
-13.86649
-14.02628
-14.18759
-14.22369
-13.80933
-12.49943
-9.845718
-5.570988
0.2593422
7.159473
14.2885
20.64661
25.35142
27.87505
28.14462
26.51286
23.60756
20.07438
16.46938
13.1178
10.14217
7.526169
5.257401
3.350189
1.845295
0.7940369
0.1535416
-0.1599541
-0.3152122
-0.4695816
-0.7317696
-1.115364
-1.562294
-2.01775
-2.489243
-3.095207
-3.996666
-5.338703
-7.135399
-9.253937
-11.409
-13.25996
-14.53819
-15.15298
-15.18639
-14.89306
-14.55159
-14.42624
-14.64574
-15.12848
-15.54286
-15.34408
-13.91871
-10.82327
-5.97687
0.250679
7.11334
13.69319
19.15833
22.91512
24.71002
24.60971
22.90115
20.01174
16.43841
12.68342
9.18404
6.273267
4.091048
2.635152
1.795872
1.426948
1.376559
1.545374
1.8298
2.166798
2.497703
2.745903
2.864331
2.804253
2.547299
2.073842
1.387397
0.4959373
-0.5862975
-1.81214
-3.111589
-4.378853
-5.541106
-6.559171
-7.432704
-8.164525
-8.770997
-9.290874
-9.790375
-10.38827
-11.19747
-12.24719
-13.44859
-14.59587
-15.46163
-15.88566
-15.85839
-15.47797
-14.92687
-14.35744
-13.88051
-13.58295
-13.50684
-13.58463
-13.55806
-12.95572
-11.15763
-7.684776
-2.435303
4.141123
11.10294
17.32411
21.85414
24.20694
24.43136
22.99945
20.54083
17.62163
14.61702
11.71656
9.040913
6.711349
4.873199
3.665409
3.129723
3.155128
3.497784
3.878933
4.07954
4.060047
3.913448
3.761524
3.678036
3.59713
3.353573
2.776825
1.783665
0.4175987
-1.162838
-2.79081
-4.338837
-5.76276
-7.064083
-8.25441
-9.299641
-10.13616
-10.71364
-11.00434
-11.07768
-11.05678
-11.08549
-11.26797
-11.63196
-12.11889
-12.64345
-13.09988
-13.39569
-13.47807
-13.31847
-12.95507
-12.50868
-12.16203
-12.04903
-12.18386
-12.32648
-12.03025
-10.76814
-8.110233
-3.936634
1.472691
7.489639
13.29664
18.08046
21.24474
22.50846
21.9357
19.88549
16.85804
13.40604
9.988739
6.95948
4.511101
2.719513
1.563499
0.9597321
0.7837524
0.8817902
1.151764
1.505714
1.943939
2.434708
2.942543
3.40097
3.730064
3.888985
3.840652
3.552635
2.97567
2.046722
0.7498703
-0.8395309
-2.553253
-4.180031
-5.550751
-6.614708
-7.416016
-8.047211
-8.59185
-9.071533
-9.485542
-9.848991
-10.21486
-10.62009
-11.07796
-11.52835
-11.8817
-12.02871
-11.94516
-11.68979
-11.40778
-11.2795
-11.44127
-11.89465
-12.46561
-12.79385
-12.39095
-10.80367
-7.773994
-3.389366
1.911186
7.428818
12.37912
16.09444
18.14127
18.42368
17.15028
14.75543
11.81572
8.890114
6.375832
4.43824
3.044312
2.031212
1.264343
0.7348785
0.52005
0.7341995
1.391876
2.359619
3.422272
4.338226
4.961937
5.230553
5.136566
4.693352
3.906303
2.818878
1.513229
0.134819
-1.172264
-2.319733
-3.277115
-4.060402
-4.702728
-5.224167
-5.683716
-6.172211
-6.79731
-7.654037
-8.723083
-9.857117
-10.83642
-11.46944
-11.70113
-11.65445
-11.5549
-11.6131
-11.95018
-12.55938
-13.35616
-14.21922
-15.00504
-15.51336
-15.49081
-14.57973
-12.45959
-8.930321
-4.073318
1.693756
7.649345
12.99477
17.03288
19.38186
20.02959
19.24104
17.40172
14.85741
11.8548
8.566475
5.216377
2.111885
-0.3634491
-1.867294
-2.243904
-1.602486
-0.2549286
1.38776
2.977013
4.311035
5.326561
6.070858
6.572731
6.795868
6.630157
5.945168
4.693035
2.958858
0.997818
-0.9020424
-2.481285
-3.624435
-4.392677
-4.973724
-5.604301
-6.468933
-7.659008
-9.13723
-10.80506
-12.49402
-13.99834
-15.12873
-15.75778
-15.85387
-15.54415
-15.06931
-14.70541
-14.61766
-14.75303
-14.77488
-14.17097
-12.42548
-9.208569
-4.547985
1.135323
7.154896
12.72033
17.15762
20.05535
21.28125
20.9753
19.43942
17.02782
14.08156
10.91584
7.816853
5.083141
2.985706
1.730843
1.416191
1.945877
3.03688
4.33934
5.553253
6.498768
7.156984
7.572544
7.796339
7.78797
7.459459
6.691164
5.441469
3.81213
1.950144
0.07271385
-1.652662
-3.155569
-4.484728
-5.750185
-7.069221
-8.494944
-9.953255
-11.31741
-12.42498
-13.15814
-13.50445
-13.54081
-13.40513
-13.26078
-13.25085
-13.49353
-14.01841
-14.6851
-15.17198
-14.96655
-13.51574
-10.41444
-5.618244
0.4847469
7.140384
13.43296
18.54286
21.93401
23.41643
23.11527
21.35004
18.5482
15.16945
11.67703
8.493296
5.990438
4.380818
3.716387
3.8616
4.541606
5.442168
6.295248
6.952214
7.381988
7.633051
7.744869
7.705501
7.431048
6.819376
5.781622
4.293294
2.443648
0.3935204
-1.658244
-3.527223
-5.117603
-6.441466
-7.600346
-8.74962
-9.9662
-11.22053
-12.34964
-13.14445
-13.45465
-13.30151
-12.91215
-12.6196
-12.72553
-13.33435
-14.24692
-14.97405
-14.89708
-13.41523
-10.15446
-5.116035
1.309125
8.365598
15.10219
20.56646
24.0599
25.27257
24.36167
21.84876
18.42504
14.74989
11.2865
8.271181
5.758289
3.742172
2.24497
1.309769
0.9777069
1.183453
1.772589
2.502958
3.172434
3.659517
3.965925
4.156452
4.272169
4.264513
3.983641
3.287474
2.08593
0.4539452
-1.431097
-3.359592
-5.158436
-6.770523
-8.202404
-9.506435
-10.66446
-11.62773
-12.31092
-12.66526
-12.74404
-12.70231
-12.75552
-13.05992
-13.58174
-14.02502
-13.852
-12.46702
-9.412392
-4.623405
1.523676
8.253044
14.60937
19.70957
22.97522
24.23574
23.69019
21.78828
19.03222
15.86279
12.54816
9.253433
6.107037
3.265957
0.9599762
-0.5619164
-1.128128
-0.7681961
0.3010445
1.70813
3.05872
4.066143
4.598827
4.658802
4.328983
3.692905
2.824909
1.758438
0.5242081
-0.8565598
-2.329353
-3.811069
-5.230564
-6.522301
-7.654461
-8.632755
-9.526112
-10.37469
-11.18109
-11.89772
-12.46114
-12.85855
-13.17738
-13.49727
-13.77576
-13.72977
-12.82652
-10.50161
-6.43288
-0.7805901
5.784378
12.26587
17.69301
21.41626
23.20607
23.20899
21.75518
19.20037
15.86155
12.04395
8.095016
4.428719
1.441647
-0.557888
-1.497784
-1.549183
-1.041718
-0.3591957
0.2445831
0.6741905
1.00827
1.342628
1.730911
2.103947
2.28561
2.103901
1.469528
0.4253616
-0.9019966
-2.356056
-3.852657
-5.335819
-6.818295
-8.287548
-9.656048
-10.77223
-11.47905
-11.73691
-11.66615
-11.53205
-11.62959
-12.17226
-13.08076
-14.00087
-14.33731
-13.4527
-10.8923
-6.548927
-0.7421646
5.847771
12.3254
17.81985
21.67498
23.58861
23.60373
22.0648
19.42049
16.13091
12.59248
9.099766
5.921375
3.286499
1.368504
0.2661438
-0.0272522
0.3724785
1.276203
2.461361
3.719822
4.859829
5.726021
6.180031
6.157131
5.630302
4.649696
3.301308
1.714119
0.01399612
-1.694481
-3.336941
-4.910564
-6.424877
-7.912216
-9.36808
-10.74497
-11.93839
-12.87071
-13.50031
-13.86393
-14.09747
-14.34552
-14.7002
-15.11781
-15.3689
-15.08471
-13.82298
-11.20679
-7.066669
-1.541573
4.88245
11.44589
17.28775
21.64608
24.03193
24.31517
22.71066
19.69843
15.86604
11.82867
8.099865
5.003071
2.718967
1.246159
0.4807663
0.2587166
0.4378395
0.908905
1.598454
2.450214
3.353302
4.180424
4.745159
4.907318
4.56739
3.708027
2.401928
0.7874451
-0.9820175
-2.748055
-4.406647
-5.910904
-7.282692
-8.541172
-9.691532
-10.72326
-11.60433
-12.3112
-12.80781
-13.06968
-13.09627
-12.93911
-12.7075
-12.54759
-12.53456
-12.54662
-12.19897
-10.97777
-8.394794
-4.265648
1.187176
7.337234
13.36256
18.46588
22.05695
23.85735
23.85349
22.25052
19.41712
15.8182
11.91591
8.126461
4.770573
2.075249
0.170433
-0.8749237
-1.047787
-0.4335403
0.7869339
2.348785
3.929714
5.251625
6.107956
6.383213
6.070736
5.260082
4.067207
2.591335
0.9094315
-0.916748
-2.786362
-4.562073
-6.061874
-7.200649
-8.026516
-8.724213
-9.528385
-10.58411
-11.82704
-13.01984
-13.8735
-14.17753
-13.94779
-13.39179
-12.83327
-12.57721
-12.7746
-13.32012
-13.82233
-13.70595
-12.34912
-9.319794
-4.560581
1.544769
8.234444
14.56931
19.69019
23.04422
24.4476
24.06747
22.28138
19.53785
16.23137
12.67356
9.133512
5.860073
3.115467
1.145214
0.09938622
-0.05200958
0.4798622
1.33983
2.168821
2.743471
3.025837
3.121897
3.157047
3.162792
3.037474
2.635426
1.831762
0.6601963
-0.7210522
-2.098921
-3.333464
-4.402843
-5.411531
-6.477982
-7.648438
-8.872375
-10.01669
-10.95475
-11.64181
-12.08988
-12.33324
-12.41542
-12.35178
-12.20819
-12.11981
-12.22079
-12.55841
-12.96852
-13.05065
-12.23339
-10.03271
-6.21616
-0.9622803
5.16033
11.38193
16.91796
21.10518
23.57543
24.22326
23.19626
20.83684
17.59536
13.951
10.34023
7.121475
4.490932
2.546009
1.295321
0.6833191
0.6241016
0.9602089
1.501276
2.056694
2.498014
2.780735
2.969765
3.148596
3.323011
3.382492
3.111492
2.273781
0.7674789
-1.295609
-3.592953
-5.724947
-7.384222
-8.498222
-9.22371
-9.812504
-10.48177
-11.26918
-12.05412
-12.65785
-12.93595
-12.87519
-12.60084
-12.3178
-12.20644
-12.38125
-12.80711
-13.2666
-13.35992
-12.56244
-10.37947
-6.517067
-1.056135
5.505501
12.29078
18.31264
22.71758
25.0042
25.11924
23.4186
20.46684
16.8459
13.03508
9.325707
5.912474
2.999672
0.7686682
-0.6099072
-1.085304
-0.7628489
0.07486725
1.094064
2.003222
2.637207
3.009932
3.193343
3.245158
3.163939
2.88006
2.277618
1.306571
0.001900196
-1.528965
-3.125256
-4.671369
-6.131915
-7.549096
-9.004905
-10.51788
-12.00687
-13.29153
-14.18497
-14.56096
-14.44053
-13.99733
-13.49243
-13.19212
-13.23562
-13.5545
-13.86594
-13.68569
-12.48188
-9.850384
-5.670713
-0.2069919
5.969107
12.06557
17.3016
21.04689
22.94885
22.99393
21.44254
18.75883
15.45992
12.00486
8.720954
5.808649
3.363455
1.472485
0.2287354
-0.2958202
-0.1212108
0.6195611
1.676656
2.754487
3.597932
4.02987
4.010755
3.560669
2.780185
1.769794
0.6242868
-0.5847859
-1.817553
-3.068409
-4.337973
-5.662514
-7.053429
-8.53388
-10.08789
-11.61343
-12.95199
-13.91195
-14.34308
-14.22663
-13.69873
-13.02973
-12.51268
-12.36834
-12.62576
-13.04555
-13.17488
-12.44036
-10.31733
-6.544237
-1.229101
5.146348
11.78772
17.79085
22.34922
24.89477
25.24957
23.59817
20.44729
16.44394
12.23753
8.335979
5.04445
2.484489
0.6398501
-0.5490987
-1.191052
-1.357929
-1.144937
-0.6215084
0.1507952
1.110184
2.157985
3.126504
3.793699
3.938996
3.441817
2.320203
0.7537782
-1.023028
-2.787482
-4.408722
-5.858381
-7.132467
-8.277935
-9.333295
-10.32859
-11.26551
-12.12941
-12.84645
-13.31111
-13.46944
-13.32992
-13.06191
-12.8806
-12.92424
-13.11143
-13.0418
-12.11764
-9.734474
-5.602576
0.1233754
6.787727
13.44607
19.11357
23.03302
24.8251
24.53648
22.53867
19.38372
15.64734
11.81714
8.244692
5.124007
2.574793
0.6698318
-0.5395103
-1.060432
-0.9882026
-0.479938
0.2696033
1.088342
1.867947
2.54353
3.045402
3.2675
3.086473
2.418821
1.272517
-0.212605
-1.809943
-3.32209
-4.6538
-5.834499
-6.989594
-8.23595
-9.623852
-11.08893
-12.47939
-13.60582
-14.33097
-14.6041
-14.50637
-14.1927
-13.81402
-13.46601
-13.09011
-12.44413
-11.16921
-8.855752
-5.215652
-0.2376533
5.734033
12.02536
17.73582
22.02076
24.3025
24.40708
22.60766
19.49011
15.72665
11.88201
8.353721
5.340042
2.939498
1.211987
0.1759415
-0.1765466
0.06410646
0.7279248
1.595999
2.46353
3.143774
3.531583
3.578214
3.262499
2.589991
1.571235
0.2349072
-1.371479
-3.167711
-5.044628
-6.881871
-8.561294
-9.99658
-11.17334
-12.13646
-12.95491
-13.65137
-14.17068
-14.42388
-14.34863
-13.97354
-13.45125
-12.98441
-12.71226
-12.59021
-12.34784
-11.53863
-9.684349
-6.461455
-1.822947
3.944536
10.27475
16.43526
21.66421
25.32757
27.02018
26.66678
24.4705
20.89487
16.50842
11.90402
7.611268
4.043263
1.44839
-0.08387327
-0.6198645
-0.3798094
0.3482685
1.270477
2.146847
2.828113
3.258103
3.445877
3.394889
3.125535
2.613453
1.83009
0.7657394
-0.574048
-2.130215
-3.815971
-5.519254
-7.145138
-8.616128
-9.894543
-10.98718
-11.90388
-12.68042
-13.32079
-13.82333
-14.14404
-14.2558
-14.15756
-13.94722
-13.73821
-13.54587
-13.189
-12.26562
-10.26347
-6.792918
-1.826085
4.237225
10.60014
16.32609
20.64598
23.12811
23.74688
22.79534
20.6983
17.9158
14.83601
11.75798
8.915245
6.450883
4.439184
2.901913
1.849372
1.281021
1.199123
1.555506
2.226199
3.040189
3.773289
4.225616
4.274064
3.867262
3.000409
1.731936
0.1613483
-1.556138
-3.209485
-4.605779
-5.658011
-6.406286
-7.040438
-7.834219
-8.939379
-10.33093
-11.82019
-13.12542
-14.02457
-14.41586
-14.31017
-13.81158
-13.07436
-12.29286
-11.69926
-11.4873
-11.68117
-12.05918
-12.11619
-11.17284
-8.642249
-4.257029
1.741599
8.628796
15.38768
21.01514
24.78379
26.37157
25.90599
23.82051
20.69821
17.07895
13.37042
9.82353
6.596714
3.825101
1.665506
0.2541962
-0.3521767
-0.2483788
0.3308105
1.077631
1.735428
2.186326
2.469771
2.670652
2.804714
2.76852
2.354462
1.375801
-0.1885452
-2.158501
-4.19743
-5.959517
-7.239365
-8.049187
-8.581404
-9.102896
-9.801563
-10.72224
-11.76765
-12.77274
-13.55231
-13.99251
-14.06227
-13.81931
-13.42408
-13.07312
-12.95391
-13.13131
-13.43389
-13.45701
-12.61203
-10.34676
-6.381544
-0.872242
5.635847
12.31591
18.28701
22.85275
25.58078
26.34271
25.28624
22.73121
19.13784
15.03013
10.91189
7.184658
4.120771
1.846367
0.371706
-0.3322544
-0.3371391
0.2228146
1.154427
2.208654
3.169367
3.887783
4.339167
4.510145
4.393255
3.926268
3.039236
1.718918
0.06656837
-1.729181
-3.460394
-4.980528
-6.303141
-7.513605
-8.739307
-10.02573
-11.33323
-12.57782
-13.64939
-14.46314
-14.9185
-14.97522
-14.61967
-13.97251
-13.25803
-12.79488
-12.79315
-13.24128
-13.78492
-13.7681
-12.47013
-9.346378
-4.291113
2.264797
9.4736
16.27948
21.73217
25.21316
26.53453
25.89028
23.73886
20.61006
16.94987
13.15021
9.456106
6.111782
3.319275
1.267336
0.08863831
-0.2243328
0.1774731
1.007734
1.987593
2.862993
3.533726
3.970772
4.178553
4.102278
3.63261
2.658836
1.143963
-0.7954674
-2.930283
-4.960665
-6.65901
-7.949375
-8.911903
-9.745134
-10.62876
-11.65148
-12.73469
-13.69263
-14.32032
-14.5121
-14.32605
-13.95016
-13.61105
-13.46685
-13.55625
-13.7997
-14.04106
-14.09499
-13.70505
-12.54422
-10.21678
-6.412199
-1.072493
5.437723
12.33945
18.62686
23.34145
25.88422
26.15285
24.50638
21.54722
17.9139
14.08337
10.38232
6.993097
4.068795
1.774325
0.2418423
-0.4568825
-0.3679733
0.3409262
1.423609
2.65302
3.830031
4.787455
5.42054
5.623615
5.326464
4.533127
3.303939
1.750427
0.03552055
-1.72876
-3.456378
-5.094975
-6.605127
-7.947332
-9.097142
-10.07028
-10.91567
-11.70518
-12.49945
-13.29119
-13.97893
-14.42075
-14.5088
-14.2706
-13.87972
-13.6002
-13.63099
-13.99298
-14.4071
-14.34134
-13.16215
-10.35951
-5.744126
0.426651
7.49544
14.56018
20.69231
25.17377
27.62035
27.99084
26.54232
23.67783
19.87194
15.59381
11.31107
7.443036
4.347678
2.244089
1.165677
0.9669566
1.360869
2.053696
2.819636
3.55867
4.247338
4.890009
5.42881
5.706155
5.547525
4.807745
3.479561
1.690842
-0.3321362
-2.339784
-4.147413
-5.660726
-6.911303
-7.998742
-9.047482
-10.13874
-11.29993
-12.4818
-13.55708
-14.40201
-14.92354
-15.12307
-15.06075
-14.88365
-14.74322
-14.7479
-14.9161
-15.1087
-15.02606
-14.21948
-12.20703
-8.607071
-3.35363
3.226668
10.4298
17.28603
22.8569
26.42883
27.73898
26.92627
24.43979
20.83453
16.6435
12.32708
8.274172
4.814324
2.199665
0.5892365
-0.06165826
0.03991723
0.5569856
1.195917
1.769178
2.251946
2.715859
3.188681
3.604146
3.791711
3.570657
2.834636
1.621814
0.06684601
-1.650015
-3.378333
-5.047938
-6.641444
-8.17341
-9.656144
-11.06744
-12.35911
-13.48473
-14.35931
-14.92287
-15.14346
-15.06199
-14.79232
-14.51172
-14.41292
-14.57665
-14.90362
-14.99926
-14.28503
-12.1389
-8.14424
-2.285183
4.950699
12.65251
19.74831
25.2258
28.43362
29.19692
27.75975
24.69841
20.6817
16.30346
11.97794
7.977226
4.462011
1.584217
-0.5099044
-1.734814
-2.073034
-1.67173
-0.74018
0.4770565
1.811779
3.136963
4.332094
5.232443
5.642581
5.38453
4.382747
2.731057
0.6137667
-1.719799
-4.066716
-6.303795
-8.346814
-10.17491
-11.77888
-13.1789
-14.38422
-15.38465
-16.16998
-16.69415
-16.92434
-16.84476
-16.54162
-16.13784
-15.78133
-15.4919
-15.0913
-14.20174
-12.31762
-9.015776
-4.113071
2.13166
9.074656
15.77459
21.28126
24.88127
26.26741
25.56446
23.22585
19.87193
16.06453
12.23254
8.642935
5.415562
2.63518
0.3664064
-1.281361
-2.233457
-2.45585
-2.01251
-1.045644
0.2332439
1.565941
2.714581
3.441093
3.586388
3.059429
1.880026
0.1851292
-1.788275
-3.751423
-5.494528
-6.930393
-8.135717
-9.273878
-10.47356
-11.76467
-13.00631
-13.96223
-14.41243
-14.30953
-13.78161
-13.15389
-12.78348
-12.91377
-13.57034
-14.49993
-15.22882
-15.15264
-13.72028
-10.58121
-5.695961
0.6146698
7.731323
14.80626
20.9587
25.4479
27.84521
28.11172
26.57457
23.78106
20.32742
16.71314
13.2243
10.03141
7.243214
5.006695
3.510017
2.852165
2.972321
3.593513
4.316719
4.763275
4.751526
4.315716
3.633228
2.886497
2.15625
1.4039
0.500248
-0.6703453
-2.178852
-4.005135
-6.04475
-8.129379
-10.04469
-11.60112
-12.65953
-13.20314
-13.31916
-13.15638
-12.89927
-12.72411
-12.75764
-12.98214
-13.19591
-12.95
-11.66587
-8.816856
-4.159924
2.080223
9.198753
16.18869
22.04185
26.00906
27.75774
27.36576
25.21985
21.86059
17.86343
13.74282
9.905537
6.578938
3.863037
1.770821
0.3154411
-0.4775124
-0.5746918
-0.02431107
1.003101
2.201305
3.218861
3.757309
3.684753
3.025345
1.904846
0.4999886
-1.055794
-2.648933
-4.219143
-5.746094
-7.239212
-8.736717
-10.26704
-11.77847
-13.14967
-14.20241
-14.77133
-14.84837
-14.56635
-14.19215
-13.99643
-14.14822
-14.63759
-15.22398
-15.47618
-14.82661
-12.72762
-8.838169
-3.171581
3.805782
11.28578
18.25638
23.75981
27.12238
28.08823
26.87298
24.04721
20.33866
16.39283
12.6602
9.337257
6.448002
3.993202
2.035042
0.6745415
0.01596451
0.01783752
0.500145
1.240829
2.036327
2.770424
3.369743
3.725788
3.674473
3.061325
1.819313
0.06039047
-1.973366
-3.99424
-5.831841
-7.444981
-8.915493
-10.34518
-11.7525
-13.0656
-14.14096
-14.84443
-15.11327
-14.97335
-14.52501
-13.95026
-13.48521
-13.33297
-13.57506
-14.04045
-14.21598
-13.35265
-10.73883
-6.013077
0.59021
8.233097
15.6806
21.70393
25.44336
26.58146
25.3652
22.39795
18.42976
14.15707
10.08587
6.552895
3.66087
1.425617
-0.167244
-1.118744
-1.419933
-1.111828
-0.3373032
0.6635742
1.627747
2.34314
2.717846
2.760963
2.492905
1.899834
0.9180679
-0.4921837
-2.311455
-4.353752
-6.354763
-8.061062
-9.343895
-10.2243
-10.87302
-11.49617
-12.23228
-13.08269
-13.90865
-14.51048
-14.69693
-14.37983
-13.61255
-12.56927
-11.49473
-10.60459
-9.969009
-9.421448
-8.553303
-6.829636
-3.80299
0.6929436
6.407772
12.69365
18.70142
23.62497
26.88734
28.26414
27.81798
25.83171
22.65532
18.69969
14.40998
10.21893
6.525326
3.628777
1.703804
0.7782516
0.7704277
1.495285
2.708603
4.095627
5.336437
6.171597
6.430202
6.12088
5.362713
4.32465
3.122105
1.797131
0.336441
-1.275539
-2.991741
-4.728153
-6.361893
-7.822773
-9.084927
-10.14506
-10.96691
-11.47438
-11.60361
-11.33772
-10.80572
-10.25047
-9.922703
-9.969994
-10.31439
-10.59756
-10.28712
-8.804985
-5.772049
-1.145918
4.697067
11.03519
16.99505
21.72973
24.64671
25.5066
24.44655
21.88913
18.40276
14.54802
10.76627
7.347
4.424133
2.056293
0.2713375
-0.8829842
-1.368568
-1.197004
-0.4622478
0.6564827
1.898212
2.993099
3.755852
4.056437
3.861929
3.161144
1.960886
0.2791309
-1.81913
-4.159807
-6.496244
-8.546909
-10.14524
-11.30399
-12.17457
-12.98031
-13.83891
-14.73322
-15.49253
-15.92003
-15.9191
-15.56534
-15.07526
-14.69149
-14.55838
-14.56097
-14.35059
-13.40528
-11.18952
-7.376662
-1.972867
4.597061
11.57375
18.00316
23.0121
25.99926
26.75951
25.52825
22.80787
19.24058
15.40179
11.72278
8.458944
5.771426
3.742606
2.378576
1.641291
1.379223
1.413505
1.572498
1.755823
1.934526
2.117067
2.257277
2.243218
1.949939
1.281413
0.2597632
-0.9951587
-2.321933
-3.608146
-4.821429
-6.043374
-7.379796
-8.877491
-10.5221
-12.20078
-13.78889
-15.16494
-16.22885
-16.89395
-17.11895
-16.91436
-16.37897
-15.71952
-15.20009
-15.00219
-15.09198
-15.12649
-14.52683
-12.66102
-9.123324
-3.917679
2.488103
9.311085
15.64852
20.74817
24.11393
25.56949
25.19079
23.23512
20.08823
16.22
12.15806
8.36894
5.178601
2.719377
0.9421034
-0.2638779
-1.036838
-1.445449
-1.515522
-1.259496
-0.7235565
0.01071548
0.7901077
1.456964
1.85191
1.832073
1.292923
0.1965885
-1.390924
-3.328533
-5.420244
-7.454556
-9.287764
-10.85335
-12.17652
-13.31508
-14.32978
-15.2166
-15.9215
-16.36606
-16.49386
-16.32288
-15.95295
-15.54271
-15.26381
-15.24125
-15.47573
-15.81938
-15.96536
-15.4716
-13.87595
-10.82567
-6.239249
-0.358428
6.274437
12.91445
18.78951
23.23852
25.80019
26.28462
24.81258
21.78262
17.78339
13.48778
9.479178
6.138786
3.599229
1.834938
0.7218952
0.1750336
0.1599216
0.6674662
1.605052
2.802156
4.026984
5.054037
5.726396
5.958652
5.740113
5.09841
4.07549
2.737344
1.181613
-0.4699225
-2.090529
-3.598242
-4.966444
-6.227363
-7.441598
-8.651165
-9.847363
-10.96201
-11.86729
-12.42432
-12.52352
-12.13259
-11.36748
-10.46256
-9.694831
-9.266525
-9.158676
-9.078072
-8.497658
-6.817973
-3.591206
1.262283
7.359484
13.88876
19.84711
24.29764
26.62303
26.68623
24.77629
21.47147
17.40639
13.11837
8.936337
5.089999
1.72301
-0.977077
-2.803306
-3.63229
-3.472976
-2.536707
-1.157919
0.3084955
1.59303
2.535851
3.067971
3.145971
2.743887
1.887759
0.665791
-0.7425923
-2.150954
-3.440209
-4.623399
-5.825574
-7.191247
-8.798288
-10.55882
-12.29148
-13.76724
-14.81605
-15.36878
-15.47481
-15.242
-14.84397
-14.46471
-14.20226
-14.02088
-13.66663
-12.71
-10.63585
-7.053746
-1.868173
4.574701
11.54987
18.11395
23.35307
26.61755
27.64061
26.56837
23.86253
20.12882
15.94934
11.7832
7.935953
4.55645
1.742801
-0.4389596
-1.917916
-2.657676
-2.6863
-2.131135
-1.176229
-0.04531097
1.035888
1.913367
2.474001
2.672076
2.480432
1.887066
0.9279227
-0.3391256
-1.814713
-3.422854
-5.09892
-6.814068
-8.559051
-10.3122
-11.99997
-13.46925
-14.56739
-15.20696
-15.43188
-15.40695
-15.37423
-15.5319
-15.93574
-16.45477
-16.75754
-16.38803
-14.87532
-11.87846
-7.309837
-1.436005
5.149499
11.64338
17.24532
21.34396
23.61287
24.08589
23.0563
20.92898
18.14024
15.02511
11.85459
8.837284
6.17599
4.047672
2.586323
1.851297
1.763553
2.138478
2.732229
3.33801
3.820009
4.118055
4.207371
4.05706
3.594855
2.72084
1.369071
-0.423789
-2.499019
-4.621179
-6.597253
-8.337837
-9.891699
-11.37473
-12.90097
-14.4358
-15.83658
-16.86681
-17.34237
-17.2425
-16.73885
-16.13968
-15.74343
-15.69506
-15.8504
-15.78566
-14.92976
-12.73645
-8.918712
-3.54544
2.90759
9.682903
15.92073
20.8416
23.90812
24.8681
23.85932
21.25799
17.645
13.61518
9.665885
6.132914
3.199931
0.9399576
-0.6234579
-1.440103
-1.493697
-0.8389978
0.3262691
1.69541
2.921408
3.717869
3.972579
3.754458
3.256649
2.645202
1.97971
1.165885
0.07073021
-1.401028
-3.201406
-5.161123
-7.075043
-8.784105
-10.24001
-11.44037
-12.38937
-13.05776
-13.40936
-13.45964
-13.32234
-13.15924
-13.11679
-13.23227
-13.34539
-13.11325
-12.09926
-9.871788
-6.146652
-0.930582
5.446468
12.31044
18.83801
24.1894
27.72485
29.1251
28.43511
26.00577
22.3539
18.07272
13.68423
9.607254
6.136238
3.462191
1.682709
0.8324966
0.8614044
1.580173
2.72756
3.945005
4.916142
5.387321
5.258528
4.593134
3.556677
2.343548
1.079031
-0.2138615
-1.606256
-3.202662
-5.051651
-7.088203
-9.108044
-10.84638
-12.05774
-12.61935
-12.59081
-12.18852
-11.73289
-11.49559
-11.6195
-12.02591
-12.40238
-12.26308
-11.08377
-8.471931
-4.318928
1.134018
7.322248
13.46601
18.75906
22.48832
24.27191
24.06561
22.20036
19.25024
15.85546
12.53361
9.534986
6.84779
4.337696
1.929525
-0.2699299
-1.926622
-2.6635
-2.251312
-0.7894249
1.266169
3.27788
4.664387
5.097242
4.564552
3.314686
1.70739
0.04879951
-1.503147
-2.96431
-4.428576
-6.019262
-7.76535
-9.605501
-11.38817
-12.94684
-14.1596
-14.99898
-15.51566
-15.80239
-15.94546
-16.00008
-15.95804
-15.74524
-15.22547
-14.16473
-12.24105
-9.116274
-4.548969
1.390902
8.260361
15.28184
21.50383
26.0641
28.39601
28.38453
26.32176
22.79066
18.49748
14.07142
9.996822
6.547853
3.834486
1.805321
0.3838882
-0.5163441
-0.9442997
-0.9398785
-0.5806179
0.0114193
0.6530762
1.16283
1.404425
1.352757
1.02721
0.5023918
-0.1776543
-1.022552
-2.087084
-3.428443
-5.046454
-6.896942
-8.839981
-10.72019
-12.3874
-13.7255
-14.67709
-15.24466
-15.49636
-15.53351
-15.46236
-15.35376
-15.25547
-15.13421
-14.83094
-14.07048
-12.42553
-9.481347
-4.981272
0.9868011
7.923158
14.97176
21.13725
25.56378
27.74862
27.65351
25.61857
22.2177
18.07085
13.7527
9.696661
6.223456
3.54325
1.722848
0.7206497
0.3880234
0.5107803
0.8668661
1.281403
1.607865
1.772765
1.697415
1.323635
0.614665
-0.4216099
-1.703916
-3.084855
-4.426416
-5.648682
-6.752248
-7.814605
-8.953946
-10.2494
-11.72953
-13.31297
-14.85153
-16.14692
-17.02544
-17.36636
-17.19467
-16.66184
-16.02874
-15.56901
-15.43957
-15.596
-15.73879
-15.35418
-13.83897
-10.72012
-5.786128
0.7251644
8.129677
15.43361
21.54773
25.58855
27.13009
26.29757
23.64879
19.95799
15.92143
11.98549
8.315934
4.917583
1.79198
-0.9729338
-3.218321
-4.804592
-5.701259
-6.018332
-5.983791
-5.810537
-5.665196
-5.58197
-5.527315
-5.422709
-5.216543
-4.895714
-4.550343
-4.351446
-4.513596
-5.218695
-6.459787
-8.055544
-9.699591
-11.09978
-12.09271
-12.65205
-12.86531
-12.75909
-12.30246
-11.45454
-10.28978
-9.024366
-7.962223
-7.256407
-6.701607
-5.741863
-3.646601
0.1724434
5.855904
12.99418
20.75306
28.06823
33.90408
37.49209
38.45287
36.88052
33.33274
28.59995
23.46784
18.49008
13.91195
9.78915
6.195616
3.317497
1.396538
0.5593891
0.6293583
1.167347
1.661264
1.73596
1.324995
0.5989666
-0.2277012
-1.079342
-2.051998
-3.362236
-5.155264
-7.358858
-9.737219
-11.92626
-13.58125
-14.489
-14.61171
-14.09163
-13.20655
-12.25553
-11.45985
-10.95675
-10.73001
-10.66918
-10.54502
-10.02829
-8.74408
-6.386229
-2.799974
1.920309
7.365736
12.90611
17.77691
21.2687
22.92935
22.61728
20.56898
17.26776
13.33234
9.287956
5.511827
2.219667
-0.4640408
-2.378548
-3.328512
-3.171953
-1.961058
-0.01862431
2.083945
3.778081
4.65482
4.641455
3.938971
2.846334
1.614511
0.3005867
-1.173709
-2.955917
-5.086957
-7.4941
-9.973904
-12.28401
-14.23316
-15.71264
-16.74997
-17.46074
-18.03049
-18.60197
-19.17706
-19.50677
-19.12675
-17.47604
-14.12898
-8.998629
-2.422869
4.850711
11.91677
17.90867
22.19941
24.53155
24.94868
23.7437
21.3124
18.10172
14.50373
10.88365
7.545496
4.727356
2.589799
1.214064
0.5549889
0.4574633
0.6814575
0.9364266
0.9857507
0.7074633
0.1091595
-0.676774
-1.512743
-2.316593
-3.16023
-4.201443
-5.665523
-7.635827
-9.970368
-12.31763
-14.1791
-15.20038
-15.29086
-14.68962
-13.87292
-13.3719
-13.48964
-14.14906
-14.88698
-14.92634
-13.4978
-10.09551
-4.71328
2.134254
9.521612
16.39608
21.83405
25.23407
26.40495
25.50046
22.94434
19.28576
15.12922
11.00715
7.355319
4.446608
2.336352
0.980701
0.2111559
-0.1284876
-0.1596892
-0.001054287
0.2510488
0.4927983
0.6206841
0.5701239
0.3375492
-0.07877064
-0.6987324
-1.618743
-2.984068
-4.882089
-7.252126
-9.843246
-12.28298
-14.18477
-15.32265
-15.70351
-15.53691
-15.1287
-14.75228
-14.57102
-14.58055
-14.6001
-14.23299
-12.96574
-10.30032
-5.959161
-0.06464992
6.808172
13.74183
19.74813
24.02985
26.18347
26.23312
24.50069
21.47533
17.66599
13.52671
9.442609
5.757629
2.747326
0.6059701
-0.6138338
-0.993035
-0.7461656
-0.1403756
0.582803
1.223355
1.67517
1.884371
1.859604
1.619758
1.175167
0.4875011
-0.5368352
-1.991167
-3.905936
-6.151051
-8.464827
-10.46875
-11.85608
-12.52361
-12.60851
-12.42929
-12.31027
-12.45929
-12.88623
-13.4413
-13.83497
-13.71203
-12.67257
-10.33238
-6.466434
-1.14009
5.164057
11.60158
17.17667
21.04066
22.75457
22.35077
20.25734
17.07062
13.36429
9.580505
6.01225
2.852241
0.2431369
-1.72361
-3.000396
-3.600413
-3.586339
-3.064412
-2.17574
-1.101017
-0.05209064
0.782547
1.268386
1.347897
1.04372
0.3649588
-0.691391
-2.16394
-4.049552
-6.238013
-8.489238
-10.48421
-11.94402
-12.75768
-13.02696
-12.99286
-12.95375
-13.10798
-13.44298
-13.67539
-13.32744
-11.83438
-8.788685
-4.124983
1.80178
8.220662
14.16431
18.74844
21.41257
22.03029
20.86034
18.3811
15.07663
11.35086
7.535582
3.928533
0.8241453
-1.516421
-2.953264
-3.504353
-3.330586
-2.692257
-1.842556
-0.9691887
-0.1791525
0.4554987
0.8447018
0.8948021
0.5532322
-0.1849375
-1.262136
-2.580147
-4.036254
-5.512664
-6.903747
-8.059462
-8.853631
-9.212838
-9.211138
-9.061462
-9.035197
-9.322456
-9.843059
-10.21014
-9.826155
-8.082376
-4.659904
0.3232441
6.281185
12.34912
17.59644
21.30719
23.11197
22.97471
21.14377
18.01381
14.0596
9.801785
5.736996
2.276229
-0.3142385
-1.959235
-2.740902
-2.853187
-2.512138
-1.919244
-1.250099
-0.6333218
-0.1828117
0.0624752
0.08586025
-0.1294966
-0.6245785
-1.467243
-2.721912
-4.367805
-6.269992
-8.187633
-9.843894
-11.03282
-11.7171
-11.99898
-12.10645
-12.25769
-12.59469
-13.08225
-13.45982
-13.27093
-11.9784
-9.132866
-4.59247
1.303818
7.77858
13.79902
18.40088
20.97837
21.42491
20.05617
17.40613
14.01619
10.28366
6.52478
2.975615
-0.1096478
-2.484241
-3.965435
-4.534454
-4.327356
-3.600899
-2.633076
-1.623035
-0.6871929
0.1572208
0.8875713
1.434496
1.66046
1.377878
0.4287319
-1.233667
-3.485334
-6.057312
-8.552803
-10.59579
-11.92182
-12.45284
-12.33637
-11.91998
-11.61849
-11.75956
-12.40478
-13.26246
-13.73446
-13.08421
-10.70072
-6.388563
-0.473978
6.262903
12.77998
18.08401
21.49301
22.747
21.9892
19.66907
16.34365
12.5539
8.748222
5.232088
2.22681
-0.1243896
-1.737839
-2.581835
-2.701496
-2.252754
-1.471806
-0.6280804
0.06178284
0.5049248
0.743227
0.8862476
1.017424
1.094761
0.9394798
0.3085079
-0.9769688
-2.874729
-5.135738
-7.372419
-9.221104
-10.4824
-11.1682
-11.44457
-11.5656
-11.77153
-12.20289
-12.88059
-13.65882
-14.22113
-14.10086
-12.79589
-9.916592
-5.381981
0.480896
6.962034
13.14735
18.16304
21.39698
22.60956
21.95582
19.82462
16.68871
13.00316
9.146204
5.434978
2.192699
-0.3013191
-1.853797
-2.404399
-2.112058
-1.271899
-0.2411823
0.7029419
1.404511
1.864513
2.147283
2.271597
2.202681
1.848278
1.122418
-0.006288528
-1.499153
-3.267722
-5.200873
-7.154757
-8.979753
-10.50813
-11.5967
-12.15889
-12.25565
-12.10702
-12.01784
-12.2668
-12.95055
-13.89104
-14.61059
-14.50726
-12.99214
-9.782146
-4.965547
0.9809179
7.332329
13.29383
18.19099
21.5653
23.20605
23.11883
21.50106
18.66738
15.02277
11.01156
7.061331
3.547257
0.7543554
-1.156679
-2.173756
-2.37499
-1.950726
-1.116695
-0.1170936
0.8517013
1.632191
2.12172
2.268801
2.077198
1.563136
0.7339468
-0.4218011
-1.963092
-3.907604
-6.177402
-8.549083
-10.72027
-12.38005
-13.38531
-13.79114
-13.84811
-13.85032
-14.01654
-14.41046
-14.97945
-15.55876
-15.91303
-15.72824
-14.59995
-12.14701
-8.138212
-2.685669
3.671829
10.04976
15.49787
19.25768
21.02034
20.92772
19.40337
16.95056
13.97835
10.75238
7.42424
4.173923
1.2425
-1.08259
-2.541075
-3.007154
-2.519362
-1.286716
0.3740416
2.089605
3.547964
4.52161
4.931231
4.843272
4.384817
3.662115
2.710898
1.480446
-0.09348583
-1.999557
-4.069773
-6.030482
-7.597799
-8.61067
-9.091711
-9.240667
-9.287078
-9.399245
-9.627
-9.924699
-10.22536
-10.45602
-10.47535
-10.04616
-8.822056
-6.436485
-2.704231
2.237974
7.846863
13.29766
17.68287
20.34364
21.02142
19.87885
17.39414
14.13299
10.59807
7.120422
3.912596
1.149796
-0.9459934
-2.129728
-2.276131
-1.459337
-0.0290966
1.522284
2.754047
3.465431
3.74011
3.793581
3.787113
3.652605
3.155003
1.995962
0.09607506
-2.342697
-4.857565
-6.918755
-8.185801
-8.63369
-8.522198
-8.229239
-8.099802
-8.292301
-8.778439
-9.385595
-9.839018
-9.82963
-9.016176
-7.113323
-3.950747
0.4069843
5.579334
10.95633
15.76567
19.33693
21.23861
21.40035
19.99523
17.37374
13.89713
9.909647
5.752918
1.774101
-1.638397
-4.153194
-5.537041
-5.759869
-5.018757
-3.644787
-2.047705
-0.553381
0.6173668
1.399502
1.810253
1.864761
1.516222
0.6584911
-0.7719231
-2.766104
-5.107071
-7.476812
-9.503769
-10.91505
-11.65108
-11.84689
-11.76855
-11.67904
-11.74758
-11.96537
-12.15402
-11.96122
-10.96226
-8.767694
-5.15873
-0.2375183
5.558846
11.47465
16.66048
20.38276
22.21647
22.13316
20.42018
17.56536
14.08347
10.38488
6.781807
3.529144
0.8355522
-1.112492
-2.204737
-2.50515
-2.236729
-1.709154
-1.209192
-0.8539886
-0.600544
-0.3110466
0.09247589
0.5069351
0.6728096
0.2682838
-0.9120026
-2.841133
-5.249691
-7.72625
-9.877232
-11.43629
-12.33033
-12.67735
-12.72422
-12.76511
-13.0444
-13.62305
-14.32562
-14.72859
-14.23259
-12.27679
-8.527523
-3.07497
3.543495
10.45437
16.67921
21.37729
24.0525
24.62643
23.37075
20.78698
17.41581
13.70295
9.992401
6.510334
3.464935
1.058117
-0.5577164
-1.351025
-1.484104
-1.227692
-0.8836594
-0.6187439
-0.4378929
-0.2350655
0.08358002
0.4810753
0.7761841
0.7228012
0.1308823
-1.091976
-2.897411
-5.131729
-7.559048
-9.869213
-11.74055
-12.90469
-13.28577
-13.04013
-12.52958
-12.19036
-12.31116
-12.89492
-13.57684
-13.71935
-12.62289
-9.787544
-5.076538
1.166157
8.18972
15.02819
20.72463
24.57446
26.28876
25.97136
24.04002
21.02209
17.43219
13.66221
10.01697
6.734631
3.997787
1.948505
0.6331215
0.02365494
-0.02655029
0.2935562
0.7942162
1.334461
1.801716
2.103546
2.194366
2.027695
1.629147
1.041977
0.2891121
-0.6469498
-1.837639
-3.348408
-5.183197
-7.186035
-9.100697
-10.64338
-11.63931
-12.0822
-12.14557
-12.08422
-12.09472
-12.29891
-12.68713
-13.17472
-13.63036
-13.80042
-13.32487
-11.72942
-8.59412
-3.764313
2.483585
9.442226
16.13342
21.59389
25.13768
26.49778
25.8051
23.44727
19.94579
15.82944
11.60062
7.694439
4.449297
2.089214
0.6989117
0.196661
0.3812981
0.9792767
1.711056
2.346857
2.76544
2.96166
3.015547
3.029186
3.008945
2.887114
2.51152
1.762918
0.5567226
-1.030579
-2.823326
-4.59712
-6.151562
-7.422506
-8.46505
-9.407461
-10.36596
-11.36905
-12.31701
-13.04503
-13.39771
-13.33626
-12.98174
-12.54279
-12.27181
-12.35161
-12.80369
-13.43264
-13.84619
-13.50026
-11.82048
-8.419113
-3.247473
3.260756
10.26686
16.73391
21.743
24.72274
25.54506
24.48797
22.04608
18.7562
15.0737
11.35373
7.867531
4.852514
2.494978
0.9021244
0.07750893
-0.081007
0.2396431
0.7820225
1.32304
1.73229
2.015357
2.268883
2.574099
2.872658
2.959958
2.553334
1.465934
-0.2673788
-2.39496
-4.551539
-6.427383
-7.900958
-9.051792
-10.02281
-10.9303
-11.79711
-12.58245
-13.2759
-13.90223
-14.47147
-14.90724
-15.06604
-14.799
-14.11068
-13.21435
-12.44705
-12.09772
-12.19194
-12.37962
-12.02071
-10.45042
-7.255896
-2.455942
3.498686
9.851437
15.75662
20.45256
23.40545
24.37548
23.43103
20.9064
17.32788
13.29435
9.360581
5.922029
3.194105
1.245569
0.07569504
-0.3473673
-0.0981617
0.7051983
1.824932
3.009317
4.033434
4.784029
5.269261
5.564679
5.721789
5.702729
5.362793
4.552701
3.205466
1.415395
-0.5854368
-2.530727
-4.196556
-5.521848
-6.577126
-7.516684
-8.464366
-9.452639
-10.39655
-11.13508
-11.52993
-11.5066
-11.15046
-10.62964
-10.15831
-9.885975
-9.841706
-9.876234
-9.687984
-8.910851
-7.173503
-4.24762
-0.08309102
5.07551
10.73263
16.14912
20.56835
23.37637
24.24346
23.24672
20.74862
17.29694
13.41974
9.535024
5.903338
2.714682
0.1074927
-1.780618
-2.821389
-2.987834
-2.374324
-1.198497
0.2452703
1.626108
2.673085
3.228801
3.231103
2.758402
1.93053
0.8638473
-0.3588514
-1.707216
-3.149944
-4.635923
-6.047067
-7.310266
-8.37342
-9.330987
-10.29658
-11.35194
-12.46697
-13.47207
-14.15861
-14.35342
-14.10372
-13.59303
-13.13605
-12.9824
-13.20889
-13.62288
-13.75855
-13.01786
-10.8315
-6.889193
-1.288253
5.434507
12.41064
18.64854
23.30873
25.89203
26.30242
24.81519
21.91186
18.15408
14.05067
9.99177
6.26917
3.090693
0.6224041
-1.040294
-1.886227
-2.00843
-1.638139
-1.035604
-0.4146719
0.1223717
0.5478668
0.8789034
1.053458
0.9532366
0.4611206
-0.4471083
-1.65709
-2.963405
-4.1597
-5.160491
-5.962666
-6.681707
-7.439446
-8.321226
-9.345669
-10.4697
-11.60192
-12.63067
-13.43188
-13.9126
-14.07221
-13.99943
-13.86151
-13.80718
-13.84585
-13.77087
-13.15636
-11.45504
-8.229096
-3.329634
2.944726
9.89233
16.55519
21.97281
25.45763
26.70443
25.80699
23.16546
19.3577
14.99669
10.65154
6.741185
3.516538
1.064154
-0.6537189
-1.683652
-2.081409
-1.891171
-1.201242
-0.1864157
0.9109221
1.866154
2.512237
2.793967
2.715904
2.284971
1.485777
0.2886982
-1.259259
-3.032007
-4.850888
-6.558876
-8.080412
-9.424519
-10.62635
-11.70047
-12.62222
-13.33161
-13.79618
-14.04298
-14.15162
-14.24084
-14.40246
-14.68149
-15.01934
-15.22111
-14.93651
-13.68846
-11.02114
-6.699141
-0.8430443
6.006499
12.99092
19.17025
23.74712
26.26913
26.68778
25.27689
22.46935
18.73709
14.50249
10.15612
6.06121
2.561943
-0.092659
-1.765858
-2.491127
-2.425847
-1.777657
-0.76649
0.4304619
1.636371
2.655451
3.263956
3.303604
2.704082
1.550257
0.04382992
-1.619115
-3.280451
-4.90085
-6.492674
-8.066954
-9.59673
-11.0338
-12.33881
-13.48379
-14.47875
-15.29884
-15.90473
-16.2514
-16.34699
-16.27192
-16.18118
-16.20497
-16.3237
-16.28078
-15.59889
-13.72864
-10.25089
-5.109661
1.352103
8.393625
15.08571
20.548
24.15027
25.65659
25.19413
23.15834
20.04493
16.33474
12.42344
8.639633
5.277773
2.588909
0.7522367
-0.192231
-0.377785
-0.02838737
0.5949606
1.3103
2.034343
2.754208
3.408531
3.872694
3.974954
3.575467
2.685364
1.442812
0.05455923
-1.342559
-2.728073
-4.20937
-5.898427
-7.802259
-9.765129
-11.50972
-12.78983
-13.48018
-13.67261
-13.55909
-13.38484
-13.31008
-13.38078
-13.5378
-13.6061
-13.33247
-12.34418
-10.2225
-6.621131
-1.478392
4.848116
11.61118
17.84939
22.69365
25.58827
26.3982
25.37672
22.9671
19.65207
15.85302
11.91075
8.100601
4.681399
1.889893
-0.06391716
-1.024664
-0.9670801
-0.02200222
1.480092
3.118241
4.457151
5.193245
5.24758
4.703379
3.752691
2.561672
1.210384
-0.3195972
-2.070093
-4.034706
-6.130945
-8.17548
-9.980242
-11.37428
-12.29813
-12.79182
-12.9758
-13.01671
-13.06481
-13.20472
-13.43232
-13.63643
-13.59052
-12.96179
-11.39412
-8.553082
-4.263191
1.378979
7.928783
14.66873
20.71996
25.27683
27.8019
28.12062
26.42973
23.19081
19.01238
14.46971
10.05149
6.116055
2.894541
0.5322933
-0.9361897
-1.536964
-1.397018
-0.6961231
0.2929001
1.314188
2.13722
2.620934
2.732174
2.528429
2.077673
1.430851
0.5747108
-0.5593891
-2.042948
-3.894251
-6.053183
-8.370407
-10.64732
-12.69537
-14.37424
-15.6049
-16.34698
-16.57977
-16.32954
-15.73181
-14.99099
-14.36182
-14.02431
-13.95943
-13.8482
-13.0994
-11.05387
-7.204138
-1.483885
5.670244
13.36709
20.5073
26.0485
29.30368
30.03535
28.45553
25.12083
20.71131
15.9283
11.34682
7.381439
4.283709
2.154423
0.927866
0.4193783
0.4070759
0.6790161
1.125916
1.68927
2.321108
2.912094
3.25692
3.135921
2.418488
1.184029
-0.3471584
-1.886065
-3.250656
-4.477728
-5.720503
-7.188549
-8.949997
-10.91222
-12.82543
-14.4386
-15.59945
-16.25116
-16.44113
-16.21512
-15.64436
-14.83512
-13.99909
-13.34506
-12.97486
-12.69792
-11.99043
-10.16872
-6.63694
-1.251272
5.595882
13.03299
19.98834
25.50811
28.96593
30.1395
29.14597
26.36237
22.29835
17.53799
12.65641
8.148689
4.413832
1.669773
-0.007104874
-0.7219524
-0.6833525
-0.1747656
0.5333319
1.240491
1.829335
2.278516
2.575346
2.693048
2.540747
2.022444
1.069562
-0.2996588
-1.959347
-3.759201
-5.535324
-7.201861
-8.729031
-10.14034
-11.46481
-12.69827
-13.8094
-14.72246
-15.3725
-15.72637
-15.84066
-15.80687
-15.75187
-15.7549
-15.80041
-15.7742
-15.38473
-14.25546
-11.97163
-8.245298
-3.03349
3.377758
10.39147
17.21212
22.98181
26.98812
28.80173
28.36096
25.94616
22.107
17.50898
12.79434
8.487211
4.932839
2.284277
0.5222235
-0.4756937
-0.891695
-0.8858461
-0.5770979
-0.02309608
0.7275887
1.606144
2.489791
3.18456
3.482464
3.214646
2.307239
0.8066149
-1.154814
-3.396626
-5.707971
-7.874505
-9.73429
-11.21383
-12.34964
-13.26258
-14.10964
-14.98791
-15.88465
-16.6766
-17.16319
-17.17591
-16.66478
-15.74304
-14.64804
-13.64704
-12.94791
-12.53977
-12.16704
-11.34097
-9.491531
-6.148838
-1.193439
5.067021
11.93618
18.48002
23.79538
27.19472
28.38024
27.43286
24.7835
21.0326
16.81226
12.68187
9.008451
5.968678
3.554821
1.701089
0.3597345
-0.4241676
-0.564908
-0.01619053
1.127907
2.621739
4.150785
5.383933
6.095604
6.175513
5.623272
4.490133
2.880907
0.9435873
-1.139134
-3.126015
-4.820316
-6.10665
-7.041543
-7.787201
-8.5408
-9.42557
-10.43687
-11.46701
-12.32662
-12.84688
-12.92231
-12.56376
-11.91405
-11.21389
-10.69302
-10.40852
-10.13847
-9.367863
-7.479461
-4.020915
1.037187
7.228511
13.68726
19.4215
23.59826
25.72788
25.7264
23.82001
20.48333
16.29665
11.85118
7.654994
4.058061
1.264015
-0.6555414
-1.679997
-1.846752
-1.225995
-0.008658409
1.526966
3.035407
4.208744
4.870121
4.972683
4.565227
3.723724
2.515804
0.9850855
-0.7669506
-2.616961
-4.413541
-6.067309
-7.573548
-9.012996
-10.46737
-11.94405
-13.39796
-14.71469
-15.79478
-16.58544
-17.07278
-17.24095
-17.11377
-16.73011
-16.21827
-15.74954
-15.421
-15.14269
-14.57349
-13.18739
-10.46688
-6.148561
-0.3344774
6.459775
13.47092
19.87702
24.96464
28.25614
29.53088
28.85116
26.47835
22.85085
18.48204
13.8759
9.485643
5.657496
2.639774
0.5855875
-0.4611783
-0.592845
-0.01358843
0.9935837
2.131513
3.187824
4.031428
4.559222
4.708691
4.366032
3.458513
1.997569
0.1216621
-1.911744
-3.830239
-5.455918
-6.801634
-8.017323
-9.309351
-10.78815
-12.39925
-13.95214
-15.21592
-16.04433
-16.40416
-16.38345
-16.08251
-15.5893
-14.9663
-14.29094
-13.66722
-13.16276
-12.69335
-11.93307
-10.37422
-7.463971
-2.888278
3.229579
10.28024
17.27116
23.15503
27.06706
28.57302
27.75318
25.11495
21.36037
17.1806
13.06822
9.270345
5.89771
3.017162
0.747952
-0.7439251
-1.359746
-1.145064
-0.3142715
0.8194466
1.970097
2.968019
3.759243
4.306877
4.545584
4.356451
3.619303
2.327306
0.6068923
-1.320956
-3.191427
-4.815344
-6.142913
-7.258789
-8.361118
-9.608308
-11.05215
-12.57215
-13.92603
-14.84069
-15.14066
-14.87609
-14.2591
-13.63308
-13.27223
-13.32808
-13.74416
-14.26611
-14.47262
-13.85184
-11.89979
-8.261474
-2.896858
3.839218
11.20055
18.20337
23.86807
27.46934
28.71085
27.70594
24.90189
20.90243
16.33299
11.74001
7.554738
4.085516
1.489779
-0.173686
-0.9838407
-1.08423
-0.6756823
0.0268023
0.8442409
1.638916
2.324495
2.816456
3.071242
3.006947
2.570771
1.71769
0.4758151
-1.063108
-2.767463
-4.466636
-6.068563
-7.527726
-8.89338
-10.23748
-11.62421
-13.04009
-14.37775
-15.51034
-16.32339
-16.78456
-16.90612
-16.76279
-16.44373
-16.08903
-15.86103
-15.88827
-16.17676
-16.43722
-16.12087
-14.51633
-11.01626
-5.442964
1.790137
9.737546
17.18927
23.04457
26.6307
27.78716
26.79951
24.20013
20.54364
16.34321
11.98678
7.826981
4.182588
1.337078
-0.5408144
-1.43185
-1.475346
-0.8880405
0.1025887
1.307359
2.624394
3.958072
5.183054
6.071889
6.388911
5.943565
4.712883
2.850847
0.6390886
-1.621696
-3.6704
-5.341594
-6.619149
-7.577531
-8.359392
-9.128751
-10.00362
-11.00889
-12.05409
-12.9648
-13.55792
-13.72793
-13.4923
-12.99718
-12.46129
-12.06709
-11.85777
-11.68014
-11.19925
-9.915535
-7.340939
-3.146053
2.623371
9.491831
16.60886
22.93677
27.55672
29.89123
29.84756
27.7433
24.15603
19.65131
14.72756
9.733187
4.997202
0.839386
-2.394421
-4.412209
-5.087364
-4.49342
-2.937323
-0.8271866
1.367077
3.263542
4.598951
5.260422
5.252199
4.667418
3.627987
2.239408
0.5643883
-1.37825
-3.545376
-5.84053
-8.10648
-10.16142
-11.86543
-13.1655
-14.07573
-14.63466
-14.87226
-14.79458
-14.44779
-13.96735
-13.55536
-13.38154
-13.42117
-13.37465
-12.68511
-10.70029
-6.968662
-1.465416
5.314758
12.48062
18.99692
23.99405
26.93763
27.68982
26.45142
23.63229
19.74871
15.31388
10.81086
6.650465
3.15391
0.5351734
-1.130898
-1.873343
-1.832417
-1.196217
-0.1733379
1.045425
2.283607
3.388905
4.200054
4.545441
4.287298
3.342793
1.743813
-0.3323517
-2.633959
-4.90093
-6.96946
-8.810068
-10.4751
-12.0169
-13.41433
-14.59154
-15.44255
-15.89021
-15.96536
-15.78041
-15.50389
-15.28143
-15.18926
-15.17191
-14.99439
-14.24773
-12.40846
-9.02453
-3.882778
2.796459
10.33124
17.71872
23.8755
27.9406
29.50291
28.65241
25.88391
21.92031
17.48388
13.1301
9.220921
5.928822
3.346485
1.521954
0.4988556
0.2831841
0.8011665
1.842514
3.085308
4.206329
4.931046
5.108364
4.732285
3.905518
2.758751
1.403206
-0.07014084
-1.634544
-3.286438
-5.044399
-6.927536
-8.920181
-10.9463
-12.88303
-14.57957
-15.87859
-16.69972
-17.0505
-17.02639
-16.79189
-16.50569
-16.29728
-16.20348
-16.10263
-15.67439
-14.47454
-11.99823
-7.880672
-2.063873
5.085155
12.79287
20.02589
25.76419
29.25346
30.18997
28.75746
25.54918
21.33123
16.85216
12.66036
9.055058
6.133293
3.890965
2.281395
1.269279
0.8355446
0.8974724
1.341473
2.011463
2.766171
3.4706
4.023109
4.344406
4.355438
3.97945
3.144657
1.817154
0.03666687
-2.048943
-4.246952
-6.317017
-8.105141
-9.558914
-10.73386
-11.75633
-12.7276
-13.67015
-14.51567
-15.16019
-15.49863
-15.51505
-15.2924
-14.98839
-14.7999
-14.82003
-14.95288
-14.84045
-13.89122
-11.46262
-7.119171
-0.9196243
6.565294
14.31691
21.18536
26.19683
28.80846
28.96723
27.0279
23.57957
19.25864
14.66573
10.29549
6.541651
3.670635
1.803461
0.9020653
0.8029575
1.211882
1.844631
2.469337
2.962132
3.335672
3.66188
3.9657
4.175344
4.096846
3.517315
2.284288
0.4262791
-1.878428
-4.326948
-6.624865
-8.539759
-9.9874
-10.9991
-11.69378
-12.23239
-12.74189
-13.30524
-13.90694
-14.48742
-14.93261
-15.14395
-15.0829
-14.7997
-14.44316
-14.17842
-14.1302
-14.22915
-14.22835
-13.66914
-12.05589
-9.011608
-4.416664
1.481075
8.099768
14.63769
20.25549
24.23935
26.15701
25.92192
23.82184
20.41833
16.36949
12.30279
8.657978
5.656492
3.355284
1.742241
0.7872124
0.4970398
0.8660069
1.810307
3.131067
4.514193
5.617235
6.204159
6.193821
5.680161
4.813301
3.731951
2.477173
1.039179
-0.5619812
-2.262224
-3.892019
-5.306913
-6.430658
-7.322752
-8.099499
-8.836
-9.538265
-10.10586
-10.45365
-10.54649
-10.45726
-10.32256
-10.28741
-10.42546
-10.6652
-10.77002
-10.33556
-8.879705
-5.985493
-1.482321
4.406479
11.04579
17.5242
22.9073
26.49722
27.99535
27.47772
25.30408
21.91807
17.77799
13.3085
8.893694
4.89455
1.63316
-0.6488724
-1.859859
-2.059216
-1.449804
-0.3123207
1.04184
2.334867
3.329584
3.862959
3.852329
3.291912
2.270433
0.9133949
-0.6502037
-2.301813
-3.974752
-5.658379
-7.38249
-9.204533
-11.14644
-13.13827
-15.04434
-16.67357
-17.8522
-18.4699
-18.5198
-18.12671
-17.49603
-16.85298
-16.33389
-15.88656
-15.21074
-13.79954
-11.13714
-6.870543
-1.040846
5.865852
13.00809
19.45251
24.38607
27.30805
28.0869
26.88054
24.05748
20.09746
15.52856
10.87019
6.589586
3.044971
0.4709721
-1.048136
-1.568779
-1.287123
-0.4818048
0.5684099
1.609433
2.483963
3.131536
3.5453
3.702675
3.549474
2.980302
1.91669
0.3826423
-1.47422
-3.427111
-5.238129
-6.753747
-7.960344
-8.949938
-9.911435
-10.98963
-12.23772
-13.59922
-14.89508
-15.94839
-16.62172
-16.91152
-16.92783
-16.84061
-16.80023
-16.80574
-16.66011
-15.9801
-14.28996
-11.196
-6.523761
-0.4301641
6.571915
13.73014
20.16951
25.09468
27.98139
28.65292
27.31931
24.46435
20.70615
16.62381
12.65479
9.068709
6.014395
3.592507
1.903492
1.008948
0.8773243
1.344523
2.119709
2.892913
3.460057
3.775104
3.893671
3.895905
3.750266
3.326202
2.439568
1.005042
-0.924778
-3.110042
-5.235308
-7.065706
-8.536388
-9.760328
-10.89944
-12.0765
-13.28036
-14.39248
-15.28747
-15.87861
-16.15238
-16.17191
-15.99956
-15.71464
-15.39845
-15.14035
-14.98781
-14.85933
-14.47382
-13.31637
-10.82668
-6.596922
-0.6090755
6.625902
14.17818
20.92878
25.87477
28.4311
28.54674
26.6456
23.39402
19.46919
15.38689
11.4411
7.772605
4.505676
1.791989
-0.180356
-1.258829
-1.468089
-1.007084
-0.1766796
0.7275648
1.52371
2.1643
2.63624
2.91778
2.875051
2.320445
1.116961
-0.7467833
-3.074887
-5.494411
-7.621552
-9.190977
-10.17673
-10.79414
-11.40238
-12.30792
-13.63026
-15.24247
-16.79875
-17.91519
-18.32687
-17.98758
-17.07798
-15.93406
-14.91226
-14.27428
-14.12576
-14.3283
-14.5229
-14.19022
-12.73104
-9.67585
-4.840582
1.540726
8.78257
15.90967
21.87859
25.86197
27.47727
26.83099
24.44224
21.01464
17.21187
13.47358
10.03033
6.947099
4.270575
2.099631
0.5646877
-0.2092011
-0.2107639
0.4461014
1.556302
2.85753
4.098461
5.058439
5.571919
5.52747
4.894211
3.713095
2.096535
0.2218827
-1.70376
-3.519479
-5.124174
-6.520433
-7.760262
-8.916235
-10.00189
-10.96596
-11.69205
-12.05524
-11.99735
-11.54058
-10.81807
-10.01948
-9.338474
-8.923505
-8.790929
-8.787823
-8.55344
-7.567572
-5.300326
-1.429666
4.012059
10.53101
17.25864
23.2181
27.55472
29.75373
29.71573
27.70044
24.20137
19.82005
15.15493
10.7235
6.922479
3.983624
1.955071
0.7416759
0.1664025
0.05851281
0.2709558
0.7198104
1.314838
1.954976
2.491376
2.749807
2.574532
1.871381
0.6611049
-0.9336827
-2.724029
-4.537184
-6.263021
-7.907742
-9.52978
-11.18861
-12.8521
-14.41369
-15.68326
-16.5153
-16.84917
-16.75458
-16.39133
-15.95954
-15.64143
-15.52419
-15.56207
-15.53968
-15.073
-13.66931
-10.87401
-6.424702
-0.3935666
6.738803
14.16969
20.93955
26.13087
29.09688
29.59241
27.78317
24.18736
19.51106
14.49355
9.731769
5.648623
2.466793
0.2485752
-1.073517
-1.617885
-1.573511
-1.141952
-0.4827671
0.2765827
1.077602
1.86893
2.580277
3.075477
3.174627
2.692708
1.503263
-0.3715696
-2.780663
-5.414639
-7.952812
-10.11656
-11.78358
-13.00574
-13.94877
-14.81832
-15.70407
-16.5835
-17.29405
-17.62923
-17.43605
-16.71769
-15.66311
-14.60551
-13.82568
-13.35285
-12.88158
-11.77826
-9.344046
-5.107724
0.9353275
8.236877
15.84339
22.65165
27.72241
30.45615
30.71354
28.74315
25.08427
20.42814
15.46552
10.78947
6.805777
3.707879
1.523136
0.193037
-0.4013443
-0.4063663
0.02526188
0.7488451
1.629322
2.548543
3.35052
3.83912
3.812955
3.118814
1.755293
-0.0992775
-2.118744
-3.984507
-5.497264
-6.653725
-7.623099
-8.604959
-9.711956
-10.94267
-12.20613
-13.41516
-14.50874
-15.45667
-16.21609
-16.7223
-16.91492
-16.79322
-16.47015
-16.12263
-15.86276
-15.56382
-14.79315
-12.9279
-9.366952
-3.853684
3.336205
11.37986
19.08184
25.2808
29.1533
30.40874
29.29286
26.40343
22.42448
17.91959
13.32435
8.924175
4.999074
1.790404
-0.4780006
-1.718806
-2.019195
-1.64119
-0.9295444
-0.1617789
0.5226111
1.10776
1.600718
1.956008
2.00609
1.546397
0.4394598
-1.287546
-3.424962
-5.68208
-7.79455
-9.618017
-11.15081
-12.45946
-13.62945
-14.6877
-15.62707
-16.39771
-16.96848
-17.29685
-17.339
-17.11827
-16.71336
-16.31856
-16.14114
-16.27776
-16.55208
-16.49533
-15.43557
-12.73628
-8.082598
-1.624424
5.984082
13.78746
20.7422
26.00779
29.03447
29.65391
28.05783
24.71012
20.26779
15.42242
10.79679
6.823064
3.723347
1.535077
0.1765432
-0.4698019
-0.5347576
-0.141449
0.578392
1.502954
2.511925
3.465918
4.225129
4.664395
4.674406
4.205216
3.240149
1.83799
0.08694649
-1.884536
-3.962498
-6.011473
-7.890158
-9.490797
-10.72896
-11.58444
-12.10093
-12.35978
-12.43965
-12.41559
-12.309
-12.12312
-11.84464
-11.43492
-10.79891
-9.74806
-8.001793
-5.221741
-1.155737
4.205839
10.5493
17.15772
23.12868
27.57074
29.90382
29.98205
28.11408
24.84597
20.7264
16.2101
11.57295
7.057388
2.937822
-0.4315147
-2.705612
-3.666927
-3.362343
-2.103931
-0.3720722
1.337233
2.674717
3.481812
3.763721
3.579334
2.974758
1.968073
0.5455837
-1.239418
-3.269987
-5.336
-7.23745
-8.856754
-10.16132
-11.21553
-12.06424
-12.73583
-13.18431
-13.40676
-13.45851
-13.48554
-13.64458
-13.98349
-14.3274
-14.22815
-13.10686
-10.41652
-5.908606
0.264225
7.502222
14.90076
21.45857
26.30295
28.86522
29.00321
26.97937
23.37594
18.95358
14.44245
10.38696
7.066772
4.519024
2.638094
1.30607
0.4635525
0.1145229
0.2437515
0.7898178
1.590668
2.433725
3.115847
3.466694
3.374355
2.780159
1.676235
0.1190224
-1.764299
-3.801735
-5.818769
-7.710007
-9.472925
-11.16595
-12.82581
-14.42195
-15.82199
-16.84934
-17.35843
-17.3047
-16.80954
-16.13243
-15.59287
-15.41992
-15.65533
-15.97513
-15.73
-14.12941
-10.52901
-4.740339
2.771259
11.0187
18.789
24.99247
29.00205
30.68826
30.29154
28.23236
24.96495
20.88885
16.43206
12.01652
8.085533
5.006741
3.010252
2.133615
2.29763
3.326199
4.959589
6.859087
8.575104
9.643917
9.709955
8.626543
6.526905
3.777594
0.7807741
-2.160102
-4.880086
-7.361592
-9.626826
-11.64888
-13.39772
-14.8391
-15.98638
-16.91795
-17.74191
-18.48748
-19.13367
-19.6248
-19.86894
-19.83207
-19.52718
-19.03416
-18.49626
-18.04137
-17.64917
-17.0831
-15.85927
-13.36555
-9.116804
-3.003633
4.562869
12.68839
20.22534
26.11959
29.67852
30.72207
29.53405
26.6605
22.71834
18.22842
13.59021
9.130841
5.139558
1.886185
-0.4469891
-1.795389
-2.293873
-2.165508
-1.686825
-1.062346
-0.4040537
0.2345409
0.7958117
1.159624
1.170938
0.6405392
-0.5412903
-2.360437
-4.641185
-7.066718
-9.26525
-10.94172
-11.99182
-12.51678
-12.81035
-13.17457
-13.80523
-14.67846
-15.59842
-16.30159
-16.57573
-16.35551
-15.71284
-14.84326
-13.96445
-13.28241
-12.90646
-12.76603
-12.57437
-11.82927
-9.93881
-6.44133
-1.194763
5.520144
12.9916
20.24456
26.29105
30.35384
32.03865
31.37235
28.74286
24.74624
20.05412
15.25326
10.78082
6.927834
3.863115
1.686157
0.453598
0.1491451
0.6645718
1.788933
3.217422
4.640059
5.775646
6.435715
6.534113
6.08267
5.159286
3.863045
2.298212
0.5726585
-1.195564
-2.874107
-4.358465
-5.578817
-6.537079
-7.307297
-8.01005
-8.719795
-9.465881
-10.17576
-10.73003
-11.02302
-11.02042
-10.77483
-10.46422
-10.26661
-10.26966
-10.35682
-10.17438
-9.180468
-6.81349
-2.713125
3.067726
10.00769
17.1958
23.576
28.23871
30.59158
30.51035
28.28915
24.4774
19.75063
14.74475
9.952442
5.704948
2.213381
-0.433609
-2.187864
-3.062035
-3.126398
-2.52997
-1.485641
-0.250782
0.90872
1.79277
2.224863
2.107553
1.380344
0.04842186
-1.766144
-3.849318
-5.934091
-7.797264
-9.307467
-10.52666
-11.59453
-12.67342
-13.81746
-14.92407
-15.81665
-16.30871
-16.326
-15.93678
-15.34636
-14.78661
-14.43952
-14.34554
-14.26249
-13.74837
-12.21384
-9.101938
-4.148731
2.446404
10.01999
17.56179
23.99204
28.45662
30.49024
30.08179
27.60283
23.63715
18.85461
13.91191
9.346158
5.545513
2.70455
0.7903299
-0.3830919
-1.078384
-1.528958
-1.832562
-1.951355
-1.789358
-1.27334
-0.4760718
0.3923774
1.050757
1.248542
0.8516536
-0.1357231
-1.613829
-3.466711
-5.579117
-7.836905
-10.10414
-12.23324
-14.08274
-15.553
-16.59491
-17.18114
-17.34937
-17.17084
-16.78855
-16.39488
-16.19888
-16.29742
-16.58829
-16.68521
-16.00541
-13.91397
-9.982477
-4.14912
3.159508
11.13273
18.74719
25.01832
29.23064
31.03383
30.49425
27.98866
24.10499
19.49005
14.75476
10.38977
6.710474
3.891404
1.921095
0.6842048
0.0071702
-0.2606387
-0.2361391
0.04967248
0.5379983
1.133159
1.664153
1.916542
1.729613
1.064761
0.01486516
-1.259688
-2.626394
-4.036568
-5.522823
-7.116666
-8.821059
-10.55587
-12.20429
-13.68276
-14.94037
-15.95173
-16.68354
-17.07692
-17.06815
-16.68204
-16.06687
-15.46638
-15.11294
-15.06244
-15.06162
-14.58407
-12.93561
-9.534257
-4.194451
2.7768
10.5441
18.00578
24.08138
27.98289
29.38834
28.39747
25.47724
21.2597
16.45439
11.68129
7.437393
4.014308
1.522098
-0.09989476
-1.008181
-1.359784
-1.289071
-0.8811083
-0.204412
0.6363442
1.506661
2.233558
2.622605
2.507714
1.817117
0.5868335
-1.030377
-2.824723
-4.603863
-6.266051
-7.803107
-9.273113
-10.75554
-12.2511
-13.67824
-14.92875
-15.86109
-16.39511
-16.50376
-16.19697
-15.55311
-14.70193
-13.80574
-13.05101
-12.54162
-12.19328
-11.69183
-10.50597
-8.063378
-3.978805
1.729841
8.554127
15.58899
21.79983
26.3239
28.67945
28.84606
27.15549
24.11104
20.22925
15.97131
11.6986
7.714684
4.306778
1.68027
-0.04173183
-0.8429232
-0.8430929
-0.2495642
0.6900463
1.728317
2.672756
3.400187
3.838685
3.949653
3.702614
3.087987
2.116279
0.8338022
-0.7271175
-2.523579
-4.501511
-6.576266
-8.602043
-10.37717
-11.71016
-12.47798
-12.68549
-12.49432
-12.11229
-11.73262
-11.46528
-11.31737
-11.24638
-11.15566
-10.84658
-10.01254
-8.266705
-5.221125
-0.6853771
5.184679
11.84659
18.43943
23.99263
27.69576
29.09244
28.17375
25.33571
21.219
16.51535
11.83293
7.59644
4.052341
1.310147
-0.5758419
-1.575116
-1.669893
-0.9365482
0.3951769
2.004812
3.491619
4.517039
4.914566
4.649616
3.837169
2.622332
1.105773
-0.6650419
-2.655941
-4.813675
-7.030298
-9.175852
-11.14844
-12.8723
-14.31898
-15.46055
-16.26398
-16.68518
-16.7072
-16.36893
-15.77662
-15.12341
-14.6179
-14.35474
-14.21328
-13.77324
-12.36338
-9.363036
-4.419139
2.268805
9.923463
17.42376
23.65233
27.81153
29.62136
29.24907
27.10991
23.71651
19.53329
14.99754
10.53159
6.52402
3.289861
1.010908
-0.2833791
-0.7008352
-0.460228
0.1815572
0.9697013
1.70541
2.261284
2.574818
2.618974
2.379939
1.78727
0.7925944
-0.6334109
-2.411689
-4.355883
-6.265616
-7.970407
-9.416125
-10.6663
-11.86489
-13.08497
-14.30445
-15.39213
-16.18984
-16.60884
-16.67653
-16.53568
-16.37261
-16.34981
-16.50482
-16.68554
-16.52176
-15.46133
-12.91553
-8.48977
-2.161559
5.590494
13.85428
21.5012
27.48353
31.0836
32.08569
30.72072
27.51336
23.1266
18.19285
13.26893
8.786919
5.066896
2.288963
0.5066203
-0.3534395
-0.4820746
-0.1419836
0.4111359
0.9816445
1.467582
1.83745
2.058029
2.081511
1.826079
1.208004
0.2027836
-1.122419
-2.644945
-4.230784
-5.805547
-7.385516
-9.038054
-10.79308
-12.58529
-14.25152
-15.58854
-16.461
-16.84489
-16.82596
-16.53888
-16.12789
-15.70653
-15.39704
-15.261
-15.25216
-15.12846
-14.39681
-12.41815
-8.666509
-2.988268
4.225991
12.05443
19.33502
25.00726
28.38127
29.2912
27.99528
25.05209
21.09501
16.69786
12.32382
8.283085
4.752952
1.803051
-0.5399418
-2.281249
-3.434597
-3.995459
-3.972884
-3.409266
-2.409256
-1.156502
0.09582281
1.064131
1.513723
1.297621
0.409215
-1.018597
-2.778702
-4.63732
-6.402712
-7.96701
-9.308036
-10.46307
-11.52219
-12.5618
-13.61037
-14.62181
-15.47359
-16.00796
-16.10768
-15.77606
-15.13952
-14.43872
-13.91576
-13.71331
-13.76083
-13.72936
-13.07165
-11.18569
-7.588631
-2.145714
4.821349
12.56042
20.01414
26.11613
30.04099
31.38626
30.23679
27.08202
22.62271
17.61683
12.72532
8.418424
4.961166
2.419269
0.7871833
-0.03025246
-0.122088
0.4003963
1.36021
2.517076
3.604052
4.379149
4.729307
4.67276
4.282754
3.625544
2.695454
1.440891
-0.139719
-1.946382
-3.767555
-5.395446
-6.711792
-7.762263
-8.686065
-9.598406
-10.48506
-11.22798
-11.68133
-11.78551
-11.64036
-11.44876
-11.40621
-11.53695
-11.64795
-11.33208
-10.0671
-7.397452
-3.105576
2.661947
9.378356
16.22087
22.26104
26.7006
29.04784
29.2192
27.45666
24.19248
19.90419
15.04752
10.03222
5.240252
1.070881
-2.128182
-4.07572
-4.666022
-4.043412
-2.544267
-0.6336036
1.190466
2.541805
3.212866
3.182801
2.60668
1.672508
0.563226
-0.6276002
-1.882285
-3.236542
-4.727246
-6.333259
-8.007164
-9.67723
-11.29417
-12.80444
-14.12129
-15.11928
-15.67765
-15.73035
-15.35873
-14.77941
-14.24819
-13.90109
-13.57417
-12.8091
-10.9765
-7.550815
-2.358657
4.263122
11.54362
18.4946
24.20838
28.08779
29.9322
29.90659
28.39408
25.80158
22.43165
18.4544
13.99872
9.250827
4.607802
0.6023312
-2.213845
-3.498818
-3.331989
-2.170978
-0.7335796
0.3397045
0.7425861
0.6027508
0.3380013
0.4297962
1.187539
2.557133
4.075727
4.908617
3.986031
0.3189411
-6.638651
-16.62589
-28.35776
-39.74732
-48.28048
-51.76904
-49.06047
-40.40438
-27.44421
-12.75481
0.8543682
11.11846
16.70428
17.45683
14.29622
8.749502
2.483297
-3.224272
-7.672379
-10.6489
-12.16668
-12.2829
-11.01517
-8.476158
-5.074209
-1.499964
1.434134
3.167226
3.659099
3.384334
3.028729
3.079675
3.551424
3.964919
3.77675
2.698973
0.8896179
-1.079979
-2.601675
-3.276758
-3.093764
-2.333526
-1.513993
-1.008036
-1.011997
-1.524346
-2.391225
-3.462631
-4.611614
-5.812452
-7.059258
-8.334565
-9.522357
-10.4389
-10.91221
-10.88381
-10.56153
-10.32851
-10.59311
-11.47042
-12.59614
-13.12146
-12.06895
-8.698019
-2.901107
4.735474
13.0987
20.9498
27.2605
31.4762
33.48809
33.45762
31.65877
28.31028
23.64123
17.94693
11.71751
5.600533
0.3714294
-3.331131
-5.134071
-5.032022
-3.40266
-0.8609219
1.888893
4.218521
5.695198
6.139887
5.595474
4.247868
2.360239
0.1546631
-2.234425
-4.749262
-7.330332
-9.853865
-12.0849
-13.74912
-14.66418
-14.80532
-14.36086
-13.63351
-12.95153
-12.53735
-12.41179
-12.38937
-12.0656
-10.93592
-8.50494
-4.476665
1.141975
7.939796
15.17599
21.96064
27.4242
30.92924
32.17846
31.19673
28.31791
24.05725
19.03495
13.86707
9.087132
5.097893
2.123291
0.2303009
-0.6513977
-0.7140045
-0.2233009
0.5248489
1.253315
1.774441
2.005409
1.970058
1.682579
1.099556
0.09593582
-1.483135
-3.712147
-6.478382
-9.469021
-12.24266
-14.34766
-15.52153
-15.73464
-15.21065
-14.31699
-13.4446
-12.8677
-12.63753
-12.53806
-12.07758
-10.64812
-7.719555
-3.056671
3.128689
10.17674
17.17043
23.15149
27.38801
29.49602
29.43882
27.45436
23.95105
19.44737
14.48827
9.635212
5.346645
1.931648
-0.5103798
-2.055939
-2.87011
-3.152508
-3.064587
-2.730927
-2.264008
-1.775051
-1.367237
-1.142204
-1.189983
-1.580536
-2.373909
-3.592201
-5.219418
-7.161621
-9.236912
-11.23851
-12.96724
-14.28812
-15.16015
-15.6383
-15.82472
-15.85801
-15.81422
-15.63623
-15.06736
-13.66799
-10.8932
-6.327648
0.1014366
7.990479
16.44258
24.288
30.39414
33.96394
34.74666
33.04044
29.55789
25.16394
20.6269
16.48387
13.00227
10.26315
8.256319
6.995554
6.515783
6.843184
7.909246
9.537914
11.54043
13.80844
16.32737
19.02861
21.55996
23.19802
22.91083
19.76342
13.39645
4.328898
-6.180382
-16.59615
-25.73964
-33.19315
-39.26784
-44.63385
-49.78396
-54.77232
-59.19992
-62.49672
-64.13885
-63.73265
-60.96021
-55.5263
-47.2216
-36.13217
-22.87202
-8.601321
5.105119
16.69115
25.03408
29.71189
31.03109
29.79835
27.01512
23.55726
20.01687
16.72082
13.83031
11.49228
9.859243
9.068583
9.108471
9.775488
10.69153
11.47105
11.80953
11.5963
10.90947
9.87207
8.604937
7.128653
5.387661
3.311543
0.9214897
-1.694103
-4.33057
-6.762167
-8.802528
-10.35375
-11.42007
-12.10804
-12.59909
-13.0387
-13.56014
-14.19168
-14.8373
-15.28371
-15.21366
-14.22952
-11.95284
-8.115274
-2.678577
4.056276
11.44614
18.57281
24.38476
28.00925
29.00643
27.48042
24.04483
19.60255
15.00751
10.84585
7.364067
4.518208
2.213776
0.430563
-0.7133636
-1.05821
-0.541357
0.683279
2.233355
3.632286
4.474186
4.591457
4.064039
3.151497
2.135252
1.173351
0.2709827
-0.7014847
-1.8498
-3.231281
-4.749769
-6.260147
-7.626991
-8.740097
-9.576492
-10.14903
-10.48073
-10.57948
-10.49655
-10.29055
-10.09315
-10.01383
-10.05042
-10.01608
-9.499149
-7.970984
-4.964064
-0.3048935
5.762449
12.52423
18.99315
24.16169
27.30234
28.10676
26.73756
23.70076
19.65147
15.22976
10.94547
7.122057
3.931416
1.459335
-0.2669134
-1.224319
-1.436145
-0.9799433
-0.004180908
1.248406
2.496817
3.462942
3.947107
3.839035
3.162415
2.04601
0.6338005
-0.9300919
-2.607355
-4.37792
-6.27019
-8.231185
-10.14214
-11.81078
-13.0437
-13.77347
-14.04633
-14.06228
-14.0024
-14.00639
-14.08658
-14.21764
-14.34631
-14.45705
-14.45823
-14.09032
-12.93913
-10.50416
-6.464535
-0.8472385
5.845706
12.78899
19.00052
23.66275
26.27918
26.72543
25.21827
22.16169
18.10101
13.57964
9.146335
5.270266
2.276033
0.3111696
-0.6826677
-0.919961
-0.7101622
-0.3229895
0.05481339
0.3762503
0.6894064
1.042271
1.398636
1.623871
1.544819
1.01227
0.03165054
-1.300827
-2.81097
-4.328512
-5.740175
-7.00741
-8.161304
-9.248125
-10.34293
-11.48756
-12.66463
-13.78858
-14.71586
-15.30139
-15.45823
-15.25364
-14.86103
-14.54728
-14.50399
-14.73471
-14.98505
-14.73906
-13.4166
-10.53533
-5.918024
0.2010555
7.177704
14.11536
20.0383
24.15362
26.03485
25.64666
23.36679
19.79108
15.59931
11.38511
7.57468
4.423908
2.009676
0.3225002
-0.7114506
-1.170732
-1.133743
-0.6780052
0.1247215
1.179264
2.354837
3.453234
4.257774
4.565224
4.263559
3.347185
1.919157
0.1312752
-1.844563
-3.842365
-5.740223
-7.424702
-8.865471
-10.07181
-11.12473
-12.11575
-13.09182
-14.01796
-14.767
-15.19364
-15.20209
-14.85577
-14.33927
-13.93393
-13.88594
-14.24781
-14.8279
-15.13708
-14.52773
-12.37305
-8.317116
-2.464447
4.575726
11.80076
18.13081
22.69339
25.05603
25.26179
23.72765
20.99828
17.57392
13.81992
10.00427
6.391052
3.252056
0.8808746
-0.517704
-0.9213333
-0.5291405
0.3051186
1.198551
1.903515
2.35461
2.629868
2.835255
2.996201
2.994633
2.638138
1.7911
0.4616776
-1.166527
-2.847237
-4.400085
-5.768394
-7.05093
-8.378464
-9.796703
-11.21309
-12.48906
-13.48421
-14.1704
-14.63898
-14.97868
-15.24831
-15.43528
-15.52144
-15.53825
-15.5805
-15.66999
-15.62225
-15.01062
-13.25571
-9.917114
-4.939537
1.236639
7.771088
13.6864
18.21186
20.94268
21.85846
21.19913
19.30064
16.48147
13.04012
9.299234
5.626097
2.404425
-0.06971359
-1.614801
-2.218044
-2.020012
-1.221167
-0.04445457
1.295055
2.633955
3.818642
4.71541
5.20479
5.196682
4.63896
3.561239
2.039391
0.2387295
-1.656084
-3.458654
-5.041424
-6.372187
-7.499439
-8.520403
-9.492151
-10.40295
-11.17156
-11.69385
-11.90304
-11.81363
-11.52408
-11.20623
-11.03006
-11.10005
-11.37184
-11.56188
-11.18453
-9.689727
-6.632249
-1.924825
4.0489
10.52069
16.53418
21.24187
24.09327
24.95641
24.01287
21.66606
18.36063
14.53057
10.54383
6.734256
3.421804
0.8608656
-0.751893
-1.34887
-1.012218
0.01448727
1.359666
2.650959
3.597497
4.064906
4.061821
3.713814
3.145248
2.437285
1.570129
0.471643
-0.9349389
-2.68408
-4.707648
-6.817333
-8.7535
-10.28115
-11.25739
-11.68253
-11.69903
-11.54231
-11.48852
-11.73026
-12.34658
-13.21315
-13.97147
-14.09429
-12.98181
-10.17683
-5.527572
0.6452055
7.618971
14.41768
20.06108
23.834
25.44782
25.02854
22.99991
19.87747
16.13667
12.12252
8.085475
4.263339
0.9457902
-1.525371
-2.885909
-3.064457
-2.255242
-0.9144108
0.4239393
1.319381
1.585214
1.303476
0.7268039
0.1273453
-0.3581598
-0.7926987
-1.364389
-2.295796
-3.672201
-5.428282
-7.34398
-9.167006
-10.70786
-11.91395
-12.83073
-13.54533
-14.11047
-14.54069
-14.87721
-15.18301
-15.45989
-15.56918
-15.138
-13.63899
-10.55198
-5.64635
0.8479958
8.17757
15.29379
21.14901
24.99721
26.55866
26.00613
23.79594
20.47536
16.53125
12.33982
8.212325
4.446045
1.343799
-0.8292179
-1.933957
-2.042714
-1.461773
-0.6208982
0.09622288
0.4650707
0.4727907
0.2344704
-0.09282875
-0.4423733
-0.8545303
-1.450289
-2.363624
-3.657802
-5.310329
-7.178924
-9.070462
-10.75852
-12.05444
-12.84669
-13.15424
-13.12996
-13.0158
-13.06541
-13.40247
-13.94809
-14.36304
-14.1119
-12.60258
-9.413877
-4.48115
1.828568
8.781262
15.46581
21.04119
24.95004
26.97428
27.20205
25.88944
23.35213
19.90866
15.88223
11.64964
7.616653
4.198612
1.707308
0.2592316
-0.2444992
-0.06893349
0.4485378
1.016014
1.457644
1.697727
1.750641
1.625828
1.30534
0.7781143
-0.01066208
-1.071739
-2.405653
-3.971281
-5.702921
-7.490412
-9.189228
-10.66325
-11.81151
-12.62058
-13.15413
-13.53817
-13.92187
-14.40639
-15.0067
-15.54752
-15.66114
-14.80023
-12.40519
-8.129801
-2.052719
5.272516
12.88172
19.66034
24.6621
27.32934
27.59385
25.82131
22.6176
18.63291
14.3889
10.24866
6.402643
2.995539
0.1757603
-1.867228
-2.949917
-3.004238
-2.140253
-0.6465893
1.097616
2.743999
4.043577
4.862864
5.122025
4.78867
3.845264
2.313976
0.2914181
-2.097921
-4.686722
-7.295321
-9.748238
-11.8573
-13.44602
-14.42504
-14.83632
-14.8461
-14.73457
-14.77647
-15.1361
-15.81138
-16.59901
-17.08937
-16.78848
-15.18129
-11.88323
-6.824745
-0.3445835
6.807341
13.63056
19.14853
22.68309
23.99698
23.27001
20.98924
17.70882
13.92425
10.00306
6.248486
2.91688
0.2741718
-1.463499
-2.203268
-2.047321
-1.280874
-0.3016891
0.5268974
0.9940834
1.050606
0.8033257
0.3963718
-0.06019211
-0.55299
-1.149136
-1.924444
-2.963518
-4.268301
-5.785507
-7.40205
-8.96513
-10.33348
-11.41822
-12.20826
-12.77716
-13.21403
-13.56455
-13.83312
-13.97432
-13.95865
-13.80226
-13.47307
-12.83915
-11.58622
-9.262611
-5.46187
-0.08220291
6.53459
13.59809
20.04798
24.90275
27.52666
27.7765
25.99116
22.80519
18.89225
14.81206
10.93403
7.436108
4.441023
2.103045
0.6015701
0.06914711
0.491354
1.617889
3.032059
4.285007
5.058922
5.269629
5.014511
4.491636
3.848495
3.112835
2.20809
1.018362
-0.5312843
-2.411577
-4.473045
-6.484594
-8.209208
-9.456369
-10.17449
-10.4364
-10.40623
-10.28951
-10.2461
-10.36111
-10.59474
-10.77461
-10.57936
-9.604803
-7.439854
-3.81353
1.238028
7.33
13.74902
19.63016
24.13796
26.6692
26.93595
25.0776
21.57511
17.11654
12.4479
8.15654
4.595341
1.841974
-0.1480846
-1.476439
-2.143206
-2.099339
-1.376629
-0.1531801
1.21363
2.309999
2.817005
2.628648
1.850286
0.7135115
-0.5359707
-1.76747
-2.963858
-4.206323
-5.598425
-7.17451
-8.886578
-10.59981
-12.13232
-13.30485
-14.01836
-14.29078
-14.24181
-14.07734
-13.98038
-14.05839
-14.32507
-14.64845
-14.738
-14.17094
-12.40559
-8.980404
-3.736846
3.027964
10.5205
17.60345
23.1755
26.45108
27.18774
25.68471
22.58908
18.62104
14.38586
10.29824
6.597521
3.440338
0.9324522
-0.8627309
-1.916244
-2.244799
-1.940068
-1.146777
-0.09420443
0.9668751
1.798879
2.250855
2.282736
1.960402
1.378893
0.6009669
-0.3675313
-1.571704
-3.061069
-4.810271
-6.716619
-8.620378
-10.37102
-11.89561
-13.16839
-14.21047
-15.04922
-15.68564
-16.10085
-16.30938
-16.36762
-16.34157
-16.31449
-16.22729
-15.83099
-14.65597
-12.15329
-7.926455
-1.96528
5.24188
12.74923
19.44539
24.39012
27.08894
27.57615
26.28068
23.76379
20.47306
16.7102
12.675
8.619226
4.905849
1.933266
0.002278328
-0.8386526
-0.816452
-0.3347092
0.198122
0.5506783
0.6938858
0.7574043
0.8598633
1.017212
1.107035
0.9241676
0.3109188
-0.7728233
-2.191982
-3.725901
-5.177526
-6.475439
-7.696465
-9.00811
-10.53755
-12.23682
-13.88754
-15.16591
-15.81566
-15.76018
-15.18094
-14.40033
-13.78126
-13.58995
-13.87978
-14.46994
-14.95292
-14.75591
-13.27219
-10.02429
-4.876966
1.844637
9.362303
16.61645
22.56196
26.4378
27.92544
27.17363
24.6766
21.07453
17.00509
12.98764
9.37993
6.391796
4.110849
2.526361
1.542936
1.049566
0.9180622
1.033794
1.311428
1.683975
2.080004
2.442823
2.687437
2.697134
2.347218
1.54417
0.2897263
-1.301184
-3.03904
-4.73163
-6.232548
-7.485567
-8.539251
-9.46179
-10.34197
-11.22828
-12.12705
-12.98635
-13.73845
-14.29717
-14.58475
-14.58473
-14.35775
-14.0622
-13.89782
-13.99353
-14.28117
-14.42671
-13.85451
-11.912
-8.143585
-2.494652
4.540478
12.03335
18.866
24.04564
26.9925
27.62055
26.26005
23.46143
19.74852
15.52372
11.08708
6.7262
2.789072
-0.3288231
-2.314049
-3.083714
-2.826792
-1.925791
-0.8043213
0.2386322
1.10668
1.840973
2.483377
2.994125
3.204779
2.908983
1.981388
0.4388924
-1.551191
-3.707731
-5.747118
-7.442312
-8.681477
-9.523489
-10.13108
-10.73051
-11.52861
-12.594
-13.85137
-15.06451
-15.98684
-16.43796
-16.41953
-16.06368
-15.59818
-15.24297
-15.09659
-15.10355
-15.02651
-14.49183
-13.04311
-10.28719
-6.010426
-0.3379841
6.227852
12.88313
18.70644
22.93515
25.13364
25.30711
23.77684
21.04643
17.57213
13.75247
9.908852
6.354261
3.384771
1.235737
0.02184105
-0.3332767
-0.02653313
0.6850052
1.598331
2.596619
3.61327
4.552435
5.277328
5.612238
5.403795
4.602409
3.27071
1.592808
-0.2126369
-1.943235
-3.45863
-4.729353
-5.80368
-6.796747
-7.826759
-8.954758
-10.1352
-11.26678
-12.19754
-12.74192
-12.80728
-12.38251
-11.60732
-10.72744
-10.02665
-9.632879
-9.417874
-8.945121
-7.559468
-4.695262
-0.09798622
5.936975
12.64913
18.97045
23.89161
26.70781
27.20584
25.62358
22.48262
18.41402
13.96199
9.537249
5.451028
1.99931
-0.5506897
-1.970491
-2.178946
-1.355379
0.1262627
1.779824
3.193995
4.166307
4.675173
4.78679
4.543882
3.942522
2.949314
1.608417
0.03809929
-1.614752
-3.264987
-4.943168
-6.718249
-8.625241
-10.56743
-12.35126
-13.73948
-14.6172
-15.01253
-15.08496
-15.05535
-15.07715
-15.24121
-15.54439
-15.87196
-15.95755
-15.42437
-13.82247
-10.76579
-6.112741
-0.06046581
6.799203
13.62596
19.49854
23.68776
25.76286
25.70158
23.80528
20.59345
16.66714
12.56059
8.709901
5.402529
2.824382
1.047637
0.08358955
-0.1551609
0.1946516
0.9392052
1.876418
2.793175
3.489199
3.810581
3.654941
3.057862
2.105391
0.9479656
-0.278904
-1.517538
-2.815674
-4.282286
-5.99725
-7.950437
-10.01313
-12.00036
-13.73798
-15.11351
-16.08904
-16.70009
-17.02888
-17.18032
-17.28934
-17.44235
-17.6291
-17.66474
-17.17802
-15.6367
-12.5669
-7.731203
-1.265106
6.23697
13.87914
20.65128
25.69118
28.47511
28.90476
27.27332
24.0971
19.98849
15.50805
11.11149
7.141348
3.861707
1.438417
-0.03792334
-0.5840683
-0.3380661
0.4683304
1.527297
2.534046
3.256659
3.531846
3.34571
2.76185
1.909425
0.8930447
-0.2568119
-1.61107
-3.256479
-5.236807
-7.460371
-9.744453
-11.82131
-13.48759
-14.64983
-15.33566
-15.67316
-15.82769
-15.94289
-16.10769
-16.36903
-16.68509
-16.91072
-16.76838
-15.85328
-13.72695
-10.04171
-4.700618
2.03517
9.542467
16.94511
23.29301
27.79806
29.99779
29.84054
27.62718
23.92066
19.39564
14.68759
10.304
6.565392
3.61799
1.50691
0.2025876
-0.3476362
-0.2436233
0.344811
1.194404
2.032887
2.622199
2.824573
2.606883
2.015659
1.129469
0.02257633
-1.262487
-2.69744
-4.259704
-5.913776
-7.644926
-9.432791
-11.24965
-13.01863
-14.61341
-15.88103
-16.70927
-17.06623
-17.04778
-16.85597
-16.70703
-16.78683
-17.08415
-17.31575
-16.97408
-15.38625
-11.9475
-6.396942
0.9834862
9.36326
17.51034
24.16366
28.3957
29.8092
28.61971
25.4781
21.21075
16.57589
12.13805
8.193242
4.908446
2.382864
0.6830673
-0.1508579
-0.1406975
0.5525036
1.658648
2.813847
3.612938
3.743965
3.026667
1.501116
-0.5751476
-2.829706
-4.896534
-6.515078
-7.6429
-8.433765
-9.112099
-9.861147
-10.75626
-11.72287
-12.64029
-13.4092
-13.94781
-14.19439
-14.12906
-13.78102
-13.26946
-12.84248
-12.72873
-13.04424
-13.58549
-13.81585
-12.97894
-10.38928
-5.708664
0.8600674
8.567026
16.35111
23.10554
27.99418
30.53431
30.67532
28.72385
25.19164
20.70758
15.88383
11.26292
7.200966
3.962059
1.670895
0.3907051
0.09071732
0.65168
1.801334
3.184528
4.445259
5.308205
5.682175
5.634907
5.317162
4.854687
4.249977
3.403835
2.175125
0.4533195
-1.782997
-4.37896
-7.0867
-9.587811
-11.58984
-12.93715
-13.60681
-13.74135
-13.59433
-13.44112
-13.48331
-13.813
-14.33395
-14.74032
-14.55906
-13.17824
-10.08008
-5.025986
1.725113
9.423389
16.965
23.19782
27.29005
28.87171
28.09649
25.46398
21.61969
17.14627
12.53247
8.132927
4.248516
1.112423
-1.099213
-2.320709
-2.611576
-2.171314
-1.303284
-0.3109665
0.5403709
1.137379
1.485352
1.651459
1.675716
1.495571
0.9750977
-0.04443359
-1.648308
-3.826466
-6.418282
-9.165981
-11.75269
-13.83633
-15.14082
-15.54786
-15.14459
-14.23314
-13.24203
-12.59414
-12.5335
-13.04366
-13.78474
-14.16792
-13.49494
-11.16628
-6.822777
-0.5630722
7.061485
15.10184
22.42033
27.98343
31.11037
31.56215
29.56179
25.6629
20.56755
15.00056
9.58165
4.75412
0.8084373
-2.113121
-3.951298
-4.710743
-4.466373
-3.408699
-1.853043
-0.2020378
1.163296
1.980324
2.180878
1.865753
1.219238
0.3883858
-0.5481606
-1.599083
-2.800797
-4.163071
-5.669086
-7.288242
-8.992352
-10.72609
-12.4383
-14.01037
-15.34171
-16.35634
-17.03972
-17.45687
-17.72781
-17.96651
-18.19866
-18.31221
-17.96515
-16.66956
-13.89474
-9.28611
-2.862625
4.860794
12.9409
20.21699
25.62493
28.48457
28.68652
26.653
23.1559
19.01759
14.90914
11.20144
8.006615
5.265228
2.936516
1.070724
-0.1985474
-0.7466965
-0.5551147
0.2590446
1.429348
2.678074
3.747234
4.452805
4.724117
4.507851
3.790024
2.578648
0.9035263
-1.153133
-3.443752
-5.76466
-7.94022
-9.829762
-11.41924
-12.75909
-13.8952
-14.81818
-15.4562
-15.72091
-15.57225
-15.11154
-14.53841
-14.03141
-13.57821
-12.87905
-11.40545
-8.587261
-4.077808
2.049622
9.258625
16.66368
23.28763
28.30236
31.20417
31.86512
30.4701
27.42171
23.2015
18.33674
13.31255
8.578541
4.492409
1.318146
-0.8054352
-1.882946
-2.027664
-1.482204
-0.5469131
0.4701385
1.320667
1.872082
2.092098
2.022491
1.685703
1.105797
0.228756
-0.988224
-2.56982
-4.473822
-6.589373
-8.734535
-10.68856
-12.26507
-13.32463
-13.84209
-13.90097
-13.66321
-13.35744
-13.17427
-13.2226
-13.45809
-13.67648
-13.49099
-12.40147
-9.929829
-5.766621
0.04701614
7.037981
14.37555
21.06379
26.16865
29.07444
29.57747
27.88081
24.50027
20.07603
15.25484
10.54964
6.335691
2.826256
0.1656113
-1.58589
-2.418222
-2.392437
-1.67205
-0.5266514
0.7391338
1.846422
2.607346
2.94475
2.843588
2.319933
1.418154
0.1797266
-1.316604
-2.976828
-4.690895
-6.393871
-8.06363
-9.70493
-11.36884
-13.0316
-14.62458
-16.01065
-17.04342
-17.58289
-17.60361
-17.19011
-16.55175
-15.97266
-15.68029
-15.72813
-15.87367
-15.57088
-14.12657
-10.9446
-5.797881
1.006473
8.635611
15.96957
21.92139
25.74253
27.21865
26.60264
24.46587
21.43946
18.05489
14.63031
11.31701
8.207493
5.397832
3.032397
1.218918
-0.02922654
-0.8134332
-1.285412
-1.5567
-1.604247
-1.320806
-0.624831
0.4139634
1.48937
2.159737
2.049239
1.004071
-0.7849134
-2.895693
-4.842304
-6.309639
-7.230321
-7.80933
-8.346505
-9.130719
-10.30232
-11.80843
-13.43879
-14.89982
-15.94555
-16.43471
-16.38844
-15.96974
-15.44132
-15.0686
-14.9736
-15.03366
-14.84343
-13.7902
-11.24912
-6.841053
-0.6103334
6.875581
14.64013
21.5812
26.72508
29.48852
29.77876
27.90062
24.45339
20.09738
15.45125
10.99518
7.087823
3.943783
1.656092
0.2428803
-0.4015903
-0.4565649
-0.1372728
0.3582864
0.9106312
1.475409
2.037596
2.537969
2.867818
2.860316
2.387186
1.428891
0.06215286
-1.532829
-3.187711
-4.790929
-6.288589
-7.684177
-9.031153
-10.37796
-11.79658
-13.31567
-14.87324
-16.33878
-17.48892
-18.10959
-18.08646
-17.47091
-16.52055
-15.60625
-15.09469
-15.14939
-15.61147
-15.96365
-15.45857
-13.35616
-9.189938
-3.004992
4.612039
12.67319
20.03503
25.70731
29.00975
29.73937
28.10025
24.63104
20.06442
15.15839
10.55198
6.661427
3.687897
1.639265
0.4498382
-0.006965637
0.1304502
0.6915531
1.500076
2.383252
3.225514
3.974871
4.585271
4.951029
4.928075
4.365434
3.215294
1.585291
-0.287951
-2.133059
-3.74591
-5.075009
-6.214144
-7.305247
-8.479489
-9.744156
-11.00746
-12.11273
-12.89462
-13.25567
-13.17536
-12.75548
-12.17218
-11.63054
-11.27894
-11.09774
-10.85871
-10.1213
-8.355586
-5.111911
-0.2335854
6.015353
12.93602
19.5638
24.91502
28.2671
29.32614
28.26218
25.54687
21.75723
17.40335
12.84282
8.320061
4.059908
0.3221645
-2.566581
-4.317776
-4.795051
-4.126822
-2.674544
-0.9686661
0.4951725
1.403296
1.691195
1.523829
1.121909
0.6500826
0.1115828
-0.597682
-1.62324
-3.015262
-4.699097
-6.513671
-8.294284
-9.93945
-11.4379
-12.81038
-14.06216
-15.14662
-15.96347
-16.44168
-16.56204
-16.42101
-16.1806
-16.00735
-15.9353
-15.75285
-15.02013
-13.17186
-9.732914
-4.558121
2.054235
9.360649
16.39389
22.2083
26.14387
27.92592
27.64289
25.62502
22.31364
18.16563
13.60744
9.060617
4.915646
1.498978
-0.9722519
-2.40192
-2.874048
-2.561844
-1.725561
-0.6097813
0.5649223
1.63118
2.419775
2.761145
2.549173
1.74889
0.4452934
-1.184969
-2.934582
-4.658167
-6.287983
-7.862053
-9.442341
-11.0614
-12.67131
-14.16744
-15.42567
-16.33087
-16.81393
-16.86974
-16.57564
-16.12558
-15.75824
-15.66301
-15.80214
-15.80827
-15.03571
-12.75724
-8.485313
-2.194506
5.551229
13.7517
21.25819
27.07885
30.6117
31.6642
30.42908
27.38053
23.11237
18.25965
13.41187
9.014642
5.345701
2.531264
0.5571871
-0.667428
-1.226815
-1.213099
-0.7389221
0.0585556
0.9805803
1.780466
2.25456
2.244205
1.747134
0.858283
-0.2693748
-1.526632
-2.861603
-4.317584
-5.979
-7.866248
-9.919588
-11.97144
-13.79195
-15.1759
-15.98135
-16.18327
-15.87312
-15.25148
-14.56151
-14.07277
-13.96733
-14.26788
-14.7815
-15.02879
-14.40156
-12.29567
-8.327526
-2.482637
4.766018
12.56301
19.82587
25.51719
28.91663
29.74342
28.21663
24.89683
20.51827
15.74569
11.10639
6.910048
3.345175
0.5621529
-1.342322
-2.328506
-2.467378
-1.932989
-0.977355
0.1778526
1.323492
2.320876
3.034733
3.310658
3.015386
2.085022
0.5621133
-1.380966
-3.512025
-5.606225
-7.545514
-9.31632
-10.99398
-12.67556
-14.35821
-15.93751
-17.22989
-18.06143
-18.33923
-18.14729
-17.68783
-17.23279
-17.01793
-17.12613
-17.4353
-17.59322
-17.05681
-15.19584
-11.51185
-5.832896
1.534708
9.779732
17.76813
24.33136
28.58082
30.1466
29.19308
26.27166
22.11611
17.4033
12.67448
8.307596
4.595586
1.744177
-0.1000214
-0.8926139
-0.7352228
0.1216197
1.337974
2.568093
3.583309
4.287425
4.703011
4.912117
4.971004
4.853212
4.478636
3.750814
2.609118
1.09772
-0.6856441
-2.642458
-4.677196
-6.719711
-8.676098
-10.38053
-11.63999
-12.32545
-12.3961
-12.01974
-11.47399
-11.05165
-10.94812
-11.14913
-11.37928
-11.18225
-10.0191
-7.413468
-3.11504
2.763988
9.693884
16.80895
23.12752
27.7993
30.31267
30.56705
28.83467
25.59092
21.38328
16.67776
11.82858
7.12328
2.837107
-0.7528286
-3.352942
-4.75703
-4.963308
-4.158648
-2.727512
-1.114918
0.3306475
1.422319
2.098164
2.40061
2.330063
1.8088
0.7790661
-0.7904863
-2.812664
-5.097462
-7.401467
-9.55155
-11.44611
-13.06331
-14.37423
-15.27428
-15.65512
-15.47112
-14.85244
-14.08793
-13.55282
-13.49978
-13.88577
-14.31277
-14.10669
-12.56195
-9.172796
-3.852369
3.027971
10.68886
18.13089
24.33783
28.49195
30.20771
29.50773
26.8619
22.94603
18.46335
13.95629
9.760661
6.040234
2.882008
0.3878212
-1.333474
-2.217914
-2.306932
-1.800081
-0.9582834
-0.028965
0.7936516
1.412559
1.773099
1.850352
1.616113
1.040495
0.1072092
-1.171693
-2.790472
-4.67823
-6.733657
-8.773623
-10.60918
-12.04489
-13.00727
-13.55511
-13.81496
-13.94337
-14.03346
-14.12105
-14.23661
-14.44971
-14.82631
-15.33125
-15.70146
-15.39527
-13.72487
-10.10864
-4.365689
3.113951
11.41347
19.32395
25.67622
29.62745
30.85588
29.56321
26.34435
21.96343
17.12469
12.37306
8.016467
4.260843
1.238314
-0.9154158
-2.105098
-2.335448
-1.791283
-0.7892771
0.3208475
1.278897
1.998676
2.475597
2.719307
2.65799
2.168252
1.144825
-0.3671064
-2.179311
-4.026736
-5.69149
-7.125528
-8.417809
-9.715523
-11.09787
-12.47935
-13.63921
-14.3686
-14.5975
-14.43464
-14.14347
-14.00724
-14.19308
-14.69905
-15.29485
-15.57321
-15.01459
-13.09807
-9.450185
-3.994212
2.942976
10.65623
18.13459
24.34992
28.48778
30.13798
29.378
26.69104
22.77257
18.31603
13.87901
9.812954
6.319623
3.526678
1.502026
0.3059592
-0.08489275
0.1853809
0.8825424
1.750202
2.561198
3.175873
3.540204
3.610793
3.373248
2.80108
1.874638
0.6210508
-0.8961422
-2.60168
-4.40809
-6.217244
-7.924595
-9.441448
-10.73822
-11.8677
-12.93917
-14.04215
-15.16847
-16.21812
-17.02042
-17.43491
-17.4506
-17.20227
-16.92615
-16.825
-16.90861
-16.87936
-16.1697
-14.06727
-10.01484
-3.868127
3.972811
12.57499
20.70139
27.14965
31.09318
32.20383
30.68047
27.10726
22.22416
16.78126
11.4154
6.618105
2.700034
-0.1698419
-1.984659
-2.844485
-2.921953
-2.426409
-1.570975
-0.5841157
0.3211347
0.9691962
1.256864
1.139373
0.6425678
-0.1905862
-1.300089
-2.633546
-4.160824
-5.808172
-7.508247
-9.167281
-10.71354
-12.07967
-13.25341
-14.26259
-15.14182
-15.89315
-16.47393
-16.78402
-16.72909
-16.29253
-15.60316
-14.90018
-14.41824
-14.2231
-14.07798
-13.5023
-11.91443
-8.851851
-4.172479
1.873892
8.746532
15.68542
21.88431
26.62127
29.35603
29.82758
28.14653
24.74242
20.22795
15.29691
10.50463
6.2592
2.827714
0.394557
-0.9307098
-1.163909
-0.48627
0.7415285
2.090896
3.186137
3.832003
4.046853
3.95773
3.698675
3.324921
2.783212
2.005011
0.9190521
-0.5174189
-2.279548
-4.278059
-6.350984
-8.286449
-9.895267
-11.06415
-11.77615
-12.08883
-12.12474
-11.97152
-11.71613
-11.46582
-11.31212
-11.30693
-11.3261
-11.0015
-9.743351
-6.947849
-2.27527
4.130998
11.56724
18.96788
25.1997
29.3783
31.08016
30.35898
27.62601
23.49787
18.60982
13.51863
8.67944
4.430549
1.02633
-1.367073
-2.663126
-2.893275
-2.246917
-1.081896
0.1934252
1.214545
1.744526
1.761106
1.369694
0.6954288
-0.177166
-1.233231
-2.497461
-3.972017
-5.610449
-7.3542
-9.137351
-10.90052
-12.57172
-14.05253
-15.22371
-15.97568
-16.27794
-16.21156
-15.94889
-15.69315
-15.60424
-15.73784
-16.00747
-16.15727
-15.76291
-14.27866
-11.19947
-6.264675
0.3804679
8.074345
15.8265
22.53196
27.31943
29.70753
29.72816
27.73538
24.29367
19.96957
15.27017
10.63212
6.418493
2.944116
0.4059663
-1.123249
-1.745481
-1.668823
-1.15027
-0.4109578
0.4005566
1.170455
1.828666
2.288014
2.442622
2.189745
1.488598
0.351932
-1.149673
-2.92851
-4.93189
-7.090736
-9.328661
-11.51135
-13.48075
-15.0597
-16.12337
-16.66141
-16.74356
-16.54319
-16.26206
-16.11093
-16.21596
-16.56829
-16.92467
-16.79255
-15.52426
-12.51378
-7.460828
-0.5562606
7.478998
15.5809
22.59589
27.64808
30.27624
30.52152
28.78981
25.67266
21.76894
17.55223
13.35403
9.391784
5.841274
2.884691
0.6935215
-0.639358
-1.157899
-1.03508
-0.520915
0.1708741
0.897644
1.584856
2.176456
2.558394
2.608475
2.192957
1.260346
-0.1360035
-1.8621
-3.750697
-5.640595
-7.454424
-9.156014
-10.75054
-12.26158
-13.6837
-14.98306
-16.05811
-16.79667
-17.14025
-17.14327
-16.98429
-16.90353
-17.0451
-17.33307
-17.39136
-16.62611
-14.4418
-10.42436
-4.534206
2.817711
10.85097
18.58789
25.03582
29.40578
31.2556
30.5112
27.5177
22.93299
17.58929
12.29399
7.654598
3.997055
1.370535
-0.3337922
-1.29371
-1.648145
-1.503643
-0.9716001
-0.1838932
0.7139473
1.56656
2.249207
2.650482
2.643987
2.11863
0.9822788
-0.7596588
-2.942505
-5.283608
-7.504272
-9.400923
-10.95122
-12.25466
-13.44487
-14.59263
-15.67624
-16.59317
-17.24703
-17.59536
-17.63718
-17.4299
-17.0508
-16.60382
-16.21188
-15.93053
-15.62719
-14.92485
-13.24167
-9.966682
-4.785773
2.126002
10.01504
17.76783
24.2234
28.54084
30.38015
29.88299
27.53241
23.90323
19.52703
14.82362
10.15441
5.856047
2.250824
-0.3699207
-1.844898
-2.161604
-1.480949
-0.069767
1.758001
3.710394
5.515926
6.941137
7.777449
7.875986
7.208836
5.864754
4.053879
2.00843
-0.09036255
-2.169579
-4.239271
-6.288599
-8.27751
-10.06336
-11.49959
-12.47388
-12.97899
-13.0819
-12.89527
-12.5722
-12.24514
-12.03465
-11.9688
-11.89874
-11.45478
-10.09252
-7.274027
-2.689739
3.53406
10.76996
18.07001
24.41029
28.96189
31.27814
31.31283
29.33579
25.81293
21.24537
16.13746
10.93537
6.05336
1.871
-1.298784
-3.244715
-3.923771
-3.481804
-2.262609
-0.669239
0.8907509
2.112123
2.823437
2.968901
2.579187
1.737417
0.5232677
-0.9774227
-2.721451
-4.66614
-6.785559
-9.043768
-11.31162
-13.41329
-15.13236
-16.32664
-16.96428
-17.14797
-17.03921
-16.80015
-16.54845
-16.34764
-16.21462
-16.06182
-15.71195
-14.76282
-12.67281
-8.886183
-3.111643
4.427355
12.89559
20.99909
27.40812
31.15071
31.94084
30.16362
26.6547
22.31236
17.82323
13.56018
9.633298
6.105034
3.054628
0.6423512
-0.9912586
-1.832235
-1.975656
-1.623709
-0.9956169
-0.2456999
0.5142508
1.186354
1.667305
1.818397
1.504522
0.7106342
-0.5025568
-2.003245
-3.675218
-5.483114
-7.471829
-9.651667
-11.9513
-14.17133
-16.02599
-17.30499
-17.94651
-18.0732
-17.92962
-17.76293
-17.71667
-17.81379
-17.95307
-17.87887
-17.20907
-15.44685
-12.09052
-6.854625
0.1456594
8.308063
16.60541
23.85952
29.08827
31.71357
31.70928
29.5069
25.79793
21.30373
16.64816
12.23654
8.291055
4.977538
2.415019
0.7657967
0.1134529
0.3888044
1.302845
2.407393
3.24813
3.55285
3.356346
2.873531
2.363961
1.923398
1.413958
0.5443249
-0.8957672
-2.928777
-5.316152
-7.718284
-9.86257
-11.66041
-13.21251
-14.66252
-16.06239
-17.29184
-18.12789
-18.37396
-18.01206
-17.23716
-16.38821
-15.81665
-15.71689
-16.00792
-16.28468
-15.90284
-14.15574
-10.53655
-4.931705
2.2565
10.17281
17.72012
23.86247
27.87528
29.47783
28.80915
26.3131
22.57042
18.17205
13.6203
9.321403
5.568554
2.567533
0.419713
-0.8676195
-1.367501
-1.255224
-0.7359762
-0.01966572
0.7522392
1.483636
2.091699
2.48701
2.520143
2.020534
0.8934002
-0.8292246
-2.93718
-5.099289
-6.997337
-8.450085
-9.460134
-10.20444
-10.89896
-11.71609
-12.67326
-13.64931
-14.46268
-14.93086
-14.95467
-14.53328
-13.78081
-12.89956
-12.14143
-11.68275
-11.52728
-11.40621
-10.76299
-8.923869
-5.341069
0.1397533
7.152079
14.81177
21.96473
27.48136
30.60379
31.08225
29.22108
25.69888
21.30817
16.73328
12.41584
8.591495
5.360539
2.866644
1.268598
0.6921854
1.148932
2.408918
4.088217
5.731788
6.987652
7.636528
7.658216
7.099655
6.055438
4.618372
2.860408
0.8820057
-1.18488
-3.193698
-5.049052
-6.7003
-8.169526
-9.490059
-10.63592
-11.55432
-12.16284
-12.42484
-12.39124
-12.22906
-12.15338
-12.33794
-12.81739
-13.38636
-13.63972
-12.996
-10.91833
-7.074162
-1.490351
5.388213
12.75267
19.58151
24.89746
27.99151
28.61319
27.01765
23.7951
19.66627
15.24168
10.93632
6.967364
3.473985
0.6190197
-1.379396
-2.337499
-2.243331
-1.305117
0.07292879
1.46461
2.544721
3.182264
3.377888
3.17773
2.611024
1.691418
0.4422574
-1.077494
-2.76824
-4.51499
-6.238766
-7.89602
-9.490128
-11.03894
-12.54685
-13.98454
-15.26894
-16.27603
-16.88332
-17.02958
-16.76655
-16.28011
-15.83184
-15.6217
-15.68283
-15.78623
-15.44339
-14.02221
-10.96714
-6.010512
0.6485558
8.33694
16.02118
22.5641
27.06427
29.04444
28.59372
26.20778
22.61686
18.47753
14.29306
10.35689
6.825094
3.850513
1.572865
0.1225967
-0.4805508
-0.3605843
0.2176781
0.9719658
1.682287
2.232676
2.622892
2.845459
2.859268
2.576294
1.897495
0.7248077
-0.9183407
-2.919882
-5.080647
-7.153702
-8.941919
-10.35771
-11.44476
-12.36303
-13.30315
-14.35494
-15.44674
-16.39624
-16.93895
-16.94976
-16.47689
-15.77734
-15.20355
-15.03797
-15.31776
-15.72182
-15.6646
-14.43143
-11.44003
-6.469069
0.2160473
7.888153
15.53073
22.0853
26.72974
28.99237
28.84708
26.62585
22.92633
18.45262
13.8498
9.60881
6.018257
3.192636
1.138607
-0.176899
-0.8238182
-0.8919334
-0.5334053
0.04291153
0.6248913
1.05361
1.293381
1.36632
1.31403
1.061152
0.4593449
-0.6476421
-2.304405
-4.370813
-6.545317
-8.492519
-9.998516
-11.04399
-11.81236
-12.56938
-13.51548
-14.66641
-15.85734
-16.84989
-17.42024
-17.48841
-17.11977
-16.50282
-15.89347
-15.50934
-15.47771
-15.73787
-16.01957
-15.82851
-14.55573
-11.64484
-6.834881
-0.3099594
7.254997
14.8174
21.27762
25.74762
27.80465
27.53882
25.42638
22.13225
18.27441
14.32576
10.56836
7.174522
4.302256
2.085758
0.6338692
-0.02160454
0.02691269
0.5770912
1.395079
2.2635
3.039234
3.653732
4.026649
4.075691
3.679926
2.78731
1.427731
-0.2150688
-1.869267
-3.280266
-4.305511
-5.037823
-5.697794
-6.574884
-7.810797
-9.354597
-10.93056
-12.20663
-12.93419
-13.0435
-12.67908
-12.08904
-11.55361
-11.24273
-11.2454
-11.45742
-11.63198
-11.34757
-10.08296
-7.34609
-2.858494
3.266508
10.4618
17.76518
24.09608
28.51805
30.47741
29.95771
27.34332
23.30331
18.54122
13.66662
9.115071
5.197001
2.13476
0.06273556
-0.9608326
-1.039618
-0.3757725
0.667057
1.749215
2.606832
3.14
3.364157
3.334714
3.097431
2.61311
1.839998
0.7315111
-0.6945896
-2.363338
-4.18143
-6.046612
-7.895119
-9.651875
-11.24651
-12.59388
-13.6288
-14.327
-14.71383
-14.89972
-14.98789
-15.0933
-15.27812
-15.56381
-15.87941
-16.02555
-15.66995
-14.35053
-11.61514
-7.14534
-0.9844294
6.405119
14.15896
21.18209
26.46323
29.3202
29.58066
27.55081
23.89187
19.35736
14.63847
10.22156
6.408786
3.35336
1.154656
-0.1596823
-0.6236477
-0.3913889
0.2908955
1.130904
1.890835
2.43837
2.760288
2.912372
2.91562
2.733632
2.244589
1.358362
0.03402615
-1.641554
-3.499146
-5.352379
-7.1095
-8.788212
-10.48385
-12.27239
-14.10005
-15.77378
-17.02518
-17.665
-17.65592
-17.20793
-16.67234
-16.41914
-16.67473
-17.40689
-18.22745
-18.47059
-17.36735
-14.27347
-8.937352
-1.651736
6.735243
15.03284
22.02594
26.7882
28.90115
28.4578
25.95007
22.06262
17.48312
12.77971
8.349872
4.45353
1.257044
-1.116724
-2.60639
-3.214065
-3.067651
-2.41854
-1.582735
-0.8448415
-0.3494759
-0.07356453
0.1141028
0.3524151
0.691608
1.05213
1.282044
1.271366
1.000178
0.5712729
0.1440339
-0.1238391
-0.1661222
-0.01405621
0.2143178
0.3927531
0.4266481
0.3090692
0.09257436
-0.1272039
-0.2641134
-0.2815223
-0.1949646
-0.05930519
0.05180717
0.09801364
0.06719685
-0.01661205
-0.1054878
-0.1641035
-0.1712816
-0.1289251
-0.06012726
0.005174637
0.05274415
0.07358646
0.07541013
0.0695951
0.06748295
0.07248306
0.08160901
0.09165931
0.09383059
0.08780456
0.07382607
0.05489016
0.03892708
0.02723289
0.01922512
0.01667905
0.01483703
0.01418304
0.01493979
0.01450992
0.01420641
0.01428223
0.01560545
0.01469684
0.0152142
0.01692653
0.01614785
0.01652622
0.01698971
0.01609755
0.01617217
0.01591134
0.01344538
0.01328254
0.01330662
0.0120275
0.0128262
0.01174331
0.01168227
0.01158047
0.01166129
0.0109179
0.01080322
0.01106763
0.01076508
0.009993553
0.009778023
0.008996964
0.00920558
0.008608818
0.008559942
0.008381605
0.007837534
0.007495403
0.007546186
0.008126497
0.007568359
0.008060932
0.007742405
0.007082701
0.008020878
0.007087708
0.00669241
0.007501602
0.007356167
0.006806612
0.007777214
0.007306576
0.008377552
0.008501768
0.008139133
0.007668734
0.008451223
0.009284496
0.008803368
0.009257078
0.009169102
0.009468079
0.01033711
0.009631395
0.009557247
0.01029682
0.01162863
0.01056576
0.01025939
0.01109147
0.01110458
0.01327157
0.01137376
0.01237059
0.01307631
0.01273155
0.01358008
0.01302171
0.01427841
0.01406717
0.01491308
0.01365185
0.01469207
0.01392126
0.01143885
0.01273203
0.01144695
0.01212978
0.01076436
0.01129055
0.009764433
0.009542465
0.01002479
0.01030993
0.009560823
0.009024858
0.009576321
0.009294748
0.009464502
0.009384632
0.009306431
0.009614706
0.009264469
0.008834362
0.009027719
0.008939028
0.00874877
0.007561922
0.007382393
0.007427692
0.008547783
0.008053064
0.008607626
0.007319689
0.00753665
0.007668257
0.008740664
0.008851528
0.00904417
0.008549452
0.008379936
0.009395361
0.009027958
0.01001191
0.007996321
0.008839369
0.009145975
0.00856638
0.007901669
0.008014202
0.008261442
0.006112814
0.007368803
0.007578135
0.007635117
0.008084297
0.006798506
0.00731349
0.006636143
0.007007599
0.006495476
0.00668478
0.007117033
0.009026289
0.008915186
0.0100745
0.01034856
0.0111866
0.012357
0.01298571
0.01807845
0.02451348
0.03596234
0.04849017
0.06042051
0.07186759
0.07973576
0.08653796
0.09394848
0.1047753
0.12326
0.1471362
0.1732686
0.1984696
0.218374
0.2295842
0.2367103
0.2406273
0.2539074
0.277509
0.3099701
0.3436036
0.370641
0.3758476
0.359704
0.3278828
0.2999709
0.2962327
0.3322375
0.4077241
0.5122998
0.6214907
0.7070506
0.7597234
0.7840748
0.8133593
0.8817005
1.015114
1.214641
1.451057
1.670062
1.82198
1.885431
1.8779
1.862325
1.91891
2.094373
2.395072
2.761437
3.099246
3.306567
3.34908
3.237
3.05382
2.921154
2.918507
3.085434
3.380417
3.695251
3.856282
3.701665
3.073061
1.926869
0.348937
-1.478108
-3.3178
-4.972165
-6.368955
-7.587931
-8.82732
-10.30267
-12.16889
-14.39525
-16.79844
-19.0495
-20.83272
-21.95837
-22.4246
-22.44627
-22.2695
-22.04231
-21.62093
-20.58389
-18.32083
-14.35371
-8.55579
-1.205706
6.983466
15.11874
22.26079
27.618
30.64804
31.14588
29.24006
25.38429
20.29409
14.77911
9.587291
5.243582
2.008472
-0.07893872
-1.156161
-1.427672
-1.122605
-0.4607303
0.3709476
1.258187
2.145208
3.0112
3.818902
4.477684
4.840833
4.751903
4.115448
2.933281
1.34879
-0.434742
-2.201858
-3.789966
-5.160186
-6.362546
-7.505711
-8.692744
-9.979491
-11.28442
-12.4378
-13.22841
-13.47521
-13.13728
-12.3672
-11.46432
-10.77854
-10.55411
-10.75846
-11.04655
-10.78574
-9.242693
-5.843551
-0.4601498
6.515811
14.21777
21.52642
27.42091
31.19033
32.56609
31.70801
29.03289
25.06899
20.31572
15.23314
10.24009
5.745722
2.160575
-0.2114506
-1.203341
-0.9266462
0.2819386
1.899755
3.353643
4.203072
4.281793
3.723196
2.844374
2.008546
1.381785
0.906436
0.2962847
-0.7833652
-2.547503
-4.951031
-7.710275
-10.42955
-12.74816
-14.46854
-15.58209
-16.19881
-16.45118
-16.44291
-16.25859
-15.97994
-15.69508
-15.39306
-14.88828
-13.76832
-11.47871
-7.54137
-1.790959
5.467722
13.42165
20.95777
26.96016
30.61057
31.5771
30.06479
26.6184
21.93728
16.69823
11.41234
6.453735
2.113001
-1.372327
-3.80451
-5.068799
-5.209368
-4.443716
-3.093695
-1.572213
-0.2562685
0.5684576
0.7753673
0.3990388
-0.3733122
-1.352762
-2.421269
-3.59567
-5.004293
-6.780659
-8.941704
-11.30989
-13.55324
-15.31357
-16.38665
-16.7834
-16.71616
-16.49446
-16.35855
-16.4589
-16.77664
-17.13663
-17.22032
-16.58174
-14.71034
-11.17637
-5.763323
1.336912
9.482428
17.67651
24.78086
29.78511
32.08115
31.57154
28.66527
24.1214
18.82409
13.57064
8.885543
5.023593
2.007546
-0.2154251
-1.680365
-2.398981
-2.401032
-1.860036
-1.062856
-0.3655763
0.003959626
0.01577684
-0.1420358
-0.2376765
-0.1456721
0.02075109
-0.05390301
-0.7118613
-2.192691
-4.495646
-7.388314
-10.47964
-13.36284
-15.67408
-17.18137
-17.80832
-17.66434
-17.04503
-16.34666
-15.97611
-16.12735
-16.65256
-17.03024
-16.47941
-14.22177
-9.794188
-3.250624
4.795255
13.28319
21.02681
26.97419
30.47964
31.40102
30.0325
26.97185
22.88306
18.35817
13.83145
9.593665
5.841343
2.767771
0.5616744
-0.6462482
-0.8754945
-0.3818076
0.4313557
1.140904
1.495955
1.455042
1.165208
0.7938195
0.4169253
-0.04607296
-0.7634832
-1.877185
-3.419705
-5.282799
-7.291435
-9.257602
-11.05676
-12.61035
-13.88969
-14.874
-15.57033
-16.02455
-16.35102
-16.64532
-16.96058
-17.32899
-17.61523
-17.57828
-16.81705
-14.8292
-11.15329
-5.570899
1.727222
10.06604
18.36409
25.43451
30.30533
32.47993
32.02969
29.46714
25.4931
20.79246
15.89557
11.15047
6.825091
3.142238
0.2934887
-1.585582
-2.471043
-2.488876
-1.876868
-0.9329703
0.06638885
0.9278123
1.515951
1.761967
1.625215
1.056519
0.06211782
-1.280849
-2.838907
-4.451365
-6.002749
-7.50437
-9.049748
-10.75253
-12.63211
-14.56654
-16.29992
-17.58782
-18.28846
-18.40583
-18.12887
-17.68932
-17.31437
-17.14425
-17.18136
-17.21276
-16.81998
-15.42226
-12.43635
-7.532421
-0.8088059
7.142593
15.33247
22.64519
28.13906
31.23816
31.82812
30.18898
26.86559
22.51857
17.76866
13.06082
8.711288
4.924765
1.861847
-0.3056637
-1.434683
-1.528344
-0.7537584
0.5507709
1.947423
3.113766
3.882787
4.238447
4.257164
3.981072
3.373277
2.357805
0.895516
-0.9522902
-3.030802
-5.120427
-7.055313
-8.718126
-10.09018
-11.20937
-12.12392
-12.86281
-13.38117
-13.6187
-13.52078
-13.10984
-12.52923
-12.00799
-11.74862
-11.75417
-11.73257
-11.11762
-9.250825
-5.647685
-0.2280285
6.589297
13.96804
20.88021
26.38367
29.83146
30.95004
29.81867
26.78073
22.33315
17.05001
11.51764
6.28234
1.807363
-1.566574
-3.658073
-4.458434
-4.127012
-2.942107
-1.263123
0.5623522
2.248798
3.603928
4.513853
4.916351
4.758615
4.01175
2.704284
0.9245822
-1.144301
-3.295183
-5.354685
-7.274543
-9.073931
-10.80828
-12.47858
-13.99022
-15.19219
-15.95654
-16.2369
-16.09619
-15.70153
-15.22665
-14.85596
-14.68412
-14.68451
-14.60429
-13.94259
-12.08759
-8.48838
-2.970609
4.126807
11.9412
19.31657
25.13944
28.65851
29.66201
28.39479
25.40628
21.33938
16.75027
12.1011
7.761761
4.03816
1.156115
-0.7659626
-1.784187
-2.068069
-1.842681
-1.310342
-0.5631733
0.3921928
1.550584
2.802989
3.910996
4.55034
4.434339
3.433449
1.637423
-0.6509104
-3.064123
-5.270234
-7.106747
-8.578214
-9.810857
-10.98273
-12.20537
-13.50886
-14.79514
-15.90437
-16.66469
-16.94933
-16.73145
-16.10791
-15.30408
-14.60512
-14.21876
-14.09484
-13.87852
-12.92372
-10.53224
-6.240195
-0.06350708
7.437561
15.27342
22.31083
27.57773
30.48814
30.9177
29.13076
25.66733
21.1829
16.33715
11.69795
7.662436
4.446476
2.118279
0.6401291
-0.09562683
-0.2221661
0.0864563
0.6415043
1.272421
1.843431
2.303413
2.637964
2.828403
2.814121
2.443893
1.568869
0.09206963
-1.913176
-4.183779
-6.346424
-8.0541
-9.171137
-9.810925
-10.30502
-10.99127
-12.06074
-13.45257
-14.87034
-15.96268
-16.49658
-16.46147
-16.05182
-15.5891
-15.34465
-15.47515
-15.8758
-16.17971
-15.7819
-14.00934
-10.32398
-4.590376
2.763008
10.82743
18.42142
24.46009
28.26024
29.65125
28.9197
26.60682
23.28299
19.39455
15.29743
11.27757
7.58313
4.450569
2.037903
0.3835621
-0.5535583
-0.9192371
-0.8823833
-0.5749149
-0.08060074
0.5126915
1.124693
1.624052
1.827784
1.590904
0.8184452
-0.4710598
-2.116337
-3.895416
-5.576839
-6.983276
-8.079746
-8.964529
-9.800985
-10.75721
-11.89846
-13.17116
-14.42415
-15.44889
-16.09797
-16.30555
-16.16913
-15.84552
-15.54933
-15.45384
-15.61156
-15.89541
-15.96755
-15.29917
-13.31319
-9.576738
-3.973927
3.130835
10.93299
18.37418
24.39898
28.25107
29.63148
28.70544
25.93293
21.91032
17.17356
12.18497
7.346531
3.061569
-0.2863064
-2.439142
-3.295742
-3.007072
-1.907406
-0.4213753
1.072279
2.37134
3.442808
4.34586
5.096697
5.650553
5.880089
5.652391
4.878901
3.564762
1.77725
-0.4171009
-2.967514
-5.847185
-8.96653
-12.15199
-15.11569
-17.53119
-19.15811
-19.88745
-19.80178
-19.10416
-18.02632
-16.7719
-15.54356
-14.49931
-13.7492
-13.3037
-12.9627
-12.31184
-10.74221
-7.67787
-2.798635
3.74909
11.31244
18.87913
25.3298
29.75357
31.65515
31.06105
28.40392
24.36615
19.65176
14.83354
10.3156
6.317769
3.008413
0.5388374
-0.9676275
-1.437831
-0.942976
0.3014383
1.938055
3.567956
4.823886
5.484636
5.464256
4.829406
3.731504
2.345425
0.8132563
-0.8097095
-2.515553
-4.30794
-6.141741
-7.933136
-9.563106
-10.95094
-12.06736
-12.93111
-13.57662
-13.98049
-14.12556
-14.01483
-13.73861
-13.47097
-13.37076
-13.44525
-13.4593
-12.90561
-11.13356
-7.623826
-2.190044
4.839009
12.62323
20.02837
25.89353
29.36649
30.07981
28.23612
24.45661
19.59908
14.50103
9.801213
5.860514
2.790596
0.5464339
-0.9723473
-1.845618
-2.1232
-1.844205
-1.100689
-0.04012012
1.129254
2.163707
2.845885
3.022947
2.638257
1.69953
0.3074861
-1.401014
-3.259068
-5.102298
-6.808631
-8.347418
-9.773779
-11.17482
-12.61189
-14.03351
-15.26944
-16.11692
-16.41314
-16.17308
-15.58169
-14.94456
-14.57798
-14.63643
-15.03673
-15.38152
-15.05868
-13.36639
-9.756193
-4.05299
3.392753
11.74541
19.86178
26.56438
30.96973
32.64797
31.69029
28.55327
23.95267
18.61364
13.21213
8.284831
4.183389
1.110858
-0.8917196
-1.887459
-2.034584
-1.524026
-0.5877094
0.54105
1.671658
2.639646
3.330656
3.668947
3.61853
3.159201
2.325795
1.151739
-0.3174357
-1.998814
-3.823863
-5.715898
-7.594722
-9.396309
-11.05592
-12.51226
-13.70306
-14.5795
-15.11703
-15.34314
-15.32255
-15.18849
-15.11703
-15.2522
-15.64843
-16.14253
-16.32203
-15.55135
-13.17911
-8.765165
-2.321434
5.578396
13.93141
21.53791
27.3223
30.66365
31.43344
29.96101
26.81586
22.63402
17.96138
13.26229
8.887855
5.110021
2.13375
0.05418944
-1.125236
-1.519033
-1.280946
-0.5962613
0.3838112
1.540494
2.766768
3.924103
4.788464
5.117378
4.676114
3.373257
1.291392
-1.287171
-3.966136
-6.373312
-8.281492
-9.703332
-10.80925
-11.84609
-13.0227
-14.38206
-15.80876
-17.07265
-17.94017
-18.24142
-17.95748
-17.2049
-16.29873
-15.62688
-15.50014
-15.98101
-16.73857
-17.08577
-16.13386
-13.13509
-7.743171
-0.2465432
8.462228
17.10994
24.41552
29.38599
31.58102
31.12413
28.57155
24.69272
20.25282
15.81158
11.72297
8.152993
5.173975
2.864015
1.271694
0.4216228
0.226018
0.5367079
1.154267
1.917053
2.699227
3.431169
4.05231
4.465711
4.547939
4.148582
3.154299
1.524707
-0.652657
-3.184828
-5.751462
-8.02853
-9.76463
-10.90348
-11.58056
-12.06077
-12.59887
-13.29727
-14.07323
-14.73129
-15.06069
-14.96625
-14.49679
-13.82837
-13.15828
-12.67993
-12.52504
-12.68946
-13.00294
-13.06296
-12.27954
-10.02465
-5.830891
0.337122
7.981624
16.12339
23.54795
29.13731
32.17495
32.47251
30.3266
26.37853
21.39984
16.14718
11.25529
7.196678
4.252471
2.502036
1.848234
2.064343
2.874114
4.009221
5.254585
6.425815
7.35771
7.899096
7.90813
7.301082
6.08709
4.362412
2.297227
0.08753109
-2.070618
-4.013811
-5.64357
-6.960447
-8.048662
-9.049646
-10.08641
-11.1765
-12.2044
-12.9964
-13.41127
-13.43435
-13.21409
-12.97592
-12.9523
-13.29324
-13.96163
-14.71423
-15.10299
-14.54095
-12.45209
-8.462358
-2.5627
4.777518
12.67451
20.06572
25.94778
29.6411
30.89297
29.8802
27.03638
22.93638
18.16882
13.27475
8.711537
4.80433
1.765773
-0.3088245
-1.431641
-1.73952
-1.384734
-0.5773504
0.5045588
1.721799
2.923375
3.944199
4.615737
4.72945
4.142474
2.825463
0.8847144
-1.435135
-3.805485
-5.941378
-7.685909
-9.033505
-10.13687
-11.21639
-12.4258
-13.83316
-15.36214
-16.82589
-18.00538
-18.7225
-18.87378
-18.49398
-17.74949
-16.88141
-16.17915
-15.78993
-15.59929
-15.22206
-14.03367
-11.4089
-6.958036
-0.7286496
6.77908
14.65612
21.8775
27.49435
30.87078
31.78888
30.44466
27.33291
23.10387
18.40831
13.75257
9.524773
5.961737
3.208654
1.325033
0.2872281
-0.02852201
0.1873665
0.7388978
1.453593
2.213019
2.949614
3.579788
3.997409
4.068946
3.658145
2.688713
1.162971
-0.8135509
-3.053638
-5.307011
-7.30078
-8.836848
-9.868592
-10.51172
-11.00537
-11.61144
-12.49156
-13.64902
-14.93274
-16.09554
-16.90133
-17.21531
-17.0423
-16.54696
-15.99261
-15.65793
-15.66563
-15.87896
-15.85042
-14.92331
-12.43556
-8.002022
-1.678788
5.99194
14.10097
21.61049
27.55826
31.28275
32.48651
31.29669
28.16651
23.75223
18.77205
13.8647
9.505836
5.960668
3.361361
1.730354
0.9925108
0.9865694
1.467094
2.162295
2.844197
3.391143
3.795792
4.10307
4.328479
4.355873
4.034979
3.167783
1.666825
-0.4515095
-2.99084
-5.635916
-8.037827
-9.895146
-11.09954
-11.74462
-12.13473
-12.60623
-13.40321
-14.53054
-15.74357
-16.70175
-17.10739
-16.88122
-16.1829
-15.33096
-14.66261
-14.39645
-14.54136
-14.84537
-14.86742
-13.99503
-11.65998
-7.486271
-1.477846
5.917539
13.87954
21.34249
27.31581
31.01879
32.12462
30.74025
27.36946
22.7661
17.70796
12.83287
8.520964
4.956652
2.174683
0.2192087
-0.8489542
-1.032351
-0.4333858
0.6618099
1.896704
2.944303
3.628708
3.952524
4.033921
3.973181
3.728023
3.143465
2.014428
0.260746
-2.012798
-4.518817
-6.899711
-8.884215
-10.4186
-11.66356
-12.87491
-14.25564
-15.79409
-17.27296
-18.38041
-18.87037
-18.70343
-18.07828
-17.33835
-16.84538
-16.86023
-17.42224
-18.30662
-19.01848
-18.88619
-17.20022
-13.45895
-7.539471
0.1686029
8.789851
17.17303
24.16169
28.88813
30.97063
30.55692
28.13465
24.37584
19.9194
15.26497
10.7838
6.747542
3.366355
0.8058767
-0.8451018
-1.625901
-1.705856
-1.317823
-0.6957083
-0.0152092
0.6351423
1.232013
1.74009
2.084633
2.140321
1.778083
0.910255
-0.4472971
-2.138256
-3.90928
-5.50435
-6.767498
-7.694703
-8.433849
-9.210491
-10.17601
-11.38331
-12.69164
-13.84915
-14.58986
-14.74946
-14.35256
-13.60046
-12.82894
-12.32376
-12.2296
-12.39914
-12.39939
-11.59339
-9.331301
-5.189023
0.8389006
8.250266
16.13729
23.41063
29.05309
32.39393
33.2174
31.74419
28.48112
24.03327
18.95322
13.71199
8.698292
4.26082
0.716496
-1.689541
-2.84709
-2.822581
-1.877773
-0.3900585
1.247899
2.704687
3.757181
4.306179
4.308819
3.784877
2.786931
1.406649
-0.253933
-2.077915
-3.967215
-5.88656
-7.793763
-9.671782
-11.43741
-12.97789
-14.14364
-14.81775
-14.9805
-14.70323
-14.16961
-13.59684
-13.17448
-12.97339
-12.88013
-12.55918
-11.54905
-9.339561
-5.562803
-0.1606941
6.521138
13.76689
20.60436
26.08459
29.49995
30.54855
29.35112
26.35894
22.15966
17.34706
12.42614
7.772099
3.687188
0.3812695
-1.993269
-3.364938
-3.737409
-3.233818
-2.081414
-0.5776577
0.9058847
2.05395
2.629419
2.551546
1.880423
0.7859945
-0.5487356
-1.991039
-3.4937
-5.115422
-6.924419
-8.948541
-11.12048
-13.28111
-15.23071
-16.77568
-17.80472
-18.30499
-18.34666
-18.05065
-17.57589
-17.06598
-16.65518
-16.40519
-16.18469
-15.60658
-14.04326
-10.82914
-5.547526
1.677839
10.1246
18.62962
25.90787
30.97389
33.35972
33.16204
30.82843
26.98114
22.21336
17.06599
12.01745
7.499637
3.857104
1.292789
-0.163887
-0.6914959
-0.5840673
-0.1756697
0.3091631
0.7388163
1.103013
1.446131
1.747644
1.951493
1.910958
1.475426
0.5254459
-0.9391079
-2.817715
-4.894488
-6.948204
-8.823511
-10.49001
-12.03023
-13.56652
-15.16457
-16.73238
-18.06522
-18.89466
-19.05278
-18.5689
-17.68073
-16.75503
-16.11766
-15.8765
-15.81006
-15.39947
-13.94731
-10.8282
-5.73091
1.214817
9.360168
17.73827
25.24723
30.93805
34.16438
34.69928
32.71515
28.71115
23.40148
17.61347
12.11027
7.494676
4.107757
1.997617
1.00831
0.8730888
1.297358
2.035916
2.866591
3.630782
4.212715
4.558928
4.670036
4.575062
4.281211
3.726618
2.781659
1.316257
-0.698596
-3.154943
-5.776925
-8.248676
-10.33617
-11.98712
-13.33878
-14.61102
-15.96513
-17.38487
-18.66466
-19.51093
-19.71677
-19.27928
-18.41605
-17.48142
-16.8032
-16.54405
-16.66625
-16.91912
-16.87301
-15.96814
-13.61283
-9.354092
-3.085033
4.806272
13.40049
21.44409
27.70444
31.37951
32.23385
30.61056
27.18788
22.70217
17.78514
12.8827
8.32597
4.405186
1.394346
-0.4961777
-1.207487
-0.8827286
0.1356678
1.440275
2.657419
3.582479
4.198502
4.620632
4.928753
5.079222
4.896235
4.15086
2.713419
0.6754303
-1.689581
-4.039127
-6.088739
-7.752768
-9.070971
-10.17917
-11.17946
-12.10653
-12.93255
-13.59488
-14.0305
-14.1617
-13.9414
-13.34729
-12.48339
-11.57737
-10.91256
-10.75105
-11.12637
-11.76219
-12.08896
-11.37428
-8.942648
-4.444887
1.975122
9.653831
17.55395
24.51771
29.58768
32.23079
32.36976
30.33682
26.68302
22.00941
16.87337
11.76727
7.098536
3.209383
0.335598
-1.431763
-2.111082
-1.860771
-0.9027271
0.5070362
2.097097
3.586927
4.716702
5.294811
5.238054
4.606554
3.519283
2.149626
0.6204453
-0.9845943
-2.642527
-4.358509
-6.133295
-7.942045
-9.696112
-11.28362
-12.56369
-13.43502
-13.87105
-13.91412
-13.67752
-13.30545
-12.95454
-12.75093
-12.75165
-12.87551
-12.82825
-12.12097
-10.12141
-6.314703
-0.5531712
6.774097
14.78214
22.28852
28.1891
31.745
32.71249
31.35335
28.18908
23.88531
19.03291
14.13404
9.573626
5.631378
2.507984
0.3056126
-0.9729042
-1.433125
-1.2531
-0.6686764
0.07890701
0.769269
1.273008
1.518846
1.49317
1.193461
0.5748034
-0.4034328
-1.75619
-3.434828
-5.284048
-7.114239
-8.776656
-10.21072
-11.46371
-12.65487
-13.87511
-15.12468
-16.31037
-17.25287
-17.80678
-17.87788
-17.51484
-16.87239
-16.21218
-15.77934
-15.68123
-15.75285
-15.48401
-14.15897
-11.05654
-5.786464
1.492639
10.04185
18.69765
26.17195
31.4185
33.88954
33.56564
30.89949
26.58779
21.38951
15.99814
10.95167
6.625758
3.215621
0.7962627
-0.6979301
-1.406299
-1.530136
-1.291626
-0.8383391
-0.3183904
0.1979863
0.6450654
0.9749074
1.098733
0.9186882
0.2993028
-0.855171
-2.527671
-4.578313
-6.744018
-8.76343
-10.47396
-11.89543
-13.18511
-14.49296
-15.88402
-17.25933
-18.40852
-19.12369
-19.31082
-19.01826
-18.43636
-17.79427
-17.24387
-16.81745
-16.32094
-15.35653
-13.37909
-9.876328
-4.595957
2.304209
10.19101
18.07969
24.87274
29.64013
31.82351
31.37699
28.69445
24.46295
19.45805
14.31945
9.500198
5.234519
1.636204
-1.191035
-3.147615
-4.163323
-4.277319
-3.675981
-2.676408
-1.603807
-0.7218025
-0.154907
0.07325578
-0.04096818
-0.4947062
-1.310359
-2.471866
-3.930828
-5.557763
-7.223488
-8.832411
-10.34544
-11.80138
-13.2245
-14.61088
-15.86546
-16.86472
-17.48527
-17.69073
-17.53316
-17.13517
-16.6712
-16.25878
-15.96145
-15.68824
-15.16842
-13.95839
-11.53851
-7.48257
-1.664222
5.590542
13.51698
21.06321
27.17736
31.06578
32.39812
31.31844
28.34589
24.15092
19.3937
14.58639
10.08424
6.106988
2.832393
0.4231491
-0.9724979
-1.287263
-0.6182156
0.7301903
2.325082
3.687594
4.463181
4.523842
3.971027
3.053477
2.017414
0.980999
-0.07454967
-1.268323
-2.709675
-4.42155
-6.312165
-8.22288
-9.976954
-11.40528
-12.39506
-12.88239
-12.8866
-12.54011
-12.05783
-11.70309
-11.6289
-11.78036
-11.80941
-11.1743
-9.315866
-5.839377
-0.7091999
5.763173
12.92116
19.89375
25.76399
29.74527
31.3461
30.47753
27.46679
22.95555
17.70834
12.40772
7.545812
3.396051
0.08532906
-2.324477
-3.761005
-4.194356
-3.69621
-2.465339
-0.8734245
0.6447039
1.700142
2.098021
1.85831
1.171229
0.2572403
-0.7730732
-1.954873
-3.426115
-5.270754
-7.423172
-9.660421
-11.67638
-13.2028
-14.13119
-14.53057
-14.57098
-14.4629
-14.36661
-14.38427
-14.53901
-14.71279
-14.62436
-13.80932
-11.73558
-7.963637
-2.39528
4.641684
12.38116
19.7972
25.84215
29.74094
31.14962
30.19527
27.3824
23.37486
18.76618
14.01237
9.41165
5.19325
1.588592
-1.150791
-2.825829
-3.364856
-2.943553
-1.914044
-0.7058877
0.3196681
0.9456739
1.133784
0.9604356
0.4983336
-0.1783494
-1.076753
-2.218879
-3.621364
-5.269561
-7.138856
-9.12294
-11.09551
-12.914
-14.41048
-15.48933
-16.09127
-16.27068
-16.12753
-15.86215
-15.65801
-15.65426
-15.82872
-15.91006
-15.39329
-13.63423
-10.08282
-4.522665
2.747305
10.95944
19.00201
25.72813
30.24098
32.07577
31.28854
28.34771
23.97172
18.90723
13.82213
9.205164
5.375516
2.520626
0.6777811
-0.2058764
-0.341176
-0.01472378
0.4755239
0.8896847
1.130732
1.211884
1.194267
1.08203
0.8045626
0.2464027
-0.6649418
-1.895571
-3.355335
-4.935741
-6.581401
-8.288204
-10.08707
-11.94972
-13.76681
-15.35848
-16.54526
-17.2139
-17.3814
-17.181
-16.82162
-16.54836
-16.54981
-16.87526
-17.3525
-17.5644
-16.92947
-14.83256
-10.85928
-4.980888
2.385992
10.425
18.10272
24.42094
28.62115
30.32542
29.59876
26.88008
22.83202
18.1823
13.54389
9.330191
5.733149
2.820419
0.610817
-0.8639565
-1.591478
-1.62528
-1.118336
-0.3100681
0.5734138
1.362003
1.970493
2.346426
2.404253
2.002005
1.002466
-0.6279488
-2.764694
-5.131264
-7.393518
-9.294739
-10.74645
-11.82456
-12.68777
-13.47543
-14.23289
-14.93886
-15.53735
-15.99209
-16.28551
-16.43135
-16.41919
-16.23714
-15.91695
-15.53432
-15.22111
-15.06548
-15.03267
-14.81661
-13.90107
-11.66453
-7.597427
-1.564571
6.058601
14.38379
22.23009
28.42573
32.15464
33.15894
31.70948
28.44707
24.11261
19.37712
14.76322
10.65056
7.309376
4.89095
3.404345
2.692525
2.492798
2.524464
2.62753
2.778794
3.041661
3.445604
3.926467
4.314008
4.380219
3.958124
2.962767
1.474245
-0.3258238
-2.20361
-3.936576
-5.361349
-6.425396
-7.204678
-7.871011
-8.624264
-9.555345
-10.5937
-11.53366
-12.12441
-12.23259
-11.92516
-11.49187
-11.29838
-11.60829
-12.34834
-13.07975
-13.08184
-11.60953
-8.206326
-2.876244
3.887466
11.25519
18.2327
23.89635
27.53691
28.78213
27.61731
24.41321
19.80698
14.55346
9.385492
4.837524
1.199686
-1.442915
-3.105965
-3.857466
-3.761013
-2.926714
-1.531582
0.1609478
1.855474
3.260082
4.143684
4.386633
3.957621
2.933361
1.461975
-0.262125
-2.047777
-3.714773
-5.186384
-6.443764
-7.560415
-8.637684
-9.798571
-11.11254
-12.56168
-14.02832
-15.32468
-16.25535
-16.70221
-16.70341
-16.45081
-16.22481
-16.27301
