1569337060.27004
1569337060.28566
1569337060.30129
1569337060.31691
1569337060.33254
1569337060.34816
1569337060.36379
1569337060.37942
1569337060.39504
1569337060.41067
1569337060.42629
1569337060.44192
1569337060.45754
1569337060.47317
1569337060.4888
1569337060.50442
1569337060.52005
1569337060.53567
1569337060.5513
1569337060.56692
1569337060.58255
1569337060.59818
1569337060.6138
1569337060.62943
1569337060.64505
1569337060.66068
1569337060.6763
1569337060.69193
1569337060.70756
1569337060.72318
1569337060.73881
1569337060.75443
1569337060.77006
1569337060.78569
1569337060.80131
1569337060.81694
1569337060.83256
1569337060.84819
1569337060.86381
1569337060.87944
1569337060.89507
1569337060.91069
1569337060.92632
1569337060.94194
1569337060.95757
1569337060.97319
1569337060.98882
1569337061.00445
1569337061.02007
1569337061.0357
1569337061.05132
1569337061.06695
1569337061.08257
1569337061.0982
1569337061.11383
1569337061.12945
1569337061.14508
1569337061.1607
1569337061.17633
1569337061.19195
1569337061.20758
1569337061.22321
1569337061.23883
1569337061.25446
1569337061.27008
1569337061.28571
1569337061.30133
1569337061.31696
1569337061.33259
1569337061.34821
1569337061.36384
1569337061.37946
1569337061.39509
1569337061.41071
1569337061.42634
1569337061.44197
1569337061.45759
1569337061.47322
1569337061.48884
1569337061.50447
1569337061.52009
1569337061.53572
1569337061.55135
1569337061.56697
1569337061.5826
1569337061.59822
1569337061.61385
1569337061.62947
1569337061.6451
1569337061.66073
1569337061.67635
1569337061.69198
1569337061.7076
1569337061.72323
1569337061.73885
1569337061.75448
1569337061.77011
1569337061.78573
1569337061.80136
1569337061.81698
1569337061.83261
1569337061.84823
1569337061.86386
1569337061.87949
1569337061.89511
1569337061.91074
1569337061.92636
1569337061.94199
1569337061.95761
1569337061.97324
1569337061.98887
1569337062.00449
1569337062.02012
1569337062.03574
1569337062.05137
1569337062.06699
1569337062.08262
1569337062.09825
1569337062.11387
1569337062.1295
1569337062.14512
1569337062.16075
1569337062.17637
1569337062.192
1569337062.20763
1569337062.22325
1569337062.23888
1569337062.2545
1569337062.27013
1569337062.28575
1569337062.30138
1569337062.31701
1569337062.33263
1569337062.34826
1569337062.36388
1569337062.37951
1569337062.39513
1569337062.41076
1569337062.42639
1569337062.44201
1569337062.45764
1569337062.47326
1569337062.48889
1569337062.50451
1569337062.52014
1569337062.53577
1569337062.55139
1569337062.56702
1569337062.58264
1569337062.59827
1569337062.61389
1569337062.62952
1569337062.64515
1569337062.66077
1569337062.6764
1569337062.69202
1569337062.70765
1569337062.72327
1569337062.7389
1569337062.75453
1569337062.77015
1569337062.78578
1569337062.8014
1569337062.81703
1569337062.83265
1569337062.84828
1569337062.86391
1569337062.87953
1569337062.89516
1569337062.91078
1569337062.92641
1569337062.94203
1569337062.95766
1569337062.97329
1569337062.98891
1569337063.00454
1569337063.02016
1569337063.03579
1569337063.05141
1569337063.06704
1569337063.08267
1569337063.09829
1569337063.11392
1569337063.12954
1569337063.14517
1569337063.16079
1569337063.17642
1569337063.19205
1569337063.20767
1569337063.2233
1569337063.23892
1569337063.25455
1569337063.27017
1569337063.2858
1569337063.30143
1569337063.31705
1569337063.33268
1569337063.3483
1569337063.36393
1569337063.37955
1569337063.39518
1569337063.41081
1569337063.42643
1569337063.44206
1569337063.45768
1569337063.47331
1569337063.48894
1569337063.50456
1569337063.52019
1569337063.53581
1569337063.55144
1569337063.56706
1569337063.58269
1569337063.59832
1569337063.61394
1569337063.62957
1569337063.64519
1569337063.66082
1569337063.67644
1569337063.69207
1569337063.7077
1569337063.72332
1569337063.73895
1569337063.75457
1569337063.7702
1569337063.78582
1569337063.80145
1569337063.81708
1569337063.8327
1569337063.84833
1569337063.86395
1569337063.87958
1569337063.8952
1569337063.91083
1569337063.92646
1569337063.94208
1569337063.95771
1569337063.97333
1569337063.98896
1569337064.00458
1569337064.02021
1569337064.03584
1569337064.05146
1569337064.06709
1569337064.08271
1569337064.09834
1569337064.11396
1569337064.12959
1569337064.14522
1569337064.16084
1569337064.17647
1569337064.19209
1569337064.20772
1569337064.22334
1569337064.23897
1569337064.2546
1569337064.27022
1569337064.28585
1569337064.30147
1569337064.3171
1569337064.33272
1569337064.34835
1569337064.36398
1569337064.3796
1569337064.39523
1569337064.41085
1569337064.42648
1569337064.4421
1569337064.45773
1569337064.47336
1569337064.48898
1569337064.50461
1569337064.52023
1569337064.53586
1569337064.55148
1569337064.56711
1569337064.58274
1569337064.59836
1569337064.61399
1569337064.62961
1569337064.64524
1569337064.66086
1569337064.67649
1569337064.69212
1569337064.70774
1569337064.72337
1569337064.73899
1569337064.75462
1569337064.77024
1569337064.78587
1569337064.8015
1569337064.81712
1569337064.83275
1569337064.84837
1569337064.864
1569337064.87962
1569337064.89525
1569337064.91088
1569337064.9265
1569337064.94213
1569337064.95775
1569337064.97338
1569337064.989
1569337065.00463
1569337065.02026
1569337065.03588
1569337065.05151
1569337065.06713
1569337065.08276
1569337065.09838
1569337065.11401
1569337065.12964
1569337065.14526
1569337065.16089
1569337065.17651
1569337065.19214
1569337065.20776
1569337065.22339
1569337065.23902
1569337065.25464
1569337065.27027
1569337065.28589
1569337065.30152
1569337065.31714
1569337065.33277
1569337065.3484
1569337065.36402
1569337065.37965
1569337065.39527
1569337065.4109
1569337065.42652
1569337065.44215
1569337065.45778
1569337065.4734
1569337065.48903
1569337065.50465
1569337065.52028
1569337065.5359
1569337065.55153
1569337065.56716
1569337065.58278
1569337065.59841
1569337065.61403
1569337065.62966
1569337065.64529
1569337065.66091
1569337065.67654
1569337065.69216
1569337065.70779
1569337065.72341
1569337065.73904
1569337065.75467
1569337065.77029
1569337065.78592
1569337065.80154
1569337065.81717
1569337065.83279
1569337065.84842
1569337065.86405
1569337065.87967
1569337065.8953
1569337065.91092
1569337065.92655
1569337065.94217
1569337065.9578
1569337065.97343
1569337065.98905
1569337066.00468
1569337066.0203
1569337066.03593
1569337066.05155
1569337066.06718
1569337066.08281
1569337066.09843
1569337066.11406
1569337066.12968
1569337066.14531
1569337066.16093
1569337066.17656
1569337066.19219
1569337066.20781
1569337066.22344
1569337066.23906
1569337066.25469
1569337066.27031
1569337066.28594
1569337066.30157
1569337066.31719
1569337066.33282
1569337066.34844
1569337066.36407
1569337066.37969
1569337066.39532
1569337066.41095
1569337066.42657
1569337066.4422
1569337066.45782
1569337066.47345
1569337066.48907
1569337066.5047
1569337066.52033
1569337066.53595
1569337066.55158
1569337066.5672
1569337066.58283
1569337066.59845
1569337066.61408
1569337066.62971
1569337066.64533
1569337066.66096
1569337066.67658
1569337066.69221
1569337066.70783
1569337066.72346
1569337066.73909
1569337066.75471
1569337066.77034
1569337066.78596
1569337066.80159
1569337066.81721
1569337066.83284
1569337066.84847
1569337066.86409
1569337066.87972
1569337066.89534
1569337066.91097
1569337066.92659
1569337066.94222
1569337066.95785
1569337066.97347
1569337066.9891
1569337067.00472
1569337067.02035
1569337067.03597
1569337067.0516
1569337067.06723
1569337067.08285
1569337067.09848
1569337067.1141
1569337067.12973
1569337067.14535
1569337067.16098
1569337067.17661
1569337067.19223
1569337067.20786
1569337067.22348
1569337067.23911
1569337067.25473
1569337067.27036
1569337067.28599
1569337067.30161
1569337067.31724
1569337067.33286
1569337067.34849
1569337067.36411
1569337067.37974
1569337067.39537
1569337067.41099
1569337067.42662
1569337067.44224
1569337067.45787
1569337067.47349
1569337067.48912
1569337067.50475
1569337067.52037
1569337067.536
1569337067.55162
1569337067.56725
1569337067.58287
1569337067.5985
1569337067.61413
1569337067.62975
1569337067.64538
1569337067.661
1569337067.67663
1569337067.69225
1569337067.70788
1569337067.72351
1569337067.73913
1569337067.75476
1569337067.77038
1569337067.78601
1569337067.80163
1569337067.81726
1569337067.83289
1569337067.84851
1569337067.86414
1569337067.87976
1569337067.89539
1569337067.91102
1569337067.92664
1569337067.94227
1569337067.95789
1569337067.97352
1569337067.98914
1569337068.00477
1569337068.0204
1569337068.03602
1569337068.05165
1569337068.06727
1569337068.0829
1569337068.09852
1569337068.11415
1569337068.12978
1569337068.1454
1569337068.16103
1569337068.17665
1569337068.19228
1569337068.2079
1569337068.22353
1569337068.23916
1569337068.25478
1569337068.27041
1569337068.28603
1569337068.30166
1569337068.31728
1569337068.33291
1569337068.34854
1569337068.36416
1569337068.37979
1569337068.39541
1569337068.41104
1569337068.42666
1569337068.44229
1569337068.45792
1569337068.47354
1569337068.48917
1569337068.50479
1569337068.52042
1569337068.53604
1569337068.55167
1569337068.5673
1569337068.58292
1569337068.59855
1569337068.61417
1569337068.6298
1569337068.64542
1569337068.66105
1569337068.67668
1569337068.6923
1569337068.70793
1569337068.72355
1569337068.73918
1569337068.7548
1569337068.77043
1569337068.78606
1569337068.80168
1569337068.81731
1569337068.83293
1569337068.84856
1569337068.86418
1569337068.87981
1569337068.89544
1569337068.91106
1569337068.92669
1569337068.94231
1569337068.95794
1569337068.97356
1569337068.98919
1569337069.00482
1569337069.02044
1569337069.03607
1569337069.05169
1569337069.06732
1569337069.08294
1569337069.09857
1569337069.1142
1569337069.12982
1569337069.14545
1569337069.16107
1569337069.1767
1569337069.19232
1569337069.20795
1569337069.22358
1569337069.2392
1569337069.25483
1569337069.27045
1569337069.28608
1569337069.3017
1569337069.31733
1569337069.33296
1569337069.34858
1569337069.36421
1569337069.37983
1569337069.39546
1569337069.41108
1569337069.42671
1569337069.44234
1569337069.45796
1569337069.47359
1569337069.48921
1569337069.50484
1569337069.52046
1569337069.53609
1569337069.55172
1569337069.56734
1569337069.58297
1569337069.59859
1569337069.61422
1569337069.62984
1569337069.64547
1569337069.6611
1569337069.67672
1569337069.69235
1569337069.70797
1569337069.7236
1569337069.73922
1569337069.75485
1569337069.77048
1569337069.7861
1569337069.80173
1569337069.81735
1569337069.83298
1569337069.8486
1569337069.86423
1569337069.87986
1569337069.89548
1569337069.91111
1569337069.92673
1569337069.94236
1569337069.95798
1569337069.97361
1569337069.98924
1569337070.00486
1569337070.02049
1569337070.03611
1569337070.05174
1569337070.06736
1569337070.08299
1569337070.09862
1569337070.11424
1569337070.12987
1569337070.14549
1569337070.16112
1569337070.17674
1569337070.19237
1569337070.208
1569337070.22362
1569337070.23925
1569337070.25487
1569337070.2705
1569337070.28612
1569337070.30175
1569337070.31738
1569337070.333
1569337070.34863
1569337070.36425
1569337070.37988
1569337070.3955
1569337070.41113
1569337070.42676
1569337070.44238
1569337070.45801
1569337070.47363
1569337070.48926
1569337070.50488
1569337070.52051
1569337070.53614
1569337070.55176
1569337070.56739
1569337070.58301
1569337070.59864
1569337070.61427
1569337070.62989
1569337070.64552
1569337070.66114
1569337070.67677
1569337070.69239
1569337070.70802
1569337070.72365
1569337070.73927
1569337070.7549
1569337070.77052
1569337070.78615
1569337070.80177
1569337070.8174
1569337070.83303
1569337070.84865
1569337070.86428
1569337070.8799
1569337070.89553
1569337070.91115
1569337070.92678
1569337070.94241
1569337070.95803
1569337070.97366
1569337070.98928
1569337071.00491
1569337071.02053
1569337071.03616
1569337071.05179
1569337071.06741
1569337071.08304
1569337071.09866
1569337071.11429
1569337071.12991
1569337071.14554
1569337071.16117
1569337071.17679
1569337071.19242
1569337071.20804
1569337071.22367
1569337071.23929
1569337071.25492
1569337071.27055
1569337071.28617
1569337071.3018
1569337071.31742
1569337071.33305
1569337071.34867
1569337071.3643
1569337071.37993
1569337071.39555
1569337071.41118
1569337071.4268
1569337071.44243
1569337071.45805
1569337071.47368
1569337071.48931
1569337071.50493
1569337071.52056
1569337071.53618
1569337071.55181
1569337071.56743
1569337071.58306
1569337071.59869
1569337071.61431
1569337071.62994
1569337071.64556
1569337071.66119
1569337071.67681
1569337071.69244
1569337071.70807
1569337071.72369
1569337071.73932
1569337071.75494
1569337071.77057
1569337071.78619
1569337071.80182
1569337071.81745
1569337071.83307
1569337071.8487
1569337071.86432
1569337071.87995
1569337071.89557
1569337071.9112
1569337071.92683
1569337071.94245
1569337071.95808
1569337071.9737
1569337071.98933
1569337072.00495
1569337072.02058
1569337072.03621
1569337072.05183
1569337072.06746
1569337072.08308
1569337072.09871
1569337072.11433
1569337072.12996
1569337072.14559
1569337072.16121
1569337072.17684
1569337072.19246
1569337072.20809
1569337072.22371
1569337072.23934
1569337072.25497
1569337072.27059
1569337072.28622
1569337072.30184
1569337072.31747
1569337072.33309
1569337072.34872
1569337072.36435
1569337072.37997
1569337072.3956
1569337072.41122
1569337072.42685
1569337072.44247
1569337072.4581
1569337072.47373
1569337072.48935
1569337072.50498
1569337072.5206
1569337072.53623
1569337072.55185
1569337072.56748
1569337072.58311
1569337072.59873
1569337072.61436
1569337072.62998
1569337072.64561
1569337072.66123
1569337072.67686
1569337072.69249
1569337072.70811
1569337072.72374
1569337072.73936
1569337072.75499
1569337072.77062
1569337072.78624
1569337072.80187
1569337072.81749
1569337072.83312
1569337072.84874
1569337072.86437
1569337072.88
1569337072.89562
1569337072.91125
1569337072.92687
1569337072.9425
1569337072.95812
1569337072.97375
1569337072.98938
1569337073.005
1569337073.02063
1569337073.03625
1569337073.05188
1569337073.0675
1569337073.08313
1569337073.09876
1569337073.11438
1569337073.13001
1569337073.14563
1569337073.16126
1569337073.17688
1569337073.19251
1569337073.20814
1569337073.22376
1569337073.23939
1569337073.25501
1569337073.27064
1569337073.28626
1569337073.30189
1569337073.31752
1569337073.33314
1569337073.34877
1569337073.36439
1569337073.38002
1569337073.39564
1569337073.41127
1569337073.4269
1569337073.44252
1569337073.45815
1569337073.47377
1569337073.4894
1569337073.50502
1569337073.52065
1569337073.53628
1569337073.5519
1569337073.56753
1569337073.58315
1569337073.59878
1569337073.6144
1569337073.63003
1569337073.64566
1569337073.66128
1569337073.67691
1569337073.69253
1569337073.70816
1569337073.72378
1569337073.73941
1569337073.75504
1569337073.77066
1569337073.78629
1569337073.80191
1569337073.81754
1569337073.83316
1569337073.84879
1569337073.86442
1569337073.88004
1569337073.89567
1569337073.91129
1569337073.92692
1569337073.94254
1569337073.95817
1569337073.9738
1569337073.98942
1569337074.00505
1569337074.02067
1569337074.0363
1569337074.05192
1569337074.06755
1569337074.08318
1569337074.0988
1569337074.11443
1569337074.13005
1569337074.14568
1569337074.1613
1569337074.17693
1569337074.19256
1569337074.20818
1569337074.22381
1569337074.23943
1569337074.25506
1569337074.27068
1569337074.28631
1569337074.30194
1569337074.31756
1569337074.33319
1569337074.34881
1569337074.36444
1569337074.38006
1569337074.39569
1569337074.41132
1569337074.42694
1569337074.44257
1569337074.45819
1569337074.47382
1569337074.48944
1569337074.50507
1569337074.5207
1569337074.53632
1569337074.55195
1569337074.56757
1569337074.5832
1569337074.59882
1569337074.61445
1569337074.63008
1569337074.6457
1569337074.66133
1569337074.67695
1569337074.69258
1569337074.7082
1569337074.72383
1569337074.73946
1569337074.75508
1569337074.77071
1569337074.78633
1569337074.80196
1569337074.81758
1569337074.83321
1569337074.84884
1569337074.86446
1569337074.88009
1569337074.89571
1569337074.91134
1569337074.92696
1569337074.94259
1569337074.95822
1569337074.97384
1569337074.98947
1569337075.00509
1569337075.02072
1569337075.03635
1569337075.05197
1569337075.0676
1569337075.08322
1569337075.09885
1569337075.11447
1569337075.1301
1569337075.14573
1569337075.16135
1569337075.17698
1569337075.1926
1569337075.20823
1569337075.22385
1569337075.23948
1569337075.25511
1569337075.27073
1569337075.28636
1569337075.30198
1569337075.31761
1569337075.33323
1569337075.34886
1569337075.36449
1569337075.38011
1569337075.39574
1569337075.41136
1569337075.42699
1569337075.44261
1569337075.45824
1569337075.47387
1569337075.48949
1569337075.50512
1569337075.52074
1569337075.53637
1569337075.55199
1569337075.56762
1569337075.58325
1569337075.59887
1569337075.6145
1569337075.63012
1569337075.64575
1569337075.66137
1569337075.677
1569337075.69263
1569337075.70825
1569337075.72388
1569337075.7395
1569337075.75513
1569337075.77075
1569337075.78638
1569337075.80201
1569337075.81763
1569337075.83326
1569337075.84888
1569337075.86451
1569337075.88013
1569337075.89576
1569337075.91139
1569337075.92701
1569337075.94264
1569337075.95826
1569337075.97389
1569337075.98951
1569337076.00514
1569337076.02077
1569337076.03639
1569337076.05202
1569337076.06764
1569337076.08327
1569337076.09889
1569337076.11452
1569337076.13015
1569337076.14577
1569337076.1614
1569337076.17702
1569337076.19265
1569337076.20827
1569337076.2239
1569337076.23953
1569337076.25515
1569337076.27078
1569337076.2864
1569337076.30203
1569337076.31765
1569337076.33328
1569337076.34891
1569337076.36453
1569337076.38016
1569337076.39578
1569337076.41141
1569337076.42703
1569337076.44266
1569337076.45829
1569337076.47391
1569337076.48954
1569337076.50516
1569337076.52079
1569337076.53641
1569337076.55204
1569337076.56767
1569337076.58329
1569337076.59892
1569337076.61454
1569337076.63017
1569337076.64579
1569337076.66142
1569337076.67705
1569337076.69267
1569337076.7083
1569337076.72392
1569337076.73955
1569337076.75517
1569337076.7708
1569337076.78643
1569337076.80205
1569337076.81768
1569337076.8333
1569337076.84893
1569337076.86455
1569337076.88018
1569337076.89581
1569337076.91143
1569337076.92706
1569337076.94268
1569337076.95831
1569337076.97393
1569337076.98956
1569337077.00519
1569337077.02081
1569337077.03644
1569337077.05206
1569337077.06769
1569337077.08331
1569337077.09894
1569337077.11457
1569337077.13019
1569337077.14582
1569337077.16144
1569337077.17707
1569337077.19269
1569337077.20832
1569337077.22395
1569337077.23957
1569337077.2552
1569337077.27082
1569337077.28645
1569337077.30207
1569337077.3177
1569337077.33333
1569337077.34895
1569337077.36458
1569337077.3802
1569337077.39583
1569337077.41145
1569337077.42708
1569337077.44271
1569337077.45833
1569337077.47396
1569337077.48958
1569337077.50521
1569337077.52083
1569337077.53646
1569337077.55209
1569337077.56771
1569337077.58334
1569337077.59896
1569337077.61459
1569337077.63022
1569337077.64584
1569337077.66147
1569337077.67709
1569337077.69272
1569337077.70834
1569337077.72397
1569337077.7396
1569337077.75522
1569337077.77085
1569337077.78647
1569337077.8021
1569337077.81772
1569337077.83335
1569337077.84898
1569337077.8646
1569337077.88023
1569337077.89585
1569337077.91148
1569337077.9271
1569337077.94273
1569337077.95836
1569337077.97398
1569337077.98961
1569337078.00523
1569337078.02086
1569337078.03648
1569337078.05211
1569337078.06774
1569337078.08336
1569337078.09899
1569337078.11461
1569337078.13024
1569337078.14586
1569337078.16149
1569337078.17712
1569337078.19274
1569337078.20837
1569337078.22399
1569337078.23962
1569337078.25524
1569337078.27087
1569337078.2865
1569337078.30212
1569337078.31775
1569337078.33337
1569337078.349
1569337078.36462
1569337078.38025
1569337078.39588
1569337078.4115
1569337078.42713
1569337078.44275
1569337078.45838
1569337078.474
1569337078.48963
1569337078.50526
1569337078.52088
1569337078.53651
1569337078.55213
1569337078.56776
1569337078.58338
1569337078.59901
1569337078.61464
1569337078.63026
1569337078.64589
1569337078.66151
1569337078.67714
1569337078.69276
1569337078.70839
1569337078.72402
1569337078.73964
1569337078.75527
1569337078.77089
1569337078.78652
1569337078.80214
1569337078.81777
1569337078.8334
1569337078.84902
1569337078.86465
1569337078.88027
1569337078.8959
1569337078.91152
1569337078.92715
1569337078.94278
1569337078.9584
1569337078.97403
1569337078.98965
1569337079.00528
1569337079.0209
1569337079.03653
1569337079.05216
1569337079.06778
1569337079.08341
1569337079.09903
1569337079.11466
1569337079.13028
1569337079.14591
1569337079.16154
1569337079.17716
1569337079.19279
1569337079.20841
1569337079.22404
1569337079.23966
1569337079.25529
1569337079.27092
1569337079.28654
1569337079.30217
1569337079.31779
1569337079.33342
1569337079.34904
1569337079.36467
1569337079.3803
1569337079.39592
1569337079.41155
1569337079.42717
1569337079.4428
1569337079.45842
1569337079.47405
1569337079.48968
1569337079.5053
1569337079.52093
1569337079.53655
1569337079.55218
1569337079.5678
1569337079.58343
1569337079.59906
1569337079.61468
1569337079.63031
1569337079.64593
1569337079.66156
1569337079.67718
1569337079.69281
1569337079.70844
1569337079.72406
1569337079.73969
1569337079.75531
1569337079.77094
1569337079.78656
1569337079.80219
1569337079.81782
1569337079.83344
1569337079.84907
1569337079.86469
1569337079.88032
1569337079.89595
1569337079.91157
1569337079.9272
1569337079.94282
1569337079.95845
1569337079.97407
1569337079.9897
1569337080.00533
1569337080.02095
1569337080.03658
1569337080.0522
1569337080.06783
1569337080.08345
1569337080.09908
1569337080.11471
1569337080.13033
1569337080.14596
1569337080.16158
1569337080.17721
1569337080.19283
1569337080.20846
1569337080.22409
1569337080.23971
1569337080.25534
1569337080.27096
1569337080.28659
1569337080.30221
1569337080.31784
1569337080.33347
1569337080.34909
1569337080.36472
1569337080.38034
1569337080.39597
1569337080.41159
1569337080.42722
1569337080.44285
1569337080.45847
1569337080.4741
1569337080.48972
1569337080.50535
1569337080.52097
1569337080.5366
1569337080.55223
1569337080.56785
1569337080.58348
1569337080.5991
1569337080.61473
1569337080.63035
1569337080.64598
1569337080.66161
1569337080.67723
1569337080.69286
1569337080.70848
1569337080.72411
1569337080.73973
1569337080.75536
1569337080.77099
1569337080.78661
1569337080.80224
1569337080.81786
1569337080.83349
1569337080.84911
1569337080.86474
1569337080.88037
1569337080.89599
1569337080.91162
1569337080.92724
1569337080.94287
1569337080.95849
1569337080.97412
1569337080.98975
1569337081.00537
1569337081.021
1569337081.03662
1569337081.05225
1569337081.06787
1569337081.0835
1569337081.09913
1569337081.11475
1569337081.13038
1569337081.146
1569337081.16163
1569337081.17725
1569337081.19288
1569337081.20851
1569337081.22413
1569337081.23976
1569337081.25538
1569337081.27101
1569337081.28663
1569337081.30226
1569337081.31789
1569337081.33351
1569337081.34914
1569337081.36476
1569337081.38039
1569337081.39601
1569337081.41164
1569337081.42727
1569337081.44289
1569337081.45852
1569337081.47414
1569337081.48977
1569337081.50539
1569337081.52102
1569337081.53665
1569337081.55227
1569337081.5679
1569337081.58352
1569337081.59915
1569337081.61477
1569337081.6304
1569337081.64603
1569337081.66165
1569337081.67728
1569337081.6929
1569337081.70853
1569337081.72415
1569337081.73978
1569337081.75541
1569337081.77103
1569337081.78666
1569337081.80228
1569337081.81791
1569337081.83353
1569337081.84916
1569337081.86479
1569337081.88041
1569337081.89604
1569337081.91166
1569337081.92729
1569337081.94291
1569337081.95854
1569337081.97417
1569337081.98979
1569337082.00542
1569337082.02104
1569337082.03667
1569337082.05229
1569337082.06792
1569337082.08355
1569337082.09917
1569337082.1148
1569337082.13042
1569337082.14605
1569337082.16167
1569337082.1773
1569337082.19293
1569337082.20855
1569337082.22418
1569337082.2398
1569337082.25543
1569337082.27105
1569337082.28668
1569337082.30231
1569337082.31793
1569337082.33356
1569337082.34918
1569337082.36481
1569337082.38043
1569337082.39606
1569337082.41169
1569337082.42731
1569337082.44294
1569337082.45856
1569337082.47419
1569337082.48982
1569337082.50544
1569337082.52107
1569337082.53669
1569337082.55232
1569337082.56794
1569337082.58357
1569337082.5992
1569337082.61482
1569337082.63045
1569337082.64607
1569337082.6617
1569337082.67732
1569337082.69295
1569337082.70858
1569337082.7242
1569337082.73983
1569337082.75545
1569337082.77108
1569337082.7867
1569337082.80233
1569337082.81796
1569337082.83358
1569337082.84921
1569337082.86483
1569337082.88046
1569337082.89608
1569337082.91171
1569337082.92734
1569337082.94296
1569337082.95859
1569337082.97421
1569337082.98984
1569337083.00546
1569337083.02109
1569337083.03672
1569337083.05234
1569337083.06797
1569337083.08359
1569337083.09922
1569337083.11484
1569337083.13047
1569337083.1461
1569337083.16172
1569337083.17735
1569337083.19297
1569337083.2086
1569337083.22422
1569337083.23985
1569337083.25548
1569337083.2711
1569337083.28673
1569337083.30235
1569337083.31798
1569337083.3336
1569337083.34923
1569337083.36486
1569337083.38048
1569337083.39611
1569337083.41173
1569337083.42736
1569337083.44298
1569337083.45861
1569337083.47424
1569337083.48986
1569337083.50549
1569337083.52111
1569337083.53674
1569337083.55236
1569337083.56799
1569337083.58362
1569337083.59924
1569337083.61487
1569337083.63049
1569337083.64612
1569337083.66174
1569337083.67737
1569337083.693
1569337083.70862
1569337083.72425
1569337083.73987
1569337083.7555
1569337083.77112
1569337083.78675
1569337083.80238
1569337083.818
1569337083.83363
1569337083.84925
1569337083.86488
1569337083.8805
1569337083.89613
1569337083.91176
1569337083.92738
1569337083.94301
1569337083.95863
1569337083.97426
1569337083.98988
1569337084.00551
1569337084.02114
1569337084.03676
1569337084.05239
1569337084.06801
1569337084.08364
1569337084.09926
1569337084.11489
1569337084.13052
1569337084.14614
1569337084.16177
1569337084.17739
1569337084.19302
1569337084.20864
1569337084.22427
1569337084.2399
1569337084.25552
1569337084.27115
1569337084.28677
1569337084.3024
1569337084.31802
1569337084.33365
1569337084.34928
1569337084.3649
1569337084.38053
1569337084.39615
1569337084.41178
1569337084.4274
1569337084.44303
1569337084.45866
1569337084.47428
1569337084.48991
1569337084.50553
1569337084.52116
1569337084.53678
1569337084.55241
1569337084.56804
1569337084.58366
1569337084.59929
1569337084.61491
1569337084.63054
1569337084.64616
1569337084.66179
1569337084.67742
1569337084.69304
1569337084.70867
1569337084.72429
1569337084.73992
1569337084.75555
1569337084.77117
1569337084.7868
1569337084.80242
1569337084.81805
1569337084.83367
1569337084.8493
1569337084.86493
1569337084.88055
1569337084.89618
1569337084.9118
1569337084.92743
1569337084.94305
1569337084.95868
1569337084.97431
1569337084.98993
1569337085.00556
1569337085.02118
1569337085.03681
1569337085.05243
1569337085.06806
1569337085.08369
1569337085.09931
1569337085.11494
1569337085.13056
1569337085.14619
1569337085.16181
1569337085.17744
1569337085.19307
1569337085.20869
1569337085.22432
1569337085.23994
1569337085.25557
1569337085.27119
1569337085.28682
1569337085.30245
1569337085.31807
1569337085.3337
1569337085.34932
1569337085.36495
1569337085.38057
1569337085.3962
1569337085.41183
1569337085.42745
1569337085.44308
1569337085.4587
1569337085.47433
1569337085.48995
1569337085.50558
1569337085.52121
1569337085.53683
1569337085.55246
1569337085.56808
1569337085.58371
1569337085.59933
1569337085.61496
1569337085.63059
1569337085.64621
1569337085.66184
1569337085.67746
1569337085.69309
1569337085.70871
1569337085.72434
1569337085.73997
1569337085.75559
1569337085.77122
1569337085.78684
1569337085.80247
1569337085.81809
1569337085.83372
1569337085.84935
1569337085.86497
1569337085.8806
1569337085.89622
1569337085.91185
1569337085.92747
1569337085.9431
1569337085.95873
1569337085.97435
1569337085.98998
1569337086.0056
1569337086.02123
1569337086.03685
1569337086.05248
1569337086.06811
1569337086.08373
1569337086.09936
1569337086.11498
1569337086.13061
1569337086.14623
1569337086.16186
1569337086.17749
1569337086.19311
1569337086.20874
1569337086.22436
1569337086.23999
1569337086.25561
1569337086.27124
1569337086.28687
1569337086.30249
1569337086.31812
1569337086.33374
1569337086.34937
1569337086.36499
1569337086.38062
1569337086.39625
1569337086.41187
1569337086.4275
1569337086.44312
1569337086.45875
1569337086.47437
1569337086.49
1569337086.50563
1569337086.52125
1569337086.53688
1569337086.5525
1569337086.56813
1569337086.58375
1569337086.59938
1569337086.61501
1569337086.63063
1569337086.64626
1569337086.66188
1569337086.67751
1569337086.69313
1569337086.70876
1569337086.72439
1569337086.74001
1569337086.75564
1569337086.77126
1569337086.78689
1569337086.80251
1569337086.81814
1569337086.83377
1569337086.84939
1569337086.86502
1569337086.88064
1569337086.89627
1569337086.9119
1569337086.92752
1569337086.94315
1569337086.95877
1569337086.9744
1569337086.99002
1569337087.00565
1569337087.02128
1569337087.0369
1569337087.05253
1569337087.06815
1569337087.08378
1569337087.0994
1569337087.11503
1569337087.13066
1569337087.14628
1569337087.16191
1569337087.17753
1569337087.19316
1569337087.20878
1569337087.22441
1569337087.24004
1569337087.25566
1569337087.27129
1569337087.28691
1569337087.30254
1569337087.31816
1569337087.33379
1569337087.34942
1569337087.36504
1569337087.38067
1569337087.39629
1569337087.41192
1569337087.42754
1569337087.44317
1569337087.4588
1569337087.47442
1569337087.49005
1569337087.50567
1569337087.5213
1569337087.53692
1569337087.55255
1569337087.56818
1569337087.5838
1569337087.59943
1569337087.61505
1569337087.63068
1569337087.6463
1569337087.66193
1569337087.67756
1569337087.69318
1569337087.70881
1569337087.72443
1569337087.74006
1569337087.75568
1569337087.77131
1569337087.78694
1569337087.80256
1569337087.81819
1569337087.83381
1569337087.84944
1569337087.86506
1569337087.88069
1569337087.89632
1569337087.91194
1569337087.92757
1569337087.94319
1569337087.95882
1569337087.97444
1569337087.99007
1569337088.0057
1569337088.02132
1569337088.03695
1569337088.05257
1569337088.0682
1569337088.08382
1569337088.09945
1569337088.11508
1569337088.1307
1569337088.14633
1569337088.16195
1569337088.17758
1569337088.1932
1569337088.20883
1569337088.22446
1569337088.24008
1569337088.25571
1569337088.27133
1569337088.28696
1569337088.30258
1569337088.31821
1569337088.33384
1569337088.34946
1569337088.36509
1569337088.38071
1569337088.39634
1569337088.41196
1569337088.42759
1569337088.44322
1569337088.45884
1569337088.47447
1569337088.49009
1569337088.50572
1569337088.52134
1569337088.53697
1569337088.5526
1569337088.56822
1569337088.58385
1569337088.59947
1569337088.6151
1569337088.63072
1569337088.64635
1569337088.66198
1569337088.6776
1569337088.69323
1569337088.70885
1569337088.72448
1569337088.7401
1569337088.75573
1569337088.77136
1569337088.78698
1569337088.80261
1569337088.81823
1569337088.83386
1569337088.84948
1569337088.86511
1569337088.88074
1569337088.89636
1569337088.91199
1569337088.92761
1569337088.94324
1569337088.95886
1569337088.97449
1569337088.99012
1569337089.00574
1569337089.02137
1569337089.03699
1569337089.05262
1569337089.06824
1569337089.08387
1569337089.0995
1569337089.11512
1569337089.13075
1569337089.14637
1569337089.162
1569337089.17762
1569337089.19325
1569337089.20888
1569337089.2245
1569337089.24013
1569337089.25575
1569337089.27138
1569337089.287
1569337089.30263
1569337089.31826
1569337089.33388
1569337089.34951
1569337089.36513
1569337089.38076
1569337089.39638
1569337089.41201
1569337089.42764
1569337089.44326
1569337089.45889
1569337089.47451
1569337089.49014
1569337089.50576
1569337089.52139
1569337089.53702
1569337089.55264
1569337089.56827
1569337089.58389
1569337089.59952
1569337089.61515
1569337089.63077
1569337089.6464
1569337089.66202
1569337089.67765
1569337089.69327
1569337089.7089
1569337089.72453
1569337089.74015
1569337089.75578
1569337089.7714
1569337089.78703
1569337089.80265
1569337089.81828
1569337089.83391
1569337089.84953
1569337089.86516
1569337089.88078
1569337089.89641
1569337089.91203
1569337089.92766
1569337089.94329
1569337089.95891
1569337089.97454
1569337089.99016
1569337090.00579
1569337090.02141
1569337090.03704
1569337090.05267
1569337090.06829
1569337090.08392
1569337090.09954
1569337090.11517
1569337090.13079
1569337090.14642
1569337090.16205
1569337090.17767
1569337090.1933
1569337090.20892
1569337090.22455
1569337090.24017
1569337090.2558
1569337090.27143
1569337090.28705
1569337090.30268
1569337090.3183
1569337090.33393
1569337090.34955
1569337090.36518
1569337090.38081
1569337090.39643
1569337090.41206
1569337090.42768
1569337090.44331
1569337090.45893
1569337090.47456
1569337090.49019
1569337090.50581
1569337090.52144
1569337090.53706
1569337090.55269
1569337090.56831
1569337090.58394
1569337090.59957
1569337090.61519
1569337090.63082
1569337090.64644
1569337090.66207
1569337090.67769
1569337090.69332
1569337090.70895
1569337090.72457
1569337090.7402
1569337090.75582
1569337090.77145
1569337090.78707
1569337090.8027
1569337090.81833
1569337090.83395
1569337090.84958
1569337090.8652
1569337090.88083
1569337090.89645
1569337090.91208
1569337090.92771
1569337090.94333
1569337090.95896
1569337090.97458
1569337090.99021
1569337091.00583
1569337091.02146
1569337091.03709
1569337091.05271
1569337091.06834
1569337091.08396
1569337091.09959
1569337091.11521
1569337091.13084
1569337091.14647
1569337091.16209
1569337091.17772
1569337091.19334
1569337091.20897
1569337091.22459
1569337091.24022
1569337091.25585
1569337091.27147
1569337091.2871
1569337091.30272
1569337091.31835
1569337091.33397
1569337091.3496
1569337091.36523
1569337091.38085
1569337091.39648
1569337091.4121
1569337091.42773
1569337091.44335
1569337091.45898
1569337091.47461
1569337091.49023
1569337091.50586
1569337091.52148
1569337091.53711
1569337091.55273
1569337091.56836
1569337091.58399
1569337091.59961
1569337091.61524
1569337091.63086
1569337091.64649
1569337091.66211
1569337091.67774
1569337091.69337
1569337091.70899
1569337091.72462
1569337091.74024
1569337091.75587
1569337091.7715
1569337091.78712
1569337091.80275
1569337091.81837
1569337091.834
1569337091.84962
1569337091.86525
1569337091.88088
1569337091.8965
1569337091.91213
1569337091.92775
1569337091.94338
1569337091.959
1569337091.97463
1569337091.99026
1569337092.00588
1569337092.02151
1569337092.03713
1569337092.05276
1569337092.06838
1569337092.08401
1569337092.09964
1569337092.11526
1569337092.13089
1569337092.14651
1569337092.16214
1569337092.17776
1569337092.19339
1569337092.20902
1569337092.22464
1569337092.24027
1569337092.25589
1569337092.27152
1569337092.28714
1569337092.30277
1569337092.3184
1569337092.33402
1569337092.34965
1569337092.36527
1569337092.3809
1569337092.39652
1569337092.41215
1569337092.42778
1569337092.4434
1569337092.45903
1569337092.47465
1569337092.49028
1569337092.5059
1569337092.52153
1569337092.53716
1569337092.55278
1569337092.56841
1569337092.58403
1569337092.59966
1569337092.61528
1569337092.63091
1569337092.64654
1569337092.66216
1569337092.67779
1569337092.69341
1569337092.70904
1569337092.72466
1569337092.74029
1569337092.75592
1569337092.77154
1569337092.78717
1569337092.80279
1569337092.81842
1569337092.83404
1569337092.84967
1569337092.8653
1569337092.88092
1569337092.89655
1569337092.91217
1569337092.9278
1569337092.94342
1569337092.95905
1569337092.97468
1569337092.9903
1569337093.00593
1569337093.02155
1569337093.03718
1569337093.0528
1569337093.06843
1569337093.08406
1569337093.09968
1569337093.11531
1569337093.13093
1569337093.14656
1569337093.16218
1569337093.17781
1569337093.19344
1569337093.20906
1569337093.22469
1569337093.24031
1569337093.25594
1569337093.27156
1569337093.28719
1569337093.30282
1569337093.31844
1569337093.33407
1569337093.34969
1569337093.36532
1569337093.38094
1569337093.39657
1569337093.4122
1569337093.42782
1569337093.44345
1569337093.45907
1569337093.4747
1569337093.49032
1569337093.50595
1569337093.52158
1569337093.5372
1569337093.55283
1569337093.56845
1569337093.58408
1569337093.5997
1569337093.61533
1569337093.63096
1569337093.64658
1569337093.66221
1569337093.67783
1569337093.69346
1569337093.70908
1569337093.72471
1569337093.74034
1569337093.75596
1569337093.77159
1569337093.78721
1569337093.80284
1569337093.81846
1569337093.83409
1569337093.84972
1569337093.86534
1569337093.88097
1569337093.89659
1569337093.91222
1569337093.92784
1569337093.94347
1569337093.9591
1569337093.97472
1569337093.99035
1569337094.00597
1569337094.0216
1569337094.03723
1569337094.05285
1569337094.06848
1569337094.0841
1569337094.09973
1569337094.11535
1569337094.13098
1569337094.14661
1569337094.16223
1569337094.17786
1569337094.19348
1569337094.20911
1569337094.22473
1569337094.24036
1569337094.25599
1569337094.27161
1569337094.28724
1569337094.30286
1569337094.31849
1569337094.33411
1569337094.34974
1569337094.36537
1569337094.38099
1569337094.39662
1569337094.41224
1569337094.42787
1569337094.44349
1569337094.45912
1569337094.47475
1569337094.49037
1569337094.506
1569337094.52162
1569337094.53725
1569337094.55287
1569337094.5685
1569337094.58413
1569337094.59975
1569337094.61538
1569337094.631
1569337094.64663
1569337094.66225
1569337094.67788
1569337094.69351
1569337094.70913
1569337094.72476
1569337094.74038
1569337094.75601
1569337094.77163
1569337094.78726
1569337094.80289
1569337094.81851
1569337094.83414
1569337094.84976
1569337094.86539
1569337094.88101
1569337094.89664
1569337094.91227
1569337094.92789
1569337094.94352
1569337094.95914
1569337094.97477
1569337094.99039
1569337095.00602
1569337095.02165
1569337095.03727
1569337095.0529
1569337095.06852
1569337095.08415
1569337095.09977
1569337095.1154
1569337095.13103
1569337095.14665
1569337095.16228
1569337095.1779
1569337095.19353
1569337095.20915
1569337095.22478
1569337095.24041
1569337095.25603
1569337095.27166
1569337095.28728
1569337095.30291
1569337095.31853
1569337095.33416
1569337095.34979
1569337095.36541
1569337095.38104
1569337095.39666
1569337095.41229
1569337095.42791
1569337095.44354
1569337095.45917
1569337095.47479
1569337095.49042
1569337095.50604
1569337095.52167
1569337095.53729
1569337095.55292
1569337095.56855
1569337095.58417
1569337095.5998
1569337095.61542
1569337095.63105
1569337095.64667
1569337095.6623
1569337095.67793
1569337095.69355
1569337095.70918
1569337095.7248
1569337095.74043
1569337095.75605
1569337095.77168
1569337095.78731
1569337095.80293
1569337095.81856
1569337095.83418
1569337095.84981
1569337095.86543
1569337095.88106
1569337095.89669
1569337095.91231
1569337095.92794
1569337095.94356
1569337095.95919
1569337095.97481
1569337095.99044
1569337096.00607
1569337096.02169
1569337096.03732
1569337096.05294
1569337096.06857
1569337096.08419
1569337096.09982
1569337096.11545
1569337096.13107
1569337096.1467
1569337096.16232
1569337096.17795
1569337096.19357
1569337096.2092
1569337096.22483
1569337096.24045
1569337096.25608
1569337096.2717
1569337096.28733
1569337096.30295
1569337096.31858
1569337096.33421
1569337096.34983
1569337096.36546
1569337096.38108
1569337096.39671
1569337096.41233
1569337096.42796
1569337096.44359
1569337096.45921
1569337096.47484
1569337096.49046
1569337096.50609
1569337096.52171
1569337096.53734
1569337096.55297
1569337096.56859
1569337096.58422
1569337096.59984
1569337096.61547
1569337096.6311
1569337096.64672
1569337096.66235
1569337096.67797
1569337096.6936
1569337096.70922
1569337096.72485
1569337096.74048
1569337096.7561
1569337096.77173
1569337096.78735
1569337096.80298
1569337096.8186
1569337096.83423
1569337096.84986
1569337096.86548
1569337096.88111
1569337096.89673
1569337096.91236
1569337096.92798
1569337096.94361
1569337096.95924
1569337096.97486
1569337096.99049
1569337097.00611
1569337097.02174
1569337097.03736
1569337097.05299
1569337097.06862
1569337097.08424
1569337097.09987
1569337097.11549
1569337097.13112
1569337097.14674
1569337097.16237
1569337097.178
1569337097.19362
1569337097.20925
1569337097.22487
1569337097.2405
1569337097.25612
1569337097.27175
1569337097.28738
1569337097.303
1569337097.31863
1569337097.33425
1569337097.34988
1569337097.3655
1569337097.38113
1569337097.39676
1569337097.41238
1569337097.42801
1569337097.44363
1569337097.45926
1569337097.47488
1569337097.49051
1569337097.50614
1569337097.52176
1569337097.53739
1569337097.55301
1569337097.56864
1569337097.58426
1569337097.59989
1569337097.61552
1569337097.63114
1569337097.64677
1569337097.66239
1569337097.67802
1569337097.69364
1569337097.70927
1569337097.7249
1569337097.74052
1569337097.75615
1569337097.77177
1569337097.7874
1569337097.80302
1569337097.81865
1569337097.83428
1569337097.8499
1569337097.86553
1569337097.88115
1569337097.89678
1569337097.9124
1569337097.92803
1569337097.94366
1569337097.95928
1569337097.97491
1569337097.99053
1569337098.00616
1569337098.02178
1569337098.03741
1569337098.05304
1569337098.06866
1569337098.08429
1569337098.09991
1569337098.11554
1569337098.13116
1569337098.14679
1569337098.16242
1569337098.17804
1569337098.19367
1569337098.20929
1569337098.22492
1569337098.24054
1569337098.25617
1569337098.2718
1569337098.28742
1569337098.30305
1569337098.31867
1569337098.3343
1569337098.34992
1569337098.36555
1569337098.38118
1569337098.3968
1569337098.41243
1569337098.42805
1569337098.44368
1569337098.4593
1569337098.47493
1569337098.49056
1569337098.50618
1569337098.52181
1569337098.53743
1569337098.55306
1569337098.56868
1569337098.58431
1569337098.59994
1569337098.61556
1569337098.63119
1569337098.64681
1569337098.66244
1569337098.67806
1569337098.69369
1569337098.70932
1569337098.72494
1569337098.74057
1569337098.75619
1569337098.77182
1569337098.78744
1569337098.80307
1569337098.8187
1569337098.83432
1569337098.84995
1569337098.86557
1569337098.8812
1569337098.89683
1569337098.91245
1569337098.92808
1569337098.9437
1569337098.95933
1569337098.97495
1569337098.99058
1569337099.00621
1569337099.02183
1569337099.03746
1569337099.05308
1569337099.06871
1569337099.08433
1569337099.09996
1569337099.11559
1569337099.13121
1569337099.14684
1569337099.16246
1569337099.17809
1569337099.19371
1569337099.20934
1569337099.22497
1569337099.24059
1569337099.25622
1569337099.27184
1569337099.28747
1569337099.30309
1569337099.31872
1569337099.33435
1569337099.34997
1569337099.3656
1569337099.38122
1569337099.39685
1569337099.41247
1569337099.4281
1569337099.44373
1569337099.45935
1569337099.47498
1569337099.4906
1569337099.50623
1569337099.52185
1569337099.53748
1569337099.55311
1569337099.56873
1569337099.58436
1569337099.59998
1569337099.61561
1569337099.63123
1569337099.64686
1569337099.66249
1569337099.67811
1569337099.69374
1569337099.70936
1569337099.72499
1569337099.74061
1569337099.75624
1569337099.77187
1569337099.78749
1569337099.80312
1569337099.81874
1569337099.83437
1569337099.84999
1569337099.86562
1569337099.88125
1569337099.89687
1569337099.9125
1569337099.92812
1569337099.94375
1569337099.95937
1569337099.975
1569337099.99063
1569337100.00625
1569337100.02188
1569337100.0375
1569337100.05313
1569337100.06875
1569337100.08438
1569337100.10001
1569337100.11563
1569337100.13126
1569337100.14688
1569337100.16251
1569337100.17813
1569337100.19376
1569337100.20939
1569337100.22501
1569337100.24064
1569337100.25626
1569337100.27189
1569337100.28751
1569337100.30314
1569337100.31877
1569337100.33439
1569337100.35002
1569337100.36564
1569337100.38127
1569337100.39689
1569337100.41252
1569337100.42815
1569337100.44377
1569337100.4594
1569337100.47502
1569337100.49065
1569337100.50627
1569337100.5219
1569337100.53753
1569337100.55315
1569337100.56878
1569337100.5844
1569337100.60003
1569337100.61565
1569337100.63128
1569337100.64691
1569337100.66253
1569337100.67816
1569337100.69378
1569337100.70941
1569337100.72503
1569337100.74066
1569337100.75629
1569337100.77191
1569337100.78754
1569337100.80316
1569337100.81879
1569337100.83441
1569337100.85004
1569337100.86567
1569337100.88129
1569337100.89692
1569337100.91254
1569337100.92817
1569337100.94379
1569337100.95942
1569337100.97505
1569337100.99067
1569337101.0063
1569337101.02192
1569337101.03755
1569337101.05317
1569337101.0688
1569337101.08443
1569337101.10005
1569337101.11568
1569337101.1313
1569337101.14693
1569337101.16255
1569337101.17818
1569337101.19381
1569337101.20943
1569337101.22506
1569337101.24068
1569337101.25631
1569337101.27193
1569337101.28756
1569337101.30319
1569337101.31881
1569337101.33444
1569337101.35006
1569337101.36569
1569337101.38131
1569337101.39694
1569337101.41257
1569337101.42819
1569337101.44382
1569337101.45944
1569337101.47507
1569337101.4907
1569337101.50632
1569337101.52195
1569337101.53757
1569337101.5532
1569337101.56882
1569337101.58445
1569337101.60008
1569337101.6157
1569337101.63133
1569337101.64695
1569337101.66258
1569337101.6782
1569337101.69383
1569337101.70946
1569337101.72508
1569337101.74071
1569337101.75633
1569337101.77196
1569337101.78758
1569337101.80321
1569337101.81884
1569337101.83446
1569337101.85009
1569337101.86571
1569337101.88134
1569337101.89696
1569337101.91259
1569337101.92822
1569337101.94384
1569337101.95947
1569337101.97509
1569337101.99072
1569337102.00634
1569337102.02197
1569337102.0376
1569337102.05322
1569337102.06885
1569337102.08447
1569337102.1001
1569337102.11572
1569337102.13135
1569337102.14698
1569337102.1626
1569337102.17823
1569337102.19385
1569337102.20948
1569337102.2251
1569337102.24073
1569337102.25636
1569337102.27198
1569337102.28761
1569337102.30323
1569337102.31886
1569337102.33448
1569337102.35011
1569337102.36574
1569337102.38136
1569337102.39699
1569337102.41261
1569337102.42824
1569337102.44386
1569337102.45949
1569337102.47512
1569337102.49074
1569337102.50637
1569337102.52199
1569337102.53762
1569337102.55324
1569337102.56887
1569337102.5845
1569337102.60012
1569337102.61575
1569337102.63137
1569337102.647
1569337102.66262
1569337102.67825
1569337102.69388
1569337102.7095
1569337102.72513
1569337102.74075
1569337102.75638
1569337102.772
1569337102.78763
1569337102.80326
1569337102.81888
1569337102.83451
1569337102.85013
1569337102.86576
1569337102.88138
1569337102.89701
1569337102.91264
1569337102.92826
1569337102.94389
1569337102.95951
1569337102.97514
1569337102.99076
1569337103.00639
1569337103.02202
1569337103.03764
1569337103.05327
1569337103.06889
1569337103.08452
1569337103.10014
1569337103.11577
1569337103.1314
1569337103.14702
1569337103.16265
1569337103.17827
1569337103.1939
1569337103.20952
1569337103.22515
1569337103.24078
1569337103.2564
1569337103.27203
1569337103.28765
1569337103.30328
1569337103.3189
1569337103.33453
1569337103.35016
1569337103.36578
1569337103.38141
1569337103.39703
1569337103.41266
1569337103.42828
1569337103.44391
1569337103.45954
1569337103.47516
1569337103.49079
1569337103.50641
1569337103.52204
1569337103.53766
1569337103.55329
1569337103.56892
1569337103.58454
1569337103.60017
1569337103.61579
1569337103.63142
1569337103.64704
1569337103.66267
1569337103.6783
1569337103.69392
1569337103.70955
1569337103.72517
1569337103.7408
1569337103.75643
1569337103.77205
1569337103.78768
1569337103.8033
1569337103.81893
1569337103.83455
1569337103.85018
1569337103.86581
1569337103.88143
1569337103.89706
1569337103.91268
1569337103.92831
1569337103.94393
1569337103.95956
1569337103.97519
1569337103.99081
1569337104.00644
1569337104.02206
1569337104.03769
1569337104.05331
1569337104.06894
1569337104.08457
1569337104.10019
1569337104.11582
1569337104.13144
1569337104.14707
1569337104.16269
1569337104.17832
1569337104.19395
1569337104.20957
1569337104.2252
1569337104.24082
1569337104.25645
1569337104.27207
1569337104.2877
1569337104.30333
1569337104.31895
1569337104.33458
1569337104.3502
1569337104.36583
1569337104.38145
1569337104.39708
1569337104.41271
1569337104.42833
1569337104.44396
1569337104.45958
1569337104.47521
1569337104.49083
1569337104.50646
1569337104.52209
1569337104.53771
1569337104.55334
1569337104.56896
1569337104.58459
1569337104.60021
1569337104.61584
1569337104.63147
1569337104.64709
1569337104.66272
1569337104.67834
1569337104.69397
1569337104.70959
1569337104.72522
1569337104.74085
1569337104.75647
1569337104.7721
1569337104.78772
1569337104.80335
1569337104.81897
1569337104.8346
1569337104.85023
1569337104.86585
1569337104.88148
1569337104.8971
1569337104.91273
1569337104.92835
1569337104.94398
1569337104.95961
1569337104.97523
1569337104.99086
1569337105.00648
1569337105.02211
1569337105.03773
1569337105.05336
1569337105.06899
1569337105.08461
1569337105.10024
1569337105.11586
1569337105.13149
1569337105.14711
1569337105.16274
1569337105.17837
1569337105.19399
1569337105.20962
1569337105.22524
1569337105.24087
1569337105.25649
1569337105.27212
1569337105.28775
1569337105.30337
1569337105.319
1569337105.33462
1569337105.35025
1569337105.36587
1569337105.3815
1569337105.39713
1569337105.41275
1569337105.42838
1569337105.444
1569337105.45963
1569337105.47525
1569337105.49088
1569337105.50651
1569337105.52213
1569337105.53776
1569337105.55338
1569337105.56901
1569337105.58463
1569337105.60026
1569337105.61589
1569337105.63151
1569337105.64714
1569337105.66276
1569337105.67839
1569337105.69401
1569337105.70964
1569337105.72527
1569337105.74089
1569337105.75652
1569337105.77214
1569337105.78777
1569337105.80339
1569337105.81902
1569337105.83465
1569337105.85027
1569337105.8659
1569337105.88152
1569337105.89715
1569337105.91277
1569337105.9284
1569337105.94403
1569337105.95965
1569337105.97528
1569337105.9909
1569337106.00653
1569337106.02216
1569337106.03778
1569337106.05341
1569337106.06903
1569337106.08466
1569337106.10028
1569337106.11591
1569337106.13154
1569337106.14716
1569337106.16279
1569337106.17841
1569337106.19404
1569337106.20966
1569337106.22529
1569337106.24092
1569337106.25654
1569337106.27217
1569337106.28779
1569337106.30342
1569337106.31904
1569337106.33467
1569337106.3503
1569337106.36592
1569337106.38155
1569337106.39717
1569337106.4128
1569337106.42842
1569337106.44405
1569337106.45968
1569337106.4753
1569337106.49093
1569337106.50655
1569337106.52218
1569337106.5378
1569337106.55343
1569337106.56906
1569337106.58468
1569337106.60031
1569337106.61593
1569337106.63156
1569337106.64718
1569337106.66281
1569337106.67844
1569337106.69406
1569337106.70969
1569337106.72531
1569337106.74094
1569337106.75656
1569337106.77219
1569337106.78782
1569337106.80344
1569337106.81907
1569337106.83469
1569337106.85032
1569337106.86594
1569337106.88157
1569337106.8972
1569337106.91282
1569337106.92845
1569337106.94407
1569337106.9597
1569337106.97532
1569337106.99095
1569337107.00658
1569337107.0222
1569337107.03783
1569337107.05345
1569337107.06908
1569337107.0847
1569337107.10033
1569337107.11596
1569337107.13158
1569337107.14721
1569337107.16283
1569337107.17846
1569337107.19408
1569337107.20971
1569337107.22534
1569337107.24096
1569337107.25659
1569337107.27221
1569337107.28784
1569337107.30346
1569337107.31909
1569337107.33472
1569337107.35034
1569337107.36597
1569337107.38159
1569337107.39722
1569337107.41284
1569337107.42847
1569337107.4441
1569337107.45972
1569337107.47535
1569337107.49097
1569337107.5066
1569337107.52222
1569337107.53785
1569337107.55348
1569337107.5691
1569337107.58473
1569337107.60035
1569337107.61598
1569337107.6316
1569337107.64723
1569337107.66286
1569337107.67848
1569337107.69411
1569337107.70973
1569337107.72536
1569337107.74098
1569337107.75661
1569337107.77224
1569337107.78786
1569337107.80349
1569337107.81911
1569337107.83474
1569337107.85036
1569337107.86599
1569337107.88162
1569337107.89724
1569337107.91287
1569337107.92849
1569337107.94412
1569337107.95974
1569337107.97537
1569337107.991
1569337108.00662
1569337108.02225
1569337108.03787
1569337108.0535
1569337108.06912
1569337108.08475
1569337108.10038
1569337108.116
1569337108.13163
1569337108.14725
1569337108.16288
1569337108.1785
1569337108.19413
1569337108.20976
1569337108.22538
1569337108.24101
1569337108.25663
1569337108.27226
1569337108.28788
1569337108.30351
1569337108.31914
1569337108.33476
1569337108.35039
1569337108.36601
1569337108.38164
1569337108.39726
1569337108.41289
1569337108.42852
1569337108.44414
1569337108.45977
1569337108.47539
1569337108.49102
1569337108.50664
1569337108.52227
1569337108.5379
1569337108.55352
1569337108.56915
1569337108.58477
1569337108.6004
1569337108.61603
1569337108.63165
1569337108.64728
1569337108.6629
1569337108.67853
1569337108.69415
1569337108.70978
1569337108.72541
1569337108.74103
1569337108.75666
1569337108.77228
1569337108.78791
1569337108.80353
1569337108.81916
1569337108.83479
1569337108.85041
1569337108.86604
1569337108.88166
1569337108.89729
1569337108.91291
1569337108.92854
1569337108.94417
1569337108.95979
1569337108.97542
1569337108.99104
1569337109.00667
1569337109.02229
1569337109.03792
1569337109.05355
1569337109.06917
1569337109.0848
1569337109.10042
1569337109.11605
1569337109.13167
1569337109.1473
1569337109.16293
1569337109.17855
1569337109.19418
1569337109.2098
1569337109.22543
1569337109.24105
1569337109.25668
1569337109.27231
1569337109.28793
1569337109.30356
1569337109.31918
1569337109.33481
1569337109.35043
1569337109.36606
1569337109.38169
1569337109.39731
1569337109.41294
1569337109.42856
1569337109.44419
1569337109.45981
1569337109.47544
1569337109.49107
1569337109.50669
1569337109.52232
1569337109.53794
1569337109.55357
1569337109.56919
1569337109.58482
1569337109.60045
1569337109.61607
1569337109.6317
1569337109.64732
1569337109.66295
1569337109.67857
1569337109.6942
1569337109.70983
1569337109.72545
1569337109.74108
1569337109.7567
1569337109.77233
1569337109.78795
1569337109.80358
1569337109.81921
1569337109.83483
1569337109.85046
1569337109.86608
1569337109.88171
1569337109.89733
1569337109.91296
1569337109.92859
1569337109.94421
1569337109.95984
1569337109.97546
1569337109.99109
1569337110.00671
1569337110.02234
1569337110.03797
1569337110.05359
1569337110.06922
1569337110.08484
1569337110.10047
1569337110.11609
1569337110.13172
1569337110.14735
1569337110.16297
1569337110.1786
1569337110.19422
1569337110.20985
1569337110.22547
1569337110.2411
1569337110.25673
1569337110.27235
1569337110.28798
1569337110.3036
1569337110.31923
1569337110.33485
1569337110.35048
1569337110.36611
1569337110.38173
1569337110.39736
1569337110.41298
1569337110.42861
1569337110.44423
1569337110.45986
1569337110.47549
1569337110.49111
1569337110.50674
1569337110.52236
1569337110.53799
1569337110.55361
1569337110.56924
1569337110.58487
1569337110.60049
1569337110.61612
1569337110.63174
1569337110.64737
1569337110.66299
1569337110.67862
1569337110.69425
1569337110.70987
1569337110.7255
1569337110.74112
1569337110.75675
1569337110.77237
1569337110.788
1569337110.80363
1569337110.81925
1569337110.83488
1569337110.8505
1569337110.86613
1569337110.88176
1569337110.89738
1569337110.91301
1569337110.92863
1569337110.94426
1569337110.95988
1569337110.97551
1569337110.99114
1569337111.00676
1569337111.02239
1569337111.03801
1569337111.05364
1569337111.06926
1569337111.08489
1569337111.10052
1569337111.11614
1569337111.13177
1569337111.14739
1569337111.16302
1569337111.17864
1569337111.19427
1569337111.2099
1569337111.22552
1569337111.24115
1569337111.25677
1569337111.2724
1569337111.28802
1569337111.30365
1569337111.31928
1569337111.3349
1569337111.35053
1569337111.36615
1569337111.38178
1569337111.3974
1569337111.41303
1569337111.42866
1569337111.44428
1569337111.45991
1569337111.47553
1569337111.49116
1569337111.50678
1569337111.52241
1569337111.53804
1569337111.55366
1569337111.56929
1569337111.58491
1569337111.60054
1569337111.61616
1569337111.63179
1569337111.64742
1569337111.66304
1569337111.67867
1569337111.69429
1569337111.70992
1569337111.72554
1569337111.74117
1569337111.7568
1569337111.77242
1569337111.78805
1569337111.80367
1569337111.8193
1569337111.83492
1569337111.85055
1569337111.86618
1569337111.8818
1569337111.89743
1569337111.91305
1569337111.92868
1569337111.9443
1569337111.95993
1569337111.97556
1569337111.99118
1569337112.00681
1569337112.02243
1569337112.03806
1569337112.05368
1569337112.06931
1569337112.08494
1569337112.10056
1569337112.11619
1569337112.13181
1569337112.14744
1569337112.16306
1569337112.17869
1569337112.19432
1569337112.20994
1569337112.22557
1569337112.24119
1569337112.25682
1569337112.27244
1569337112.28807
1569337112.3037
1569337112.31932
1569337112.33495
1569337112.35057
1569337112.3662
1569337112.38182
1569337112.39745
1569337112.41308
1569337112.4287
1569337112.44433
1569337112.45995
1569337112.47558
1569337112.4912
1569337112.50683
1569337112.52246
1569337112.53808
1569337112.55371
1569337112.56933
1569337112.58496
1569337112.60058
1569337112.61621
1569337112.63184
1569337112.64746
1569337112.66309
1569337112.67871
1569337112.69434
1569337112.70996
1569337112.72559
1569337112.74122
1569337112.75684
1569337112.77247
1569337112.78809
1569337112.80372
1569337112.81934
1569337112.83497
1569337112.8506
1569337112.86622
1569337112.88185
1569337112.89747
1569337112.9131
1569337112.92872
1569337112.94435
1569337112.95998
1569337112.9756
1569337112.99123
1569337113.00685
1569337113.02248
1569337113.03811
1569337113.05373
1569337113.06936
1569337113.08498
1569337113.10061
1569337113.11623
1569337113.13186
1569337113.14749
1569337113.16311
1569337113.17874
1569337113.19436
1569337113.20999
1569337113.22561
1569337113.24124
1569337113.25687
1569337113.27249
1569337113.28812
1569337113.30374
1569337113.31937
1569337113.33499
1569337113.35062
1569337113.36625
1569337113.38187
1569337113.3975
1569337113.41312
1569337113.42875
1569337113.44437
1569337113.46
1569337113.47563
1569337113.49125
1569337113.50688
1569337113.5225
1569337113.53813
1569337113.55375
1569337113.56938
1569337113.58501
1569337113.60063
1569337113.61626
1569337113.63188
1569337113.64751
1569337113.66313
1569337113.67876
1569337113.69439
1569337113.71001
1569337113.72564
1569337113.74126
1569337113.75689
1569337113.77251
1569337113.78814
1569337113.80377
1569337113.81939
1569337113.83502
1569337113.85064
1569337113.86627
1569337113.88189
1569337113.89752
1569337113.91315
1569337113.92877
1569337113.9444
1569337113.96002
1569337113.97565
1569337113.99127
1569337114.0069
1569337114.02253
1569337114.03815
1569337114.05378
1569337114.0694
1569337114.08503
1569337114.10065
1569337114.11628
1569337114.13191
1569337114.14753
1569337114.16316
1569337114.17878
1569337114.19441
1569337114.21003
1569337114.22566
1569337114.24129
1569337114.25691
1569337114.27254
1569337114.28816
1569337114.30379
1569337114.31941
1569337114.33504
1569337114.35067
1569337114.36629
1569337114.38192
1569337114.39754
1569337114.41317
1569337114.42879
1569337114.44442
1569337114.46005
1569337114.47567
1569337114.4913
1569337114.50692
1569337114.52255
1569337114.53817
1569337114.5538
1569337114.56943
1569337114.58505
1569337114.60068
1569337114.6163
1569337114.63193
1569337114.64755
1569337114.66318
1569337114.67881
1569337114.69443
1569337114.71006
1569337114.72568
1569337114.74131
1569337114.75693
1569337114.77256
1569337114.78819
1569337114.80381
1569337114.81944
1569337114.83506
1569337114.85069
1569337114.86631
1569337114.88194
1569337114.89757
1569337114.91319
1569337114.92882
1569337114.94444
1569337114.96007
1569337114.97569
1569337114.99132
1569337115.00695
1569337115.02257
1569337115.0382
1569337115.05382
1569337115.06945
1569337115.08507
1569337115.1007
1569337115.11633
1569337115.13195
1569337115.14758
1569337115.1632
1569337115.17883
1569337115.19445
1569337115.21008
1569337115.22571
1569337115.24133
1569337115.25696
1569337115.27258
1569337115.28821
1569337115.30383
1569337115.31946
1569337115.33509
1569337115.35071
1569337115.36634
1569337115.38196
1569337115.39759
1569337115.41321
1569337115.42884
1569337115.44447
1569337115.46009
1569337115.47572
1569337115.49134
1569337115.50697
1569337115.52259
1569337115.53822
1569337115.55385
1569337115.56947
1569337115.5851
1569337115.60072
1569337115.61635
1569337115.63197
1569337115.6476
1569337115.66323
1569337115.67885
1569337115.69448
1569337115.7101
1569337115.72573
1569337115.74136
1569337115.75698
1569337115.77261
1569337115.78823
1569337115.80386
1569337115.81948
1569337115.83511
1569337115.85074
1569337115.86636
1569337115.88199
1569337115.89761
1569337115.91324
1569337115.92886
1569337115.94449
1569337115.96012
1569337115.97574
1569337115.99137
1569337116.00699
1569337116.02262
1569337116.03824
1569337116.05387
1569337116.0695
1569337116.08512
1569337116.10075
1569337116.11637
1569337116.132
1569337116.14762
1569337116.16325
1569337116.17888
1569337116.1945
1569337116.21013
1569337116.22575
1569337116.24138
1569337116.257
1569337116.27263
1569337116.28826
1569337116.30388
1569337116.31951
1569337116.33513
1569337116.35076
1569337116.36638
1569337116.38201
1569337116.39764
1569337116.41326
1569337116.42889
1569337116.44451
1569337116.46014
1569337116.47576
1569337116.49139
1569337116.50702
1569337116.52264
1569337116.53827
1569337116.55389
1569337116.56952
1569337116.58514
1569337116.60077
1569337116.6164
1569337116.63202
1569337116.64765
1569337116.66327
1569337116.6789
1569337116.69452
1569337116.71015
1569337116.72578
1569337116.7414
1569337116.75703
1569337116.77265
1569337116.78828
1569337116.8039
1569337116.81953
1569337116.83516
1569337116.85078
1569337116.86641
1569337116.88203
1569337116.89766
1569337116.91328
1569337116.92891
1569337116.94454
1569337116.96016
1569337116.97579
1569337116.99141
1569337117.00704
1569337117.02266
1569337117.03829
1569337117.05392
1569337117.06954
1569337117.08517
1569337117.10079
1569337117.11642
1569337117.13204
1569337117.14767
1569337117.1633
1569337117.17892
1569337117.19455
1569337117.21017
1569337117.2258
1569337117.24142
1569337117.25705
1569337117.27268
1569337117.2883
1569337117.30393
1569337117.31955
1569337117.33518
1569337117.3508
1569337117.36643
1569337117.38206
1569337117.39768
1569337117.41331
1569337117.42893
1569337117.44456
1569337117.46018
1569337117.47581
1569337117.49144
1569337117.50706
1569337117.52269
1569337117.53831
1569337117.55394
1569337117.56956
1569337117.58519
1569337117.60082
1569337117.61644
1569337117.63207
1569337117.64769
1569337117.66332
1569337117.67894
1569337117.69457
1569337117.7102
1569337117.72582
1569337117.74145
1569337117.75707
1569337117.7727
1569337117.78832
1569337117.80395
1569337117.81958
1569337117.8352
1569337117.85083
1569337117.86645
1569337117.88208
1569337117.89771
1569337117.91333
1569337117.92896
1569337117.94458
1569337117.96021
1569337117.97583
1569337117.99146
1569337118.00709
1569337118.02271
1569337118.03834
1569337118.05396
1569337118.06959
1569337118.08521
1569337118.10084
1569337118.11647
1569337118.13209
1569337118.14772
1569337118.16334
1569337118.17897
1569337118.19459
1569337118.21022
1569337118.22585
1569337118.24147
1569337118.2571
1569337118.27272
1569337118.28835
1569337118.30397
1569337118.3196
1569337118.33523
1569337118.35085
1569337118.36648
1569337118.3821
1569337118.39773
1569337118.41335
1569337118.42898
1569337118.44461
1569337118.46023
1569337118.47586
1569337118.49148
1569337118.50711
1569337118.52273
1569337118.53836
1569337118.55399
1569337118.56961
1569337118.58524
1569337118.60086
1569337118.61649
1569337118.63211
1569337118.64774
1569337118.66337
1569337118.67899
1569337118.69462
1569337118.71024
1569337118.72587
1569337118.74149
1569337118.75712
1569337118.77275
1569337118.78837
1569337118.804
1569337118.81962
1569337118.83525
1569337118.85087
1569337118.8665
1569337118.88213
1569337118.89775
1569337118.91338
1569337118.929
1569337118.94463
1569337118.96025
1569337118.97588
1569337118.99151
1569337119.00713
1569337119.02276
1569337119.03838
1569337119.05401
1569337119.06963
1569337119.08526
1569337119.10089
1569337119.11651
1569337119.13214
1569337119.14776
1569337119.16339
1569337119.17901
1569337119.19464
1569337119.21027
1569337119.22589
1569337119.24152
1569337119.25714
1569337119.27277
1569337119.28839
1569337119.30402
1569337119.31965
1569337119.33527
1569337119.3509
1569337119.36652
1569337119.38215
1569337119.39777
1569337119.4134
1569337119.42903
1569337119.44465
1569337119.46028
1569337119.4759
1569337119.49153
1569337119.50715
1569337119.52278
1569337119.53841
1569337119.55403
1569337119.56966
1569337119.58528
1569337119.60091
1569337119.61653
1569337119.63216
1569337119.64779
1569337119.66341
1569337119.67904
1569337119.69466
1569337119.71029
1569337119.72591
1569337119.74154
1569337119.75717
1569337119.77279
1569337119.78842
1569337119.80404
1569337119.81967
1569337119.83529
1569337119.85092
1569337119.86655
1569337119.88217
1569337119.8978
1569337119.91342
1569337119.92905
1569337119.94467
1569337119.9603
1569337119.97593
1569337119.99155
1569337120.00718
1569337120.0228
1569337120.03843
1569337120.05405
1569337120.06968
1569337120.08531
1569337120.10093
1569337120.11656
1569337120.13218
1569337120.14781
1569337120.16343
1569337120.17906
1569337120.19469
1569337120.21031
1569337120.22594
1569337120.24156
1569337120.25719
1569337120.27281
1569337120.28844
1569337120.30407
1569337120.31969
1569337120.33532
1569337120.35094
1569337120.36657
1569337120.3822
1569337120.39782
1569337120.41345
1569337120.42907
1569337120.4447
1569337120.46032
1569337120.47595
1569337120.49158
1569337120.5072
1569337120.52283
1569337120.53845
1569337120.55408
1569337120.5697
1569337120.58533
1569337120.60096
1569337120.61658
1569337120.63221
1569337120.64783
1569337120.66346
1569337120.67908
1569337120.69471
1569337120.71034
1569337120.72596
1569337120.74159
1569337120.75721
1569337120.77284
1569337120.78846
1569337120.80409
1569337120.81972
1569337120.83534
1569337120.85097
1569337120.86659
1569337120.88222
1569337120.89784
1569337120.91347
1569337120.9291
1569337120.94472
1569337120.96035
1569337120.97597
1569337120.9916
1569337121.00722
1569337121.02285
1569337121.03848
1569337121.0541
1569337121.06973
1569337121.08535
1569337121.10098
1569337121.1166
1569337121.13223
1569337121.14786
1569337121.16348
1569337121.17911
1569337121.19473
1569337121.21036
1569337121.22598
1569337121.24161
1569337121.25724
1569337121.27286
1569337121.28849
1569337121.30411
1569337121.31974
1569337121.33536
1569337121.35099
1569337121.36662
1569337121.38224
1569337121.39787
1569337121.41349
1569337121.42912
1569337121.44474
1569337121.46037
1569337121.476
1569337121.49162
1569337121.50725
1569337121.52287
1569337121.5385
1569337121.55412
1569337121.56975
1569337121.58538
1569337121.601
1569337121.61663
1569337121.63225
1569337121.64788
1569337121.6635
1569337121.67913
1569337121.69476
1569337121.71038
1569337121.72601
1569337121.74163
1569337121.75726
1569337121.77288
1569337121.78851
1569337121.80414
1569337121.81976
1569337121.83539
1569337121.85101
1569337121.86664
1569337121.88226
1569337121.89789
1569337121.91352
1569337121.92914
1569337121.94477
1569337121.96039
1569337121.97602
1569337121.99164
1569337122.00727
1569337122.0229
1569337122.03852
1569337122.05415
1569337122.06977
1569337122.0854
1569337122.10102
1569337122.11665
1569337122.13228
1569337122.1479
1569337122.16353
1569337122.17915
1569337122.19478
1569337122.2104
1569337122.22603
1569337122.24166
1569337122.25728
1569337122.27291
1569337122.28853
1569337122.30416
1569337122.31978
1569337122.33541
1569337122.35104
1569337122.36666
1569337122.38229
1569337122.39791
1569337122.41354
1569337122.42916
1569337122.44479
1569337122.46042
1569337122.47604
1569337122.49167
1569337122.50729
1569337122.52292
1569337122.53854
1569337122.55417
1569337122.5698
1569337122.58542
1569337122.60105
1569337122.61667
1569337122.6323
1569337122.64792
1569337122.66355
1569337122.67918
1569337122.6948
1569337122.71043
1569337122.72605
1569337122.74168
1569337122.75731
1569337122.77293
1569337122.78856
1569337122.80418
1569337122.81981
1569337122.83543
1569337122.85106
1569337122.86669
1569337122.88231
1569337122.89794
1569337122.91356
1569337122.92919
1569337122.94481
1569337122.96044
1569337122.97607
1569337122.99169
1569337123.00732
1569337123.02294
1569337123.03857
1569337123.05419
1569337123.06982
1569337123.08545
1569337123.10107
1569337123.1167
1569337123.13232
1569337123.14795
1569337123.16357
1569337123.1792
1569337123.19483
1569337123.21045
1569337123.22608
1569337123.2417
1569337123.25733
1569337123.27295
1569337123.28858
1569337123.30421
1569337123.31983
1569337123.33546
1569337123.35108
1569337123.36671
1569337123.38233
1569337123.39796
1569337123.41359
1569337123.42921
1569337123.44484
1569337123.46046
1569337123.47609
1569337123.49171
1569337123.50734
1569337123.52297
1569337123.53859
1569337123.55422
1569337123.56984
1569337123.58547
1569337123.60109
1569337123.61672
1569337123.63235
1569337123.64797
1569337123.6636
1569337123.67922
1569337123.69485
1569337123.71047
1569337123.7261
1569337123.74173
1569337123.75735
1569337123.77298
1569337123.7886
1569337123.80423
1569337123.81985
1569337123.83548
1569337123.85111
1569337123.86673
1569337123.88236
1569337123.89798
1569337123.91361
1569337123.92923
1569337123.94486
1569337123.96049
1569337123.97611
1569337123.99174
1569337124.00736
1569337124.02299
1569337124.03861
1569337124.05424
1569337124.06987
1569337124.08549
1569337124.10112
1569337124.11674
1569337124.13237
1569337124.14799
1569337124.16362
1569337124.17925
1569337124.19487
1569337124.2105
1569337124.22612
1569337124.24175
1569337124.25737
1569337124.273
1569337124.28863
1569337124.30425
1569337124.31988
1569337124.3355
1569337124.35113
1569337124.36675
1569337124.38238
1569337124.39801
1569337124.41363
1569337124.42926
1569337124.44488
1569337124.46051
1569337124.47613
1569337124.49176
1569337124.50739
1569337124.52301
1569337124.53864
1569337124.55426
1569337124.56989
1569337124.58551
1569337124.60114
1569337124.61677
1569337124.63239
1569337124.64802
1569337124.66364
1569337124.67927
1569337124.69489
1569337124.71052
1569337124.72615
1569337124.74177
1569337124.7574
1569337124.77302
1569337124.78865
1569337124.80427
1569337124.8199
1569337124.83553
1569337124.85115
1569337124.86678
1569337124.8824
1569337124.89803
1569337124.91365
1569337124.92928
1569337124.94491
1569337124.96053
1569337124.97616
1569337124.99178
1569337125.00741
1569337125.02304
1569337125.03866
1569337125.05429
1569337125.06991
1569337125.08554
1569337125.10116
1569337125.11679
1569337125.13242
1569337125.14804
1569337125.16367
1569337125.17929
1569337125.19492
1569337125.21054
1569337125.22617
1569337125.2418
1569337125.25742
1569337125.27305
1569337125.28867
1569337125.3043
1569337125.31992
1569337125.33555
1569337125.35118
1569337125.3668
1569337125.38243
1569337125.39805
1569337125.41368
1569337125.4293
1569337125.44493
1569337125.46056
1569337125.47618
1569337125.49181
1569337125.50743
1569337125.52306
1569337125.53868
1569337125.55431
1569337125.56994
1569337125.58556
1569337125.60119
1569337125.61681
1569337125.63244
1569337125.64806
1569337125.66369
1569337125.67932
1569337125.69494
1569337125.71057
1569337125.72619
1569337125.74182
1569337125.75744
1569337125.77307
1569337125.7887
1569337125.80432
1569337125.81995
1569337125.83557
1569337125.8512
1569337125.86682
1569337125.88245
1569337125.89808
1569337125.9137
1569337125.92933
1569337125.94495
1569337125.96058
1569337125.9762
1569337125.99183
1569337126.00746
1569337126.02308
1569337126.03871
1569337126.05433
1569337126.06996
1569337126.08558
1569337126.10121
1569337126.11684
1569337126.13246
1569337126.14809
1569337126.16371
1569337126.17934
1569337126.19496
1569337126.21059
1569337126.22622
1569337126.24184
1569337126.25747
1569337126.27309
1569337126.28872
1569337126.30434
1569337126.31997
1569337126.3356
1569337126.35122
1569337126.36685
1569337126.38247
1569337126.3981
1569337126.41372
1569337126.42935
1569337126.44498
1569337126.4606
1569337126.47623
1569337126.49185
1569337126.50748
1569337126.5231
1569337126.53873
1569337126.55436
1569337126.56998
1569337126.58561
1569337126.60123
1569337126.61686
1569337126.63248
1569337126.64811
1569337126.66374
1569337126.67936
1569337126.69499
1569337126.71061
1569337126.72624
1569337126.74186
1569337126.75749
1569337126.77312
1569337126.78874
1569337126.80437
1569337126.81999
1569337126.83562
1569337126.85124
1569337126.86687
1569337126.8825
1569337126.89812
1569337126.91375
1569337126.92937
1569337126.945
1569337126.96062
1569337126.97625
1569337126.99188
1569337127.0075
1569337127.02313
1569337127.03875
1569337127.05438
1569337127.07
1569337127.08563
1569337127.10126
1569337127.11688
1569337127.13251
1569337127.14813
1569337127.16376
1569337127.17938
1569337127.19501
1569337127.21064
1569337127.22626
1569337127.24189
1569337127.25751
1569337127.27314
1569337127.28876
1569337127.30439
1569337127.32002
1569337127.33564
1569337127.35127
1569337127.36689
1569337127.38252
1569337127.39814
1569337127.41377
1569337127.4294
1569337127.44502
1569337127.46065
1569337127.47627
1569337127.4919
1569337127.50752
1569337127.52315
1569337127.53878
1569337127.5544
1569337127.57003
1569337127.58565
1569337127.60128
1569337127.61691
1569337127.63253
1569337127.64816
1569337127.66378
1569337127.67941
1569337127.69503
1569337127.71066
1569337127.72629
1569337127.74191
1569337127.75754
1569337127.77316
1569337127.78879
1569337127.80441
1569337127.82004
1569337127.83567
1569337127.85129
1569337127.86692
1569337127.88254
1569337127.89817
1569337127.91379
1569337127.92942
1569337127.94505
1569337127.96067
1569337127.9763
1569337127.99192
1569337128.00755
1569337128.02317
1569337128.0388
1569337128.05443
1569337128.07005
1569337128.08568
1569337128.1013
1569337128.11693
1569337128.13255
1569337128.14818
1569337128.16381
1569337128.17943
1569337128.19506
1569337128.21068
1569337128.22631
1569337128.24193
1569337128.25756
1569337128.27319
1569337128.28881
1569337128.30444
1569337128.32006
1569337128.33569
1569337128.35131
1569337128.36694
1569337128.38257
1569337128.39819
1569337128.41382
1569337128.42944
1569337128.44507
1569337128.46069
1569337128.47632
1569337128.49195
1569337128.50757
1569337128.5232
1569337128.53882
1569337128.55445
1569337128.57007
1569337128.5857
1569337128.60133
1569337128.61695
1569337128.63258
1569337128.6482
1569337128.66383
1569337128.67945
1569337128.69508
1569337128.71071
1569337128.72633
1569337128.74196
1569337128.75758
1569337128.77321
1569337128.78883
1569337128.80446
1569337128.82009
1569337128.83571
1569337128.85134
1569337128.86696
1569337128.88259
1569337128.89821
1569337128.91384
1569337128.92947
1569337128.94509
1569337128.96072
1569337128.97634
1569337128.99197
1569337129.00759
1569337129.02322
1569337129.03885
1569337129.05447
1569337129.0701
1569337129.08572
1569337129.10135
1569337129.11697
1569337129.1326
1569337129.14823
1569337129.16385
1569337129.17948
1569337129.1951
1569337129.21073
1569337129.22635
1569337129.24198
1569337129.25761
1569337129.27323
1569337129.28886
1569337129.30448
1569337129.32011
1569337129.33573
1569337129.35136
1569337129.36699
1569337129.38261
1569337129.39824
1569337129.41386
1569337129.42949
1569337129.44511
1569337129.46074
1569337129.47637
1569337129.49199
1569337129.50762
1569337129.52324
1569337129.53887
1569337129.55449
1569337129.57012
1569337129.58575
1569337129.60137
1569337129.617
1569337129.63262
1569337129.64825
1569337129.66387
1569337129.6795
1569337129.69513
1569337129.71075
1569337129.72638
1569337129.742
1569337129.75763
1569337129.77325
1569337129.78888
1569337129.80451
1569337129.82013
1569337129.83576
1569337129.85138
1569337129.86701
1569337129.88264
1569337129.89826
1569337129.91389
1569337129.92951
1569337129.94514
1569337129.96076
1569337129.97639
1569337129.99202
1569337130.00764
1569337130.02327
1569337130.03889
1569337130.05452
1569337130.07014
1569337130.08577
1569337130.1014
1569337130.11702
1569337130.13265
1569337130.14827
1569337130.1639
1569337130.17952
1569337130.19515
1569337130.21078
1569337130.2264
1569337130.24203
1569337130.25765
1569337130.27328
1569337130.2889
1569337130.30453
1569337130.32016
1569337130.33578
1569337130.35141
1569337130.36703
1569337130.38266
1569337130.39828
1569337130.41391
1569337130.42954
1569337130.44516
1569337130.46079
1569337130.47641
1569337130.49204
1569337130.50766
1569337130.52329
1569337130.53892
1569337130.55454
1569337130.57017
1569337130.58579
1569337130.60142
1569337130.61704
1569337130.63267
1569337130.6483
1569337130.66392
1569337130.67955
1569337130.69517
1569337130.7108
1569337130.72642
1569337130.74205
1569337130.75768
1569337130.7733
1569337130.78893
1569337130.80455
1569337130.82018
1569337130.8358
1569337130.85143
1569337130.86706
1569337130.88268
1569337130.89831
1569337130.91393
1569337130.92956
1569337130.94518
1569337130.96081
1569337130.97644
1569337130.99206
1569337131.00769
1569337131.02331
1569337131.03894
1569337131.05456
1569337131.07019
1569337131.08582
1569337131.10144
1569337131.11707
1569337131.13269
1569337131.14832
1569337131.16394
1569337131.17957
1569337131.1952
1569337131.21082
1569337131.22645
1569337131.24207
1569337131.2577
1569337131.27332
1569337131.28895
1569337131.30458
1569337131.3202
1569337131.33583
1569337131.35145
1569337131.36708
1569337131.3827
1569337131.39833
1569337131.41396
1569337131.42958
1569337131.44521
1569337131.46083
1569337131.47646
1569337131.49208
1569337131.50771
1569337131.52334
1569337131.53896
1569337131.55459
1569337131.57021
1569337131.58584
1569337131.60146
1569337131.61709
1569337131.63272
1569337131.64834
1569337131.66397
1569337131.67959
1569337131.69522
1569337131.71084
1569337131.72647
1569337131.7421
1569337131.75772
1569337131.77335
1569337131.78897
1569337131.8046
1569337131.82022
1569337131.83585
1569337131.85148
1569337131.8671
1569337131.88273
1569337131.89835
1569337131.91398
1569337131.9296
1569337131.94523
1569337131.96086
1569337131.97648
1569337131.99211
1569337132.00773
1569337132.02336
1569337132.03898
1569337132.05461
1569337132.07024
1569337132.08586
1569337132.10149
1569337132.11711
1569337132.13274
1569337132.14837
1569337132.16399
1569337132.17962
1569337132.19524
1569337132.21087
1569337132.22649
1569337132.24212
1569337132.25775
1569337132.27337
1569337132.289
1569337132.30462
1569337132.32025
1569337132.33587
1569337132.3515
1569337132.36713
1569337132.38275
1569337132.39838
1569337132.414
1569337132.42963
1569337132.44525
1569337132.46088
1569337132.47651
1569337132.49213
1569337132.50776
1569337132.52338
1569337132.53901
1569337132.55463
1569337132.57026
1569337132.58589
1569337132.60151
1569337132.61714
1569337132.63276
1569337132.64839
1569337132.66401
1569337132.67964
1569337132.69527
1569337132.71089
1569337132.72652
1569337132.74214
1569337132.75777
1569337132.77339
1569337132.78902
1569337132.80465
1569337132.82027
1569337132.8359
1569337132.85152
1569337132.86715
1569337132.88277
1569337132.8984
1569337132.91403
1569337132.92965
1569337132.94528
1569337132.9609
1569337132.97653
1569337132.99215
1569337133.00778
1569337133.02341
1569337133.03903
1569337133.05466
1569337133.07028
1569337133.08591
1569337133.10153
1569337133.11716
1569337133.13279
1569337133.14841
1569337133.16404
1569337133.17966
1569337133.19529
1569337133.21091
1569337133.22654
1569337133.24217
1569337133.25779
1569337133.27342
1569337133.28904
1569337133.30467
1569337133.32029
1569337133.33592
1569337133.35155
1569337133.36717
1569337133.3828
1569337133.39842
1569337133.41405
1569337133.42967
1569337133.4453
1569337133.46093
1569337133.47655
1569337133.49218
1569337133.5078
1569337133.52343
1569337133.53905
1569337133.55468
1569337133.57031
1569337133.58593
1569337133.60156
1569337133.61718
1569337133.63281
1569337133.64843
1569337133.66406
1569337133.67969
1569337133.69531
1569337133.71094
1569337133.72656
1569337133.74219
1569337133.75781
1569337133.77344
1569337133.78907
1569337133.80469
1569337133.82032
1569337133.83594
1569337133.85157
1569337133.86719
1569337133.88282
1569337133.89845
1569337133.91407
1569337133.9297
1569337133.94532
1569337133.96095
1569337133.97657
1569337133.9922
1569337134.00783
1569337134.02345
1569337134.03908
1569337134.0547
1569337134.07033
1569337134.08595
1569337134.10158
1569337134.11721
1569337134.13283
1569337134.14846
1569337134.16408
1569337134.17971
1569337134.19533
1569337134.21096
1569337134.22659
1569337134.24221
1569337134.25784
1569337134.27346
1569337134.28909
1569337134.30471
1569337134.32034
1569337134.33597
1569337134.35159
1569337134.36722
1569337134.38284
1569337134.39847
1569337134.41409
1569337134.42972
1569337134.44535
1569337134.46097
1569337134.4766
1569337134.49222
1569337134.50785
1569337134.52347
1569337134.5391
1569337134.55473
1569337134.57035
1569337134.58598
1569337134.6016
1569337134.61723
1569337134.63285
1569337134.64848
1569337134.66411
1569337134.67973
1569337134.69536
1569337134.71098
1569337134.72661
1569337134.74224
1569337134.75786
1569337134.77349
1569337134.78911
1569337134.80474
1569337134.82036
1569337134.83599
1569337134.85162
1569337134.86724
1569337134.88287
1569337134.89849
1569337134.91412
1569337134.92974
1569337134.94537
1569337134.961
1569337134.97662
1569337134.99225
1569337135.00787
1569337135.0235
1569337135.03912
1569337135.05475
1569337135.07038
1569337135.086
1569337135.10163
1569337135.11725
1569337135.13288
1569337135.1485
1569337135.16413
1569337135.17976
1569337135.19538
1569337135.21101
1569337135.22663
1569337135.24226
1569337135.25788
1569337135.27351
1569337135.28914
1569337135.30476
1569337135.32039
1569337135.33601
1569337135.35164
1569337135.36726
1569337135.38289
1569337135.39852
1569337135.41414
1569337135.42977
1569337135.44539
1569337135.46102
1569337135.47664
1569337135.49227
1569337135.5079
1569337135.52352
1569337135.53915
1569337135.55477
1569337135.5704
1569337135.58602
1569337135.60165
1569337135.61728
1569337135.6329
1569337135.64853
1569337135.66415
1569337135.67978
1569337135.6954
1569337135.71103
1569337135.72666
1569337135.74228
1569337135.75791
1569337135.77353
1569337135.78916
1569337135.80478
1569337135.82041
1569337135.83604
1569337135.85166
1569337135.86729
1569337135.88291
1569337135.89854
1569337135.91416
1569337135.92979
1569337135.94542
1569337135.96104
1569337135.97667
1569337135.99229
1569337136.00792
1569337136.02354
1569337136.03917
1569337136.0548
1569337136.07042
1569337136.08605
1569337136.10167
1569337136.1173
1569337136.13292
1569337136.14855
1569337136.16418
1569337136.1798
1569337136.19543
1569337136.21105
1569337136.22668
1569337136.2423
1569337136.25793
1569337136.27356
1569337136.28918
1569337136.30481
1569337136.32043
1569337136.33606
1569337136.35168
1569337136.36731
1569337136.38294
1569337136.39856
1569337136.41419
1569337136.42981
1569337136.44544
1569337136.46106
1569337136.47669
1569337136.49232
1569337136.50794
1569337136.52357
1569337136.53919
1569337136.55482
1569337136.57044
1569337136.58607
1569337136.6017
1569337136.61732
1569337136.63295
1569337136.64857
1569337136.6642
1569337136.67982
1569337136.69545
1569337136.71108
1569337136.7267
1569337136.74233
1569337136.75795
1569337136.77358
1569337136.7892
1569337136.80483
1569337136.82046
1569337136.83608
1569337136.85171
1569337136.86733
1569337136.88296
1569337136.89858
1569337136.91421
1569337136.92984
1569337136.94546
1569337136.96109
1569337136.97671
1569337136.99234
1569337137.00797
1569337137.02359
1569337137.03922
1569337137.05484
1569337137.07047
1569337137.08609
1569337137.10172
1569337137.11735
1569337137.13297
1569337137.1486
1569337137.16422
1569337137.17985
1569337137.19547
1569337137.2111
1569337137.22673
1569337137.24235
1569337137.25798
1569337137.2736
1569337137.28923
1569337137.30485
1569337137.32048
1569337137.33611
1569337137.35173
1569337137.36736
1569337137.38298
1569337137.39861
1569337137.41423
1569337137.42986
1569337137.44549
1569337137.46111
1569337137.47674
1569337137.49236
1569337137.50799
1569337137.52361
1569337137.53924
1569337137.55487
1569337137.57049
1569337137.58612
1569337137.60174
1569337137.61737
1569337137.63299
1569337137.64862
1569337137.66425
1569337137.67987
1569337137.6955
1569337137.71112
1569337137.72675
1569337137.74237
1569337137.758
1569337137.77363
1569337137.78925
1569337137.80488
1569337137.8205
1569337137.83613
1569337137.85175
1569337137.86738
1569337137.88301
1569337137.89863
1569337137.91426
1569337137.92988
1569337137.94551
1569337137.96113
1569337137.97676
1569337137.99239
1569337138.00801
1569337138.02364
1569337138.03926
1569337138.05489
1569337138.07051
1569337138.08614
1569337138.10177
1569337138.11739
1569337138.13302
1569337138.14864
1569337138.16427
1569337138.17989
1569337138.19552
1569337138.21115
1569337138.22677
1569337138.2424
1569337138.25802
1569337138.27365
1569337138.28927
1569337138.3049
1569337138.32053
1569337138.33615
1569337138.35178
1569337138.3674
1569337138.38303
1569337138.39865
1569337138.41428
1569337138.42991
1569337138.44553
1569337138.46116
1569337138.47678
1569337138.49241
1569337138.50803
1569337138.52366
1569337138.53929
1569337138.55491
1569337138.57054
1569337138.58616
1569337138.60179
1569337138.61741
1569337138.63304
1569337138.64867
1569337138.66429
1569337138.67992
1569337138.69554
1569337138.71117
1569337138.72679
1569337138.74242
1569337138.75805
1569337138.77367
1569337138.7893
1569337138.80492
1569337138.82055
1569337138.83617
1569337138.8518
1569337138.86743
1569337138.88305
1569337138.89868
1569337138.9143
1569337138.92993
1569337138.94555
1569337138.96118
1569337138.97681
1569337138.99243
1569337139.00806
1569337139.02368
1569337139.03931
1569337139.05493
1569337139.07056
1569337139.08619
1569337139.10181
1569337139.11744
1569337139.13306
1569337139.14869
1569337139.16431
1569337139.17994
1569337139.19557
1569337139.21119
1569337139.22682
1569337139.24244
1569337139.25807
1569337139.27369
1569337139.28932
1569337139.30495
1569337139.32057
1569337139.3362
1569337139.35182
1569337139.36745
1569337139.38308
1569337139.3987
1569337139.41433
1569337139.42995
1569337139.44558
1569337139.4612
1569337139.47683
1569337139.49246
1569337139.50808
1569337139.52371
1569337139.53933
1569337139.55496
1569337139.57058
1569337139.58621
1569337139.60184
1569337139.61746
1569337139.63309
1569337139.64871
1569337139.66434
1569337139.67996
1569337139.69559
1569337139.71122
1569337139.72684
1569337139.74247
1569337139.75809
1569337139.77372
1569337139.78934
1569337139.80497
1569337139.8206
1569337139.83622
1569337139.85185
1569337139.86747
1569337139.8831
1569337139.89872
1569337139.91435
1569337139.92998
1569337139.9456
1569337139.96123
1569337139.97685
1569337139.99248
1569337140.0081
1569337140.02373
1569337140.03936
1569337140.05498
1569337140.07061
1569337140.08623
1569337140.10186
1569337140.11748
1569337140.13311
1569337140.14874
1569337140.16436
1569337140.17999
1569337140.19561
1569337140.21124
1569337140.22686
1569337140.24249
1569337140.25812
1569337140.27374
1569337140.28937
1569337140.30499
1569337140.32062
1569337140.33624
1569337140.35187
1569337140.3675
1569337140.38312
1569337140.39875
1569337140.41437
1569337140.43
1569337140.44562
1569337140.46125
1569337140.47688
1569337140.4925
1569337140.50813
1569337140.52375
1569337140.53938
1569337140.555
1569337140.57063
1569337140.58626
1569337140.60188
1569337140.61751
1569337140.63313
1569337140.64876
1569337140.66438
1569337140.68001
1569337140.69564
1569337140.71126
1569337140.72689
1569337140.74251
1569337140.75814
1569337140.77376
1569337140.78939
1569337140.80502
1569337140.82064
1569337140.83627
1569337140.85189
1569337140.86752
1569337140.88314
1569337140.89877
1569337140.9144
1569337140.93002
1569337140.94565
1569337140.96127
1569337140.9769
1569337140.99252
1569337141.00815
1569337141.02378
1569337141.0394
1569337141.05503
1569337141.07065
1569337141.08628
1569337141.1019
1569337141.11753
1569337141.13316
1569337141.14878
1569337141.16441
1569337141.18003
1569337141.19566
1569337141.21128
1569337141.22691
1569337141.24254
1569337141.25816
1569337141.27379
1569337141.28941
1569337141.30504
1569337141.32066
1569337141.33629
1569337141.35192
1569337141.36754
1569337141.38317
1569337141.39879
1569337141.41442
1569337141.43004
1569337141.44567
1569337141.4613
1569337141.47692
1569337141.49255
1569337141.50817
1569337141.5238
1569337141.53942
1569337141.55505
1569337141.57068
1569337141.5863
1569337141.60193
1569337141.61755
1569337141.63318
1569337141.6488
1569337141.66443
1569337141.68006
1569337141.69568
1569337141.71131
1569337141.72693
1569337141.74256
1569337141.75818
1569337141.77381
1569337141.78944
1569337141.80506
1569337141.82069
1569337141.83631
1569337141.85194
1569337141.86757
1569337141.88319
1569337141.89882
1569337141.91444
1569337141.93007
1569337141.94569
1569337141.96132
1569337141.97695
1569337141.99257
1569337142.0082
1569337142.02382
1569337142.03945
1569337142.05507
1569337142.0707
1569337142.08633
1569337142.10195
1569337142.11758
1569337142.1332
1569337142.14883
1569337142.16445
1569337142.18008
1569337142.19571
1569337142.21133
1569337142.22696
1569337142.24258
1569337142.25821
1569337142.27383
1569337142.28946
1569337142.30509
1569337142.32071
1569337142.33634
1569337142.35196
1569337142.36759
1569337142.38321
1569337142.39884
1569337142.41447
1569337142.43009
1569337142.44572
1569337142.46134
1569337142.47697
1569337142.49259
1569337142.50822
1569337142.52385
1569337142.53947
1569337142.5551
1569337142.57072
1569337142.58635
1569337142.60197
1569337142.6176
1569337142.63323
1569337142.64885
1569337142.66448
1569337142.6801
1569337142.69573
1569337142.71135
1569337142.72698
1569337142.74261
1569337142.75823
1569337142.77386
1569337142.78948
1569337142.80511
1569337142.82073
1569337142.83636
1569337142.85199
1569337142.86761
1569337142.88324
1569337142.89886
1569337142.91449
1569337142.93011
1569337142.94574
1569337142.96137
1569337142.97699
1569337142.99262
1569337143.00824
1569337143.02387
1569337143.03949
1569337143.05512
1569337143.07075
1569337143.08637
1569337143.102
1569337143.11762
1569337143.13325
1569337143.14887
1569337143.1645
1569337143.18013
1569337143.19575
1569337143.21138
1569337143.227
1569337143.24263
1569337143.25825
1569337143.27388
1569337143.28951
1569337143.30513
1569337143.32076
1569337143.33638
1569337143.35201
1569337143.36763
1569337143.38326
1569337143.39889
1569337143.41451
1569337143.43014
1569337143.44576
1569337143.46139
1569337143.47701
1569337143.49264
1569337143.50827
1569337143.52389
1569337143.53952
1569337143.55514
1569337143.57077
1569337143.58639
1569337143.60202
1569337143.61765
1569337143.63327
1569337143.6489
1569337143.66452
1569337143.68015
1569337143.69577
1569337143.7114
1569337143.72703
1569337143.74265
1569337143.75828
1569337143.7739
1569337143.78953
1569337143.80515
1569337143.82078
1569337143.83641
1569337143.85203
1569337143.86766
1569337143.88328
1569337143.89891
1569337143.91453
1569337143.93016
1569337143.94579
1569337143.96141
1569337143.97704
1569337143.99266
1569337144.00829
1569337144.02392
1569337144.03954
1569337144.05517
1569337144.07079
1569337144.08642
1569337144.10204
1569337144.11767
1569337144.1333
1569337144.14892
1569337144.16455
1569337144.18017
1569337144.1958
1569337144.21142
1569337144.22705
1569337144.24268
1569337144.2583
1569337144.27393
1569337144.28955
1569337144.30518
1569337144.3208
1569337144.33643
1569337144.35206
1569337144.36768
1569337144.38331
1569337144.39893
1569337144.41456
1569337144.43018
1569337144.44581
1569337144.46144
1569337144.47706
1569337144.49269
1569337144.50831
1569337144.52394
1569337144.53956
1569337144.55519
1569337144.57082
1569337144.58644
1569337144.60207
1569337144.61769
1569337144.63332
1569337144.64894
1569337144.66457
1569337144.6802
1569337144.69582
1569337144.71145
1569337144.72707
1569337144.7427
1569337144.75832
1569337144.77395
1569337144.78958
1569337144.8052
1569337144.82083
1569337144.83645
1569337144.85208
1569337144.8677
1569337144.88333
1569337144.89896
1569337144.91458
1569337144.93021
1569337144.94583
1569337144.96146
1569337144.97708
1569337144.99271
1569337145.00834
1569337145.02396
1569337145.03959
1569337145.05521
1569337145.07084
1569337145.08646
1569337145.10209
1569337145.11772
1569337145.13334
1569337145.14897
1569337145.16459
1569337145.18022
1569337145.19584
1569337145.21147
1569337145.2271
1569337145.24272
1569337145.25835
1569337145.27397
1569337145.2896
1569337145.30522
1569337145.32085
1569337145.33648
1569337145.3521
1569337145.36773
1569337145.38335
1569337145.39898
1569337145.4146
1569337145.43023
1569337145.44586
1569337145.46148
1569337145.47711
1569337145.49273
1569337145.50836
1569337145.52398
1569337145.53961
1569337145.55524
1569337145.57086
1569337145.58649
1569337145.60211
1569337145.61774
1569337145.63336
1569337145.64899
1569337145.66462
1569337145.68024
1569337145.69587
1569337145.71149
1569337145.72712
1569337145.74274
1569337145.75837
1569337145.774
1569337145.78962
1569337145.80525
1569337145.82087
1569337145.8365
1569337145.85212
1569337145.86775
1569337145.88338
1569337145.899
1569337145.91463
1569337145.93025
1569337145.94588
1569337145.9615
1569337145.97713
1569337145.99276
1569337146.00838
1569337146.02401
1569337146.03963
1569337146.05526
1569337146.07088
1569337146.08651
1569337146.10214
1569337146.11776
1569337146.13339
1569337146.14901
1569337146.16464
1569337146.18026
1569337146.19589
1569337146.21152
1569337146.22714
1569337146.24277
1569337146.25839
1569337146.27402
1569337146.28964
1569337146.30527
1569337146.3209
1569337146.33652
1569337146.35215
1569337146.36777
1569337146.3834
1569337146.39902
1569337146.41465
1569337146.43028
1569337146.4459
1569337146.46153
1569337146.47715
1569337146.49278
1569337146.5084
1569337146.52403
1569337146.53966
1569337146.55528
1569337146.57091
1569337146.58653
1569337146.60216
1569337146.61778
1569337146.63341
1569337146.64904
1569337146.66466
1569337146.68029
1569337146.69591
1569337146.71154
1569337146.72717
1569337146.74279
1569337146.75842
1569337146.77404
1569337146.78967
1569337146.80529
1569337146.82092
1569337146.83655
1569337146.85217
1569337146.8678
1569337146.88342
1569337146.89905
1569337146.91467
1569337146.9303
1569337146.94593
1569337146.96155
1569337146.97718
1569337146.9928
1569337147.00843
1569337147.02405
1569337147.03968
1569337147.05531
1569337147.07093
1569337147.08656
1569337147.10218
1569337147.11781
1569337147.13343
1569337147.14906
1569337147.16469
1569337147.18031
1569337147.19594
1569337147.21156
1569337147.22719
1569337147.24281
1569337147.25844
1569337147.27407
1569337147.28969
1569337147.30532
1569337147.32094
1569337147.33657
1569337147.35219
1569337147.36782
1569337147.38345
1569337147.39907
1569337147.4147
1569337147.43032
1569337147.44595
1569337147.46157
1569337147.4772
1569337147.49283
1569337147.50845
1569337147.52408
1569337147.5397
1569337147.55533
1569337147.57095
1569337147.58658
1569337147.60221
1569337147.61783
1569337147.63346
1569337147.64908
1569337147.66471
1569337147.68033
1569337147.69596
1569337147.71159
1569337147.72721
1569337147.74284
1569337147.75846
1569337147.77409
1569337147.78971
1569337147.80534
1569337147.82097
1569337147.83659
1569337147.85222
1569337147.86784
1569337147.88347
1569337147.89909
1569337147.91472
1569337147.93035
1569337147.94597
1569337147.9616
1569337147.97722
1569337147.99285
1569337148.00847
1569337148.0241
1569337148.03973
1569337148.05535
1569337148.07098
1569337148.0866
1569337148.10223
1569337148.11785
1569337148.13348
1569337148.14911
1569337148.16473
1569337148.18036
1569337148.19598
1569337148.21161
1569337148.22723
1569337148.24286
1569337148.25849
1569337148.27411
1569337148.28974
1569337148.30536
1569337148.32099
1569337148.33661
1569337148.35224
1569337148.36787
1569337148.38349
1569337148.39912
1569337148.41474
1569337148.43037
1569337148.44599
1569337148.46162
1569337148.47725
1569337148.49287
1569337148.5085
1569337148.52412
1569337148.53975
1569337148.55537
1569337148.571
1569337148.58663
1569337148.60225
1569337148.61788
1569337148.6335
1569337148.64913
1569337148.66475
1569337148.68038
1569337148.69601
1569337148.71163
1569337148.72726
1569337148.74288
1569337148.75851
1569337148.77413
1569337148.78976
1569337148.80539
1569337148.82101
1569337148.83664
1569337148.85226
1569337148.86789
1569337148.88352
1569337148.89914
1569337148.91477
1569337148.93039
1569337148.94602
1569337148.96164
1569337148.97727
1569337148.9929
1569337149.00852
1569337149.02415
1569337149.03977
1569337149.0554
1569337149.07102
1569337149.08665
1569337149.10228
1569337149.1179
1569337149.13353
1569337149.14915
1569337149.16478
1569337149.1804
1569337149.19603
1569337149.21166
1569337149.22728
1569337149.24291
1569337149.25853
1569337149.27416
1569337149.28978
1569337149.30541
1569337149.32104
1569337149.33666
1569337149.35229
1569337149.36791
1569337149.38354
1569337149.39916
1569337149.41479
1569337149.43042
1569337149.44604
1569337149.46167
1569337149.47729
1569337149.49292
1569337149.50854
1569337149.52417
1569337149.5398
1569337149.55542
1569337149.57105
1569337149.58667
1569337149.6023
1569337149.61792
1569337149.63355
1569337149.64918
1569337149.6648
1569337149.68043
1569337149.69605
1569337149.71168
1569337149.7273
1569337149.74293
1569337149.75856
1569337149.77418
1569337149.78981
1569337149.80543
1569337149.82106
1569337149.83668
1569337149.85231
1569337149.86794
1569337149.88356
1569337149.89919
1569337149.91481
1569337149.93044
1569337149.94606
1569337149.96169
1569337149.97732
1569337149.99294
1569337150.00857
1569337150.02419
1569337150.03982
1569337150.05544
1569337150.07107
1569337150.0867
1569337150.10232
1569337150.11795
1569337150.13357
1569337150.1492
1569337150.16482
1569337150.18045
1569337150.19608
1569337150.2117
1569337150.22733
1569337150.24295
1569337150.25858
1569337150.2742
1569337150.28983
1569337150.30546
1569337150.32108
1569337150.33671
1569337150.35233
1569337150.36796
1569337150.38358
1569337150.39921
1569337150.41484
1569337150.43046
1569337150.44609
1569337150.46171
1569337150.47734
1569337150.49296
1569337150.50859
1569337150.52422
1569337150.53984
1569337150.55547
1569337150.57109
1569337150.58672
1569337150.60234
1569337150.61797
1569337150.6336
1569337150.64922
1569337150.66485
1569337150.68047
1569337150.6961
1569337150.71172
1569337150.72735
1569337150.74298
1569337150.7586
1569337150.77423
1569337150.78985
1569337150.80548
1569337150.8211
1569337150.83673
1569337150.85236
1569337150.86798
1569337150.88361
1569337150.89923
1569337150.91486
1569337150.93048
1569337150.94611
1569337150.96174
1569337150.97736
1569337150.99299
1569337151.00861
1569337151.02424
1569337151.03986
1569337151.05549
1569337151.07112
1569337151.08674
1569337151.10237
1569337151.11799
1569337151.13362
1569337151.14925
1569337151.16487
1569337151.1805
1569337151.19612
1569337151.21175
1569337151.22737
1569337151.243
1569337151.25863
1569337151.27425
1569337151.28988
1569337151.3055
1569337151.32113
1569337151.33675
1569337151.35238
1569337151.36801
1569337151.38363
1569337151.39926
1569337151.41488
1569337151.43051
1569337151.44613
1569337151.46176
1569337151.47739
1569337151.49301
1569337151.50864
1569337151.52426
1569337151.53989
1569337151.55551
1569337151.57114
1569337151.58677
1569337151.60239
1569337151.61802
1569337151.63364
1569337151.64927
1569337151.66489
1569337151.68052
1569337151.69615
1569337151.71177
1569337151.7274
1569337151.74302
1569337151.75865
1569337151.77427
1569337151.7899
1569337151.80553
1569337151.82115
1569337151.83678
1569337151.8524
1569337151.86803
1569337151.88365
1569337151.89928
1569337151.91491
1569337151.93053
1569337151.94616
1569337151.96178
1569337151.97741
1569337151.99303
1569337152.00866
1569337152.02429
1569337152.03991
1569337152.05554
1569337152.07116
1569337152.08679
1569337152.10241
1569337152.11804
1569337152.13367
1569337152.14929
1569337152.16492
1569337152.18054
1569337152.19617
1569337152.21179
1569337152.22742
1569337152.24305
1569337152.25867
1569337152.2743
1569337152.28992
1569337152.30555
1569337152.32117
1569337152.3368
1569337152.35243
1569337152.36805
1569337152.38368
1569337152.3993
1569337152.41493
1569337152.43055
1569337152.44618
1569337152.46181
1569337152.47743
1569337152.49306
1569337152.50868
1569337152.52431
1569337152.53993
1569337152.55556
1569337152.57119
1569337152.58681
1569337152.60244
1569337152.61806
1569337152.63369
1569337152.64931
1569337152.66494
1569337152.68057
1569337152.69619
1569337152.71182
1569337152.72744
1569337152.74307
1569337152.75869
1569337152.77432
1569337152.78995
1569337152.80557
1569337152.8212
1569337152.83682
1569337152.85245
1569337152.86807
1569337152.8837
1569337152.89933
1569337152.91495
1569337152.93058
1569337152.9462
1569337152.96183
1569337152.97745
1569337152.99308
1569337153.00871
1569337153.02433
1569337153.03996
1569337153.05558
1569337153.07121
1569337153.08683
1569337153.10246
1569337153.11809
1569337153.13371
1569337153.14934
1569337153.16496
1569337153.18059
1569337153.19621
1569337153.21184
1569337153.22747
1569337153.24309
1569337153.25872
1569337153.27434
1569337153.28997
1569337153.30559
1569337153.32122
1569337153.33685
1569337153.35247
1569337153.3681
1569337153.38372
1569337153.39935
1569337153.41497
1569337153.4306
1569337153.44623
1569337153.46185
1569337153.47748
1569337153.4931
1569337153.50873
1569337153.52435
1569337153.53998
1569337153.55561
1569337153.57123
1569337153.58686
1569337153.60248
1569337153.61811
1569337153.63373
1569337153.64936
1569337153.66499
1569337153.68061
1569337153.69624
1569337153.71186
1569337153.72749
1569337153.74312
1569337153.75874
1569337153.77437
1569337153.78999
1569337153.80562
1569337153.82124
1569337153.83687
1569337153.8525
1569337153.86812
1569337153.88375
1569337153.89937
1569337153.915
1569337153.93062
1569337153.94625
1569337153.96188
1569337153.9775
1569337153.99313
1569337154.00875
1569337154.02438
1569337154.04
1569337154.05563
1569337154.07126
1569337154.08688
1569337154.10251
1569337154.11813
1569337154.13376
1569337154.14938
1569337154.16501
1569337154.18064
1569337154.19626
1569337154.21189
1569337154.22751
1569337154.24314
1569337154.25876
1569337154.27439
1569337154.29002
1569337154.30564
1569337154.32127
1569337154.33689
1569337154.35252
1569337154.36814
1569337154.38377
1569337154.3994
1569337154.41502
1569337154.43065
1569337154.44627
1569337154.4619
1569337154.47752
1569337154.49315
1569337154.50878
1569337154.5244
1569337154.54003
1569337154.55565
1569337154.57128
1569337154.5869
1569337154.60253
1569337154.61816
1569337154.63378
1569337154.64941
1569337154.66503
1569337154.68066
1569337154.69628
1569337154.71191
1569337154.72754
1569337154.74316
1569337154.75879
1569337154.77441
1569337154.79004
1569337154.80566
1569337154.82129
1569337154.83692
1569337154.85254
1569337154.86817
1569337154.88379
1569337154.89942
1569337154.91504
1569337154.93067
1569337154.9463
1569337154.96192
1569337154.97755
1569337154.99317
1569337155.0088
1569337155.02442
1569337155.04005
1569337155.05568
1569337155.0713
1569337155.08693
1569337155.10255
1569337155.11818
1569337155.1338
1569337155.14943
1569337155.16506
1569337155.18068
1569337155.19631
1569337155.21193
1569337155.22756
1569337155.24318
1569337155.25881
1569337155.27444
1569337155.29006
1569337155.30569
1569337155.32131
1569337155.33694
1569337155.35256
1569337155.36819
1569337155.38382
1569337155.39944
1569337155.41507
1569337155.43069
1569337155.44632
1569337155.46194
1569337155.47757
1569337155.4932
1569337155.50882
1569337155.52445
1569337155.54007
1569337155.5557
1569337155.57132
1569337155.58695
1569337155.60258
1569337155.6182
1569337155.63383
1569337155.64945
1569337155.66508
1569337155.6807
1569337155.69633
1569337155.71196
1569337155.72758
1569337155.74321
1569337155.75883
1569337155.77446
1569337155.79008
1569337155.80571
1569337155.82134
1569337155.83696
1569337155.85259
1569337155.86821
1569337155.88384
1569337155.89946
1569337155.91509
1569337155.93072
1569337155.94634
1569337155.96197
1569337155.97759
1569337155.99322
1569337156.00885
1569337156.02447
1569337156.0401
1569337156.05572
1569337156.07135
1569337156.08697
1569337156.1026
1569337156.11823
1569337156.13385
1569337156.14948
1569337156.1651
1569337156.18073
1569337156.19635
1569337156.21198
1569337156.22761
1569337156.24323
1569337156.25886
1569337156.27448
1569337156.29011
1569337156.30573
1569337156.32136
1569337156.33699
1569337156.35261
1569337156.36824
1569337156.38386
1569337156.39949
1569337156.41511
1569337156.43074
1569337156.44637
1569337156.46199
1569337156.47762
1569337156.49324
1569337156.50887
1569337156.52449
1569337156.54012
1569337156.55575
1569337156.57137
1569337156.587
1569337156.60262
1569337156.61825
1569337156.63387
1569337156.6495
1569337156.66513
1569337156.68075
1569337156.69638
1569337156.712
1569337156.72763
1569337156.74325
1569337156.75888
1569337156.77451
1569337156.79013
1569337156.80576
1569337156.82138
1569337156.83701
1569337156.85263
1569337156.86826
1569337156.88389
1569337156.89951
1569337156.91514
1569337156.93076
1569337156.94639
1569337156.96201
1569337156.97764
1569337156.99327
1569337157.00889
1569337157.02452
1569337157.04014
1569337157.05577
1569337157.07139
1569337157.08702
1569337157.10265
1569337157.11827
1569337157.1339
1569337157.14952
1569337157.16515
1569337157.18077
1569337157.1964
1569337157.21203
1569337157.22765
1569337157.24328
1569337157.2589
1569337157.27453
1569337157.29015
1569337157.30578
1569337157.32141
1569337157.33703
1569337157.35266
1569337157.36828
1569337157.38391
1569337157.39953
1569337157.41516
1569337157.43079
1569337157.44641
1569337157.46204
1569337157.47766
1569337157.49329
1569337157.50891
1569337157.52454
1569337157.54017
1569337157.55579
1569337157.57142
1569337157.58704
1569337157.60267
1569337157.61829
1569337157.63392
1569337157.64955
1569337157.66517
1569337157.6808
1569337157.69642
1569337157.71205
1569337157.72767
1569337157.7433
1569337157.75893
1569337157.77455
1569337157.79018
1569337157.8058
1569337157.82143
1569337157.83705
1569337157.85268
1569337157.86831
1569337157.88393
1569337157.89956
1569337157.91518
1569337157.93081
1569337157.94643
1569337157.96206
1569337157.97769
1569337157.99331
1569337158.00894
1569337158.02456
1569337158.04019
1569337158.05581
1569337158.07144
1569337158.08707
1569337158.10269
1569337158.11832
1569337158.13394
1569337158.14957
1569337158.16519
1569337158.18082
1569337158.19645
1569337158.21207
1569337158.2277
1569337158.24332
1569337158.25895
1569337158.27458
1569337158.2902
1569337158.30583
1569337158.32145
1569337158.33708
1569337158.3527
1569337158.36833
1569337158.38396
1569337158.39958
1569337158.41521
1569337158.43083
1569337158.44646
1569337158.46208
1569337158.47771
1569337158.49334
1569337158.50896
1569337158.52459
1569337158.54021
1569337158.55584
1569337158.57146
1569337158.58709
1569337158.60272
1569337158.61834
1569337158.63397
1569337158.64959
1569337158.66522
1569337158.68084
1569337158.69647
1569337158.7121
1569337158.72772
1569337158.74335
1569337158.75897
1569337158.7746
1569337158.79022
1569337158.80585
1569337158.82148
1569337158.8371
1569337158.85273
1569337158.86835
1569337158.88398
1569337158.8996
1569337158.91523
1569337158.93086
1569337158.94648
1569337158.96211
1569337158.97773
1569337158.99336
1569337159.00898
1569337159.02461
1569337159.04024
1569337159.05586
1569337159.07149
1569337159.08711
1569337159.10274
1569337159.11836
1569337159.13399
1569337159.14962
1569337159.16524
1569337159.18087
1569337159.19649
1569337159.21212
1569337159.22774
1569337159.24337
1569337159.259
1569337159.27462
1569337159.29025
1569337159.30587
1569337159.3215
1569337159.33712
1569337159.35275
1569337159.36838
1569337159.384
1569337159.39963
1569337159.41525
1569337159.43088
1569337159.4465
1569337159.46213
1569337159.47776
1569337159.49338
1569337159.50901
1569337159.52463
1569337159.54026
1569337159.55588
1569337159.57151
1569337159.58714
1569337159.60276
1569337159.61839
1569337159.63401
1569337159.64964
1569337159.66526
1569337159.68089
1569337159.69652
1569337159.71214
1569337159.72777
1569337159.74339
1569337159.75902
1569337159.77464
1569337159.79027
1569337159.8059
1569337159.82152
1569337159.83715
1569337159.85277
1569337159.8684
1569337159.88402
1569337159.89965
1569337159.91528
1569337159.9309
1569337159.94653
1569337159.96215
1569337159.97778
1569337159.9934
1569337160.00903
1569337160.02466
1569337160.04028
1569337160.05591
1569337160.07153
1569337160.08716
1569337160.10278
1569337160.11841
1569337160.13404
1569337160.14966
1569337160.16529
1569337160.18091
1569337160.19654
1569337160.21216
1569337160.22779
1569337160.24342
1569337160.25904
1569337160.27467
1569337160.29029
1569337160.30592
1569337160.32154
1569337160.33717
1569337160.3528
1569337160.36842
1569337160.38405
1569337160.39967
1569337160.4153
1569337160.43092
1569337160.44655
1569337160.46218
1569337160.4778
1569337160.49343
1569337160.50905
1569337160.52468
1569337160.5403
1569337160.55593
1569337160.57156
1569337160.58718
1569337160.60281
1569337160.61843
1569337160.63406
1569337160.64968
1569337160.66531
1569337160.68094
1569337160.69656
1569337160.71219
1569337160.72781
1569337160.74344
1569337160.75906
1569337160.77469
1569337160.79032
1569337160.80594
1569337160.82157
1569337160.83719
1569337160.85282
1569337160.86845
1569337160.88407
1569337160.8997
1569337160.91532
1569337160.93095
1569337160.94657
1569337160.9622
1569337160.97783
1569337160.99345
1569337161.00908
1569337161.0247
1569337161.04033
1569337161.05595
1569337161.07158
1569337161.08721
1569337161.10283
1569337161.11846
1569337161.13408
1569337161.14971
1569337161.16533
1569337161.18096
1569337161.19659
1569337161.21221
1569337161.22784
1569337161.24346
1569337161.25909
1569337161.27471
1569337161.29034
1569337161.30597
1569337161.32159
1569337161.33722
1569337161.35284
1569337161.36847
1569337161.38409
1569337161.39972
1569337161.41535
1569337161.43097
1569337161.4466
1569337161.46222
1569337161.47785
1569337161.49347
1569337161.5091
1569337161.52473
1569337161.54035
1569337161.55598
1569337161.5716
1569337161.58723
1569337161.60285
1569337161.61848
1569337161.63411
1569337161.64973
1569337161.66536
1569337161.68098
1569337161.69661
1569337161.71223
1569337161.72786
1569337161.74349
1569337161.75911
1569337161.77474
1569337161.79036
1569337161.80599
1569337161.82161
1569337161.83724
1569337161.85287
1569337161.86849
1569337161.88412
1569337161.89974
1569337161.91537
1569337161.93099
1569337161.94662
1569337161.96225
1569337161.97787
1569337161.9935
1569337162.00912
1569337162.02475
1569337162.04037
1569337162.056
1569337162.07163
1569337162.08725
1569337162.10288
1569337162.1185
1569337162.13413
1569337162.14975
1569337162.16538
1569337162.18101
1569337162.19663
1569337162.21226
1569337162.22788
1569337162.24351
1569337162.25913
1569337162.27476
1569337162.29039
1569337162.30601
1569337162.32164
1569337162.33726
1569337162.35289
1569337162.36851
1569337162.38414
1569337162.39977
1569337162.41539
1569337162.43102
1569337162.44664
1569337162.46227
1569337162.47789
1569337162.49352
1569337162.50915
1569337162.52477
1569337162.5404
1569337162.55602
1569337162.57165
1569337162.58727
1569337162.6029
1569337162.61853
1569337162.63415
1569337162.64978
1569337162.6654
1569337162.68103
1569337162.69665
1569337162.71228
1569337162.72791
1569337162.74353
1569337162.75916
1569337162.77478
1569337162.79041
1569337162.80603
1569337162.82166
1569337162.83729
1569337162.85291
1569337162.86854
1569337162.88416
1569337162.89979
1569337162.91541
1569337162.93104
1569337162.94667
1569337162.96229
1569337162.97792
1569337162.99354
1569337163.00917
1569337163.02479
1569337163.04042
1569337163.05605
1569337163.07167
1569337163.0873
1569337163.10292
1569337163.11855
1569337163.13418
1569337163.1498
1569337163.16543
1569337163.18105
1569337163.19668
1569337163.2123
1569337163.22793
1569337163.24356
1569337163.25918
1569337163.27481
1569337163.29043
1569337163.30606
1569337163.32168
1569337163.33731
1569337163.35294
1569337163.36856
1569337163.38419
1569337163.39981
1569337163.41544
1569337163.43106
1569337163.44669
1569337163.46232
1569337163.47794
1569337163.49357
1569337163.50919
1569337163.52482
1569337163.54044
1569337163.55607
1569337163.5717
1569337163.58732
1569337163.60295
1569337163.61857
1569337163.6342
1569337163.64982
1569337163.66545
1569337163.68108
1569337163.6967
1569337163.71233
1569337163.72795
1569337163.74358
1569337163.7592
1569337163.77483
1569337163.79046
1569337163.80608
1569337163.82171
1569337163.83733
1569337163.85296
1569337163.86858
1569337163.88421
1569337163.89984
1569337163.91546
1569337163.93109
1569337163.94671
1569337163.96234
1569337163.97796
1569337163.99359
1569337164.00922
1569337164.02484
1569337164.04047
1569337164.05609
1569337164.07172
1569337164.08734
1569337164.10297
1569337164.1186
1569337164.13422
1569337164.14985
1569337164.16547
1569337164.1811
1569337164.19672
1569337164.21235
1569337164.22798
1569337164.2436
1569337164.25923
1569337164.27485
1569337164.29048
1569337164.3061
1569337164.32173
1569337164.33736
1569337164.35298
1569337164.36861
1569337164.38423
1569337164.39986
1569337164.41548
1569337164.43111
1569337164.44674
1569337164.46236
1569337164.47799
1569337164.49361
1569337164.50924
1569337164.52486
1569337164.54049
1569337164.55612
1569337164.57174
1569337164.58737
1569337164.60299
1569337164.61862
1569337164.63424
1569337164.64987
1569337164.6655
1569337164.68112
1569337164.69675
1569337164.71237
1569337164.728
1569337164.74362
1569337164.75925
1569337164.77488
1569337164.7905
1569337164.80613
1569337164.82175
1569337164.83738
1569337164.853
1569337164.86863
1569337164.88426
1569337164.89988
1569337164.91551
1569337164.93113
1569337164.94676
1569337164.96238
1569337164.97801
1569337164.99364
1569337165.00926
1569337165.02489
1569337165.04051
1569337165.05614
1569337165.07176
1569337165.08739
1569337165.10302
1569337165.11864
1569337165.13427
1569337165.14989
1569337165.16552
1569337165.18114
1569337165.19677
1569337165.2124
1569337165.22802
1569337165.24365
1569337165.25927
1569337165.2749
1569337165.29052
1569337165.30615
1569337165.32178
1569337165.3374
1569337165.35303
1569337165.36865
1569337165.38428
1569337165.3999
1569337165.41553
1569337165.43116
1569337165.44678
1569337165.46241
1569337165.47803
1569337165.49366
1569337165.50928
1569337165.52491
1569337165.54054
1569337165.55616
1569337165.57179
1569337165.58741
1569337165.60304
1569337165.61866
1569337165.63429
1569337165.64992
1569337165.66554
1569337165.68117
1569337165.69679
1569337165.71242
1569337165.72805
1569337165.74367
1569337165.7593
1569337165.77492
1569337165.79055
1569337165.80617
1569337165.8218
1569337165.83743
1569337165.85305
1569337165.86868
1569337165.8843
1569337165.89993
1569337165.91555
1569337165.93118
1569337165.94681
1569337165.96243
1569337165.97806
1569337165.99368
1569337166.00931
1569337166.02493
1569337166.04056
1569337166.05619
1569337166.07181
1569337166.08744
1569337166.10306
1569337166.11869
1569337166.13431
1569337166.14994
1569337166.16557
1569337166.18119
1569337166.19682
1569337166.21244
1569337166.22807
1569337166.24369
1569337166.25932
1569337166.27495
1569337166.29057
1569337166.3062
1569337166.32182
1569337166.33745
1569337166.35307
1569337166.3687
1569337166.38433
1569337166.39995
1569337166.41558
1569337166.4312
1569337166.44683
1569337166.46245
1569337166.47808
1569337166.49371
1569337166.50933
1569337166.52496
1569337166.54058
1569337166.55621
1569337166.57183
1569337166.58746
1569337166.60309
1569337166.61871
1569337166.63434
1569337166.64996
1569337166.66559
1569337166.68121
1569337166.69684
1569337166.71247
1569337166.72809
1569337166.74372
1569337166.75934
1569337166.77497
1569337166.79059
1569337166.80622
1569337166.82185
1569337166.83747
1569337166.8531
1569337166.86872
1569337166.88435
1569337166.89997
1569337166.9156
1569337166.93123
1569337166.94685
1569337166.96248
1569337166.9781
1569337166.99373
1569337167.00935
1569337167.02498
1569337167.04061
1569337167.05623
1569337167.07186
1569337167.08748
1569337167.10311
1569337167.11873
1569337167.13436
1569337167.14999
1569337167.16561
1569337167.18124
1569337167.19686
1569337167.21249
1569337167.22811
1569337167.24374
1569337167.25937
1569337167.27499
1569337167.29062
1569337167.30624
1569337167.32187
1569337167.33749
1569337167.35312
1569337167.36875
1569337167.38437
1569337167.4
1569337167.41562
1569337167.43125
1569337167.44687
1569337167.4625
1569337167.47813
1569337167.49375
1569337167.50938
1569337167.525
1569337167.54063
1569337167.55625
1569337167.57188
1569337167.58751
1569337167.60313
1569337167.61876
1569337167.63438
1569337167.65001
1569337167.66563
1569337167.68126
1569337167.69689
1569337167.71251
1569337167.72814
1569337167.74376
1569337167.75939
1569337167.77501
1569337167.79064
1569337167.80627
1569337167.82189
1569337167.83752
1569337167.85314
1569337167.86877
1569337167.88439
1569337167.90002
1569337167.91565
1569337167.93127
1569337167.9469
1569337167.96252
1569337167.97815
1569337167.99378
1569337168.0094
1569337168.02503
1569337168.04065
1569337168.05628
1569337168.0719
1569337168.08753
1569337168.10316
1569337168.11878
1569337168.13441
1569337168.15003
1569337168.16566
1569337168.18128
1569337168.19691
1569337168.21254
1569337168.22816
1569337168.24379
1569337168.25941
1569337168.27504
1569337168.29066
1569337168.30629
1569337168.32192
1569337168.33754
1569337168.35317
1569337168.36879
1569337168.38442
1569337168.40004
1569337168.41567
1569337168.4313
1569337168.44692
1569337168.46255
1569337168.47817
1569337168.4938
1569337168.50942
1569337168.52505
1569337168.54068
1569337168.5563
1569337168.57193
1569337168.58755
1569337168.60318
1569337168.6188
1569337168.63443
1569337168.65006
1569337168.66568
1569337168.68131
1569337168.69693
1569337168.71256
1569337168.72818
1569337168.74381
1569337168.75944
1569337168.77506
1569337168.79069
1569337168.80631
1569337168.82194
1569337168.83756
1569337168.85319
1569337168.86882
1569337168.88444
1569337168.90007
1569337168.91569
1569337168.93132
1569337168.94694
1569337168.96257
1569337168.9782
1569337168.99382
1569337169.00945
1569337169.02507
1569337169.0407
1569337169.05632
1569337169.07195
1569337169.08758
1569337169.1032
1569337169.11883
1569337169.13445
1569337169.15008
1569337169.1657
1569337169.18133
1569337169.19696
1569337169.21258
1569337169.22821
1569337169.24383
1569337169.25946
1569337169.27508
1569337169.29071
1569337169.30634
1569337169.32196
1569337169.33759
1569337169.35321
1569337169.36884
1569337169.38446
1569337169.40009
1569337169.41572
1569337169.43134
1569337169.44697
1569337169.46259
1569337169.47822
1569337169.49384
1569337169.50947
1569337169.5251
1569337169.54072
1569337169.55635
1569337169.57197
1569337169.5876
1569337169.60322
1569337169.61885
1569337169.63448
1569337169.6501
1569337169.66573
1569337169.68135
1569337169.69698
1569337169.7126
1569337169.72823
1569337169.74386
1569337169.75948
1569337169.77511
1569337169.79073
1569337169.80636
1569337169.82198
1569337169.83761
1569337169.85324
1569337169.86886
1569337169.88449
1569337169.90011
1569337169.91574
1569337169.93136
1569337169.94699
1569337169.96262
1569337169.97824
1569337169.99387
1569337170.00949
1569337170.02512
1569337170.04074
1569337170.05637
1569337170.072
1569337170.08762
1569337170.10325
1569337170.11887
1569337170.1345
1569337170.15013
1569337170.16575
1569337170.18138
1569337170.197
1569337170.21263
1569337170.22825
1569337170.24388
1569337170.25951
1569337170.27513
1569337170.29076
1569337170.30638
1569337170.32201
1569337170.33763
1569337170.35326
1569337170.36889
1569337170.38451
1569337170.40014
1569337170.41576
1569337170.43139
1569337170.44701
1569337170.46264
1569337170.47827
1569337170.49389
1569337170.50952
1569337170.52514
1569337170.54077
1569337170.55639
1569337170.57202
1569337170.58765
1569337170.60327
1569337170.6189
1569337170.63452
1569337170.65015
1569337170.66577
1569337170.6814
1569337170.69703
1569337170.71265
1569337170.72828
1569337170.7439
1569337170.75953
1569337170.77515
1569337170.79078
1569337170.80641
1569337170.82203
1569337170.83766
1569337170.85328
1569337170.86891
1569337170.88453
1569337170.90016
1569337170.91579
1569337170.93141
1569337170.94704
1569337170.96266
1569337170.97829
1569337170.99391
1569337171.00954
1569337171.02517
1569337171.04079
1569337171.05642
1569337171.07204
1569337171.08767
1569337171.10329
1569337171.11892
1569337171.13455
1569337171.15017
1569337171.1658
1569337171.18142
1569337171.19705
1569337171.21267
1569337171.2283
1569337171.24393
1569337171.25955
1569337171.27518
