1569337558.2931
1569337558.30873
1569337558.32435
1569337558.33998
1569337558.3556
1569337558.37123
1569337558.38686
1569337558.40248
1569337558.41811
1569337558.43373
1569337558.44936
1569337558.46498
1569337558.48061
1569337558.49624
1569337558.51186
1569337558.52749
1569337558.54311
1569337558.55874
1569337558.57436
1569337558.58999
1569337558.60562
1569337558.62124
1569337558.63687
1569337558.65249
1569337558.66812
1569337558.68374
1569337558.69937
1569337558.715
1569337558.73062
1569337558.74625
1569337558.76187
1569337558.7775
1569337558.79312
1569337558.80875
1569337558.82438
1569337558.84
1569337558.85563
1569337558.87125
1569337558.88688
1569337558.9025
1569337558.91813
1569337558.93376
1569337558.94938
1569337558.96501
1569337558.98063
1569337558.99626
1569337559.01188
1569337559.02751
1569337559.04314
1569337559.05876
1569337559.07439
1569337559.09001
1569337559.10564
1569337559.12126
1569337559.13689
1569337559.15252
1569337559.16814
1569337559.18377
1569337559.19939
1569337559.21502
1569337559.23064
1569337559.24627
1569337559.2619
1569337559.27752
1569337559.29315
1569337559.30877
1569337559.3244
1569337559.34002
1569337559.35565
1569337559.37128
1569337559.3869
1569337559.40253
1569337559.41815
1569337559.43378
1569337559.4494
1569337559.46503
1569337559.48066
1569337559.49628
1569337559.51191
1569337559.52753
1569337559.54316
1569337559.55878
1569337559.57441
1569337559.59004
1569337559.60566
1569337559.62129
1569337559.63691
1569337559.65254
1569337559.66816
1569337559.68379
1569337559.69942
1569337559.71504
1569337559.73067
1569337559.74629
1569337559.76192
1569337559.77754
1569337559.79317
1569337559.8088
1569337559.82442
1569337559.84005
1569337559.85567
1569337559.8713
1569337559.88692
1569337559.90255
1569337559.91818
1569337559.9338
1569337559.94943
1569337559.96505
1569337559.98068
1569337559.9963
1569337560.01193
1569337560.02756
1569337560.04318
1569337560.05881
1569337560.07443
1569337560.09006
1569337560.10568
1569337560.12131
1569337560.13694
1569337560.15256
1569337560.16819
1569337560.18381
1569337560.19944
1569337560.21507
1569337560.23069
1569337560.24632
1569337560.26194
1569337560.27757
1569337560.29319
1569337560.30882
1569337560.32445
1569337560.34007
1569337560.3557
1569337560.37132
1569337560.38695
1569337560.40257
1569337560.4182
1569337560.43383
1569337560.44945
1569337560.46508
1569337560.4807
1569337560.49633
1569337560.51195
1569337560.52758
1569337560.54321
1569337560.55883
1569337560.57446
1569337560.59008
1569337560.60571
1569337560.62133
1569337560.63696
1569337560.65259
1569337560.66821
1569337560.68384
1569337560.69946
1569337560.71509
1569337560.73071
1569337560.74634
1569337560.76197
1569337560.77759
1569337560.79322
1569337560.80884
1569337560.82447
1569337560.84009
1569337560.85572
1569337560.87135
1569337560.88697
1569337560.9026
1569337560.91822
1569337560.93385
1569337560.94947
1569337560.9651
1569337560.98073
1569337560.99635
1569337561.01198
1569337561.0276
1569337561.04323
1569337561.05885
1569337561.07448
1569337561.09011
1569337561.10573
1569337561.12136
1569337561.13698
1569337561.15261
1569337561.16823
1569337561.18386
1569337561.19949
1569337561.21511
1569337561.23074
1569337561.24636
1569337561.26199
1569337561.27761
1569337561.29324
1569337561.30887
1569337561.32449
1569337561.34012
1569337561.35574
1569337561.37137
1569337561.38699
1569337561.40262
1569337561.41825
1569337561.43387
1569337561.4495
1569337561.46512
1569337561.48075
1569337561.49637
1569337561.512
1569337561.52763
1569337561.54325
1569337561.55888
1569337561.5745
1569337561.59013
1569337561.60575
1569337561.62138
1569337561.63701
1569337561.65263
1569337561.66826
1569337561.68388
1569337561.69951
1569337561.71513
1569337561.73076
1569337561.74639
1569337561.76201
1569337561.77764
1569337561.79326
1569337561.80889
1569337561.82451
1569337561.84014
1569337561.85577
1569337561.87139
1569337561.88702
1569337561.90264
1569337561.91827
1569337561.93389
1569337561.94952
1569337561.96515
1569337561.98077
1569337561.9964
1569337562.01202
1569337562.02765
1569337562.04327
1569337562.0589
1569337562.07453
1569337562.09015
1569337562.10578
1569337562.1214
1569337562.13703
1569337562.15265
1569337562.16828
1569337562.18391
1569337562.19953
1569337562.21516
1569337562.23078
1569337562.24641
1569337562.26203
1569337562.27766
1569337562.29329
1569337562.30891
1569337562.32454
1569337562.34016
1569337562.35579
1569337562.37141
1569337562.38704
1569337562.40267
1569337562.41829
1569337562.43392
1569337562.44954
1569337562.46517
1569337562.48079
1569337562.49642
1569337562.51205
1569337562.52767
1569337562.5433
1569337562.55892
1569337562.57455
1569337562.59017
1569337562.6058
1569337562.62143
1569337562.63705
1569337562.65268
1569337562.6683
1569337562.68393
1569337562.69955
1569337562.71518
1569337562.73081
1569337562.74643
1569337562.76206
1569337562.77768
1569337562.79331
1569337562.80894
1569337562.82456
1569337562.84019
1569337562.85581
1569337562.87144
1569337562.88706
1569337562.90269
1569337562.91832
1569337562.93394
1569337562.94957
1569337562.96519
1569337562.98082
1569337562.99644
1569337563.01207
1569337563.0277
1569337563.04332
1569337563.05895
1569337563.07457
1569337563.0902
1569337563.10582
1569337563.12145
1569337563.13708
1569337563.1527
1569337563.16833
1569337563.18395
1569337563.19958
1569337563.2152
1569337563.23083
1569337563.24646
1569337563.26208
1569337563.27771
1569337563.29333
1569337563.30896
1569337563.32458
1569337563.34021
1569337563.35584
1569337563.37146
1569337563.38709
1569337563.40271
1569337563.41834
1569337563.43396
1569337563.44959
1569337563.46522
1569337563.48084
1569337563.49647
1569337563.51209
1569337563.52772
1569337563.54334
1569337563.55897
1569337563.5746
1569337563.59022
1569337563.60585
1569337563.62147
1569337563.6371
1569337563.65272
1569337563.66835
1569337563.68398
1569337563.6996
1569337563.71523
1569337563.73085
1569337563.74648
1569337563.7621
1569337563.77773
1569337563.79336
1569337563.80898
1569337563.82461
1569337563.84023
1569337563.85586
1569337563.87148
1569337563.88711
1569337563.90274
1569337563.91836
1569337563.93399
1569337563.94961
1569337563.96524
1569337563.98086
1569337563.99649
1569337564.01212
1569337564.02774
1569337564.04337
1569337564.05899
1569337564.07462
1569337564.09024
1569337564.10587
1569337564.1215
1569337564.13712
1569337564.15275
1569337564.16837
1569337564.184
1569337564.19962
1569337564.21525
1569337564.23088
1569337564.2465
1569337564.26213
1569337564.27775
1569337564.29338
1569337564.309
1569337564.32463
1569337564.34026
1569337564.35588
1569337564.37151
1569337564.38713
1569337564.40276
1569337564.41838
1569337564.43401
1569337564.44964
1569337564.46526
1569337564.48089
1569337564.49651
1569337564.51214
1569337564.52776
1569337564.54339
1569337564.55902
1569337564.57464
1569337564.59027
1569337564.60589
1569337564.62152
1569337564.63714
1569337564.65277
1569337564.6684
1569337564.68402
1569337564.69965
1569337564.71527
1569337564.7309
1569337564.74652
1569337564.76215
1569337564.77778
1569337564.7934
1569337564.80903
1569337564.82465
1569337564.84028
1569337564.8559
1569337564.87153
1569337564.88716
1569337564.90278
1569337564.91841
1569337564.93403
1569337564.94966
1569337564.96528
1569337564.98091
1569337564.99654
1569337565.01216
1569337565.02779
1569337565.04341
1569337565.05904
1569337565.07467
1569337565.09029
1569337565.10592
1569337565.12154
1569337565.13717
1569337565.15279
1569337565.16842
1569337565.18405
1569337565.19967
1569337565.2153
1569337565.23092
1569337565.24655
1569337565.26217
1569337565.2778
1569337565.29343
1569337565.30905
1569337565.32468
1569337565.3403
1569337565.35593
1569337565.37155
1569337565.38718
1569337565.40281
1569337565.41843
1569337565.43406
1569337565.44968
1569337565.46531
1569337565.48093
1569337565.49656
1569337565.51219
1569337565.52781
1569337565.54344
1569337565.55906
1569337565.57469
1569337565.59031
1569337565.60594
1569337565.62157
1569337565.63719
1569337565.65282
1569337565.66844
1569337565.68407
1569337565.69969
1569337565.71532
1569337565.73095
1569337565.74657
1569337565.7622
1569337565.77782
1569337565.79345
1569337565.80907
1569337565.8247
1569337565.84033
1569337565.85595
1569337565.87158
1569337565.8872
1569337565.90283
1569337565.91845
1569337565.93408
1569337565.94971
1569337565.96533
1569337565.98096
1569337565.99658
1569337566.01221
1569337566.02783
1569337566.04346
1569337566.05909
1569337566.07471
1569337566.09034
1569337566.10596
1569337566.12159
1569337566.13721
1569337566.15284
1569337566.16847
1569337566.18409
1569337566.19972
1569337566.21534
1569337566.23097
1569337566.24659
1569337566.26222
1569337566.27785
1569337566.29347
1569337566.3091
1569337566.32472
1569337566.34035
1569337566.35597
1569337566.3716
1569337566.38723
1569337566.40285
1569337566.41848
1569337566.4341
1569337566.44973
1569337566.46535
1569337566.48098
1569337566.49661
1569337566.51223
1569337566.52786
1569337566.54348
1569337566.55911
1569337566.57473
1569337566.59036
1569337566.60599
1569337566.62161
1569337566.63724
1569337566.65286
1569337566.66849
1569337566.68411
1569337566.69974
1569337566.71537
1569337566.73099
1569337566.74662
1569337566.76224
1569337566.77787
1569337566.79349
1569337566.80912
1569337566.82475
1569337566.84037
1569337566.856
1569337566.87162
1569337566.88725
1569337566.90287
1569337566.9185
1569337566.93413
1569337566.94975
1569337566.96538
1569337566.981
1569337566.99663
1569337567.01225
1569337567.02788
1569337567.04351
1569337567.05913
1569337567.07476
1569337567.09038
1569337567.10601
1569337567.12163
1569337567.13726
1569337567.15289
1569337567.16851
1569337567.18414
1569337567.19976
1569337567.21539
1569337567.23101
1569337567.24664
1569337567.26227
1569337567.27789
1569337567.29352
1569337567.30914
1569337567.32477
1569337567.34039
1569337567.35602
1569337567.37165
1569337567.38727
1569337567.4029
1569337567.41852
1569337567.43415
1569337567.44977
1569337567.4654
1569337567.48103
1569337567.49665
1569337567.51228
1569337567.5279
1569337567.54353
1569337567.55915
1569337567.57478
1569337567.59041
1569337567.60603
1569337567.62166
1569337567.63728
1569337567.65291
1569337567.66854
1569337567.68416
1569337567.69979
1569337567.71541
1569337567.73104
1569337567.74666
1569337567.76229
1569337567.77792
1569337567.79354
1569337567.80917
1569337567.82479
1569337567.84042
1569337567.85604
1569337567.87167
1569337567.8873
1569337567.90292
1569337567.91855
1569337567.93417
1569337567.9498
1569337567.96542
1569337567.98105
1569337567.99668
1569337568.0123
1569337568.02793
1569337568.04355
1569337568.05918
1569337568.0748
1569337568.09043
1569337568.10606
1569337568.12168
1569337568.13731
1569337568.15293
1569337568.16856
1569337568.18418
1569337568.19981
1569337568.21544
1569337568.23106
1569337568.24669
1569337568.26231
1569337568.27794
1569337568.29356
1569337568.30919
1569337568.32482
1569337568.34044
1569337568.35607
1569337568.37169
1569337568.38732
1569337568.40294
1569337568.41857
1569337568.4342
1569337568.44982
1569337568.46545
1569337568.48107
1569337568.4967
1569337568.51232
1569337568.52795
1569337568.54358
1569337568.5592
1569337568.57483
1569337568.59045
1569337568.60608
1569337568.6217
1569337568.63733
1569337568.65296
1569337568.66858
1569337568.68421
1569337568.69983
1569337568.71546
1569337568.73108
1569337568.74671
1569337568.76234
1569337568.77796
1569337568.79359
1569337568.80921
1569337568.82484
1569337568.84046
1569337568.85609
1569337568.87172
1569337568.88734
1569337568.90297
1569337568.91859
1569337568.93422
1569337568.94984
1569337568.96547
1569337568.9811
1569337568.99672
1569337569.01235
1569337569.02797
1569337569.0436
1569337569.05922
1569337569.07485
1569337569.09048
1569337569.1061
1569337569.12173
1569337569.13735
1569337569.15298
1569337569.1686
1569337569.18423
1569337569.19986
1569337569.21548
1569337569.23111
1569337569.24673
1569337569.26236
1569337569.27798
1569337569.29361
1569337569.30924
1569337569.32486
1569337569.34049
1569337569.35611
1569337569.37174
1569337569.38736
1569337569.40299
1569337569.41862
1569337569.43424
1569337569.44987
1569337569.46549
1569337569.48112
1569337569.49674
1569337569.51237
1569337569.528
1569337569.54362
1569337569.55925
1569337569.57487
1569337569.5905
1569337569.60612
1569337569.62175
1569337569.63738
1569337569.653
1569337569.66863
1569337569.68425
1569337569.69988
1569337569.7155
1569337569.73113
1569337569.74676
1569337569.76238
1569337569.77801
1569337569.79363
1569337569.80926
1569337569.82488
1569337569.84051
1569337569.85614
1569337569.87176
1569337569.88739
1569337569.90301
1569337569.91864
1569337569.93427
1569337569.94989
1569337569.96552
1569337569.98114
1569337569.99677
1569337570.01239
1569337570.02802
1569337570.04365
1569337570.05927
1569337570.0749
1569337570.09052
1569337570.10615
1569337570.12177
1569337570.1374
1569337570.15303
1569337570.16865
1569337570.18428
1569337570.1999
1569337570.21553
1569337570.23115
1569337570.24678
1569337570.26241
1569337570.27803
1569337570.29366
1569337570.30928
1569337570.32491
1569337570.34053
1569337570.35616
1569337570.37179
1569337570.38741
1569337570.40304
1569337570.41866
1569337570.43429
1569337570.44991
1569337570.46554
1569337570.48117
1569337570.49679
1569337570.51242
1569337570.52804
1569337570.54367
1569337570.55929
1569337570.57492
1569337570.59055
1569337570.60617
1569337570.6218
1569337570.63742
1569337570.65305
1569337570.66867
1569337570.6843
1569337570.69993
1569337570.71555
1569337570.73118
1569337570.7468
1569337570.76243
1569337570.77805
1569337570.79368
1569337570.80931
1569337570.82493
1569337570.84056
1569337570.85618
1569337570.87181
1569337570.88743
1569337570.90306
1569337570.91869
1569337570.93431
1569337570.94994
1569337570.96556
1569337570.98119
1569337570.99681
1569337571.01244
1569337571.02807
1569337571.04369
1569337571.05932
1569337571.07494
1569337571.09057
1569337571.10619
1569337571.12182
1569337571.13745
1569337571.15307
1569337571.1687
1569337571.18432
1569337571.19995
1569337571.21557
1569337571.2312
1569337571.24683
1569337571.26245
1569337571.27808
1569337571.2937
1569337571.30933
1569337571.32495
1569337571.34058
1569337571.35621
1569337571.37183
1569337571.38746
1569337571.40308
1569337571.41871
1569337571.43433
1569337571.44996
1569337571.46559
1569337571.48121
1569337571.49684
1569337571.51246
1569337571.52809
1569337571.54371
1569337571.55934
1569337571.57497
1569337571.59059
1569337571.60622
1569337571.62184
1569337571.63747
1569337571.65309
1569337571.66872
1569337571.68435
1569337571.69997
1569337571.7156
1569337571.73122
1569337571.74685
1569337571.76247
1569337571.7781
1569337571.79373
1569337571.80935
1569337571.82498
1569337571.8406
1569337571.85623
1569337571.87185
1569337571.88748
1569337571.90311
1569337571.91873
1569337571.93436
1569337571.94998
1569337571.96561
1569337571.98123
1569337571.99686
1569337572.01249
1569337572.02811
1569337572.04374
1569337572.05936
1569337572.07499
1569337572.09062
1569337572.10624
1569337572.12187
1569337572.13749
1569337572.15312
1569337572.16874
1569337572.18437
1569337572.2
1569337572.21562
1569337572.23125
1569337572.24687
1569337572.2625
1569337572.27812
1569337572.29375
1569337572.30938
1569337572.325
1569337572.34063
1569337572.35625
1569337572.37188
1569337572.3875
1569337572.40313
1569337572.41876
1569337572.43438
1569337572.45001
1569337572.46563
1569337572.48126
1569337572.49688
1569337572.51251
1569337572.52814
1569337572.54376
1569337572.55939
1569337572.57501
1569337572.59064
1569337572.60626
1569337572.62189
1569337572.63752
1569337572.65314
1569337572.66877
1569337572.68439
1569337572.70002
1569337572.71564
1569337572.73127
1569337572.7469
1569337572.76252
1569337572.77815
1569337572.79377
1569337572.8094
1569337572.82502
1569337572.84065
1569337572.85628
1569337572.8719
1569337572.88753
1569337572.90315
1569337572.91878
1569337572.9344
1569337572.95003
1569337572.96566
1569337572.98128
1569337572.99691
1569337573.01253
1569337573.02816
1569337573.04378
1569337573.05941
1569337573.07504
1569337573.09066
1569337573.10629
1569337573.12191
1569337573.13754
1569337573.15316
1569337573.16879
1569337573.18442
1569337573.20004
1569337573.21567
1569337573.23129
1569337573.24692
1569337573.26254
1569337573.27817
1569337573.2938
1569337573.30942
1569337573.32505
1569337573.34067
1569337573.3563
1569337573.37192
1569337573.38755
1569337573.40318
1569337573.4188
1569337573.43443
1569337573.45005
1569337573.46568
1569337573.4813
1569337573.49693
1569337573.51256
1569337573.52818
1569337573.54381
1569337573.55943
1569337573.57506
1569337573.59068
1569337573.60631
1569337573.62194
1569337573.63756
1569337573.65319
1569337573.66881
1569337573.68444
1569337573.70006
1569337573.71569
1569337573.73132
1569337573.74694
1569337573.76257
1569337573.77819
1569337573.79382
1569337573.80944
1569337573.82507
1569337573.8407
1569337573.85632
1569337573.87195
1569337573.88757
1569337573.9032
1569337573.91882
1569337573.93445
1569337573.95008
1569337573.9657
1569337573.98133
1569337573.99695
1569337574.01258
1569337574.0282
1569337574.04383
1569337574.05946
1569337574.07508
1569337574.09071
1569337574.10633
1569337574.12196
1569337574.13758
1569337574.15321
1569337574.16884
1569337574.18446
1569337574.20009
1569337574.21571
1569337574.23134
1569337574.24696
1569337574.26259
1569337574.27822
1569337574.29384
1569337574.30947
1569337574.32509
1569337574.34072
1569337574.35634
1569337574.37197
1569337574.3876
1569337574.40322
1569337574.41885
1569337574.43447
1569337574.4501
1569337574.46572
1569337574.48135
1569337574.49698
1569337574.5126
1569337574.52823
1569337574.54385
1569337574.55948
1569337574.5751
1569337574.59073
1569337574.60636
1569337574.62198
1569337574.63761
1569337574.65323
1569337574.66886
1569337574.68448
1569337574.70011
1569337574.71574
1569337574.73136
1569337574.74699
1569337574.76261
1569337574.77824
1569337574.79387
1569337574.80949
1569337574.82512
1569337574.84074
1569337574.85637
1569337574.87199
1569337574.88762
1569337574.90325
1569337574.91887
1569337574.9345
1569337574.95012
1569337574.96575
1569337574.98137
1569337574.997
1569337575.01263
1569337575.02825
1569337575.04388
1569337575.0595
1569337575.07513
1569337575.09075
1569337575.10638
1569337575.12201
1569337575.13763
1569337575.15326
1569337575.16888
1569337575.18451
1569337575.20013
1569337575.21576
1569337575.23139
1569337575.24701
1569337575.26264
1569337575.27826
1569337575.29389
1569337575.30951
1569337575.32514
1569337575.34077
1569337575.35639
1569337575.37202
1569337575.38764
1569337575.40327
1569337575.41889
1569337575.43452
1569337575.45015
1569337575.46577
1569337575.4814
1569337575.49702
1569337575.51265
1569337575.52827
1569337575.5439
1569337575.55953
1569337575.57515
1569337575.59078
1569337575.6064
1569337575.62203
1569337575.63765
1569337575.65328
1569337575.66891
1569337575.68453
1569337575.70016
1569337575.71578
1569337575.73141
1569337575.74703
1569337575.76266
1569337575.77829
1569337575.79391
1569337575.80954
1569337575.82516
1569337575.84079
1569337575.85641
1569337575.87204
1569337575.88767
1569337575.90329
1569337575.91892
1569337575.93454
1569337575.95017
1569337575.96579
1569337575.98142
1569337575.99705
1569337576.01267
1569337576.0283
1569337576.04392
1569337576.05955
1569337576.07517
1569337576.0908
1569337576.10643
1569337576.12205
1569337576.13768
1569337576.1533
1569337576.16893
1569337576.18455
1569337576.20018
1569337576.21581
1569337576.23143
1569337576.24706
1569337576.26268
1569337576.27831
1569337576.29393
1569337576.30956
1569337576.32519
1569337576.34081
1569337576.35644
1569337576.37206
1569337576.38769
1569337576.40331
1569337576.41894
1569337576.43457
1569337576.45019
1569337576.46582
1569337576.48144
1569337576.49707
1569337576.51269
1569337576.52832
1569337576.54395
1569337576.55957
1569337576.5752
1569337576.59082
1569337576.60645
1569337576.62207
1569337576.6377
1569337576.65333
1569337576.66895
1569337576.68458
1569337576.7002
1569337576.71583
1569337576.73145
1569337576.74708
1569337576.76271
1569337576.77833
1569337576.79396
1569337576.80958
1569337576.82521
1569337576.84083
1569337576.85646
1569337576.87209
1569337576.88771
1569337576.90334
1569337576.91896
1569337576.93459
1569337576.95021
1569337576.96584
1569337576.98147
1569337576.99709
1569337577.01272
1569337577.02834
1569337577.04397
1569337577.0596
1569337577.07522
1569337577.09085
1569337577.10647
1569337577.1221
1569337577.13772
1569337577.15335
1569337577.16898
1569337577.1846
1569337577.20023
1569337577.21585
1569337577.23148
1569337577.2471
1569337577.26273
1569337577.27836
1569337577.29398
1569337577.30961
1569337577.32523
1569337577.34086
1569337577.35648
1569337577.37211
1569337577.38774
1569337577.40336
1569337577.41899
1569337577.43461
1569337577.45024
1569337577.46586
1569337577.48149
1569337577.49712
1569337577.51274
1569337577.52837
1569337577.54399
1569337577.55962
1569337577.57524
1569337577.59087
1569337577.6065
1569337577.62212
1569337577.63775
1569337577.65337
1569337577.669
1569337577.68462
1569337577.70025
1569337577.71588
1569337577.7315
1569337577.74713
1569337577.76275
1569337577.77838
1569337577.794
1569337577.80963
1569337577.82526
1569337577.84088
1569337577.85651
1569337577.87213
1569337577.88776
1569337577.90338
1569337577.91901
1569337577.93464
1569337577.95026
1569337577.96589
1569337577.98151
1569337577.99714
1569337578.01276
1569337578.02839
1569337578.04402
1569337578.05964
1569337578.07527
1569337578.09089
1569337578.10652
1569337578.12214
1569337578.13777
1569337578.1534
1569337578.16902
1569337578.18465
1569337578.20027
1569337578.2159
1569337578.23152
1569337578.24715
1569337578.26278
1569337578.2784
1569337578.29403
1569337578.30965
1569337578.32528
1569337578.3409
1569337578.35653
1569337578.37216
1569337578.38778
1569337578.40341
1569337578.41903
1569337578.43466
1569337578.45028
1569337578.46591
1569337578.48154
1569337578.49716
1569337578.51279
1569337578.52841
1569337578.54404
1569337578.55966
1569337578.57529
1569337578.59092
1569337578.60654
1569337578.62217
1569337578.63779
1569337578.65342
1569337578.66904
1569337578.68467
1569337578.7003
1569337578.71592
1569337578.73155
1569337578.74717
1569337578.7628
1569337578.77842
1569337578.79405
1569337578.80968
1569337578.8253
1569337578.84093
1569337578.85655
1569337578.87218
1569337578.8878
1569337578.90343
1569337578.91906
1569337578.93468
1569337578.95031
1569337578.96593
1569337578.98156
1569337578.99718
1569337579.01281
1569337579.02844
1569337579.04406
1569337579.05969
1569337579.07531
1569337579.09094
1569337579.10656
1569337579.12219
1569337579.13782
1569337579.15344
1569337579.16907
1569337579.18469
1569337579.20032
1569337579.21595
1569337579.23157
1569337579.2472
1569337579.26282
1569337579.27845
1569337579.29407
1569337579.3097
1569337579.32533
1569337579.34095
1569337579.35658
1569337579.3722
1569337579.38783
1569337579.40345
1569337579.41908
1569337579.43471
1569337579.45033
1569337579.46596
1569337579.48158
1569337579.49721
1569337579.51283
1569337579.52846
1569337579.54409
1569337579.55971
1569337579.57534
1569337579.59096
1569337579.60659
1569337579.62221
1569337579.63784
1569337579.65347
1569337579.66909
1569337579.68472
1569337579.70034
1569337579.71597
1569337579.73159
1569337579.74722
1569337579.76285
1569337579.77847
1569337579.7941
1569337579.80972
1569337579.82535
1569337579.84097
1569337579.8566
1569337579.87223
1569337579.88785
1569337579.90348
1569337579.9191
1569337579.93473
1569337579.95035
1569337579.96598
1569337579.98161
1569337579.99723
1569337580.01286
1569337580.02848
1569337580.04411
1569337580.05973
1569337580.07536
1569337580.09099
1569337580.10661
1569337580.12224
1569337580.13786
1569337580.15349
1569337580.16911
1569337580.18474
1569337580.20037
1569337580.21599
1569337580.23162
1569337580.24724
1569337580.26287
1569337580.27849
1569337580.29412
1569337580.30975
1569337580.32537
1569337580.341
1569337580.35662
1569337580.37225
1569337580.38787
1569337580.4035
1569337580.41913
1569337580.43475
1569337580.45038
1569337580.466
1569337580.48163
1569337580.49725
1569337580.51288
1569337580.52851
1569337580.54413
1569337580.55976
1569337580.57538
1569337580.59101
1569337580.60663
1569337580.62226
1569337580.63789
1569337580.65351
1569337580.66914
1569337580.68476
1569337580.70039
1569337580.71601
1569337580.73164
1569337580.74727
1569337580.76289
1569337580.77852
1569337580.79414
1569337580.80977
1569337580.82539
1569337580.84102
1569337580.85665
1569337580.87227
1569337580.8879
1569337580.90352
1569337580.91915
1569337580.93477
1569337580.9504
1569337580.96603
1569337580.98165
1569337580.99728
1569337581.0129
1569337581.02853
1569337581.04415
1569337581.05978
1569337581.07541
1569337581.09103
1569337581.10666
1569337581.12228
1569337581.13791
1569337581.15353
1569337581.16916
1569337581.18479
1569337581.20041
1569337581.21604
1569337581.23166
1569337581.24729
1569337581.26291
1569337581.27854
1569337581.29417
1569337581.30979
1569337581.32542
1569337581.34104
1569337581.35667
1569337581.37229
1569337581.38792
1569337581.40355
1569337581.41917
1569337581.4348
1569337581.45042
1569337581.46605
1569337581.48167
1569337581.4973
1569337581.51293
1569337581.52855
1569337581.54418
1569337581.5598
1569337581.57543
1569337581.59105
1569337581.60668
1569337581.62231
1569337581.63793
1569337581.65356
1569337581.66918
1569337581.68481
1569337581.70043
1569337581.71606
1569337581.73169
1569337581.74731
1569337581.76294
1569337581.77856
1569337581.79419
1569337581.80981
1569337581.82544
1569337581.84107
1569337581.85669
1569337581.87232
1569337581.88794
1569337581.90357
1569337581.9192
1569337581.93482
1569337581.95045
1569337581.96607
1569337581.9817
1569337581.99732
1569337582.01295
1569337582.02858
1569337582.0442
1569337582.05983
1569337582.07545
1569337582.09108
1569337582.1067
1569337582.12233
1569337582.13796
1569337582.15358
1569337582.16921
1569337582.18483
1569337582.20046
1569337582.21608
1569337582.23171
1569337582.24734
1569337582.26296
1569337582.27859
1569337582.29421
1569337582.30984
1569337582.32546
1569337582.34109
1569337582.35672
1569337582.37234
1569337582.38797
1569337582.40359
1569337582.41922
1569337582.43484
1569337582.45047
1569337582.4661
1569337582.48172
1569337582.49735
1569337582.51297
1569337582.5286
1569337582.54422
1569337582.55985
1569337582.57548
1569337582.5911
1569337582.60673
1569337582.62235
1569337582.63798
1569337582.6536
1569337582.66923
1569337582.68486
1569337582.70048
1569337582.71611
1569337582.73173
1569337582.74736
1569337582.76298
1569337582.77861
1569337582.79424
1569337582.80986
1569337582.82549
1569337582.84111
1569337582.85674
1569337582.87236
1569337582.88799
1569337582.90362
1569337582.91924
1569337582.93487
1569337582.95049
1569337582.96612
1569337582.98174
1569337582.99737
1569337583.013
1569337583.02862
1569337583.04425
1569337583.05987
1569337583.0755
1569337583.09112
1569337583.10675
1569337583.12238
1569337583.138
1569337583.15363
1569337583.16925
1569337583.18488
1569337583.2005
1569337583.21613
1569337583.23176
1569337583.24738
1569337583.26301
1569337583.27863
1569337583.29426
1569337583.30988
1569337583.32551
1569337583.34114
1569337583.35676
1569337583.37239
1569337583.38801
1569337583.40364
1569337583.41926
1569337583.43489
1569337583.45052
1569337583.46614
1569337583.48177
1569337583.49739
1569337583.51302
1569337583.52864
1569337583.54427
1569337583.5599
1569337583.57552
1569337583.59115
1569337583.60677
1569337583.6224
1569337583.63802
1569337583.65365
1569337583.66928
1569337583.6849
1569337583.70053
1569337583.71615
1569337583.73178
1569337583.7474
1569337583.76303
1569337583.77866
1569337583.79428
1569337583.80991
1569337583.82553
1569337583.84116
1569337583.85678
1569337583.87241
1569337583.88804
1569337583.90366
1569337583.91929
1569337583.93491
1569337583.95054
1569337583.96616
1569337583.98179
1569337583.99742
1569337584.01304
1569337584.02867
1569337584.04429
1569337584.05992
1569337584.07555
1569337584.09117
1569337584.1068
1569337584.12242
1569337584.13805
1569337584.15367
1569337584.1693
1569337584.18493
1569337584.20055
1569337584.21618
1569337584.2318
1569337584.24743
1569337584.26305
1569337584.27868
1569337584.29431
1569337584.30993
1569337584.32556
1569337584.34118
1569337584.35681
1569337584.37243
1569337584.38806
1569337584.40369
1569337584.41931
1569337584.43494
1569337584.45056
1569337584.46619
1569337584.48181
1569337584.49744
1569337584.51307
1569337584.52869
1569337584.54432
1569337584.55994
1569337584.57557
1569337584.59119
1569337584.60682
1569337584.62245
1569337584.63807
1569337584.6537
1569337584.66932
1569337584.68495
1569337584.70057
1569337584.7162
1569337584.73183
1569337584.74745
1569337584.76308
1569337584.7787
1569337584.79433
1569337584.80995
1569337584.82558
1569337584.84121
1569337584.85683
1569337584.87246
1569337584.88808
1569337584.90371
1569337584.91933
1569337584.93496
1569337584.95059
1569337584.96621
1569337584.98184
1569337584.99746
1569337585.01309
1569337585.02871
1569337585.04434
1569337585.05997
1569337585.07559
1569337585.09122
1569337585.10684
1569337585.12247
1569337585.13809
1569337585.15372
1569337585.16935
1569337585.18497
1569337585.2006
1569337585.21622
1569337585.23185
1569337585.24747
1569337585.2631
1569337585.27873
1569337585.29435
1569337585.30998
1569337585.3256
1569337585.34123
1569337585.35685
1569337585.37248
1569337585.38811
1569337585.40373
1569337585.41936
1569337585.43498
1569337585.45061
1569337585.46623
1569337585.48186
1569337585.49749
1569337585.51311
1569337585.52874
1569337585.54436
1569337585.55999
1569337585.57561
1569337585.59124
1569337585.60687
1569337585.62249
1569337585.63812
1569337585.65374
1569337585.66937
1569337585.68499
1569337585.70062
1569337585.71625
1569337585.73187
1569337585.7475
1569337585.76312
1569337585.77875
1569337585.79437
1569337585.81
1569337585.82563
1569337585.84125
1569337585.85688
1569337585.8725
1569337585.88813
1569337585.90375
1569337585.91938
1569337585.93501
1569337585.95063
1569337585.96626
1569337585.98188
1569337585.99751
1569337586.01313
1569337586.02876
1569337586.04439
1569337586.06001
1569337586.07564
1569337586.09126
1569337586.10689
1569337586.12251
1569337586.13814
1569337586.15377
1569337586.16939
1569337586.18502
1569337586.20064
1569337586.21627
1569337586.23189
1569337586.24752
1569337586.26315
1569337586.27877
1569337586.2944
1569337586.31002
1569337586.32565
1569337586.34127
1569337586.3569
1569337586.37253
1569337586.38815
1569337586.40378
1569337586.4194
1569337586.43503
1569337586.45065
1569337586.46628
1569337586.48191
1569337586.49753
1569337586.51316
1569337586.52878
1569337586.54441
1569337586.56003
1569337586.57566
1569337586.59129
1569337586.60691
1569337586.62254
1569337586.63816
1569337586.65379
1569337586.66942
1569337586.68504
1569337586.70067
1569337586.71629
1569337586.73192
1569337586.74754
1569337586.76317
1569337586.7788
1569337586.79442
1569337586.81005
1569337586.82567
1569337586.8413
1569337586.85692
1569337586.87255
1569337586.88818
1569337586.9038
1569337586.91943
1569337586.93505
1569337586.95068
1569337586.9663
1569337586.98193
1569337586.99756
1569337587.01318
1569337587.02881
1569337587.04443
1569337587.06006
1569337587.07568
1569337587.09131
1569337587.10694
1569337587.12256
1569337587.13819
1569337587.15381
1569337587.16944
1569337587.18506
1569337587.20069
1569337587.21632
1569337587.23194
1569337587.24757
1569337587.26319
1569337587.27882
1569337587.29444
1569337587.31007
1569337587.3257
1569337587.34132
1569337587.35695
1569337587.37257
1569337587.3882
1569337587.40382
1569337587.41945
1569337587.43508
1569337587.4507
1569337587.46633
1569337587.48195
1569337587.49758
1569337587.5132
1569337587.52883
1569337587.54446
1569337587.56008
1569337587.57571
1569337587.59133
1569337587.60696
1569337587.62258
1569337587.63821
1569337587.65384
1569337587.66946
1569337587.68509
1569337587.70071
1569337587.71634
1569337587.73196
1569337587.74759
1569337587.76322
1569337587.77884
1569337587.79447
1569337587.81009
1569337587.82572
1569337587.84134
1569337587.85697
1569337587.8726
1569337587.88822
1569337587.90385
1569337587.91947
1569337587.9351
1569337587.95072
1569337587.96635
1569337587.98198
1569337587.9976
1569337588.01323
1569337588.02885
1569337588.04448
1569337588.0601
1569337588.07573
1569337588.09136
1569337588.10698
1569337588.12261
1569337588.13823
1569337588.15386
1569337588.16948
1569337588.18511
1569337588.20074
1569337588.21636
1569337588.23199
1569337588.24761
1569337588.26324
1569337588.27886
1569337588.29449
1569337588.31012
1569337588.32574
1569337588.34137
1569337588.35699
1569337588.37262
1569337588.38824
1569337588.40387
1569337588.4195
1569337588.43512
1569337588.45075
1569337588.46637
1569337588.482
1569337588.49762
1569337588.51325
1569337588.52888
1569337588.5445
1569337588.56013
1569337588.57575
1569337588.59138
1569337588.607
1569337588.62263
1569337588.63826
1569337588.65388
1569337588.66951
1569337588.68513
1569337588.70076
1569337588.71638
1569337588.73201
1569337588.74764
1569337588.76326
1569337588.77889
1569337588.79451
1569337588.81014
1569337588.82576
1569337588.84139
1569337588.85702
1569337588.87264
1569337588.88827
1569337588.90389
1569337588.91952
1569337588.93515
1569337588.95077
1569337588.9664
1569337588.98202
1569337588.99765
1569337589.01327
1569337589.0289
1569337589.04453
1569337589.06015
1569337589.07578
1569337589.0914
1569337589.10703
1569337589.12265
1569337589.13828
1569337589.15391
1569337589.16953
1569337589.18516
1569337589.20078
1569337589.21641
1569337589.23203
1569337589.24766
1569337589.26329
1569337589.27891
1569337589.29454
1569337589.31016
1569337589.32579
1569337589.34141
1569337589.35704
1569337589.37267
1569337589.38829
1569337589.40392
1569337589.41954
1569337589.43517
1569337589.45079
1569337589.46642
1569337589.48205
1569337589.49767
1569337589.5133
1569337589.52892
1569337589.54455
1569337589.56017
1569337589.5758
1569337589.59143
1569337589.60705
1569337589.62268
1569337589.6383
1569337589.65393
1569337589.66955
1569337589.68518
1569337589.70081
1569337589.71643
1569337589.73206
1569337589.74768
1569337589.76331
1569337589.77893
1569337589.79456
1569337589.81019
1569337589.82581
1569337589.84144
1569337589.85706
1569337589.87269
1569337589.88831
1569337589.90394
1569337589.91957
1569337589.93519
1569337589.95082
1569337589.96644
1569337589.98207
1569337589.99769
1569337590.01332
1569337590.02895
1569337590.04457
1569337590.0602
1569337590.07582
1569337590.09145
1569337590.10707
1569337590.1227
1569337590.13833
1569337590.15395
1569337590.16958
1569337590.1852
1569337590.20083
1569337590.21645
1569337590.23208
1569337590.24771
1569337590.26333
1569337590.27896
1569337590.29458
1569337590.31021
1569337590.32583
1569337590.34146
1569337590.35709
1569337590.37271
1569337590.38834
1569337590.40396
1569337590.41959
1569337590.43521
1569337590.45084
1569337590.46647
1569337590.48209
1569337590.49772
1569337590.51334
1569337590.52897
1569337590.54459
1569337590.56022
1569337590.57585
1569337590.59147
1569337590.6071
1569337590.62272
1569337590.63835
1569337590.65397
1569337590.6696
1569337590.68523
1569337590.70085
1569337590.71648
1569337590.7321
1569337590.74773
1569337590.76335
1569337590.77898
1569337590.79461
1569337590.81023
1569337590.82586
1569337590.84148
1569337590.85711
1569337590.87273
1569337590.88836
1569337590.90399
1569337590.91961
1569337590.93524
1569337590.95086
1569337590.96649
1569337590.98211
1569337590.99774
1569337591.01337
1569337591.02899
1569337591.04462
1569337591.06024
1569337591.07587
1569337591.09149
1569337591.10712
1569337591.12275
1569337591.13837
1569337591.154
1569337591.16962
1569337591.18525
1569337591.20088
1569337591.2165
1569337591.23213
1569337591.24775
1569337591.26338
1569337591.279
1569337591.29463
1569337591.31026
1569337591.32588
1569337591.34151
1569337591.35713
1569337591.37276
1569337591.38838
1569337591.40401
1569337591.41964
1569337591.43526
1569337591.45089
1569337591.46651
1569337591.48214
1569337591.49776
1569337591.51339
1569337591.52902
1569337591.54464
1569337591.56027
1569337591.57589
1569337591.59152
1569337591.60714
1569337591.62277
1569337591.6384
1569337591.65402
1569337591.66965
1569337591.68527
1569337591.7009
1569337591.71652
1569337591.73215
1569337591.74778
1569337591.7634
1569337591.77903
1569337591.79465
1569337591.81028
1569337591.8259
1569337591.84153
1569337591.85716
1569337591.87278
1569337591.88841
1569337591.90403
1569337591.91966
1569337591.93528
1569337591.95091
1569337591.96654
1569337591.98216
1569337591.99779
1569337592.01341
1569337592.02904
1569337592.04466
1569337592.06029
1569337592.07592
1569337592.09154
1569337592.10717
1569337592.12279
1569337592.13842
1569337592.15404
1569337592.16967
1569337592.1853
1569337592.20092
1569337592.21655
1569337592.23217
1569337592.2478
1569337592.26342
1569337592.27905
1569337592.29468
1569337592.3103
1569337592.32593
1569337592.34155
1569337592.35718
1569337592.3728
1569337592.38843
1569337592.40406
1569337592.41968
1569337592.43531
1569337592.45093
1569337592.46656
1569337592.48218
1569337592.49781
1569337592.51344
1569337592.52906
1569337592.54469
1569337592.56031
1569337592.57594
1569337592.59156
1569337592.60719
1569337592.62282
1569337592.63844
1569337592.65407
1569337592.66969
1569337592.68532
1569337592.70094
1569337592.71657
1569337592.7322
1569337592.74782
1569337592.76345
1569337592.77907
1569337592.7947
1569337592.81032
1569337592.82595
1569337592.84158
1569337592.8572
1569337592.87283
1569337592.88845
1569337592.90408
1569337592.9197
1569337592.93533
1569337592.95096
1569337592.96658
1569337592.98221
1569337592.99783
1569337593.01346
1569337593.02908
1569337593.04471
1569337593.06034
1569337593.07596
1569337593.09159
1569337593.10721
1569337593.12284
1569337593.13846
1569337593.15409
1569337593.16972
1569337593.18534
1569337593.20097
1569337593.21659
1569337593.23222
1569337593.24784
1569337593.26347
1569337593.2791
1569337593.29472
1569337593.31035
1569337593.32597
1569337593.3416
1569337593.35722
1569337593.37285
1569337593.38848
1569337593.4041
1569337593.41973
1569337593.43535
1569337593.45098
1569337593.4666
1569337593.48223
1569337593.49786
1569337593.51348
1569337593.52911
1569337593.54473
1569337593.56036
1569337593.57598
1569337593.59161
1569337593.60724
1569337593.62286
1569337593.63849
1569337593.65411
1569337593.66974
1569337593.68536
1569337593.70099
1569337593.71662
1569337593.73224
1569337593.74787
1569337593.76349
1569337593.77912
1569337593.79475
1569337593.81037
1569337593.826
1569337593.84162
1569337593.85725
1569337593.87287
1569337593.8885
1569337593.90413
1569337593.91975
1569337593.93538
1569337593.951
1569337593.96663
1569337593.98225
1569337593.99788
1569337594.01351
1569337594.02913
1569337594.04476
1569337594.06038
1569337594.07601
1569337594.09163
1569337594.10726
1569337594.12289
1569337594.13851
1569337594.15414
1569337594.16976
1569337594.18539
1569337594.20101
1569337594.21664
1569337594.23227
1569337594.24789
1569337594.26352
1569337594.27914
1569337594.29477
1569337594.31039
1569337594.32602
1569337594.34165
1569337594.35727
1569337594.3729
1569337594.38852
1569337594.40415
1569337594.41977
1569337594.4354
1569337594.45103
1569337594.46665
1569337594.48228
1569337594.4979
1569337594.51353
1569337594.52915
1569337594.54478
1569337594.56041
1569337594.57603
1569337594.59166
1569337594.60728
1569337594.62291
1569337594.63853
1569337594.65416
1569337594.66979
1569337594.68541
1569337594.70104
1569337594.71666
1569337594.73229
1569337594.74791
1569337594.76354
1569337594.77917
1569337594.79479
1569337594.81042
1569337594.82604
1569337594.84167
1569337594.85729
1569337594.87292
1569337594.88855
1569337594.90417
1569337594.9198
1569337594.93542
1569337594.95105
1569337594.96667
1569337594.9823
1569337594.99793
1569337595.01355
1569337595.02918
1569337595.0448
1569337595.06043
1569337595.07605
1569337595.09168
1569337595.10731
1569337595.12293
1569337595.13856
1569337595.15418
1569337595.16981
1569337595.18543
1569337595.20106
1569337595.21669
1569337595.23231
1569337595.24794
1569337595.26356
1569337595.27919
1569337595.29481
1569337595.31044
1569337595.32607
1569337595.34169
1569337595.35732
1569337595.37294
1569337595.38857
1569337595.40419
1569337595.41982
1569337595.43545
1569337595.45107
1569337595.4667
1569337595.48232
1569337595.49795
1569337595.51357
1569337595.5292
1569337595.54483
1569337595.56045
1569337595.57608
1569337595.5917
1569337595.60733
1569337595.62295
1569337595.63858
1569337595.65421
1569337595.66983
1569337595.68546
1569337595.70108
1569337595.71671
1569337595.73233
1569337595.74796
1569337595.76359
1569337595.77921
1569337595.79484
1569337595.81046
1569337595.82609
1569337595.84171
1569337595.85734
1569337595.87297
1569337595.88859
1569337595.90422
1569337595.91984
1569337595.93547
1569337595.95109
1569337595.96672
1569337595.98235
1569337595.99797
1569337596.0136
1569337596.02922
1569337596.04485
1569337596.06048
1569337596.0761
1569337596.09173
1569337596.10735
1569337596.12298
1569337596.1386
1569337596.15423
1569337596.16986
1569337596.18548
1569337596.20111
1569337596.21673
1569337596.23236
1569337596.24798
1569337596.26361
1569337596.27924
1569337596.29486
1569337596.31049
1569337596.32611
1569337596.34174
1569337596.35736
1569337596.37299
1569337596.38862
1569337596.40424
1569337596.41987
1569337596.43549
1569337596.45112
1569337596.46674
1569337596.48237
1569337596.498
1569337596.51362
1569337596.52925
1569337596.54487
1569337596.5605
1569337596.57612
1569337596.59175
1569337596.60738
1569337596.623
1569337596.63863
1569337596.65425
1569337596.66988
1569337596.6855
1569337596.70113
1569337596.71676
1569337596.73238
1569337596.74801
1569337596.76363
1569337596.77926
1569337596.79488
1569337596.81051
1569337596.82614
1569337596.84176
1569337596.85739
1569337596.87301
1569337596.88864
1569337596.90426
1569337596.91989
1569337596.93552
1569337596.95114
1569337596.96677
1569337596.98239
1569337596.99802
1569337597.01364
1569337597.02927
1569337597.0449
1569337597.06052
1569337597.07615
1569337597.09177
1569337597.1074
1569337597.12302
1569337597.13865
1569337597.15428
1569337597.1699
1569337597.18553
1569337597.20115
1569337597.21678
1569337597.2324
1569337597.24803
1569337597.26366
1569337597.27928
1569337597.29491
1569337597.31053
1569337597.32616
1569337597.34178
1569337597.35741
1569337597.37304
1569337597.38866
1569337597.40429
1569337597.41991
1569337597.43554
1569337597.45116
1569337597.46679
1569337597.48242
1569337597.49804
1569337597.51367
1569337597.52929
1569337597.54492
1569337597.56054
1569337597.57617
1569337597.5918
1569337597.60742
1569337597.62305
1569337597.63867
1569337597.6543
1569337597.66992
1569337597.68555
1569337597.70118
1569337597.7168
1569337597.73243
1569337597.74805
1569337597.76368
1569337597.7793
1569337597.79493
1569337597.81056
1569337597.82618
1569337597.84181
1569337597.85743
1569337597.87306
1569337597.88868
1569337597.90431
1569337597.91994
1569337597.93556
1569337597.95119
1569337597.96681
1569337597.98244
1569337597.99806
1569337598.01369
1569337598.02932
1569337598.04494
1569337598.06057
1569337598.07619
1569337598.09182
1569337598.10744
1569337598.12307
1569337598.1387
1569337598.15432
1569337598.16995
1569337598.18557
1569337598.2012
1569337598.21683
1569337598.23245
1569337598.24808
1569337598.2637
1569337598.27933
1569337598.29495
1569337598.31058
1569337598.32621
1569337598.34183
1569337598.35746
1569337598.37308
1569337598.38871
1569337598.40433
1569337598.41996
1569337598.43559
1569337598.45121
1569337598.46684
1569337598.48246
1569337598.49809
1569337598.51371
1569337598.52934
1569337598.54497
1569337598.56059
1569337598.57622
1569337598.59184
1569337598.60747
1569337598.62309
1569337598.63872
1569337598.65435
1569337598.66997
1569337598.6856
1569337598.70122
1569337598.71685
1569337598.73247
1569337598.7481
1569337598.76373
1569337598.77935
1569337598.79498
1569337598.8106
1569337598.82623
1569337598.84185
1569337598.85748
1569337598.87311
1569337598.88873
1569337598.90436
1569337598.91998
1569337598.93561
1569337598.95123
1569337598.96686
1569337598.98249
1569337598.99811
1569337599.01374
1569337599.02936
1569337599.04499
1569337599.06061
1569337599.07624
1569337599.09187
1569337599.10749
1569337599.12312
1569337599.13874
1569337599.15437
1569337599.16999
1569337599.18562
1569337599.20125
1569337599.21687
1569337599.2325
1569337599.24812
1569337599.26375
1569337599.27937
1569337599.295
1569337599.31063
1569337599.32625
1569337599.34188
1569337599.3575
1569337599.37313
1569337599.38875
1569337599.40438
1569337599.42001
1569337599.43563
1569337599.45126
1569337599.46688
1569337599.48251
1569337599.49813
1569337599.51376
1569337599.52939
1569337599.54501
1569337599.56064
1569337599.57626
1569337599.59189
1569337599.60751
1569337599.62314
1569337599.63877
1569337599.65439
1569337599.67002
1569337599.68564
1569337599.70127
1569337599.71689
1569337599.73252
1569337599.74815
1569337599.76377
1569337599.7794
1569337599.79502
1569337599.81065
1569337599.82627
1569337599.8419
1569337599.85753
1569337599.87315
1569337599.88878
1569337599.9044
1569337599.92003
1569337599.93565
1569337599.95128
1569337599.96691
1569337599.98253
1569337599.99816
1569337600.01378
1569337600.02941
1569337600.04503
1569337600.06066
1569337600.07629
1569337600.09191
1569337600.10754
1569337600.12316
1569337600.13879
1569337600.15441
1569337600.17004
1569337600.18567
1569337600.20129
1569337600.21692
1569337600.23254
1569337600.24817
1569337600.26379
1569337600.27942
1569337600.29505
1569337600.31067
1569337600.3263
1569337600.34192
1569337600.35755
1569337600.37317
1569337600.3888
1569337600.40443
1569337600.42005
1569337600.43568
1569337600.4513
1569337600.46693
1569337600.48255
1569337600.49818
1569337600.51381
1569337600.52943
1569337600.54506
1569337600.56068
1569337600.57631
1569337600.59193
1569337600.60756
1569337600.62319
1569337600.63881
1569337600.65444
1569337600.67006
1569337600.68569
1569337600.70131
1569337600.71694
1569337600.73257
1569337600.74819
1569337600.76382
1569337600.77944
1569337600.79507
1569337600.81069
1569337600.82632
1569337600.84195
1569337600.85757
1569337600.8732
1569337600.88882
1569337600.90445
1569337600.92008
1569337600.9357
1569337600.95133
1569337600.96695
1569337600.98258
1569337600.9982
1569337601.01383
1569337601.02946
1569337601.04508
1569337601.06071
1569337601.07633
1569337601.09196
1569337601.10758
1569337601.12321
1569337601.13884
1569337601.15446
1569337601.17009
1569337601.18571
1569337601.20134
1569337601.21696
1569337601.23259
1569337601.24822
1569337601.26384
1569337601.27947
1569337601.29509
1569337601.31072
1569337601.32634
1569337601.34197
1569337601.3576
1569337601.37322
1569337601.38885
1569337601.40447
1569337601.4201
1569337601.43572
1569337601.45135
1569337601.46698
1569337601.4826
1569337601.49823
1569337601.51385
1569337601.52948
1569337601.5451
1569337601.56073
1569337601.57636
1569337601.59198
1569337601.60761
1569337601.62323
1569337601.63886
1569337601.65448
1569337601.67011
1569337601.68574
1569337601.70136
1569337601.71699
1569337601.73261
1569337601.74824
1569337601.76386
1569337601.77949
1569337601.79512
1569337601.81074
1569337601.82637
1569337601.84199
1569337601.85762
1569337601.87324
1569337601.88887
1569337601.9045
1569337601.92012
1569337601.93575
1569337601.95137
1569337601.967
1569337601.98262
1569337601.99825
1569337602.01388
1569337602.0295
1569337602.04513
1569337602.06075
1569337602.07638
1569337602.092
1569337602.10763
1569337602.12326
1569337602.13888
1569337602.15451
1569337602.17013
1569337602.18576
1569337602.20138
1569337602.21701
1569337602.23264
1569337602.24826
1569337602.26389
1569337602.27951
1569337602.29514
1569337602.31076
1569337602.32639
1569337602.34202
1569337602.35764
1569337602.37327
1569337602.38889
1569337602.40452
1569337602.42014
1569337602.43577
1569337602.4514
1569337602.46702
1569337602.48265
1569337602.49827
1569337602.5139
1569337602.52952
1569337602.54515
1569337602.56078
1569337602.5764
1569337602.59203
1569337602.60765
1569337602.62328
1569337602.6389
1569337602.65453
1569337602.67016
1569337602.68578
1569337602.70141
1569337602.71703
1569337602.73266
1569337602.74828
1569337602.76391
1569337602.77954
1569337602.79516
1569337602.81079
1569337602.82641
1569337602.84204
1569337602.85766
1569337602.87329
1569337602.88892
1569337602.90454
1569337602.92017
1569337602.93579
1569337602.95142
1569337602.96704
1569337602.98267
1569337602.9983
1569337603.01392
1569337603.02955
1569337603.04517
1569337603.0608
1569337603.07643
1569337603.09205
1569337603.10768
1569337603.1233
1569337603.13893
1569337603.15455
1569337603.17018
1569337603.18581
1569337603.20143
1569337603.21706
1569337603.23268
1569337603.24831
1569337603.26393
1569337603.27956
1569337603.29519
1569337603.31081
1569337603.32644
1569337603.34206
1569337603.35769
1569337603.37331
1569337603.38894
1569337603.40457
1569337603.42019
1569337603.43582
1569337603.45144
1569337603.46707
1569337603.48269
1569337603.49832
1569337603.51395
1569337603.52957
1569337603.5452
1569337603.56082
1569337603.57645
1569337603.59207
1569337603.6077
1569337603.62333
1569337603.63895
1569337603.65458
1569337603.6702
1569337603.68583
1569337603.70145
1569337603.71708
1569337603.73271
1569337603.74833
1569337603.76396
1569337603.77958
1569337603.79521
1569337603.81083
1569337603.82646
1569337603.84209
1569337603.85771
1569337603.87334
1569337603.88896
1569337603.90459
1569337603.92021
1569337603.93584
1569337603.95147
1569337603.96709
1569337603.98272
1569337603.99834
1569337604.01397
1569337604.02959
1569337604.04522
1569337604.06085
1569337604.07647
1569337604.0921
1569337604.10772
1569337604.12335
1569337604.13897
1569337604.1546
1569337604.17023
1569337604.18585
1569337604.20148
1569337604.2171
1569337604.23273
1569337604.24835
1569337604.26398
1569337604.27961
1569337604.29523
1569337604.31086
1569337604.32648
1569337604.34211
1569337604.35773
1569337604.37336
1569337604.38899
1569337604.40461
1569337604.42024
1569337604.43586
1569337604.45149
1569337604.46711
1569337604.48274
1569337604.49837
1569337604.51399
1569337604.52962
1569337604.54524
1569337604.56087
1569337604.57649
1569337604.59212
1569337604.60775
1569337604.62337
1569337604.639
1569337604.65462
1569337604.67025
1569337604.68587
1569337604.7015
1569337604.71713
1569337604.73275
1569337604.74838
1569337604.764
1569337604.77963
1569337604.79525
1569337604.81088
1569337604.82651
1569337604.84213
1569337604.85776
1569337604.87338
1569337604.88901
1569337604.90463
1569337604.92026
1569337604.93589
1569337604.95151
1569337604.96714
1569337604.98276
1569337604.99839
1569337605.01401
1569337605.02964
1569337605.04527
1569337605.06089
1569337605.07652
1569337605.09214
1569337605.10777
1569337605.12339
1569337605.13902
1569337605.15465
1569337605.17027
1569337605.1859
1569337605.20152
1569337605.21715
1569337605.23277
1569337605.2484
1569337605.26403
1569337605.27965
1569337605.29528
1569337605.3109
1569337605.32653
1569337605.34215
1569337605.35778
1569337605.37341
1569337605.38903
1569337605.40466
1569337605.42028
1569337605.43591
1569337605.45153
1569337605.46716
1569337605.48279
1569337605.49841
1569337605.51404
1569337605.52966
1569337605.54529
1569337605.56091
1569337605.57654
1569337605.59217
1569337605.60779
1569337605.62342
1569337605.63904
1569337605.65467
1569337605.6703
1569337605.68592
1569337605.70155
1569337605.71717
1569337605.7328
1569337605.74842
1569337605.76405
1569337605.77968
1569337605.7953
1569337605.81093
1569337605.82655
1569337605.84218
1569337605.8578
1569337605.87343
1569337605.88906
1569337605.90468
1569337605.92031
1569337605.93593
1569337605.95156
1569337605.96718
1569337605.98281
1569337605.99844
1569337606.01406
1569337606.02969
1569337606.04531
1569337606.06094
1569337606.07656
1569337606.09219
1569337606.10782
1569337606.12344
1569337606.13907
1569337606.15469
1569337606.17032
1569337606.18594
1569337606.20157
1569337606.2172
1569337606.23282
1569337606.24845
1569337606.26407
1569337606.2797
1569337606.29532
1569337606.31095
1569337606.32658
1569337606.3422
1569337606.35783
1569337606.37345
1569337606.38908
1569337606.4047
1569337606.42033
1569337606.43596
1569337606.45158
1569337606.46721
1569337606.48283
1569337606.49846
1569337606.51408
1569337606.52971
1569337606.54534
1569337606.56096
1569337606.57659
1569337606.59221
1569337606.60784
1569337606.62346
1569337606.63909
1569337606.65472
1569337606.67034
1569337606.68597
1569337606.70159
1569337606.71722
1569337606.73284
1569337606.74847
1569337606.7641
1569337606.77972
1569337606.79535
1569337606.81097
1569337606.8266
1569337606.84222
1569337606.85785
1569337606.87348
1569337606.8891
1569337606.90473
1569337606.92035
1569337606.93598
1569337606.9516
1569337606.96723
1569337606.98286
1569337606.99848
1569337607.01411
1569337607.02973
1569337607.04536
1569337607.06098
1569337607.07661
1569337607.09224
1569337607.10786
1569337607.12349
1569337607.13911
1569337607.15474
1569337607.17036
1569337607.18599
1569337607.20162
1569337607.21724
1569337607.23287
1569337607.24849
1569337607.26412
1569337607.27974
1569337607.29537
1569337607.311
1569337607.32662
1569337607.34225
1569337607.35787
1569337607.3735
1569337607.38912
1569337607.40475
1569337607.42038
1569337607.436
1569337607.45163
1569337607.46725
1569337607.48288
1569337607.4985
1569337607.51413
1569337607.52976
1569337607.54538
1569337607.56101
1569337607.57663
1569337607.59226
1569337607.60788
1569337607.62351
1569337607.63914
1569337607.65476
1569337607.67039
1569337607.68601
1569337607.70164
1569337607.71726
1569337607.73289
1569337607.74852
1569337607.76414
1569337607.77977
1569337607.79539
1569337607.81102
1569337607.82664
1569337607.84227
1569337607.8579
1569337607.87352
1569337607.88915
1569337607.90477
1569337607.9204
1569337607.93602
1569337607.95165
1569337607.96728
1569337607.9829
1569337607.99853
1569337608.01415
1569337608.02978
1569337608.04541
1569337608.06103
1569337608.07666
1569337608.09228
1569337608.10791
1569337608.12353
1569337608.13916
1569337608.15479
1569337608.17041
1569337608.18604
1569337608.20166
1569337608.21729
1569337608.23291
1569337608.24854
1569337608.26417
1569337608.27979
1569337608.29542
1569337608.31104
1569337608.32667
1569337608.34229
1569337608.35792
1569337608.37355
1569337608.38917
1569337608.4048
1569337608.42042
1569337608.43605
1569337608.45167
1569337608.4673
1569337608.48293
1569337608.49855
1569337608.51418
1569337608.5298
1569337608.54543
1569337608.56105
1569337608.57668
1569337608.59231
1569337608.60793
1569337608.62356
1569337608.63918
1569337608.65481
1569337608.67043
1569337608.68606
1569337608.70169
1569337608.71731
1569337608.73294
1569337608.74856
1569337608.76419
1569337608.77981
1569337608.79544
1569337608.81107
1569337608.82669
1569337608.84232
1569337608.85794
1569337608.87357
1569337608.88919
1569337608.90482
1569337608.92045
1569337608.93607
1569337608.9517
1569337608.96732
1569337608.98295
1569337608.99857
1569337609.0142
1569337609.02983
1569337609.04545
1569337609.06108
1569337609.0767
1569337609.09233
1569337609.10795
1569337609.12358
1569337609.13921
1569337609.15483
1569337609.17046
1569337609.18608
1569337609.20171
1569337609.21733
1569337609.23296
1569337609.24859
1569337609.26421
1569337609.27984
1569337609.29546
1569337609.31109
1569337609.32671
1569337609.34234
1569337609.35797
1569337609.37359
1569337609.38922
1569337609.40484
1569337609.42047
1569337609.43609
1569337609.45172
1569337609.46735
1569337609.48297
1569337609.4986
1569337609.51422
1569337609.52985
1569337609.54547
1569337609.5611
1569337609.57673
1569337609.59235
1569337609.60798
1569337609.6236
1569337609.63923
1569337609.65485
1569337609.67048
1569337609.68611
1569337609.70173
1569337609.71736
1569337609.73298
1569337609.74861
1569337609.76423
1569337609.77986
1569337609.79549
1569337609.81111
1569337609.82674
1569337609.84236
1569337609.85799
1569337609.87361
1569337609.88924
1569337609.90487
1569337609.92049
1569337609.93612
1569337609.95174
1569337609.96737
1569337609.98299
1569337609.99862
1569337610.01425
1569337610.02987
1569337610.0455
1569337610.06112
1569337610.07675
1569337610.09237
1569337610.108
1569337610.12363
1569337610.13925
1569337610.15488
1569337610.1705
1569337610.18613
1569337610.20176
1569337610.21738
1569337610.23301
1569337610.24863
1569337610.26426
1569337610.27988
1569337610.29551
1569337610.31114
1569337610.32676
1569337610.34239
1569337610.35801
1569337610.37364
1569337610.38926
1569337610.40489
1569337610.42052
1569337610.43614
1569337610.45177
1569337610.46739
1569337610.48302
1569337610.49864
1569337610.51427
1569337610.5299
1569337610.54552
1569337610.56115
1569337610.57677
1569337610.5924
1569337610.60802
1569337610.62365
1569337610.63928
1569337610.6549
1569337610.67053
1569337610.68615
1569337610.70178
1569337610.7174
1569337610.73303
1569337610.74866
1569337610.76428
1569337610.77991
1569337610.79553
1569337610.81116
1569337610.82678
1569337610.84241
1569337610.85804
1569337610.87366
1569337610.88929
1569337610.90491
1569337610.92054
1569337610.93616
1569337610.95179
1569337610.96742
1569337610.98304
1569337610.99867
1569337611.01429
1569337611.02992
1569337611.04554
1569337611.06117
1569337611.0768
1569337611.09242
1569337611.10805
1569337611.12367
1569337611.1393
1569337611.15492
1569337611.17055
1569337611.18618
1569337611.2018
1569337611.21743
1569337611.23305
1569337611.24868
1569337611.2643
1569337611.27993
1569337611.29556
1569337611.31118
1569337611.32681
1569337611.34243
1569337611.35806
1569337611.37368
1569337611.38931
1569337611.40494
1569337611.42056
1569337611.43619
1569337611.45181
1569337611.46744
1569337611.48306
1569337611.49869
1569337611.51432
1569337611.52994
1569337611.54557
1569337611.56119
1569337611.57682
1569337611.59244
1569337611.60807
1569337611.6237
1569337611.63932
1569337611.65495
1569337611.67057
1569337611.6862
1569337611.70182
1569337611.71745
1569337611.73308
1569337611.7487
1569337611.76433
1569337611.77995
1569337611.79558
1569337611.8112
1569337611.82683
1569337611.84246
1569337611.85808
1569337611.87371
1569337611.88933
1569337611.90496
1569337611.92058
1569337611.93621
1569337611.95184
1569337611.96746
1569337611.98309
1569337611.99871
1569337612.01434
1569337612.02996
1569337612.04559
1569337612.06122
1569337612.07684
1569337612.09247
1569337612.10809
1569337612.12372
1569337612.13934
1569337612.15497
1569337612.1706
1569337612.18622
1569337612.20185
1569337612.21747
1569337612.2331
1569337612.24872
1569337612.26435
1569337612.27998
1569337612.2956
1569337612.31123
1569337612.32685
1569337612.34248
1569337612.3581
1569337612.37373
1569337612.38936
1569337612.40498
1569337612.42061
1569337612.43623
1569337612.45186
1569337612.46748
1569337612.48311
1569337612.49874
1569337612.51436
1569337612.52999
1569337612.54561
1569337612.56124
1569337612.57686
1569337612.59249
1569337612.60812
1569337612.62374
1569337612.63937
1569337612.65499
1569337612.67062
1569337612.68624
1569337612.70187
1569337612.7175
1569337612.73312
1569337612.74875
1569337612.76437
1569337612.78
1569337612.79562
1569337612.81125
1569337612.82688
1569337612.8425
1569337612.85813
1569337612.87375
1569337612.88938
1569337612.90501
1569337612.92063
1569337612.93626
1569337612.95188
1569337612.96751
1569337612.98313
1569337612.99876
1569337613.01439
1569337613.03001
1569337613.04564
1569337613.06126
1569337613.07689
1569337613.09251
1569337613.10814
1569337613.12377
1569337613.13939
1569337613.15502
1569337613.17064
1569337613.18627
1569337613.20189
1569337613.21752
1569337613.23315
1569337613.24877
1569337613.2644
1569337613.28002
1569337613.29565
1569337613.31127
1569337613.3269
1569337613.34253
1569337613.35815
1569337613.37378
1569337613.3894
1569337613.40503
1569337613.42065
1569337613.43628
1569337613.45191
1569337613.46753
1569337613.48316
1569337613.49878
1569337613.51441
1569337613.53003
1569337613.54566
1569337613.56129
1569337613.57691
1569337613.59254
1569337613.60816
1569337613.62379
1569337613.63941
1569337613.65504
1569337613.67067
1569337613.68629
1569337613.70192
1569337613.71754
1569337613.73317
1569337613.74879
1569337613.76442
1569337613.78005
1569337613.79567
1569337613.8113
1569337613.82692
1569337613.84255
1569337613.85817
1569337613.8738
1569337613.88943
1569337613.90505
1569337613.92068
1569337613.9363
1569337613.95193
1569337613.96755
1569337613.98318
1569337613.99881
1569337614.01443
1569337614.03006
1569337614.04568
1569337614.06131
1569337614.07693
1569337614.09256
1569337614.10819
1569337614.12381
1569337614.13944
1569337614.15506
1569337614.17069
1569337614.18631
1569337614.20194
1569337614.21757
1569337614.23319
1569337614.24882
1569337614.26444
1569337614.28007
1569337614.29569
1569337614.31132
1569337614.32695
1569337614.34257
1569337614.3582
1569337614.37382
1569337614.38945
1569337614.40507
1569337614.4207
1569337614.43633
1569337614.45195
1569337614.46758
1569337614.4832
1569337614.49883
1569337614.51445
1569337614.53008
1569337614.54571
1569337614.56133
1569337614.57696
1569337614.59258
1569337614.60821
1569337614.62383
1569337614.63946
1569337614.65509
1569337614.67071
1569337614.68634
1569337614.70196
1569337614.71759
1569337614.73321
1569337614.74884
1569337614.76447
1569337614.78009
1569337614.79572
1569337614.81134
1569337614.82697
1569337614.84259
1569337614.85822
1569337614.87385
1569337614.88947
1569337614.9051
1569337614.92072
1569337614.93635
1569337614.95197
1569337614.9676
1569337614.98323
1569337614.99885
1569337615.01448
1569337615.0301
1569337615.04573
1569337615.06136
1569337615.07698
1569337615.09261
1569337615.10823
1569337615.12386
1569337615.13948
1569337615.15511
1569337615.17074
1569337615.18636
1569337615.20199
1569337615.21761
1569337615.23324
1569337615.24886
1569337615.26449
1569337615.28012
1569337615.29574
1569337615.31137
1569337615.32699
1569337615.34262
1569337615.35824
1569337615.37387
1569337615.3895
1569337615.40512
1569337615.42075
1569337615.43637
1569337615.452
1569337615.46762
1569337615.48325
1569337615.49888
1569337615.5145
1569337615.53013
1569337615.54575
1569337615.56138
1569337615.577
1569337615.59263
1569337615.60826
1569337615.62388
1569337615.63951
1569337615.65513
1569337615.67076
1569337615.68638
1569337615.70201
1569337615.71764
1569337615.73326
1569337615.74889
1569337615.76451
1569337615.78014
1569337615.79576
1569337615.81139
1569337615.82702
1569337615.84264
1569337615.85827
1569337615.87389
1569337615.88952
1569337615.90514
1569337615.92077
1569337615.9364
1569337615.95202
1569337615.96765
1569337615.98327
1569337615.9989
1569337616.01452
1569337616.03015
1569337616.04578
1569337616.0614
1569337616.07703
1569337616.09265
1569337616.10828
1569337616.1239
1569337616.13953
1569337616.15516
1569337616.17078
1569337616.18641
1569337616.20203
1569337616.21766
1569337616.23328
1569337616.24891
1569337616.26454
1569337616.28016
1569337616.29579
1569337616.31141
1569337616.32704
1569337616.34266
1569337616.35829
1569337616.37392
1569337616.38954
1569337616.40517
1569337616.42079
1569337616.43642
1569337616.45204
1569337616.46767
1569337616.4833
1569337616.49892
1569337616.51455
1569337616.53017
1569337616.5458
1569337616.56142
1569337616.57705
1569337616.59268
1569337616.6083
1569337616.62393
1569337616.63955
1569337616.65518
1569337616.6708
1569337616.68643
1569337616.70206
1569337616.71768
1569337616.73331
1569337616.74893
1569337616.76456
1569337616.78018
1569337616.79581
1569337616.81144
1569337616.82706
1569337616.84269
1569337616.85831
1569337616.87394
1569337616.88956
1569337616.90519
1569337616.92082
1569337616.93644
1569337616.95207
1569337616.96769
1569337616.98332
1569337616.99894
1569337617.01457
1569337617.0302
1569337617.04582
1569337617.06145
1569337617.07707
1569337617.0927
1569337617.10832
1569337617.12395
1569337617.13958
1569337617.1552
1569337617.17083
1569337617.18645
1569337617.20208
1569337617.2177
1569337617.23333
1569337617.24896
1569337617.26458
1569337617.28021
1569337617.29583
1569337617.31146
1569337617.32709
1569337617.34271
1569337617.35834
1569337617.37396
1569337617.38959
1569337617.40521
1569337617.42084
1569337617.43647
1569337617.45209
1569337617.46772
1569337617.48334
1569337617.49897
1569337617.51459
1569337617.53022
1569337617.54585
1569337617.56147
1569337617.5771
1569337617.59272
1569337617.60835
1569337617.62397
1569337617.6396
1569337617.65523
1569337617.67085
1569337617.68648
1569337617.7021
1569337617.71773
1569337617.73335
1569337617.74898
1569337617.76461
1569337617.78023
1569337617.79586
1569337617.81148
1569337617.82711
1569337617.84273
1569337617.85836
1569337617.87399
1569337617.88961
1569337617.90524
1569337617.92086
1569337617.93649
1569337617.95211
1569337617.96774
1569337617.98337
1569337617.99899
1569337618.01462
1569337618.03024
1569337618.04587
1569337618.06149
1569337618.07712
1569337618.09275
1569337618.10837
1569337618.124
1569337618.13962
1569337618.15525
1569337618.17087
1569337618.1865
1569337618.20213
1569337618.21775
1569337618.23338
1569337618.249
1569337618.26463
1569337618.28025
1569337618.29588
1569337618.31151
1569337618.32713
1569337618.34276
1569337618.35838
1569337618.37401
1569337618.38963
1569337618.40526
1569337618.42089
1569337618.43651
1569337618.45214
1569337618.46776
1569337618.48339
1569337618.49901
1569337618.51464
1569337618.53027
1569337618.54589
1569337618.56152
1569337618.57714
1569337618.59277
1569337618.60839
1569337618.62402
1569337618.63965
1569337618.65527
1569337618.6709
1569337618.68652
1569337618.70215
1569337618.71777
1569337618.7334
1569337618.74903
1569337618.76465
1569337618.78028
1569337618.7959
1569337618.81153
1569337618.82715
1569337618.84278
1569337618.85841
1569337618.87403
1569337618.88966
1569337618.90528
1569337618.92091
1569337618.93653
1569337618.95216
1569337618.96779
1569337618.98341
1569337618.99904
1569337619.01466
1569337619.03029
1569337619.04591
1569337619.06154
1569337619.07717
1569337619.09279
1569337619.10842
1569337619.12404
1569337619.13967
1569337619.15529
1569337619.17092
1569337619.18655
1569337619.20217
1569337619.2178
1569337619.23342
1569337619.24905
1569337619.26467
1569337619.2803
1569337619.29593
1569337619.31155
1569337619.32718
1569337619.3428
1569337619.35843
1569337619.37405
1569337619.38968
1569337619.40531
1569337619.42093
1569337619.43656
1569337619.45218
1569337619.46781
1569337619.48343
1569337619.49906
1569337619.51469
1569337619.53031
1569337619.54594
1569337619.56156
1569337619.57719
1569337619.59281
1569337619.60844
1569337619.62407
1569337619.63969
1569337619.65532
1569337619.67094
1569337619.68657
1569337619.70219
1569337619.71782
1569337619.73345
1569337619.74907
1569337619.7647
1569337619.78032
1569337619.79595
1569337619.81157
1569337619.8272
1569337619.84283
1569337619.85845
1569337619.87408
1569337619.8897
1569337619.90533
1569337619.92096
1569337619.93658
1569337619.95221
1569337619.96783
1569337619.98346
1569337619.99908
1569337620.01471
1569337620.03034
1569337620.04596
1569337620.06159
1569337620.07721
1569337620.09284
1569337620.10846
1569337620.12409
1569337620.13972
1569337620.15534
1569337620.17097
1569337620.18659
1569337620.20222
1569337620.21784
1569337620.23347
1569337620.2491
1569337620.26472
1569337620.28035
1569337620.29597
1569337620.3116
1569337620.32722
1569337620.34285
1569337620.35848
1569337620.3741
1569337620.38973
1569337620.40535
1569337620.42098
1569337620.4366
1569337620.45223
1569337620.46786
1569337620.48348
1569337620.49911
1569337620.51473
1569337620.53036
1569337620.54598
1569337620.56161
1569337620.57724
1569337620.59286
1569337620.60849
1569337620.62411
1569337620.63974
1569337620.65536
1569337620.67099
1569337620.68662
1569337620.70224
1569337620.71787
1569337620.73349
1569337620.74912
1569337620.76474
1569337620.78037
1569337620.796
1569337620.81162
1569337620.82725
1569337620.84287
1569337620.8585
1569337620.87412
1569337620.88975
1569337620.90538
1569337620.921
1569337620.93663
1569337620.95225
1569337620.96788
1569337620.9835
1569337620.99913
1569337621.01476
1569337621.03038
1569337621.04601
1569337621.06163
1569337621.07726
1569337621.09288
1569337621.10851
1569337621.12414
1569337621.13976
1569337621.15539
1569337621.17101
1569337621.18664
1569337621.20226
1569337621.21789
1569337621.23352
1569337621.24914
1569337621.26477
1569337621.28039
1569337621.29602
1569337621.31164
1569337621.32727
1569337621.3429
1569337621.35852
1569337621.37415
1569337621.38977
1569337621.4054
1569337621.42102
1569337621.43665
1569337621.45228
1569337621.4679
1569337621.48353
1569337621.49915
1569337621.51478
1569337621.5304
1569337621.54603
1569337621.56166
1569337621.57728
1569337621.59291
1569337621.60853
1569337621.62416
1569337621.63978
1569337621.65541
1569337621.67104
1569337621.68666
1569337621.70229
1569337621.71791
1569337621.73354
1569337621.74916
1569337621.76479
1569337621.78042
1569337621.79604
1569337621.81167
1569337621.82729
1569337621.84292
1569337621.85854
1569337621.87417
1569337621.8898
1569337621.90542
1569337621.92105
1569337621.93667
1569337621.9523
1569337621.96792
1569337621.98355
1569337621.99918
1569337622.0148
1569337622.03043
1569337622.04605
1569337622.06168
1569337622.0773
1569337622.09293
1569337622.10856
1569337622.12418
1569337622.13981
1569337622.15543
1569337622.17106
1569337622.18669
1569337622.20231
1569337622.21794
1569337622.23356
1569337622.24919
1569337622.26481
1569337622.28044
1569337622.29607
1569337622.31169
1569337622.32732
1569337622.34294
1569337622.35857
1569337622.37419
1569337622.38982
1569337622.40545
1569337622.42107
1569337622.4367
1569337622.45232
1569337622.46795
1569337622.48357
1569337622.4992
1569337622.51483
1569337622.53045
1569337622.54608
1569337622.5617
1569337622.57733
1569337622.59295
1569337622.60858
1569337622.62421
1569337622.63983
1569337622.65546
1569337622.67108
1569337622.68671
1569337622.70233
1569337622.71796
1569337622.73359
1569337622.74921
1569337622.76484
1569337622.78046
1569337622.79609
1569337622.81171
1569337622.82734
1569337622.84297
1569337622.85859
1569337622.87422
1569337622.88984
1569337622.90547
1569337622.92109
1569337622.93672
1569337622.95235
1569337622.96797
1569337622.9836
1569337622.99922
1569337623.01485
1569337623.03047
1569337623.0461
1569337623.06173
1569337623.07735
1569337623.09298
1569337623.1086
1569337623.12423
1569337623.13985
1569337623.15548
1569337623.17111
1569337623.18673
1569337623.20236
1569337623.21798
1569337623.23361
1569337623.24923
1569337623.26486
1569337623.28049
1569337623.29611
1569337623.31174
1569337623.32736
1569337623.34299
1569337623.35861
1569337623.37424
1569337623.38987
1569337623.40549
1569337623.42112
1569337623.43674
1569337623.45237
1569337623.46799
1569337623.48362
1569337623.49925
1569337623.51487
1569337623.5305
1569337623.54612
1569337623.56175
1569337623.57737
1569337623.593
1569337623.60863
1569337623.62425
1569337623.63988
1569337623.6555
1569337623.67113
1569337623.68675
1569337623.70238
1569337623.71801
1569337623.73363
1569337623.74926
1569337623.76488
1569337623.78051
1569337623.79613
1569337623.81176
1569337623.82739
1569337623.84301
1569337623.85864
1569337623.87426
1569337623.88989
1569337623.90551
1569337623.92114
1569337623.93677
1569337623.95239
1569337623.96802
1569337623.98364
1569337623.99927
1569337624.01489
1569337624.03052
1569337624.04615
1569337624.06177
1569337624.0774
1569337624.09302
1569337624.10865
1569337624.12427
1569337624.1399
1569337624.15553
1569337624.17115
1569337624.18678
1569337624.2024
1569337624.21803
1569337624.23365
1569337624.24928
1569337624.26491
1569337624.28053
1569337624.29616
1569337624.31178
1569337624.32741
1569337624.34303
1569337624.35866
1569337624.37429
1569337624.38991
1569337624.40554
1569337624.42116
1569337624.43679
1569337624.45241
1569337624.46804
1569337624.48367
1569337624.49929
1569337624.51492
1569337624.53054
1569337624.54617
1569337624.5618
1569337624.57742
1569337624.59305
1569337624.60867
1569337624.6243
1569337624.63992
1569337624.65555
1569337624.67118
1569337624.6868
1569337624.70243
1569337624.71805
1569337624.73368
1569337624.7493
1569337624.76493
1569337624.78056
1569337624.79618
1569337624.81181
1569337624.82743
1569337624.84306
1569337624.85868
1569337624.87431
1569337624.88994
1569337624.90556
1569337624.92119
1569337624.93681
1569337624.95244
1569337624.96806
1569337624.98369
1569337624.99932
1569337625.01494
1569337625.03057
1569337625.04619
1569337625.06182
1569337625.07744
1569337625.09307
1569337625.1087
1569337625.12432
1569337625.13995
1569337625.15557
1569337625.1712
1569337625.18682
1569337625.20245
1569337625.21808
1569337625.2337
1569337625.24933
1569337625.26495
1569337625.28058
1569337625.2962
1569337625.31183
1569337625.32746
1569337625.34308
1569337625.35871
1569337625.37433
1569337625.38996
1569337625.40558
1569337625.42121
1569337625.43684
1569337625.45246
1569337625.46809
1569337625.48371
1569337625.49934
1569337625.51496
1569337625.53059
1569337625.54622
1569337625.56184
1569337625.57747
1569337625.59309
1569337625.60872
1569337625.62434
1569337625.63997
1569337625.6556
1569337625.67122
1569337625.68685
1569337625.70247
1569337625.7181
1569337625.73372
1569337625.74935
1569337625.76498
1569337625.7806
1569337625.79623
1569337625.81185
1569337625.82748
1569337625.8431
1569337625.85873
1569337625.87436
1569337625.88998
1569337625.90561
1569337625.92123
1569337625.93686
1569337625.95248
1569337625.96811
1569337625.98374
1569337625.99936
1569337626.01499
1569337626.03061
1569337626.04624
1569337626.06186
1569337626.07749
1569337626.09312
1569337626.10874
1569337626.12437
1569337626.13999
1569337626.15562
1569337626.17124
1569337626.18687
1569337626.2025
1569337626.21812
1569337626.23375
1569337626.24937
1569337626.265
1569337626.28062
1569337626.29625
1569337626.31188
1569337626.3275
1569337626.34313
1569337626.35875
1569337626.37438
1569337626.39
1569337626.40563
1569337626.42126
1569337626.43688
1569337626.45251
1569337626.46813
1569337626.48376
1569337626.49938
1569337626.51501
1569337626.53064
1569337626.54626
1569337626.56189
1569337626.57751
1569337626.59314
1569337626.60876
1569337626.62439
1569337626.64002
1569337626.65564
1569337626.67127
1569337626.68689
1569337626.70252
1569337626.71814
1569337626.73377
1569337626.7494
1569337626.76502
1569337626.78065
1569337626.79627
1569337626.8119
1569337626.82752
1569337626.84315
1569337626.85878
1569337626.8744
1569337626.89003
1569337626.90565
1569337626.92128
1569337626.9369
1569337626.95253
1569337626.96816
1569337626.98378
1569337626.99941
1569337627.01503
1569337627.03066
1569337627.04629
1569337627.06191
1569337627.07754
1569337627.09316
1569337627.10879
1569337627.12441
1569337627.14004
1569337627.15567
1569337627.17129
1569337627.18692
1569337627.20254
1569337627.21817
1569337627.23379
1569337627.24942
1569337627.26505
1569337627.28067
1569337627.2963
1569337627.31192
1569337627.32755
1569337627.34317
1569337627.3588
1569337627.37443
1569337627.39005
1569337627.40568
1569337627.4213
1569337627.43693
1569337627.45255
1569337627.46818
1569337627.48381
1569337627.49943
1569337627.51506
1569337627.53068
1569337627.54631
1569337627.56193
1569337627.57756
1569337627.59319
1569337627.60881
1569337627.62444
1569337627.64006
1569337627.65569
1569337627.67131
1569337627.68694
1569337627.70257
1569337627.71819
1569337627.73382
1569337627.74944
1569337627.76507
1569337627.78069
1569337627.79632
1569337627.81195
1569337627.82757
1569337627.8432
1569337627.85882
1569337627.87445
1569337627.89007
1569337627.9057
1569337627.92133
1569337627.93695
1569337627.95258
1569337627.9682
1569337627.98383
1569337627.99945
1569337628.01508
1569337628.03071
1569337628.04633
1569337628.06196
1569337628.07758
1569337628.09321
1569337628.10883
1569337628.12446
1569337628.14009
1569337628.15571
1569337628.17134
1569337628.18696
1569337628.20259
1569337628.21821
1569337628.23384
1569337628.24947
1569337628.26509
1569337628.28072
1569337628.29634
1569337628.31197
1569337628.32759
1569337628.34322
1569337628.35885
1569337628.37447
1569337628.3901
1569337628.40572
1569337628.42135
1569337628.43697
1569337628.4526
1569337628.46823
1569337628.48385
1569337628.49948
1569337628.5151
1569337628.53073
1569337628.54635
1569337628.56198
1569337628.57761
1569337628.59323
1569337628.60886
1569337628.62448
1569337628.64011
1569337628.65573
1569337628.67136
1569337628.68699
1569337628.70261
1569337628.71824
1569337628.73386
1569337628.74949
1569337628.76511
1569337628.78074
1569337628.79637
1569337628.81199
1569337628.82762
1569337628.84324
1569337628.85887
1569337628.87449
1569337628.89012
1569337628.90575
1569337628.92137
1569337628.937
1569337628.95262
1569337628.96825
1569337628.98387
1569337628.9995
1569337629.01513
1569337629.03075
1569337629.04638
1569337629.062
1569337629.07763
1569337629.09325
1569337629.10888
1569337629.12451
1569337629.14013
1569337629.15576
1569337629.17138
1569337629.18701
1569337629.20264
1569337629.21826
1569337629.23389
1569337629.24951
1569337629.26514
1569337629.28076
1569337629.29639
1569337629.31202
1569337629.32764
1569337629.34327
1569337629.35889
1569337629.37452
1569337629.39014
1569337629.40577
1569337629.4214
1569337629.43702
1569337629.45265
1569337629.46827
1569337629.4839
1569337629.49952
1569337629.51515
1569337629.53078
1569337629.5464
1569337629.56203
1569337629.57765
1569337629.59328
1569337629.6089
1569337629.62453
1569337629.64016
1569337629.65578
1569337629.67141
1569337629.68703
1569337629.70266
1569337629.71828
1569337629.73391
1569337629.74954
1569337629.76516
1569337629.78079
1569337629.79641
1569337629.81204
1569337629.82766
1569337629.84329
1569337629.85892
1569337629.87454
1569337629.89017
1569337629.90579
1569337629.92142
1569337629.93704
1569337629.95267
1569337629.9683
1569337629.98392
1569337629.99955
1569337630.01517
1569337630.0308
1569337630.04642
1569337630.06205
1569337630.07768
1569337630.0933
1569337630.10893
1569337630.12455
1569337630.14018
1569337630.1558
1569337630.17143
1569337630.18706
1569337630.20268
1569337630.21831
1569337630.23393
1569337630.24956
1569337630.26518
1569337630.28081
1569337630.29644
1569337630.31206
1569337630.32769
1569337630.34331
1569337630.35894
1569337630.37456
1569337630.39019
1569337630.40582
1569337630.42144
1569337630.43707
1569337630.45269
1569337630.46832
1569337630.48394
1569337630.49957
1569337630.5152
1569337630.53082
1569337630.54645
1569337630.56207
1569337630.5777
1569337630.59332
1569337630.60895
1569337630.62458
1569337630.6402
1569337630.65583
1569337630.67145
1569337630.68708
1569337630.7027
1569337630.71833
1569337630.73396
1569337630.74958
1569337630.76521
1569337630.78083
1569337630.79646
1569337630.81208
1569337630.82771
1569337630.84334
1569337630.85896
1569337630.87459
1569337630.89021
1569337630.90584
1569337630.92146
1569337630.93709
1569337630.95272
1569337630.96834
1569337630.98397
1569337630.99959
1569337631.01522
1569337631.03084
1569337631.04647
1569337631.0621
1569337631.07772
1569337631.09335
1569337631.10897
1569337631.1246
1569337631.14022
1569337631.15585
1569337631.17148
1569337631.1871
1569337631.20273
1569337631.21835
1569337631.23398
1569337631.2496
1569337631.26523
1569337631.28086
1569337631.29648
1569337631.31211
1569337631.32773
1569337631.34336
1569337631.35898
1569337631.37461
1569337631.39024
1569337631.40586
1569337631.42149
1569337631.43711
1569337631.45274
1569337631.46836
1569337631.48399
1569337631.49962
1569337631.51524
1569337631.53087
1569337631.54649
1569337631.56212
1569337631.57774
1569337631.59337
1569337631.609
1569337631.62462
1569337631.64025
1569337631.65587
1569337631.6715
1569337631.68712
1569337631.70275
1569337631.71838
1569337631.734
1569337631.74963
1569337631.76525
1569337631.78088
1569337631.7965
1569337631.81213
1569337631.82776
1569337631.84338
1569337631.85901
1569337631.87463
1569337631.89026
1569337631.90589
1569337631.92151
1569337631.93714
1569337631.95276
1569337631.96839
1569337631.98401
1569337631.99964
1569337632.01527
1569337632.03089
1569337632.04652
1569337632.06214
1569337632.07777
1569337632.09339
1569337632.10902
1569337632.12465
1569337632.14027
1569337632.1559
1569337632.17152
1569337632.18715
1569337632.20277
1569337632.2184
1569337632.23403
1569337632.24965
1569337632.26528
1569337632.2809
1569337632.29653
1569337632.31215
1569337632.32778
1569337632.34341
1569337632.35903
1569337632.37466
1569337632.39028
1569337632.40591
1569337632.42153
1569337632.43716
1569337632.45279
1569337632.46841
1569337632.48404
1569337632.49966
1569337632.51529
1569337632.53091
1569337632.54654
1569337632.56217
1569337632.57779
1569337632.59342
1569337632.60904
1569337632.62467
1569337632.64029
1569337632.65592
1569337632.67155
1569337632.68717
1569337632.7028
1569337632.71842
1569337632.73405
1569337632.74967
1569337632.7653
1569337632.78093
1569337632.79655
1569337632.81218
1569337632.8278
1569337632.84343
1569337632.85905
1569337632.87468
1569337632.89031
1569337632.90593
1569337632.92156
1569337632.93718
1569337632.95281
1569337632.96843
1569337632.98406
1569337632.99969
1569337633.01531
1569337633.03094
1569337633.04656
1569337633.06219
1569337633.07781
1569337633.09344
1569337633.10907
1569337633.12469
1569337633.14032
1569337633.15594
1569337633.17157
1569337633.18719
1569337633.20282
1569337633.21845
1569337633.23407
1569337633.2497
1569337633.26532
1569337633.28095
1569337633.29657
1569337633.3122
1569337633.32783
1569337633.34345
1569337633.35908
1569337633.3747
1569337633.39033
1569337633.40595
1569337633.42158
1569337633.43721
1569337633.45283
1569337633.46846
1569337633.48408
1569337633.49971
1569337633.51533
1569337633.53096
1569337633.54659
1569337633.56221
1569337633.57784
1569337633.59346
1569337633.60909
1569337633.62471
1569337633.64034
1569337633.65597
1569337633.67159
1569337633.68722
1569337633.70284
1569337633.71847
1569337633.73409
1569337633.74972
1569337633.76535
1569337633.78097
1569337633.7966
1569337633.81222
1569337633.82785
1569337633.84347
1569337633.8591
1569337633.87473
1569337633.89035
1569337633.90598
1569337633.9216
1569337633.93723
1569337633.95285
1569337633.96848
1569337633.98411
1569337633.99973
1569337634.01536
1569337634.03098
1569337634.04661
1569337634.06224
1569337634.07786
1569337634.09349
1569337634.10911
1569337634.12474
1569337634.14036
1569337634.15599
1569337634.17162
1569337634.18724
1569337634.20287
1569337634.21849
1569337634.23412
1569337634.24974
1569337634.26537
1569337634.281
1569337634.29662
1569337634.31225
1569337634.32787
1569337634.3435
1569337634.35912
1569337634.37475
1569337634.39038
1569337634.406
1569337634.42163
1569337634.43725
1569337634.45288
1569337634.4685
1569337634.48413
1569337634.49976
1569337634.51538
1569337634.53101
1569337634.54663
1569337634.56226
1569337634.57788
1569337634.59351
1569337634.60914
1569337634.62476
1569337634.64039
1569337634.65601
1569337634.67164
1569337634.68726
1569337634.70289
1569337634.71852
1569337634.73414
1569337634.74977
1569337634.76539
1569337634.78102
1569337634.79664
1569337634.81227
1569337634.8279
1569337634.84352
1569337634.85915
1569337634.87477
1569337634.8904
1569337634.90602
1569337634.92165
1569337634.93728
1569337634.9529
1569337634.96853
1569337634.98415
1569337634.99978
1569337635.0154
1569337635.03103
1569337635.04666
1569337635.06228
1569337635.07791
1569337635.09353
1569337635.10916
1569337635.12478
1569337635.14041
1569337635.15604
1569337635.17166
1569337635.18729
1569337635.20291
1569337635.21854
1569337635.23416
1569337635.24979
1569337635.26542
1569337635.28104
1569337635.29667
1569337635.31229
1569337635.32792
1569337635.34354
1569337635.35917
1569337635.3748
1569337635.39042
1569337635.40605
1569337635.42167
1569337635.4373
1569337635.45292
1569337635.46855
1569337635.48418
1569337635.4998
1569337635.51543
1569337635.53105
1569337635.54668
1569337635.5623
1569337635.57793
1569337635.59356
1569337635.60918
1569337635.62481
1569337635.64043
1569337635.65606
1569337635.67168
1569337635.68731
1569337635.70294
1569337635.71856
1569337635.73419
1569337635.74981
1569337635.76544
1569337635.78106
1569337635.79669
1569337635.81232
1569337635.82794
1569337635.84357
1569337635.85919
1569337635.87482
1569337635.89044
1569337635.90607
1569337635.9217
1569337635.93732
1569337635.95295
1569337635.96857
1569337635.9842
1569337635.99982
1569337636.01545
1569337636.03108
1569337636.0467
1569337636.06233
1569337636.07795
1569337636.09358
1569337636.1092
1569337636.12483
1569337636.14046
1569337636.15608
1569337636.17171
1569337636.18733
1569337636.20296
1569337636.21858
1569337636.23421
1569337636.24984
1569337636.26546
1569337636.28109
1569337636.29671
1569337636.31234
1569337636.32797
1569337636.34359
1569337636.35922
1569337636.37484
1569337636.39047
1569337636.40609
1569337636.42172
1569337636.43735
1569337636.45297
1569337636.4686
1569337636.48422
1569337636.49985
1569337636.51547
1569337636.5311
1569337636.54673
1569337636.56235
1569337636.57798
1569337636.5936
1569337636.60923
1569337636.62485
1569337636.64048
1569337636.65611
1569337636.67173
1569337636.68736
1569337636.70298
1569337636.71861
1569337636.73423
1569337636.74986
1569337636.76549
1569337636.78111
1569337636.79674
1569337636.81236
1569337636.82799
1569337636.84361
1569337636.85924
1569337636.87487
1569337636.89049
1569337636.90612
1569337636.92174
1569337636.93737
1569337636.95299
1569337636.96862
1569337636.98425
1569337636.99987
1569337637.0155
1569337637.03112
1569337637.04675
1569337637.06237
1569337637.078
1569337637.09363
1569337637.10925
1569337637.12488
1569337637.1405
1569337637.15613
1569337637.17175
1569337637.18738
1569337637.20301
1569337637.21863
1569337637.23426
1569337637.24988
1569337637.26551
1569337637.28113
1569337637.29676
1569337637.31239
1569337637.32801
1569337637.34364
1569337637.35926
1569337637.37489
1569337637.39051
1569337637.40614
1569337637.42177
1569337637.43739
1569337637.45302
1569337637.46864
1569337637.48427
1569337637.49989
1569337637.51552
1569337637.53115
1569337637.54677
1569337637.5624
1569337637.57802
1569337637.59365
1569337637.60927
1569337637.6249
1569337637.64053
1569337637.65615
1569337637.67178
1569337637.6874
1569337637.70303
1569337637.71865
1569337637.73428
1569337637.74991
1569337637.76553
1569337637.78116
1569337637.79678
1569337637.81241
1569337637.82803
1569337637.84366
1569337637.85929
1569337637.87491
1569337637.89054
1569337637.90616
1569337637.92179
1569337637.93741
1569337637.95304
1569337637.96867
1569337637.98429
1569337637.99992
1569337638.01554
1569337638.03117
1569337638.04679
1569337638.06242
1569337638.07805
1569337638.09367
1569337638.1093
1569337638.12492
1569337638.14055
1569337638.15617
1569337638.1718
1569337638.18743
1569337638.20305
1569337638.21868
1569337638.2343
1569337638.24993
1569337638.26555
1569337638.28118
1569337638.29681
1569337638.31243
1569337638.32806
1569337638.34368
1569337638.35931
1569337638.37493
1569337638.39056
1569337638.40619
1569337638.42181
1569337638.43744
1569337638.45306
1569337638.46869
1569337638.48431
1569337638.49994
1569337638.51557
1569337638.53119
1569337638.54682
1569337638.56244
1569337638.57807
1569337638.59369
1569337638.60932
1569337638.62495
1569337638.64057
1569337638.6562
1569337638.67182
1569337638.68745
1569337638.70307
1569337638.7187
1569337638.73433
1569337638.74995
1569337638.76558
1569337638.7812
1569337638.79683
1569337638.81245
1569337638.82808
1569337638.84371
1569337638.85933
1569337638.87496
1569337638.89058
1569337638.90621
1569337638.92183
1569337638.93746
1569337638.95309
1569337638.96871
1569337638.98434
1569337638.99996
1569337639.01559
1569337639.03122
1569337639.04684
1569337639.06247
1569337639.07809
1569337639.09372
1569337639.10934
1569337639.12497
1569337639.1406
1569337639.15622
1569337639.17185
1569337639.18747
1569337639.2031
1569337639.21872
1569337639.23435
1569337639.24998
1569337639.2656
1569337639.28123
1569337639.29685
1569337639.31248
1569337639.3281
1569337639.34373
1569337639.35936
1569337639.37498
1569337639.39061
1569337639.40623
1569337639.42186
1569337639.43748
1569337639.45311
1569337639.46874
1569337639.48436
1569337639.49999
1569337639.51561
1569337639.53124
1569337639.54686
1569337639.56249
1569337639.57812
1569337639.59374
1569337639.60937
1569337639.62499
1569337639.64062
1569337639.65624
1569337639.67187
1569337639.6875
1569337639.70312
1569337639.71875
1569337639.73437
1569337639.75
1569337639.76562
1569337639.78125
1569337639.79688
1569337639.8125
1569337639.82813
1569337639.84375
1569337639.85938
1569337639.875
1569337639.89063
1569337639.90626
1569337639.92188
1569337639.93751
1569337639.95313
1569337639.96876
1569337639.98438
1569337640.00001
1569337640.01564
1569337640.03126
1569337640.04689
1569337640.06251
1569337640.07814
1569337640.09376
1569337640.10939
1569337640.12502
1569337640.14064
1569337640.15627
1569337640.17189
1569337640.18752
1569337640.20314
1569337640.21877
1569337640.2344
1569337640.25002
1569337640.26565
1569337640.28127
1569337640.2969
1569337640.31252
1569337640.32815
1569337640.34378
1569337640.3594
1569337640.37503
1569337640.39065
1569337640.40628
1569337640.4219
1569337640.43753
1569337640.45316
1569337640.46878
1569337640.48441
1569337640.50003
1569337640.51566
1569337640.53128
1569337640.54691
1569337640.56254
1569337640.57816
1569337640.59379
1569337640.60941
1569337640.62504
1569337640.64066
1569337640.65629
1569337640.67192
1569337640.68754
1569337640.70317
1569337640.71879
1569337640.73442
1569337640.75004
1569337640.76567
1569337640.7813
1569337640.79692
1569337640.81255
1569337640.82817
1569337640.8438
1569337640.85942
1569337640.87505
1569337640.89068
1569337640.9063
1569337640.92193
1569337640.93755
1569337640.95318
1569337640.9688
1569337640.98443
1569337641.00006
1569337641.01568
1569337641.03131
1569337641.04693
1569337641.06256
1569337641.07818
1569337641.09381
1569337641.10944
1569337641.12506
1569337641.14069
1569337641.15631
1569337641.17194
1569337641.18757
1569337641.20319
1569337641.21882
1569337641.23444
1569337641.25007
1569337641.26569
1569337641.28132
1569337641.29695
1569337641.31257
1569337641.3282
1569337641.34382
1569337641.35945
1569337641.37507
1569337641.3907
1569337641.40633
1569337641.42195
1569337641.43758
1569337641.4532
1569337641.46883
1569337641.48445
1569337641.50008
1569337641.51571
1569337641.53133
1569337641.54696
1569337641.56258
1569337641.57821
1569337641.59383
1569337641.60946
1569337641.62509
1569337641.64071
1569337641.65634
1569337641.67196
1569337641.68759
1569337641.70321
1569337641.71884
1569337641.73447
1569337641.75009
1569337641.76572
1569337641.78134
1569337641.79697
1569337641.81259
1569337641.82822
1569337641.84385
1569337641.85947
1569337641.8751
1569337641.89072
1569337641.90635
1569337641.92197
1569337641.9376
1569337641.95323
1569337641.96885
1569337641.98448
1569337642.0001
1569337642.01573
1569337642.03135
1569337642.04698
1569337642.06261
1569337642.07823
1569337642.09386
1569337642.10948
1569337642.12511
1569337642.14073
1569337642.15636
1569337642.17199
1569337642.18761
1569337642.20324
1569337642.21886
1569337642.23449
1569337642.25011
1569337642.26574
1569337642.28137
1569337642.29699
1569337642.31262
1569337642.32824
1569337642.34387
1569337642.35949
1569337642.37512
1569337642.39075
1569337642.40637
1569337642.422
1569337642.43762
1569337642.45325
1569337642.46887
1569337642.4845
1569337642.50013
1569337642.51575
1569337642.53138
1569337642.547
1569337642.56263
1569337642.57825
1569337642.59388
1569337642.60951
1569337642.62513
1569337642.64076
1569337642.65638
1569337642.67201
1569337642.68763
1569337642.70326
1569337642.71889
1569337642.73451
1569337642.75014
1569337642.76576
1569337642.78139
1569337642.79701
1569337642.81264
1569337642.82827
1569337642.84389
1569337642.85952
1569337642.87514
1569337642.89077
1569337642.90639
1569337642.92202
1569337642.93765
1569337642.95327
1569337642.9689
1569337642.98452
1569337643.00015
1569337643.01577
1569337643.0314
1569337643.04703
1569337643.06265
1569337643.07828
1569337643.0939
1569337643.10953
1569337643.12515
1569337643.14078
1569337643.15641
1569337643.17203
1569337643.18766
1569337643.20328
1569337643.21891
1569337643.23453
1569337643.25016
1569337643.26579
1569337643.28141
1569337643.29704
1569337643.31266
1569337643.32829
1569337643.34391
1569337643.35954
1569337643.37517
1569337643.39079
1569337643.40642
1569337643.42204
1569337643.43767
1569337643.45329
1569337643.46892
1569337643.48455
1569337643.50017
1569337643.5158
1569337643.53142
1569337643.54705
1569337643.56268
1569337643.5783
1569337643.59393
1569337643.60955
1569337643.62518
1569337643.6408
1569337643.65643
1569337643.67206
1569337643.68768
1569337643.70331
1569337643.71893
1569337643.73456
1569337643.75018
1569337643.76581
1569337643.78144
1569337643.79706
1569337643.81269
1569337643.82831
1569337643.84394
1569337643.85956
1569337643.87519
1569337643.89082
1569337643.90644
1569337643.92207
1569337643.93769
1569337643.95332
1569337643.96894
1569337643.98457
1569337644.0002
1569337644.01582
1569337644.03145
1569337644.04707
1569337644.0627
1569337644.07832
1569337644.09395
1569337644.10958
1569337644.1252
1569337644.14083
1569337644.15645
1569337644.17208
1569337644.1877
1569337644.20333
1569337644.21896
1569337644.23458
1569337644.25021
1569337644.26583
1569337644.28146
1569337644.29708
1569337644.31271
1569337644.32834
1569337644.34396
1569337644.35959
1569337644.37521
1569337644.39084
1569337644.40646
1569337644.42209
1569337644.43772
1569337644.45334
1569337644.46897
1569337644.48459
1569337644.50022
1569337644.51584
1569337644.53147
1569337644.5471
1569337644.56272
1569337644.57835
1569337644.59397
1569337644.6096
1569337644.62522
1569337644.64085
1569337644.65648
1569337644.6721
1569337644.68773
1569337644.70335
1569337644.71898
1569337644.7346
1569337644.75023
1569337644.76586
1569337644.78148
1569337644.79711
1569337644.81273
1569337644.82836
1569337644.84398
1569337644.85961
1569337644.87524
1569337644.89086
1569337644.90649
1569337644.92211
1569337644.93774
1569337644.95336
1569337644.96899
1569337644.98462
1569337645.00024
1569337645.01587
1569337645.03149
1569337645.04712
1569337645.06274
1569337645.07837
1569337645.094
1569337645.10962
1569337645.12525
1569337645.14087
1569337645.1565
1569337645.17212
1569337645.18775
1569337645.20338
1569337645.219
1569337645.23463
1569337645.25025
1569337645.26588
1569337645.2815
1569337645.29713
1569337645.31276
1569337645.32838
1569337645.34401
1569337645.35963
1569337645.37526
1569337645.39088
1569337645.40651
1569337645.42214
1569337645.43776
1569337645.45339
1569337645.46901
1569337645.48464
1569337645.50026
1569337645.51589
1569337645.53152
1569337645.54714
1569337645.56277
1569337645.57839
1569337645.59402
1569337645.60964
1569337645.62527
1569337645.6409
1569337645.65652
1569337645.67215
1569337645.68777
1569337645.7034
1569337645.71902
1569337645.73465
1569337645.75028
1569337645.7659
1569337645.78153
1569337645.79715
1569337645.81278
1569337645.8284
1569337645.84403
1569337645.85966
1569337645.87528
1569337645.89091
1569337645.90653
1569337645.92216
1569337645.93778
1569337645.95341
1569337645.96904
1569337645.98466
1569337646.00029
1569337646.01591
1569337646.03154
1569337646.04717
1569337646.06279
1569337646.07842
1569337646.09404
1569337646.10967
1569337646.12529
1569337646.14092
1569337646.15655
1569337646.17217
1569337646.1878
1569337646.20342
1569337646.21905
1569337646.23467
1569337646.2503
1569337646.26593
1569337646.28155
1569337646.29718
1569337646.3128
1569337646.32843
1569337646.34405
1569337646.35968
1569337646.37531
1569337646.39093
1569337646.40656
1569337646.42218
1569337646.43781
1569337646.45343
1569337646.46906
1569337646.48469
1569337646.50031
1569337646.51594
1569337646.53156
1569337646.54719
1569337646.56281
1569337646.57844
1569337646.59407
1569337646.60969
1569337646.62532
1569337646.64094
1569337646.65657
1569337646.67219
1569337646.68782
1569337646.70345
1569337646.71907
1569337646.7347
1569337646.75032
1569337646.76595
1569337646.78157
1569337646.7972
1569337646.81283
1569337646.82845
1569337646.84408
1569337646.8597
1569337646.87533
1569337646.89095
1569337646.90658
1569337646.92221
1569337646.93783
1569337646.95346
1569337646.96908
1569337646.98471
1569337647.00033
1569337647.01596
1569337647.03159
1569337647.04721
1569337647.06284
1569337647.07846
1569337647.09409
1569337647.10971
1569337647.12534
1569337647.14097
1569337647.15659
1569337647.17222
1569337647.18784
1569337647.20347
1569337647.21909
1569337647.23472
1569337647.25035
1569337647.26597
1569337647.2816
1569337647.29722
1569337647.31285
1569337647.32847
1569337647.3441
1569337647.35973
1569337647.37535
1569337647.39098
1569337647.4066
1569337647.42223
1569337647.43785
1569337647.45348
1569337647.46911
1569337647.48473
1569337647.50036
1569337647.51598
1569337647.53161
1569337647.54723
1569337647.56286
1569337647.57849
1569337647.59411
1569337647.60974
1569337647.62536
1569337647.64099
1569337647.65661
1569337647.67224
1569337647.68787
1569337647.70349
1569337647.71912
1569337647.73474
1569337647.75037
1569337647.76599
1569337647.78162
1569337647.79725
1569337647.81287
1569337647.8285
1569337647.84412
1569337647.85975
1569337647.87537
1569337647.891
1569337647.90663
1569337647.92225
1569337647.93788
1569337647.9535
1569337647.96913
1569337647.98475
1569337648.00038
1569337648.01601
1569337648.03163
1569337648.04726
1569337648.06288
1569337648.07851
1569337648.09413
1569337648.10976
1569337648.12539
1569337648.14101
1569337648.15664
1569337648.17226
1569337648.18789
1569337648.20351
1569337648.21914
1569337648.23477
1569337648.25039
1569337648.26602
1569337648.28164
1569337648.29727
1569337648.3129
1569337648.32852
1569337648.34415
1569337648.35977
1569337648.3754
1569337648.39102
1569337648.40665
1569337648.42228
1569337648.4379
1569337648.45353
1569337648.46915
1569337648.48478
1569337648.5004
1569337648.51603
1569337648.53166
1569337648.54728
1569337648.56291
1569337648.57853
1569337648.59416
1569337648.60978
1569337648.62541
1569337648.64104
1569337648.65666
1569337648.67229
1569337648.68791
1569337648.70354
1569337648.71916
1569337648.73479
1569337648.75042
1569337648.76604
1569337648.78167
1569337648.79729
1569337648.81292
1569337648.82854
1569337648.84417
1569337648.8598
1569337648.87542
1569337648.89105
1569337648.90667
1569337648.9223
1569337648.93792
1569337648.95355
1569337648.96918
1569337648.9848
1569337649.00043
1569337649.01605
1569337649.03168
1569337649.0473
1569337649.06293
1569337649.07856
1569337649.09418
1569337649.10981
1569337649.12543
1569337649.14106
1569337649.15668
1569337649.17231
1569337649.18794
1569337649.20356
1569337649.21919
1569337649.23481
1569337649.25044
1569337649.26606
1569337649.28169
1569337649.29732
1569337649.31294
1569337649.32857
1569337649.34419
1569337649.35982
1569337649.37544
1569337649.39107
1569337649.4067
1569337649.42232
1569337649.43795
1569337649.45357
1569337649.4692
1569337649.48482
1569337649.50045
1569337649.51608
1569337649.5317
1569337649.54733
1569337649.56295
1569337649.57858
1569337649.5942
1569337649.60983
1569337649.62546
1569337649.64108
1569337649.65671
1569337649.67233
1569337649.68796
1569337649.70358
1569337649.71921
1569337649.73484
1569337649.75046
1569337649.76609
1569337649.78171
1569337649.79734
1569337649.81296
1569337649.82859
1569337649.84422
1569337649.85984
1569337649.87547
1569337649.89109
1569337649.90672
1569337649.92234
1569337649.93797
1569337649.9536
1569337649.96922
1569337649.98485
1569337650.00047
1569337650.0161
1569337650.03172
1569337650.04735
1569337650.06298
1569337650.0786
1569337650.09423
1569337650.10985
1569337650.12548
1569337650.1411
1569337650.15673
1569337650.17236
1569337650.18798
1569337650.20361
1569337650.21923
1569337650.23486
1569337650.25048
1569337650.26611
1569337650.28174
1569337650.29736
1569337650.31299
1569337650.32861
1569337650.34424
1569337650.35986
1569337650.37549
1569337650.39112
1569337650.40674
1569337650.42237
1569337650.43799
1569337650.45362
1569337650.46924
1569337650.48487
1569337650.5005
1569337650.51612
1569337650.53175
1569337650.54737
1569337650.563
1569337650.57862
1569337650.59425
1569337650.60988
1569337650.6255
1569337650.64113
1569337650.65675
1569337650.67238
1569337650.688
1569337650.70363
1569337650.71926
1569337650.73488
1569337650.75051
1569337650.76613
1569337650.78176
1569337650.79738
1569337650.81301
1569337650.82864
1569337650.84426
1569337650.85989
1569337650.87551
1569337650.89114
1569337650.90677
1569337650.92239
1569337650.93802
1569337650.95364
1569337650.96927
1569337650.98489
1569337651.00052
1569337651.01615
1569337651.03177
1569337651.0474
1569337651.06302
1569337651.07865
1569337651.09427
1569337651.1099
1569337651.12553
1569337651.14115
1569337651.15678
1569337651.1724
1569337651.18803
1569337651.20365
1569337651.21928
1569337651.23491
1569337651.25053
1569337651.26616
1569337651.28178
1569337651.29741
1569337651.31303
1569337651.32866
1569337651.34429
1569337651.35991
1569337651.37554
1569337651.39116
1569337651.40679
1569337651.42241
1569337651.43804
1569337651.45367
1569337651.46929
1569337651.48492
1569337651.50054
1569337651.51617
1569337651.53179
1569337651.54742
1569337651.56305
1569337651.57867
1569337651.5943
1569337651.60992
1569337651.62555
1569337651.64117
1569337651.6568
1569337651.67243
1569337651.68805
1569337651.70368
1569337651.7193
1569337651.73493
1569337651.75055
1569337651.76618
1569337651.78181
1569337651.79743
1569337651.81306
1569337651.82868
1569337651.84431
1569337651.85993
1569337651.87556
1569337651.89119
1569337651.90681
1569337651.92244
1569337651.93806
1569337651.95369
1569337651.96931
1569337651.98494
1569337652.00057
1569337652.01619
1569337652.03182
1569337652.04744
1569337652.06307
1569337652.07869
1569337652.09432
1569337652.10995
1569337652.12557
1569337652.1412
1569337652.15682
1569337652.17245
1569337652.18807
1569337652.2037
1569337652.21933
1569337652.23495
1569337652.25058
1569337652.2662
1569337652.28183
1569337652.29745
1569337652.31308
1569337652.32871
1569337652.34433
1569337652.35996
1569337652.37558
1569337652.39121
1569337652.40683
1569337652.42246
1569337652.43809
1569337652.45371
1569337652.46934
1569337652.48496
1569337652.50059
1569337652.51621
1569337652.53184
1569337652.54747
1569337652.56309
1569337652.57872
1569337652.59434
1569337652.60997
1569337652.62559
1569337652.64122
1569337652.65685
1569337652.67247
1569337652.6881
1569337652.70372
1569337652.71935
1569337652.73497
1569337652.7506
1569337652.76623
1569337652.78185
1569337652.79748
1569337652.8131
1569337652.82873
1569337652.84435
1569337652.85998
1569337652.87561
1569337652.89123
1569337652.90686
1569337652.92248
1569337652.93811
1569337652.95373
1569337652.96936
1569337652.98499
1569337653.00061
1569337653.01624
1569337653.03186
1569337653.04749
1569337653.06311
1569337653.07874
1569337653.09437
1569337653.10999
1569337653.12562
1569337653.14124
1569337653.15687
1569337653.1725
1569337653.18812
1569337653.20375
1569337653.21937
1569337653.235
1569337653.25062
1569337653.26625
1569337653.28188
1569337653.2975
1569337653.31313
1569337653.32875
1569337653.34438
1569337653.36
1569337653.37563
1569337653.39126
1569337653.40688
1569337653.42251
1569337653.43813
1569337653.45376
1569337653.46938
1569337653.48501
1569337653.50064
1569337653.51626
1569337653.53189
1569337653.54751
1569337653.56314
1569337653.57876
1569337653.59439
1569337653.61002
1569337653.62564
1569337653.64127
1569337653.65689
1569337653.67252
1569337653.68814
1569337653.70377
1569337653.7194
1569337653.73502
1569337653.75065
1569337653.76627
1569337653.7819
1569337653.79752
1569337653.81315
1569337653.82878
1569337653.8444
1569337653.86003
1569337653.87565
1569337653.89128
1569337653.9069
1569337653.92253
1569337653.93816
1569337653.95378
1569337653.96941
1569337653.98503
1569337654.00066
1569337654.01628
1569337654.03191
1569337654.04754
1569337654.06316
1569337654.07879
1569337654.09441
1569337654.11004
1569337654.12566
1569337654.14129
1569337654.15692
1569337654.17254
1569337654.18817
1569337654.20379
1569337654.21942
1569337654.23504
1569337654.25067
1569337654.2663
1569337654.28192
1569337654.29755
1569337654.31317
1569337654.3288
1569337654.34442
1569337654.36005
1569337654.37568
1569337654.3913
1569337654.40693
1569337654.42255
1569337654.43818
1569337654.4538
1569337654.46943
1569337654.48506
1569337654.50068
1569337654.51631
1569337654.53193
1569337654.54756
1569337654.56318
1569337654.57881
1569337654.59444
1569337654.61006
1569337654.62569
1569337654.64131
1569337654.65694
1569337654.67256
1569337654.68819
1569337654.70382
1569337654.71944
1569337654.73507
1569337654.75069
1569337654.76632
1569337654.78194
1569337654.79757
1569337654.8132
1569337654.82882
1569337654.84445
1569337654.86007
1569337654.8757
1569337654.89132
1569337654.90695
1569337654.92258
1569337654.9382
1569337654.95383
1569337654.96945
1569337654.98508
1569337655.0007
1569337655.01633
1569337655.03196
1569337655.04758
1569337655.06321
1569337655.07883
1569337655.09446
1569337655.11008
1569337655.12571
1569337655.14134
1569337655.15696
1569337655.17259
1569337655.18821
1569337655.20384
1569337655.21946
1569337655.23509
1569337655.25072
1569337655.26634
1569337655.28197
1569337655.29759
1569337655.31322
1569337655.32885
1569337655.34447
1569337655.3601
1569337655.37572
1569337655.39135
1569337655.40697
1569337655.4226
1569337655.43823
1569337655.45385
1569337655.46948
1569337655.4851
1569337655.50073
1569337655.51635
1569337655.53198
1569337655.54761
1569337655.56323
1569337655.57886
1569337655.59448
1569337655.61011
1569337655.62573
1569337655.64136
1569337655.65699
1569337655.67261
1569337655.68824
1569337655.70386
1569337655.71949
1569337655.73511
1569337655.75074
1569337655.76637
1569337655.78199
1569337655.79762
1569337655.81324
1569337655.82887
1569337655.84449
1569337655.86012
1569337655.87575
1569337655.89137
1569337655.907
1569337655.92262
1569337655.93825
1569337655.95387
1569337655.9695
1569337655.98513
1569337656.00075
1569337656.01638
1569337656.032
1569337656.04763
1569337656.06325
1569337656.07888
1569337656.09451
1569337656.11013
1569337656.12576
1569337656.14138
1569337656.15701
1569337656.17263
1569337656.18826
1569337656.20389
1569337656.21951
1569337656.23514
1569337656.25076
1569337656.26639
1569337656.28201
1569337656.29764
1569337656.31327
1569337656.32889
1569337656.34452
1569337656.36014
1569337656.37577
1569337656.39139
1569337656.40702
1569337656.42265
1569337656.43827
1569337656.4539
1569337656.46952
1569337656.48515
1569337656.50077
1569337656.5164
1569337656.53203
1569337656.54765
1569337656.56328
1569337656.5789
1569337656.59453
1569337656.61015
1569337656.62578
1569337656.64141
1569337656.65703
1569337656.67266
1569337656.68828
1569337656.70391
1569337656.71953
1569337656.73516
1569337656.75079
1569337656.76641
1569337656.78204
1569337656.79766
1569337656.81329
1569337656.82891
1569337656.84454
1569337656.86017
1569337656.87579
1569337656.89142
1569337656.90704
1569337656.92267
1569337656.93829
1569337656.95392
1569337656.96955
1569337656.98517
1569337657.0008
1569337657.01642
1569337657.03205
1569337657.04767
1569337657.0633
1569337657.07893
1569337657.09455
1569337657.11018
1569337657.1258
1569337657.14143
1569337657.15705
1569337657.17268
1569337657.18831
1569337657.20393
1569337657.21956
1569337657.23518
1569337657.25081
1569337657.26643
1569337657.28206
1569337657.29769
1569337657.31331
1569337657.32894
1569337657.34456
1569337657.36019
1569337657.37581
1569337657.39144
1569337657.40707
1569337657.42269
1569337657.43832
1569337657.45394
1569337657.46957
1569337657.48519
1569337657.50082
1569337657.51645
1569337657.53207
1569337657.5477
1569337657.56332
1569337657.57895
1569337657.59457
1569337657.6102
1569337657.62583
1569337657.64145
1569337657.65708
1569337657.6727
1569337657.68833
1569337657.70395
1569337657.71958
1569337657.73521
1569337657.75083
1569337657.76646
1569337657.78208
1569337657.79771
1569337657.81333
1569337657.82896
1569337657.84459
1569337657.86021
1569337657.87584
1569337657.89146
1569337657.90709
1569337657.92271
1569337657.93834
1569337657.95397
1569337657.96959
1569337657.98522
1569337658.00084
1569337658.01647
1569337658.0321
1569337658.04772
1569337658.06335
1569337658.07897
1569337658.0946
1569337658.11022
1569337658.12585
1569337658.14148
1569337658.1571
1569337658.17273
1569337658.18835
1569337658.20398
1569337658.2196
1569337658.23523
1569337658.25086
1569337658.26648
1569337658.28211
1569337658.29773
1569337658.31336
1569337658.32898
1569337658.34461
1569337658.36024
1569337658.37586
1569337658.39149
1569337658.40711
1569337658.42274
1569337658.43836
1569337658.45399
1569337658.46962
1569337658.48524
1569337658.50087
1569337658.51649
1569337658.53212
1569337658.54774
1569337658.56337
1569337658.579
1569337658.59462
1569337658.61025
1569337658.62587
1569337658.6415
1569337658.65712
1569337658.67275
1569337658.68838
1569337658.704
1569337658.71963
1569337658.73525
1569337658.75088
1569337658.7665
1569337658.78213
1569337658.79776
1569337658.81338
1569337658.82901
1569337658.84463
1569337658.86026
1569337658.87588
1569337658.89151
1569337658.90714
1569337658.92276
1569337658.93839
1569337658.95401
1569337658.96964
1569337658.98526
1569337659.00089
1569337659.01652
1569337659.03214
1569337659.04777
1569337659.06339
1569337659.07902
1569337659.09464
1569337659.11027
1569337659.1259
1569337659.14152
1569337659.15715
1569337659.17277
1569337659.1884
1569337659.20402
1569337659.21965
1569337659.23528
1569337659.2509
1569337659.26653
1569337659.28215
1569337659.29778
1569337659.3134
1569337659.32903
1569337659.34466
1569337659.36028
1569337659.37591
1569337659.39153
1569337659.40716
1569337659.42278
1569337659.43841
1569337659.45404
1569337659.46966
1569337659.48529
1569337659.50091
1569337659.51654
1569337659.53216
1569337659.54779
1569337659.56342
1569337659.57904
1569337659.59467
1569337659.61029
1569337659.62592
1569337659.64154
1569337659.65717
1569337659.6728
1569337659.68842
1569337659.70405
1569337659.71967
1569337659.7353
1569337659.75092
1569337659.76655
1569337659.78218
1569337659.7978
1569337659.81343
1569337659.82905
1569337659.84468
1569337659.8603
1569337659.87593
1569337659.89156
1569337659.90718
1569337659.92281
1569337659.93843
1569337659.95406
1569337659.96968
1569337659.98531
1569337660.00094
1569337660.01656
1569337660.03219
1569337660.04781
1569337660.06344
1569337660.07906
1569337660.09469
1569337660.11032
1569337660.12594
1569337660.14157
1569337660.15719
1569337660.17282
1569337660.18845
1569337660.20407
1569337660.2197
1569337660.23532
1569337660.25095
1569337660.26657
1569337660.2822
1569337660.29783
1569337660.31345
1569337660.32908
1569337660.3447
1569337660.36033
1569337660.37595
1569337660.39158
1569337660.40721
1569337660.42283
1569337660.43846
1569337660.45408
1569337660.46971
1569337660.48533
1569337660.50096
1569337660.51659
1569337660.53221
1569337660.54784
1569337660.56346
1569337660.57909
1569337660.59471
1569337660.61034
1569337660.62597
1569337660.64159
1569337660.65722
1569337660.67284
1569337660.68847
1569337660.70409
1569337660.71972
1569337660.73535
1569337660.75097
1569337660.7666
1569337660.78222
1569337660.79785
1569337660.81347
1569337660.8291
1569337660.84473
1569337660.86035
1569337660.87598
1569337660.8916
1569337660.90723
1569337660.92285
1569337660.93848
1569337660.95411
1569337660.96973
1569337660.98536
1569337661.00098
1569337661.01661
1569337661.03223
1569337661.04786
1569337661.06349
1569337661.07911
1569337661.09474
1569337661.11036
1569337661.12599
1569337661.14161
1569337661.15724
1569337661.17287
1569337661.18849
1569337661.20412
1569337661.21974
1569337661.23537
1569337661.25099
1569337661.26662
1569337661.28225
1569337661.29787
1569337661.3135
1569337661.32912
1569337661.34475
1569337661.36037
1569337661.376
1569337661.39163
1569337661.40725
1569337661.42288
1569337661.4385
1569337661.45413
1569337661.46975
1569337661.48538
1569337661.50101
1569337661.51663
1569337661.53226
1569337661.54788
1569337661.56351
1569337661.57913
1569337661.59476
1569337661.61039
1569337661.62601
1569337661.64164
1569337661.65726
1569337661.67289
1569337661.68851
1569337661.70414
1569337661.71977
1569337661.73539
1569337661.75102
1569337661.76664
1569337661.78227
1569337661.79789
1569337661.81352
1569337661.82915
1569337661.84477
1569337661.8604
1569337661.87602
1569337661.89165
1569337661.90727
1569337661.9229
1569337661.93853
1569337661.95415
1569337661.96978
1569337661.9854
1569337662.00103
1569337662.01665
1569337662.03228
1569337662.04791
1569337662.06353
1569337662.07916
1569337662.09478
1569337662.11041
1569337662.12603
1569337662.14166
1569337662.15729
1569337662.17291
1569337662.18854
1569337662.20416
1569337662.21979
1569337662.23541
1569337662.25104
1569337662.26667
1569337662.28229
1569337662.29792
1569337662.31354
1569337662.32917
1569337662.34479
1569337662.36042
1569337662.37605
1569337662.39167
1569337662.4073
1569337662.42292
1569337662.43855
1569337662.45418
1569337662.4698
1569337662.48543
1569337662.50105
1569337662.51668
1569337662.5323
1569337662.54793
1569337662.56356
1569337662.57918
1569337662.59481
1569337662.61043
1569337662.62606
1569337662.64168
1569337662.65731
1569337662.67294
1569337662.68856
1569337662.70419
1569337662.71981
1569337662.73544
1569337662.75106
1569337662.76669
1569337662.78232
1569337662.79794
1569337662.81357
1569337662.82919
1569337662.84482
1569337662.86044
1569337662.87607
1569337662.8917
1569337662.90732
1569337662.92295
1569337662.93857
1569337662.9542
1569337662.96982
1569337662.98545
1569337663.00108
1569337663.0167
1569337663.03233
1569337663.04795
1569337663.06358
1569337663.0792
1569337663.09483
1569337663.11046
1569337663.12608
1569337663.14171
1569337663.15733
1569337663.17296
1569337663.18858
1569337663.20421
1569337663.21984
1569337663.23546
1569337663.25109
1569337663.26671
1569337663.28234
1569337663.29796
1569337663.31359
1569337663.32922
1569337663.34484
1569337663.36047
1569337663.37609
1569337663.39172
1569337663.40734
1569337663.42297
1569337663.4386
1569337663.45422
1569337663.46985
1569337663.48547
1569337663.5011
1569337663.51672
1569337663.53235
1569337663.54798
1569337663.5636
1569337663.57923
1569337663.59485
1569337663.61048
1569337663.6261
1569337663.64173
1569337663.65736
1569337663.67298
1569337663.68861
1569337663.70423
1569337663.71986
1569337663.73548
1569337663.75111
1569337663.76674
1569337663.78236
1569337663.79799
1569337663.81361
1569337663.82924
1569337663.84486
1569337663.86049
1569337663.87612
1569337663.89174
1569337663.90737
1569337663.92299
1569337663.93862
1569337663.95424
1569337663.96987
1569337663.9855
1569337664.00112
1569337664.01675
1569337664.03237
1569337664.048
1569337664.06362
1569337664.07925
1569337664.09488
1569337664.1105
1569337664.12613
1569337664.14175
1569337664.15738
1569337664.173
1569337664.18863
1569337664.20426
1569337664.21988
1569337664.23551
1569337664.25113
1569337664.26676
1569337664.28238
1569337664.29801
1569337664.31364
1569337664.32926
1569337664.34489
1569337664.36051
1569337664.37614
1569337664.39176
1569337664.40739
1569337664.42302
1569337664.43864
1569337664.45427
1569337664.46989
1569337664.48552
1569337664.50114
1569337664.51677
1569337664.5324
1569337664.54802
1569337664.56365
1569337664.57927
1569337664.5949
1569337664.61052
1569337664.62615
1569337664.64178
1569337664.6574
1569337664.67303
1569337664.68865
1569337664.70428
1569337664.7199
1569337664.73553
1569337664.75116
1569337664.76678
1569337664.78241
1569337664.79803
1569337664.81366
1569337664.82928
1569337664.84491
1569337664.86054
1569337664.87616
1569337664.89179
1569337664.90741
1569337664.92304
1569337664.93866
1569337664.95429
1569337664.96992
1569337664.98554
1569337665.00117
1569337665.01679
1569337665.03242
1569337665.04805
1569337665.06367
1569337665.0793
1569337665.09492
1569337665.11055
1569337665.12617
1569337665.1418
1569337665.15743
1569337665.17305
1569337665.18868
1569337665.2043
1569337665.21993
1569337665.23555
1569337665.25118
1569337665.26681
1569337665.28243
1569337665.29806
1569337665.31368
1569337665.32931
1569337665.34493
1569337665.36056
1569337665.37619
1569337665.39181
1569337665.40744
1569337665.42306
1569337665.43869
1569337665.45431
1569337665.46994
1569337665.48557
1569337665.50119
1569337665.51682
1569337665.53244
1569337665.54807
1569337665.56369
1569337665.57932
1569337665.59495
1569337665.61057
1569337665.6262
1569337665.64182
1569337665.65745
1569337665.67307
1569337665.6887
1569337665.70433
1569337665.71995
1569337665.73558
1569337665.7512
1569337665.76683
1569337665.78245
1569337665.79808
1569337665.81371
1569337665.82933
1569337665.84496
1569337665.86058
1569337665.87621
1569337665.89183
1569337665.90746
1569337665.92309
1569337665.93871
1569337665.95434
1569337665.96996
1569337665.98559
1569337666.00121
1569337666.01684
1569337666.03247
1569337666.04809
1569337666.06372
1569337666.07934
1569337666.09497
1569337666.11059
1569337666.12622
1569337666.14185
1569337666.15747
1569337666.1731
1569337666.18872
1569337666.20435
1569337666.21997
1569337666.2356
1569337666.25123
1569337666.26685
1569337666.28248
1569337666.2981
1569337666.31373
1569337666.32935
1569337666.34498
1569337666.36061
1569337666.37623
1569337666.39186
1569337666.40748
1569337666.42311
1569337666.43873
1569337666.45436
1569337666.46999
1569337666.48561
1569337666.50124
1569337666.51686
1569337666.53249
1569337666.54811
1569337666.56374
1569337666.57937
1569337666.59499
1569337666.61062
1569337666.62624
1569337666.64187
1569337666.65749
1569337666.67312
1569337666.68875
1569337666.70437
1569337666.72
1569337666.73562
1569337666.75125
1569337666.76687
1569337666.7825
1569337666.79813
1569337666.81375
1569337666.82938
1569337666.845
1569337666.86063
1569337666.87625
1569337666.89188
1569337666.90751
1569337666.92313
1569337666.93876
1569337666.95438
1569337666.97001
1569337666.98563
1569337667.00126
1569337667.01689
1569337667.03251
1569337667.04814
1569337667.06376
1569337667.07939
1569337667.09501
1569337667.11064
1569337667.12627
1569337667.14189
1569337667.15752
1569337667.17314
1569337667.18877
1569337667.20439
1569337667.22002
1569337667.23565
1569337667.25127
1569337667.2669
1569337667.28252
1569337667.29815
1569337667.31378
1569337667.3294
1569337667.34503
1569337667.36065
1569337667.37628
1569337667.3919
1569337667.40753
1569337667.42316
1569337667.43878
1569337667.45441
1569337667.47003
1569337667.48566
1569337667.50128
1569337667.51691
1569337667.53254
1569337667.54816
1569337667.56379
1569337667.57941
1569337667.59504
1569337667.61066
1569337667.62629
1569337667.64192
1569337667.65754
1569337667.67317
1569337667.68879
1569337667.70442
1569337667.72004
1569337667.73567
1569337667.7513
1569337667.76692
1569337667.78255
1569337667.79817
1569337667.8138
1569337667.82942
1569337667.84505
1569337667.86068
1569337667.8763
1569337667.89193
1569337667.90755
1569337667.92318
1569337667.9388
1569337667.95443
1569337667.97006
1569337667.98568
1569337668.00131
1569337668.01693
1569337668.03256
1569337668.04818
1569337668.06381
1569337668.07944
1569337668.09506
1569337668.11069
1569337668.12631
1569337668.14194
1569337668.15756
1569337668.17319
1569337668.18882
1569337668.20444
1569337668.22007
1569337668.23569
1569337668.25132
1569337668.26694
1569337668.28257
1569337668.2982
1569337668.31382
1569337668.32945
1569337668.34507
1569337668.3607
1569337668.37632
1569337668.39195
1569337668.40758
1569337668.4232
1569337668.43883
1569337668.45445
1569337668.47008
1569337668.4857
1569337668.50133
1569337668.51696
1569337668.53258
1569337668.54821
1569337668.56383
1569337668.57946
1569337668.59508
1569337668.61071
1569337668.62634
1569337668.64196
1569337668.65759
1569337668.67321
1569337668.68884
1569337668.70446
1569337668.72009
1569337668.73572
1569337668.75134
1569337668.76697
1569337668.78259
1569337668.79822
1569337668.81384
1569337668.82947
1569337668.8451
1569337668.86072
1569337668.87635
1569337668.89197
1569337668.9076
1569337668.92322
1569337668.93885
1569337668.95448
1569337668.9701
1569337668.98573
1569337669.00135
1569337669.01698
1569337669.0326
1569337669.04823
1569337669.06386
1569337669.07948
1569337669.09511
1569337669.11073
1569337669.12636
1569337669.14198
1569337669.15761
1569337669.17324
1569337669.18886
1569337669.20449
1569337669.22011
1569337669.23574
1569337669.25136
1569337669.26699
1569337669.28262
1569337669.29824
