1569335504.19797
1569335504.2136
1569335504.22922
1569335504.24485
1569335504.26047
1569335504.2761
1569335504.29172
1569335504.30735
1569335504.32298
1569335504.3386
1569335504.35423
1569335504.36985
1569335504.38548
1569335504.4011
1569335504.41673
1569335504.43236
1569335504.44798
1569335504.46361
1569335504.47923
1569335504.49486
1569335504.51048
1569335504.52611
1569335504.54174
1569335504.55736
1569335504.57299
1569335504.58861
1569335504.60424
1569335504.61986
1569335504.63549
1569335504.65112
1569335504.66674
1569335504.68237
1569335504.69799
1569335504.71362
1569335504.72924
1569335504.74487
1569335504.7605
1569335504.77612
1569335504.79175
1569335504.80737
1569335504.823
1569335504.83862
1569335504.85425
1569335504.86988
1569335504.8855
1569335504.90113
1569335504.91675
1569335504.93238
1569335504.948
1569335504.96363
1569335504.97926
1569335504.99488
1569335505.01051
1569335505.02613
1569335505.04176
1569335505.05738
1569335505.07301
1569335505.08864
1569335505.10426
1569335505.11989
1569335505.13551
1569335505.15114
1569335505.16676
1569335505.18239
1569335505.19802
1569335505.21364
1569335505.22927
1569335505.24489
1569335505.26052
1569335505.27614
1569335505.29177
1569335505.3074
1569335505.32302
1569335505.33865
1569335505.35427
1569335505.3699
1569335505.38552
1569335505.40115
1569335505.41678
1569335505.4324
1569335505.44803
1569335505.46365
1569335505.47928
1569335505.49491
1569335505.51053
1569335505.52616
1569335505.54178
1569335505.55741
1569335505.57303
1569335505.58866
1569335505.60429
1569335505.61991
1569335505.63554
1569335505.65116
1569335505.66679
1569335505.68241
1569335505.69804
1569335505.71367
1569335505.72929
1569335505.74492
1569335505.76054
1569335505.77617
1569335505.79179
1569335505.80742
1569335505.82305
1569335505.83867
1569335505.8543
1569335505.86992
1569335505.88555
1569335505.90117
1569335505.9168
1569335505.93243
1569335505.94805
1569335505.96368
1569335505.9793
1569335505.99493
1569335506.01055
1569335506.02618
1569335506.04181
1569335506.05743
1569335506.07306
1569335506.08868
1569335506.10431
1569335506.11993
1569335506.13556
1569335506.15119
1569335506.16681
1569335506.18244
1569335506.19806
1569335506.21369
1569335506.22931
1569335506.24494
1569335506.26057
1569335506.27619
1569335506.29182
1569335506.30744
1569335506.32307
1569335506.33869
1569335506.35432
1569335506.36995
1569335506.38557
1569335506.4012
1569335506.41682
1569335506.43245
1569335506.44807
1569335506.4637
1569335506.47933
1569335506.49495
1569335506.51058
1569335506.5262
1569335506.54183
1569335506.55745
1569335506.57308
1569335506.58871
1569335506.60433
1569335506.61996
1569335506.63558
1569335506.65121
1569335506.66683
1569335506.68246
1569335506.69809
1569335506.71371
1569335506.72934
1569335506.74496
1569335506.76059
1569335506.77621
1569335506.79184
1569335506.80747
1569335506.82309
1569335506.83872
1569335506.85434
1569335506.86997
1569335506.88559
1569335506.90122
1569335506.91685
1569335506.93247
1569335506.9481
1569335506.96372
1569335506.97935
1569335506.99497
1569335507.0106
1569335507.02623
1569335507.04185
1569335507.05748
1569335507.0731
1569335507.08873
1569335507.10435
1569335507.11998
1569335507.13561
1569335507.15123
1569335507.16686
1569335507.18248
1569335507.19811
1569335507.21373
1569335507.22936
1569335507.24499
1569335507.26061
1569335507.27624
1569335507.29186
1569335507.30749
1569335507.32311
1569335507.33874
1569335507.35437
1569335507.36999
1569335507.38562
1569335507.40124
1569335507.41687
1569335507.43249
1569335507.44812
1569335507.46375
1569335507.47937
1569335507.495
1569335507.51062
1569335507.52625
1569335507.54187
1569335507.5575
1569335507.57313
1569335507.58875
1569335507.60438
1569335507.62
1569335507.63563
1569335507.65125
1569335507.66688
1569335507.68251
1569335507.69813
1569335507.71376
1569335507.72938
1569335507.74501
1569335507.76063
1569335507.77626
1569335507.79189
1569335507.80751
1569335507.82314
1569335507.83876
1569335507.85439
1569335507.87002
1569335507.88564
1569335507.90127
1569335507.91689
1569335507.93252
1569335507.94814
1569335507.96377
1569335507.9794
1569335507.99502
1569335508.01065
1569335508.02627
1569335508.0419
1569335508.05752
1569335508.07315
1569335508.08878
1569335508.1044
1569335508.12003
1569335508.13565
1569335508.15128
1569335508.1669
1569335508.18253
1569335508.19816
1569335508.21378
1569335508.22941
1569335508.24503
1569335508.26066
1569335508.27628
1569335508.29191
1569335508.30754
1569335508.32316
1569335508.33879
1569335508.35441
1569335508.37004
1569335508.38566
1569335508.40129
1569335508.41692
1569335508.43254
1569335508.44817
1569335508.46379
1569335508.47942
1569335508.49504
1569335508.51067
1569335508.5263
1569335508.54192
1569335508.55755
1569335508.57317
1569335508.5888
1569335508.60442
1569335508.62005
1569335508.63568
1569335508.6513
1569335508.66693
1569335508.68255
1569335508.69818
1569335508.7138
1569335508.72943
1569335508.74506
1569335508.76068
1569335508.77631
1569335508.79193
1569335508.80756
1569335508.82318
1569335508.83881
1569335508.85444
1569335508.87006
1569335508.88569
1569335508.90131
1569335508.91694
1569335508.93256
1569335508.94819
1569335508.96382
1569335508.97944
1569335508.99507
1569335509.01069
1569335509.02632
1569335509.04194
1569335509.05757
1569335509.0732
1569335509.08882
1569335509.10445
1569335509.12007
1569335509.1357
1569335509.15132
1569335509.16695
1569335509.18258
1569335509.1982
1569335509.21383
1569335509.22945
1569335509.24508
1569335509.2607
1569335509.27633
1569335509.29196
1569335509.30758
1569335509.32321
1569335509.33883
1569335509.35446
1569335509.37008
1569335509.38571
1569335509.40134
1569335509.41696
1569335509.43259
1569335509.44821
1569335509.46384
1569335509.47946
1569335509.49509
1569335509.51072
1569335509.52634
1569335509.54197
1569335509.55759
1569335509.57322
1569335509.58884
1569335509.60447
1569335509.6201
1569335509.63572
1569335509.65135
1569335509.66697
1569335509.6826
1569335509.69822
1569335509.71385
1569335509.72948
1569335509.7451
1569335509.76073
1569335509.77635
1569335509.79198
1569335509.8076
1569335509.82323
1569335509.83886
1569335509.85448
1569335509.87011
1569335509.88573
1569335509.90136
1569335509.91698
1569335509.93261
1569335509.94824
1569335509.96386
1569335509.97949
1569335509.99511
1569335510.01074
1569335510.02637
1569335510.04199
1569335510.05762
1569335510.07324
1569335510.08887
1569335510.10449
1569335510.12012
1569335510.13575
1569335510.15137
1569335510.167
1569335510.18262
1569335510.19825
1569335510.21387
1569335510.2295
1569335510.24513
1569335510.26075
1569335510.27638
1569335510.292
1569335510.30763
1569335510.32325
1569335510.33888
1569335510.35451
1569335510.37013
1569335510.38576
1569335510.40138
1569335510.41701
1569335510.43263
1569335510.44826
1569335510.46389
1569335510.47951
1569335510.49514
1569335510.51076
1569335510.52639
1569335510.54201
1569335510.55764
1569335510.57327
1569335510.58889
1569335510.60452
1569335510.62014
1569335510.63577
1569335510.65139
1569335510.66702
1569335510.68265
1569335510.69827
1569335510.7139
1569335510.72952
1569335510.74515
1569335510.76077
1569335510.7764
1569335510.79203
1569335510.80765
1569335510.82328
1569335510.8389
1569335510.85453
1569335510.87015
1569335510.88578
1569335510.90141
1569335510.91703
1569335510.93266
1569335510.94828
1569335510.96391
1569335510.97953
1569335510.99516
1569335511.01079
1569335511.02641
1569335511.04204
1569335511.05766
1569335511.07329
1569335511.08891
1569335511.10454
1569335511.12017
1569335511.13579
1569335511.15142
1569335511.16704
1569335511.18267
1569335511.19829
1569335511.21392
1569335511.22955
1569335511.24517
1569335511.2608
1569335511.27642
1569335511.29205
1569335511.30767
1569335511.3233
1569335511.33893
1569335511.35455
1569335511.37018
1569335511.3858
1569335511.40143
1569335511.41705
1569335511.43268
1569335511.44831
1569335511.46393
1569335511.47956
1569335511.49518
1569335511.51081
1569335511.52643
1569335511.54206
1569335511.55769
1569335511.57331
1569335511.58894
1569335511.60456
1569335511.62019
1569335511.63581
1569335511.65144
1569335511.66707
1569335511.68269
1569335511.69832
1569335511.71394
1569335511.72957
1569335511.74519
1569335511.76082
1569335511.77645
1569335511.79207
1569335511.8077
1569335511.82332
1569335511.83895
1569335511.85457
1569335511.8702
1569335511.88583
1569335511.90145
1569335511.91708
1569335511.9327
1569335511.94833
1569335511.96395
1569335511.97958
1569335511.99521
1569335512.01083
1569335512.02646
1569335512.04208
1569335512.05771
1569335512.07333
1569335512.08896
1569335512.10459
1569335512.12021
1569335512.13584
1569335512.15146
1569335512.16709
1569335512.18271
1569335512.19834
1569335512.21397
1569335512.22959
1569335512.24522
1569335512.26084
1569335512.27647
1569335512.29209
1569335512.30772
1569335512.32335
1569335512.33897
1569335512.3546
1569335512.37022
1569335512.38585
1569335512.40147
1569335512.4171
1569335512.43273
1569335512.44835
1569335512.46398
1569335512.4796
1569335512.49523
1569335512.51085
1569335512.52648
1569335512.54211
1569335512.55773
1569335512.57336
1569335512.58898
1569335512.60461
1569335512.62023
1569335512.63586
1569335512.65149
1569335512.66711
1569335512.68274
1569335512.69836
1569335512.71399
1569335512.72962
1569335512.74524
1569335512.76087
1569335512.77649
1569335512.79212
1569335512.80774
1569335512.82337
1569335512.839
1569335512.85462
1569335512.87025
1569335512.88587
1569335512.9015
1569335512.91712
1569335512.93275
1569335512.94838
1569335512.964
1569335512.97963
1569335512.99525
1569335513.01088
1569335513.0265
1569335513.04213
1569335513.05776
1569335513.07338
1569335513.08901
1569335513.10463
1569335513.12026
1569335513.13588
1569335513.15151
1569335513.16714
1569335513.18276
1569335513.19839
1569335513.21401
1569335513.22964
1569335513.24526
1569335513.26089
1569335513.27652
1569335513.29214
1569335513.30777
1569335513.32339
1569335513.33902
1569335513.35464
1569335513.37027
1569335513.3859
1569335513.40152
1569335513.41715
1569335513.43277
1569335513.4484
1569335513.46402
1569335513.47965
1569335513.49528
1569335513.5109
1569335513.52653
1569335513.54215
1569335513.55778
1569335513.5734
1569335513.58903
1569335513.60466
1569335513.62028
1569335513.63591
1569335513.65153
1569335513.66716
1569335513.68278
1569335513.69841
1569335513.71404
1569335513.72966
1569335513.74529
1569335513.76091
1569335513.77654
1569335513.79216
1569335513.80779
1569335513.82342
1569335513.83904
1569335513.85467
1569335513.87029
1569335513.88592
1569335513.90154
1569335513.91717
1569335513.9328
1569335513.94842
1569335513.96405
1569335513.97967
1569335513.9953
1569335514.01092
1569335514.02655
1569335514.04218
1569335514.0578
1569335514.07343
1569335514.08905
1569335514.10468
1569335514.1203
1569335514.13593
1569335514.15156
1569335514.16718
1569335514.18281
1569335514.19843
1569335514.21406
1569335514.22968
1569335514.24531
1569335514.26094
1569335514.27656
1569335514.29219
1569335514.30781
1569335514.32344
1569335514.33906
1569335514.35469
1569335514.37032
1569335514.38594
1569335514.40157
1569335514.41719
1569335514.43282
1569335514.44844
1569335514.46407
1569335514.4797
1569335514.49532
1569335514.51095
1569335514.52657
1569335514.5422
1569335514.55782
1569335514.57345
1569335514.58908
1569335514.6047
1569335514.62033
1569335514.63595
1569335514.65158
1569335514.6672
1569335514.68283
1569335514.69846
1569335514.71408
1569335514.72971
1569335514.74533
1569335514.76096
1569335514.77658
1569335514.79221
1569335514.80784
1569335514.82346
1569335514.83909
1569335514.85471
1569335514.87034
1569335514.88597
1569335514.90159
1569335514.91722
1569335514.93284
1569335514.94847
1569335514.96409
1569335514.97972
1569335514.99535
1569335515.01097
1569335515.0266
1569335515.04222
1569335515.05785
1569335515.07347
1569335515.0891
1569335515.10473
1569335515.12035
1569335515.13598
1569335515.1516
1569335515.16723
1569335515.18285
1569335515.19848
1569335515.21411
1569335515.22973
1569335515.24536
1569335515.26098
1569335515.27661
1569335515.29223
1569335515.30786
1569335515.32349
1569335515.33911
1569335515.35474
1569335515.37036
1569335515.38599
1569335515.40161
1569335515.41724
1569335515.43287
1569335515.44849
1569335515.46412
1569335515.47974
1569335515.49537
1569335515.51099
1569335515.52662
1569335515.54225
1569335515.55787
1569335515.5735
1569335515.58912
1569335515.60475
1569335515.62037
1569335515.636
1569335515.65163
1569335515.66725
1569335515.68288
1569335515.6985
1569335515.71413
1569335515.72975
1569335515.74538
1569335515.76101
1569335515.77663
1569335515.79226
1569335515.80788
1569335515.82351
1569335515.83913
1569335515.85476
1569335515.87039
1569335515.88601
1569335515.90164
1569335515.91726
1569335515.93289
1569335515.94851
1569335515.96414
1569335515.97977
1569335515.99539
1569335516.01102
1569335516.02664
1569335516.04227
1569335516.05789
1569335516.07352
1569335516.08915
1569335516.10477
1569335516.1204
1569335516.13602
1569335516.15165
1569335516.16727
1569335516.1829
1569335516.19853
1569335516.21415
1569335516.22978
1569335516.2454
1569335516.26103
1569335516.27665
1569335516.29228
1569335516.30791
1569335516.32353
1569335516.33916
1569335516.35478
1569335516.37041
1569335516.38603
1569335516.40166
1569335516.41729
1569335516.43291
1569335516.44854
1569335516.46416
1569335516.47979
1569335516.49541
1569335516.51104
1569335516.52667
1569335516.54229
1569335516.55792
1569335516.57354
1569335516.58917
1569335516.60479
1569335516.62042
1569335516.63605
1569335516.65167
1569335516.6673
1569335516.68292
1569335516.69855
1569335516.71417
1569335516.7298
1569335516.74543
1569335516.76105
1569335516.77668
1569335516.7923
1569335516.80793
1569335516.82355
1569335516.83918
1569335516.85481
1569335516.87043
1569335516.88606
1569335516.90168
1569335516.91731
1569335516.93293
1569335516.94856
1569335516.96419
1569335516.97981
1569335516.99544
1569335517.01106
1569335517.02669
1569335517.04231
1569335517.05794
1569335517.07357
1569335517.08919
1569335517.10482
1569335517.12044
1569335517.13607
1569335517.1517
1569335517.16732
1569335517.18295
1569335517.19857
1569335517.2142
1569335517.22982
1569335517.24545
1569335517.26108
1569335517.2767
1569335517.29233
1569335517.30795
1569335517.32358
1569335517.3392
1569335517.35483
1569335517.37046
1569335517.38608
1569335517.40171
1569335517.41733
1569335517.43296
1569335517.44858
1569335517.46421
1569335517.47984
1569335517.49546
1569335517.51109
1569335517.52671
1569335517.54234
1569335517.55796
1569335517.57359
1569335517.58922
1569335517.60484
1569335517.62047
1569335517.63609
1569335517.65172
1569335517.66734
1569335517.68297
1569335517.6986
1569335517.71422
1569335517.72985
1569335517.74547
1569335517.7611
1569335517.77672
1569335517.79235
1569335517.80798
1569335517.8236
1569335517.83923
1569335517.85485
1569335517.87048
1569335517.8861
1569335517.90173
1569335517.91736
1569335517.93298
1569335517.94861
1569335517.96423
1569335517.97986
1569335517.99548
1569335518.01111
1569335518.02674
1569335518.04236
1569335518.05799
1569335518.07361
1569335518.08924
1569335518.10486
1569335518.12049
1569335518.13612
1569335518.15174
1569335518.16737
1569335518.18299
1569335518.19862
1569335518.21424
1569335518.22987
1569335518.2455
1569335518.26112
1569335518.27675
1569335518.29237
1569335518.308
1569335518.32362
1569335518.33925
1569335518.35488
1569335518.3705
1569335518.38613
1569335518.40175
1569335518.41738
1569335518.433
1569335518.44863
1569335518.46426
1569335518.47988
1569335518.49551
1569335518.51113
1569335518.52676
1569335518.54238
1569335518.55801
1569335518.57364
1569335518.58926
1569335518.60489
1569335518.62051
1569335518.63614
1569335518.65176
1569335518.66739
1569335518.68302
1569335518.69864
1569335518.71427
1569335518.72989
1569335518.74552
1569335518.76114
1569335518.77677
1569335518.7924
1569335518.80802
1569335518.82365
1569335518.83927
1569335518.8549
1569335518.87052
1569335518.88615
1569335518.90178
1569335518.9174
1569335518.93303
1569335518.94865
1569335518.96428
1569335518.9799
1569335518.99553
1569335519.01116
1569335519.02678
1569335519.04241
1569335519.05803
1569335519.07366
1569335519.08928
1569335519.10491
1569335519.12054
1569335519.13616
1569335519.15179
1569335519.16741
1569335519.18304
1569335519.19866
1569335519.21429
1569335519.22992
1569335519.24554
1569335519.26117
1569335519.27679
1569335519.29242
1569335519.30804
1569335519.32367
1569335519.3393
1569335519.35492
1569335519.37055
1569335519.38617
1569335519.4018
1569335519.41742
1569335519.43305
1569335519.44868
1569335519.4643
1569335519.47993
1569335519.49555
1569335519.51118
1569335519.5268
1569335519.54243
1569335519.55806
1569335519.57368
1569335519.58931
1569335519.60493
1569335519.62056
1569335519.63618
1569335519.65181
1569335519.66744
1569335519.68306
1569335519.69869
1569335519.71431
1569335519.72994
1569335519.74556
1569335519.76119
1569335519.77682
1569335519.79244
1569335519.80807
1569335519.82369
1569335519.83932
1569335519.85495
1569335519.87057
1569335519.8862
1569335519.90182
1569335519.91745
1569335519.93307
1569335519.9487
1569335519.96433
1569335519.97995
1569335519.99558
1569335520.0112
1569335520.02683
1569335520.04245
1569335520.05808
1569335520.07371
1569335520.08933
1569335520.10496
1569335520.12058
1569335520.13621
1569335520.15183
1569335520.16746
1569335520.18309
1569335520.19871
1569335520.21434
1569335520.22996
1569335520.24559
1569335520.26121
1569335520.27684
1569335520.29247
1569335520.30809
1569335520.32372
1569335520.33934
1569335520.35497
1569335520.37059
1569335520.38622
1569335520.40185
1569335520.41747
1569335520.4331
1569335520.44872
1569335520.46435
1569335520.47997
1569335520.4956
1569335520.51123
1569335520.52685
1569335520.54248
1569335520.5581
1569335520.57373
1569335520.58935
1569335520.60498
1569335520.62061
1569335520.63623
1569335520.65186
1569335520.66748
1569335520.68311
1569335520.69873
1569335520.71436
1569335520.72999
1569335520.74561
1569335520.76124
1569335520.77686
1569335520.79249
1569335520.80811
1569335520.82374
1569335520.83937
1569335520.85499
1569335520.87062
1569335520.88624
1569335520.90187
1569335520.91749
1569335520.93312
1569335520.94875
1569335520.96437
1569335520.98
1569335520.99562
1569335521.01125
1569335521.02687
1569335521.0425
1569335521.05813
1569335521.07375
1569335521.08938
1569335521.105
1569335521.12063
1569335521.13625
1569335521.15188
1569335521.16751
1569335521.18313
1569335521.19876
1569335521.21438
1569335521.23001
1569335521.24563
1569335521.26126
1569335521.27689
1569335521.29251
1569335521.30814
1569335521.32376
1569335521.33939
1569335521.35501
1569335521.37064
1569335521.38627
1569335521.40189
1569335521.41752
1569335521.43314
1569335521.44877
1569335521.46439
1569335521.48002
1569335521.49565
1569335521.51127
1569335521.5269
1569335521.54252
1569335521.55815
1569335521.57377
1569335521.5894
1569335521.60503
1569335521.62065
1569335521.63628
1569335521.6519
1569335521.66753
1569335521.68315
1569335521.69878
1569335521.71441
1569335521.73003
1569335521.74566
1569335521.76128
1569335521.77691
1569335521.79253
1569335521.80816
1569335521.82379
1569335521.83941
1569335521.85504
1569335521.87066
1569335521.88629
1569335521.90191
1569335521.91754
1569335521.93317
1569335521.94879
1569335521.96442
1569335521.98004
1569335521.99567
1569335522.0113
1569335522.02692
1569335522.04255
1569335522.05817
1569335522.0738
1569335522.08942
1569335522.10505
1569335522.12068
1569335522.1363
1569335522.15193
1569335522.16755
1569335522.18318
1569335522.1988
1569335522.21443
1569335522.23006
1569335522.24568
1569335522.26131
1569335522.27693
1569335522.29256
1569335522.30818
1569335522.32381
1569335522.33944
1569335522.35506
1569335522.37069
1569335522.38631
1569335522.40194
1569335522.41756
1569335522.43319
1569335522.44882
1569335522.46444
1569335522.48007
1569335522.49569
1569335522.51132
1569335522.52694
1569335522.54257
1569335522.5582
1569335522.57382
1569335522.58945
1569335522.60507
1569335522.6207
1569335522.63632
1569335522.65195
1569335522.66758
1569335522.6832
1569335522.69883
1569335522.71445
1569335522.73008
1569335522.7457
1569335522.76133
1569335522.77696
1569335522.79258
1569335522.80821
1569335522.82383
1569335522.83946
1569335522.85508
1569335522.87071
1569335522.88634
1569335522.90196
1569335522.91759
1569335522.93321
1569335522.94884
1569335522.96446
1569335522.98009
1569335522.99572
1569335523.01134
1569335523.02697
1569335523.04259
1569335523.05822
1569335523.07384
1569335523.08947
1569335523.1051
1569335523.12072
1569335523.13635
1569335523.15197
1569335523.1676
1569335523.18322
1569335523.19885
1569335523.21448
1569335523.2301
1569335523.24573
1569335523.26135
1569335523.27698
1569335523.2926
1569335523.30823
1569335523.32386
1569335523.33948
1569335523.35511
1569335523.37073
1569335523.38636
1569335523.40198
1569335523.41761
1569335523.43324
1569335523.44886
1569335523.46449
1569335523.48011
1569335523.49574
1569335523.51136
1569335523.52699
1569335523.54262
1569335523.55824
1569335523.57387
1569335523.58949
1569335523.60512
1569335523.62074
1569335523.63637
1569335523.652
1569335523.66762
1569335523.68325
1569335523.69887
1569335523.7145
1569335523.73012
1569335523.74575
1569335523.76138
1569335523.777
1569335523.79263
1569335523.80825
1569335523.82388
1569335523.8395
1569335523.85513
1569335523.87076
1569335523.88638
1569335523.90201
1569335523.91763
1569335523.93326
1569335523.94888
1569335523.96451
1569335523.98014
1569335523.99576
1569335524.01139
1569335524.02701
1569335524.04264
1569335524.05826
1569335524.07389
1569335524.08952
1569335524.10514
1569335524.12077
1569335524.13639
1569335524.15202
1569335524.16764
1569335524.18327
1569335524.1989
1569335524.21452
1569335524.23015
1569335524.24577
1569335524.2614
1569335524.27702
1569335524.29265
1569335524.30828
1569335524.3239
1569335524.33953
1569335524.35515
1569335524.37078
1569335524.3864
1569335524.40203
1569335524.41766
1569335524.43328
1569335524.44891
1569335524.46453
1569335524.48016
1569335524.49579
1569335524.51141
1569335524.52704
1569335524.54266
1569335524.55829
1569335524.57391
1569335524.58954
1569335524.60517
1569335524.62079
1569335524.63642
1569335524.65204
1569335524.66767
1569335524.68329
1569335524.69892
1569335524.71455
1569335524.73017
1569335524.7458
1569335524.76142
1569335524.77705
1569335524.79267
1569335524.8083
1569335524.82393
1569335524.83955
1569335524.85518
1569335524.8708
1569335524.88643
1569335524.90205
1569335524.91768
1569335524.93331
1569335524.94893
1569335524.96456
1569335524.98018
1569335524.99581
1569335525.01143
1569335525.02706
1569335525.04269
1569335525.05831
1569335525.07394
1569335525.08956
1569335525.10519
1569335525.12081
1569335525.13644
1569335525.15207
1569335525.16769
1569335525.18332
1569335525.19894
1569335525.21457
1569335525.23019
1569335525.24582
1569335525.26145
1569335525.27707
1569335525.2927
1569335525.30832
1569335525.32395
1569335525.33957
1569335525.3552
1569335525.37083
1569335525.38645
1569335525.40208
1569335525.4177
1569335525.43333
1569335525.44895
1569335525.46458
1569335525.48021
1569335525.49583
1569335525.51146
1569335525.52708
1569335525.54271
1569335525.55833
1569335525.57396
1569335525.58959
1569335525.60521
1569335525.62084
1569335525.63646
1569335525.65209
1569335525.66771
1569335525.68334
1569335525.69897
1569335525.71459
1569335525.73022
1569335525.74584
1569335525.76147
1569335525.77709
1569335525.79272
1569335525.80835
1569335525.82397
1569335525.8396
1569335525.85522
1569335525.87085
1569335525.88647
1569335525.9021
1569335525.91773
1569335525.93335
1569335525.94898
1569335525.9646
1569335525.98023
1569335525.99585
1569335526.01148
1569335526.02711
1569335526.04273
1569335526.05836
1569335526.07398
1569335526.08961
1569335526.10523
1569335526.12086
1569335526.13649
1569335526.15211
1569335526.16774
1569335526.18336
1569335526.19899
1569335526.21461
1569335526.23024
1569335526.24587
1569335526.26149
1569335526.27712
1569335526.29274
1569335526.30837
1569335526.32399
1569335526.33962
1569335526.35525
1569335526.37087
1569335526.3865
1569335526.40212
1569335526.41775
1569335526.43337
1569335526.449
1569335526.46463
1569335526.48025
1569335526.49588
1569335526.5115
1569335526.52713
1569335526.54275
1569335526.55838
1569335526.57401
1569335526.58963
1569335526.60526
1569335526.62088
1569335526.63651
1569335526.65213
1569335526.66776
1569335526.68339
1569335526.69901
1569335526.71464
1569335526.73026
1569335526.74589
1569335526.76151
1569335526.77714
1569335526.79277
1569335526.80839
1569335526.82402
1569335526.83964
1569335526.85527
1569335526.8709
1569335526.88652
1569335526.90215
1569335526.91777
1569335526.9334
1569335526.94902
1569335526.96465
1569335526.98028
1569335526.9959
1569335527.01153
1569335527.02715
1569335527.04278
1569335527.0584
1569335527.07403
1569335527.08966
1569335527.10528
1569335527.12091
1569335527.13653
1569335527.15216
1569335527.16778
1569335527.18341
1569335527.19904
1569335527.21466
1569335527.23029
1569335527.24591
1569335527.26154
1569335527.27716
1569335527.29279
1569335527.30842
1569335527.32404
1569335527.33967
1569335527.35529
1569335527.37092
1569335527.38654
1569335527.40217
1569335527.4178
1569335527.43342
1569335527.44905
1569335527.46467
1569335527.4803
1569335527.49592
1569335527.51155
1569335527.52718
1569335527.5428
1569335527.55843
1569335527.57405
1569335527.58968
1569335527.6053
1569335527.62093
1569335527.63656
1569335527.65218
1569335527.66781
1569335527.68343
1569335527.69906
1569335527.71468
1569335527.73031
1569335527.74594
1569335527.76156
1569335527.77719
1569335527.79281
1569335527.80844
1569335527.82406
1569335527.83969
1569335527.85532
1569335527.87094
1569335527.88657
1569335527.90219
1569335527.91782
1569335527.93344
1569335527.94907
1569335527.9647
1569335527.98032
1569335527.99595
1569335528.01157
1569335528.0272
1569335528.04282
1569335528.05845
1569335528.07408
1569335528.0897
1569335528.10533
1569335528.12095
1569335528.13658
1569335528.1522
1569335528.16783
1569335528.18346
1569335528.19908
1569335528.21471
1569335528.23033
1569335528.24596
1569335528.26158
1569335528.27721
1569335528.29284
1569335528.30846
1569335528.32409
1569335528.33971
1569335528.35534
1569335528.37096
1569335528.38659
1569335528.40222
1569335528.41784
1569335528.43347
1569335528.44909
1569335528.46472
1569335528.48034
1569335528.49597
1569335528.5116
1569335528.52722
1569335528.54285
1569335528.55847
1569335528.5741
1569335528.58972
1569335528.60535
1569335528.62098
1569335528.6366
1569335528.65223
1569335528.66785
1569335528.68348
1569335528.6991
1569335528.71473
1569335528.73036
1569335528.74598
1569335528.76161
1569335528.77723
1569335528.79286
1569335528.80848
1569335528.82411
1569335528.83974
1569335528.85536
1569335528.87099
1569335528.88661
1569335528.90224
1569335528.91786
1569335528.93349
1569335528.94912
1569335528.96474
1569335528.98037
1569335528.99599
1569335529.01162
1569335529.02724
1569335529.04287
1569335529.0585
1569335529.07412
1569335529.08975
1569335529.10537
1569335529.121
1569335529.13663
1569335529.15225
1569335529.16788
1569335529.1835
1569335529.19913
1569335529.21475
1569335529.23038
1569335529.24601
1569335529.26163
1569335529.27726
1569335529.29288
1569335529.30851
1569335529.32413
1569335529.33976
1569335529.35539
1569335529.37101
1569335529.38664
1569335529.40226
1569335529.41789
1569335529.43351
1569335529.44914
1569335529.46477
1569335529.48039
1569335529.49602
1569335529.51164
1569335529.52727
1569335529.54289
1569335529.55852
1569335529.57415
1569335529.58977
1569335529.6054
1569335529.62102
1569335529.63665
1569335529.65227
1569335529.6679
1569335529.68353
1569335529.69915
1569335529.71478
1569335529.7304
1569335529.74603
1569335529.76165
1569335529.77728
1569335529.79291
1569335529.80853
1569335529.82416
1569335529.83978
1569335529.85541
1569335529.87103
1569335529.88666
1569335529.90229
1569335529.91791
1569335529.93354
1569335529.94916
1569335529.96479
1569335529.98041
1569335529.99604
1569335530.01167
1569335530.02729
1569335530.04292
1569335530.05854
1569335530.07417
1569335530.08979
1569335530.10542
1569335530.12105
1569335530.13667
1569335530.1523
1569335530.16792
1569335530.18355
1569335530.19917
1569335530.2148
1569335530.23043
1569335530.24605
1569335530.26168
1569335530.2773
1569335530.29293
1569335530.30855
1569335530.32418
1569335530.33981
1569335530.35543
1569335530.37106
1569335530.38668
1569335530.40231
1569335530.41793
1569335530.43356
1569335530.44919
1569335530.46481
1569335530.48044
1569335530.49606
1569335530.51169
1569335530.52731
1569335530.54294
1569335530.55857
1569335530.57419
1569335530.58982
1569335530.60544
1569335530.62107
1569335530.63669
1569335530.65232
1569335530.66795
1569335530.68357
1569335530.6992
1569335530.71482
1569335530.73045
1569335530.74607
1569335530.7617
1569335530.77733
1569335530.79295
1569335530.80858
1569335530.8242
1569335530.83983
1569335530.85545
1569335530.87108
1569335530.88671
1569335530.90233
1569335530.91796
1569335530.93358
1569335530.94921
1569335530.96483
1569335530.98046
1569335530.99609
1569335531.01171
1569335531.02734
1569335531.04296
1569335531.05859
1569335531.07421
1569335531.08984
1569335531.10547
1569335531.12109
1569335531.13672
1569335531.15234
1569335531.16797
1569335531.18359
1569335531.19922
1569335531.21485
1569335531.23047
1569335531.2461
1569335531.26172
1569335531.27735
1569335531.29297
1569335531.3086
1569335531.32423
1569335531.33985
1569335531.35548
1569335531.3711
1569335531.38673
1569335531.40235
1569335531.41798
1569335531.43361
1569335531.44923
1569335531.46486
1569335531.48048
1569335531.49611
1569335531.51173
1569335531.52736
1569335531.54299
1569335531.55861
1569335531.57424
1569335531.58986
1569335531.60549
1569335531.62111
1569335531.63674
1569335531.65237
1569335531.66799
1569335531.68362
1569335531.69924
1569335531.71487
1569335531.7305
1569335531.74612
1569335531.76175
1569335531.77737
1569335531.793
1569335531.80862
1569335531.82425
1569335531.83988
1569335531.8555
1569335531.87113
1569335531.88675
1569335531.90238
1569335531.918
1569335531.93363
1569335531.94926
1569335531.96488
1569335531.98051
1569335531.99613
1569335532.01176
1569335532.02738
1569335532.04301
1569335532.05864
1569335532.07426
1569335532.08989
1569335532.10551
1569335532.12114
1569335532.13676
1569335532.15239
1569335532.16802
1569335532.18364
1569335532.19927
1569335532.21489
1569335532.23052
1569335532.24614
1569335532.26177
1569335532.2774
1569335532.29302
1569335532.30865
1569335532.32427
1569335532.3399
1569335532.35552
1569335532.37115
1569335532.38678
1569335532.4024
1569335532.41803
1569335532.43365
1569335532.44928
1569335532.4649
1569335532.48053
1569335532.49616
1569335532.51178
1569335532.52741
1569335532.54303
1569335532.55866
1569335532.57428
1569335532.58991
1569335532.60554
1569335532.62116
1569335532.63679
1569335532.65241
1569335532.66804
1569335532.68366
1569335532.69929
1569335532.71492
1569335532.73054
1569335532.74617
1569335532.76179
1569335532.77742
1569335532.79304
1569335532.80867
1569335532.8243
1569335532.83992
1569335532.85555
1569335532.87117
1569335532.8868
1569335532.90242
1569335532.91805
1569335532.93368
1569335532.9493
1569335532.96493
1569335532.98055
1569335532.99618
1569335533.0118
1569335533.02743
1569335533.04306
1569335533.05868
1569335533.07431
1569335533.08993
1569335533.10556
1569335533.12118
1569335533.13681
1569335533.15244
1569335533.16806
1569335533.18369
1569335533.19931
1569335533.21494
1569335533.23056
1569335533.24619
1569335533.26182
1569335533.27744
1569335533.29307
1569335533.30869
1569335533.32432
1569335533.33994
1569335533.35557
1569335533.3712
1569335533.38682
1569335533.40245
1569335533.41807
1569335533.4337
1569335533.44932
1569335533.46495
1569335533.48058
1569335533.4962
1569335533.51183
1569335533.52745
1569335533.54308
1569335533.5587
1569335533.57433
1569335533.58996
1569335533.60558
1569335533.62121
1569335533.63683
1569335533.65246
1569335533.66808
1569335533.68371
1569335533.69934
1569335533.71496
1569335533.73059
1569335533.74621
1569335533.76184
1569335533.77746
1569335533.79309
1569335533.80872
1569335533.82434
1569335533.83997
1569335533.85559
1569335533.87122
1569335533.88684
1569335533.90247
1569335533.9181
1569335533.93372
1569335533.94935
1569335533.96497
1569335533.9806
1569335533.99623
1569335534.01185
1569335534.02748
1569335534.0431
1569335534.05873
1569335534.07435
1569335534.08998
1569335534.10561
1569335534.12123
1569335534.13686
1569335534.15248
1569335534.16811
1569335534.18373
1569335534.19936
1569335534.21499
1569335534.23061
1569335534.24624
1569335534.26186
1569335534.27749
1569335534.29311
1569335534.30874
1569335534.32437
1569335534.33999
1569335534.35562
1569335534.37124
1569335534.38687
1569335534.40249
1569335534.41812
1569335534.43375
1569335534.44937
1569335534.465
1569335534.48062
1569335534.49625
1569335534.51187
1569335534.5275
1569335534.54313
1569335534.55875
1569335534.57438
1569335534.59
1569335534.60563
1569335534.62125
1569335534.63688
1569335534.65251
1569335534.66813
1569335534.68376
1569335534.69938
1569335534.71501
1569335534.73063
1569335534.74626
1569335534.76189
1569335534.77751
1569335534.79314
1569335534.80876
1569335534.82439
1569335534.84001
1569335534.85564
1569335534.87127
1569335534.88689
1569335534.90252
1569335534.91814
1569335534.93377
1569335534.94939
1569335534.96502
1569335534.98065
1569335534.99627
1569335535.0119
1569335535.02752
1569335535.04315
1569335535.05877
1569335535.0744
1569335535.09003
1569335535.10565
1569335535.12128
1569335535.1369
1569335535.15253
1569335535.16815
1569335535.18378
1569335535.19941
1569335535.21503
1569335535.23066
1569335535.24628
1569335535.26191
1569335535.27753
1569335535.29316
1569335535.30879
1569335535.32441
1569335535.34004
1569335535.35566
1569335535.37129
1569335535.38691
1569335535.40254
1569335535.41817
1569335535.43379
1569335535.44942
1569335535.46504
1569335535.48067
1569335535.49629
1569335535.51192
1569335535.52755
1569335535.54317
1569335535.5588
1569335535.57442
1569335535.59005
1569335535.60567
1569335535.6213
1569335535.63693
1569335535.65255
1569335535.66818
1569335535.6838
1569335535.69943
1569335535.71505
1569335535.73068
1569335535.74631
1569335535.76193
1569335535.77756
1569335535.79318
1569335535.80881
1569335535.82443
1569335535.84006
1569335535.85569
1569335535.87131
1569335535.88694
1569335535.90256
1569335535.91819
1569335535.93381
1569335535.94944
1569335535.96507
1569335535.98069
1569335535.99632
1569335536.01194
1569335536.02757
1569335536.04319
1569335536.05882
1569335536.07445
1569335536.09007
1569335536.1057
1569335536.12132
1569335536.13695
1569335536.15258
1569335536.1682
1569335536.18383
1569335536.19945
1569335536.21508
1569335536.2307
1569335536.24633
1569335536.26196
1569335536.27758
1569335536.29321
1569335536.30883
1569335536.32446
1569335536.34008
1569335536.35571
1569335536.37134
1569335536.38696
1569335536.40259
1569335536.41821
1569335536.43384
1569335536.44946
1569335536.46509
1569335536.48072
1569335536.49634
1569335536.51197
1569335536.52759
1569335536.54322
1569335536.55884
1569335536.57447
1569335536.5901
1569335536.60572
1569335536.62135
1569335536.63697
1569335536.6526
1569335536.66822
1569335536.68385
1569335536.69948
1569335536.7151
1569335536.73073
1569335536.74635
1569335536.76198
1569335536.7776
1569335536.79323
1569335536.80886
1569335536.82448
1569335536.84011
1569335536.85573
1569335536.87136
1569335536.88698
1569335536.90261
1569335536.91824
1569335536.93386
1569335536.94949
1569335536.96511
1569335536.98074
1569335536.99636
1569335537.01199
1569335537.02762
1569335537.04324
1569335537.05887
1569335537.07449
1569335537.09012
1569335537.10574
1569335537.12137
1569335537.137
1569335537.15262
1569335537.16825
1569335537.18387
1569335537.1995
1569335537.21512
1569335537.23075
1569335537.24638
1569335537.262
1569335537.27763
1569335537.29325
1569335537.30888
1569335537.3245
1569335537.34013
1569335537.35576
1569335537.37138
1569335537.38701
1569335537.40263
1569335537.41826
1569335537.43388
1569335537.44951
1569335537.46514
1569335537.48076
1569335537.49639
1569335537.51201
1569335537.52764
1569335537.54326
1569335537.55889
1569335537.57452
1569335537.59014
1569335537.60577
1569335537.62139
1569335537.63702
1569335537.65264
1569335537.66827
1569335537.6839
1569335537.69952
1569335537.71515
1569335537.73077
1569335537.7464
1569335537.76202
1569335537.77765
1569335537.79328
1569335537.8089
1569335537.82453
1569335537.84015
1569335537.85578
1569335537.8714
1569335537.88703
1569335537.90266
1569335537.91828
1569335537.93391
1569335537.94953
1569335537.96516
1569335537.98078
1569335537.99641
1569335538.01204
1569335538.02766
1569335538.04329
1569335538.05891
1569335538.07454
1569335538.09016
1569335538.10579
1569335538.12142
1569335538.13704
1569335538.15267
1569335538.16829
1569335538.18392
1569335538.19954
1569335538.21517
1569335538.2308
1569335538.24642
1569335538.26205
1569335538.27767
1569335538.2933
1569335538.30892
1569335538.32455
1569335538.34018
1569335538.3558
1569335538.37143
1569335538.38705
1569335538.40268
1569335538.4183
1569335538.43393
1569335538.44956
1569335538.46518
1569335538.48081
1569335538.49643
1569335538.51206
1569335538.52768
1569335538.54331
1569335538.55894
1569335538.57456
1569335538.59019
1569335538.60581
1569335538.62144
1569335538.63706
1569335538.65269
1569335538.66832
1569335538.68394
1569335538.69957
1569335538.71519
1569335538.73082
1569335538.74644
1569335538.76207
1569335538.7777
1569335538.79332
1569335538.80895
1569335538.82457
1569335538.8402
1569335538.85583
1569335538.87145
1569335538.88708
1569335538.9027
1569335538.91833
1569335538.93395
1569335538.94958
1569335538.96521
1569335538.98083
1569335538.99646
1569335539.01208
1569335539.02771
1569335539.04333
1569335539.05896
1569335539.07459
1569335539.09021
1569335539.10584
1569335539.12146
1569335539.13709
1569335539.15271
1569335539.16834
1569335539.18397
1569335539.19959
1569335539.21522
1569335539.23084
1569335539.24647
1569335539.26209
1569335539.27772
1569335539.29335
1569335539.30897
1569335539.3246
1569335539.34022
1569335539.35585
1569335539.37147
1569335539.3871
1569335539.40273
1569335539.41835
1569335539.43398
1569335539.4496
1569335539.46523
1569335539.48085
1569335539.49648
1569335539.51211
1569335539.52773
1569335539.54336
1569335539.55898
1569335539.57461
1569335539.59023
1569335539.60586
1569335539.62149
1569335539.63711
1569335539.65274
1569335539.66836
1569335539.68399
1569335539.69961
1569335539.71524
1569335539.73087
1569335539.74649
1569335539.76212
1569335539.77774
1569335539.79337
1569335539.80899
1569335539.82462
1569335539.84025
1569335539.85587
1569335539.8715
1569335539.88712
1569335539.90275
1569335539.91837
1569335539.934
1569335539.94963
1569335539.96525
1569335539.98088
1569335539.9965
1569335540.01213
1569335540.02775
1569335540.04338
1569335540.05901
1569335540.07463
1569335540.09026
1569335540.10588
1569335540.12151
1569335540.13713
1569335540.15276
1569335540.16839
1569335540.18401
1569335540.19964
1569335540.21526
1569335540.23089
1569335540.24651
1569335540.26214
1569335540.27777
1569335540.29339
1569335540.30902
1569335540.32464
1569335540.34027
1569335540.35589
1569335540.37152
1569335540.38715
1569335540.40277
1569335540.4184
1569335540.43402
1569335540.44965
1569335540.46527
1569335540.4809
1569335540.49653
1569335540.51215
1569335540.52778
1569335540.5434
1569335540.55903
1569335540.57465
1569335540.59028
1569335540.60591
1569335540.62153
1569335540.63716
1569335540.65278
1569335540.66841
1569335540.68403
1569335540.69966
1569335540.71529
1569335540.73091
1569335540.74654
1569335540.76216
1569335540.77779
1569335540.79341
1569335540.80904
1569335540.82467
1569335540.84029
1569335540.85592
1569335540.87154
1569335540.88717
1569335540.90279
1569335540.91842
1569335540.93405
1569335540.94967
1569335540.9653
1569335540.98092
1569335540.99655
1569335541.01218
1569335541.0278
1569335541.04343
1569335541.05905
1569335541.07468
1569335541.0903
1569335541.10593
1569335541.12156
1569335541.13718
1569335541.15281
1569335541.16843
1569335541.18406
1569335541.19968
1569335541.21531
1569335541.23094
1569335541.24656
1569335541.26219
1569335541.27781
1569335541.29344
1569335541.30906
1569335541.32469
1569335541.34032
1569335541.35594
1569335541.37157
1569335541.38719
1569335541.40282
1569335541.41844
1569335541.43407
1569335541.4497
1569335541.46532
1569335541.48095
1569335541.49657
1569335541.5122
1569335541.52782
1569335541.54345
1569335541.55908
1569335541.5747
1569335541.59033
1569335541.60595
1569335541.62158
1569335541.6372
1569335541.65283
1569335541.66846
1569335541.68408
1569335541.69971
1569335541.71533
1569335541.73096
1569335541.74658
1569335541.76221
1569335541.77784
1569335541.79346
1569335541.80909
1569335541.82471
1569335541.84034
1569335541.85596
1569335541.87159
1569335541.88722
1569335541.90284
1569335541.91847
1569335541.93409
1569335541.94972
1569335541.96534
1569335541.98097
1569335541.9966
1569335542.01222
1569335542.02785
1569335542.04347
1569335542.0591
1569335542.07472
1569335542.09035
1569335542.10598
1569335542.1216
1569335542.13723
1569335542.15285
1569335542.16848
1569335542.1841
1569335542.19973
1569335542.21536
1569335542.23098
1569335542.24661
1569335542.26223
1569335542.27786
1569335542.29348
1569335542.30911
1569335542.32474
1569335542.34036
1569335542.35599
1569335542.37161
1569335542.38724
1569335542.40286
1569335542.41849
1569335542.43412
1569335542.44974
1569335542.46537
1569335542.48099
1569335542.49662
1569335542.51224
1569335542.52787
1569335542.5435
1569335542.55912
1569335542.57475
1569335542.59037
1569335542.606
1569335542.62162
1569335542.63725
1569335542.65288
1569335542.6685
1569335542.68413
1569335542.69975
1569335542.71538
1569335542.731
1569335542.74663
1569335542.76226
1569335542.77788
1569335542.79351
1569335542.80913
1569335542.82476
1569335542.84038
1569335542.85601
1569335542.87164
1569335542.88726
1569335542.90289
1569335542.91851
1569335542.93414
1569335542.94976
1569335542.96539
1569335542.98102
1569335542.99664
1569335543.01227
1569335543.02789
1569335543.04352
1569335543.05914
1569335543.07477
1569335543.0904
1569335543.10602
1569335543.12165
1569335543.13727
1569335543.1529
1569335543.16852
1569335543.18415
1569335543.19978
1569335543.2154
1569335543.23103
1569335543.24665
1569335543.26228
1569335543.2779
1569335543.29353
1569335543.30916
1569335543.32478
1569335543.34041
1569335543.35603
1569335543.37166
1569335543.38728
1569335543.40291
1569335543.41854
1569335543.43416
1569335543.44979
1569335543.46541
1569335543.48104
1569335543.49667
1569335543.51229
1569335543.52792
1569335543.54354
1569335543.55917
1569335543.57479
1569335543.59042
1569335543.60605
1569335543.62167
1569335543.6373
1569335543.65292
1569335543.66855
1569335543.68417
1569335543.6998
1569335543.71543
1569335543.73105
1569335543.74668
1569335543.7623
1569335543.77793
1569335543.79355
1569335543.80918
1569335543.82481
1569335543.84043
1569335543.85606
1569335543.87168
1569335543.88731
1569335543.90293
1569335543.91856
1569335543.93419
1569335543.94981
1569335543.96544
1569335543.98106
1569335543.99669
1569335544.01231
1569335544.02794
1569335544.04357
1569335544.05919
1569335544.07482
1569335544.09044
1569335544.10607
1569335544.12169
1569335544.13732
1569335544.15295
1569335544.16857
1569335544.1842
1569335544.19982
1569335544.21545
1569335544.23107
1569335544.2467
1569335544.26233
1569335544.27795
1569335544.29358
1569335544.3092
1569335544.32483
1569335544.34045
1569335544.35608
1569335544.37171
1569335544.38733
1569335544.40296
1569335544.41858
1569335544.43421
1569335544.44983
1569335544.46546
1569335544.48109
1569335544.49671
1569335544.51234
1569335544.52796
1569335544.54359
1569335544.55921
1569335544.57484
1569335544.59047
1569335544.60609
1569335544.62172
1569335544.63734
1569335544.65297
1569335544.66859
1569335544.68422
1569335544.69985
1569335544.71547
1569335544.7311
1569335544.74672
1569335544.76235
1569335544.77797
1569335544.7936
1569335544.80923
1569335544.82485
1569335544.84048
1569335544.8561
1569335544.87173
1569335544.88735
1569335544.90298
1569335544.91861
1569335544.93423
1569335544.94986
1569335544.96548
1569335544.98111
1569335544.99673
1569335545.01236
1569335545.02799
1569335545.04361
1569335545.05924
1569335545.07486
1569335545.09049
1569335545.10611
1569335545.12174
1569335545.13737
1569335545.15299
1569335545.16862
1569335545.18424
1569335545.19987
1569335545.21549
1569335545.23112
1569335545.24675
1569335545.26237
1569335545.278
1569335545.29362
1569335545.30925
1569335545.32487
1569335545.3405
1569335545.35613
1569335545.37175
1569335545.38738
1569335545.403
1569335545.41863
1569335545.43425
1569335545.44988
1569335545.46551
1569335545.48113
1569335545.49676
1569335545.51238
1569335545.52801
1569335545.54363
1569335545.55926
1569335545.57489
1569335545.59051
1569335545.60614
1569335545.62176
1569335545.63739
1569335545.65301
1569335545.66864
1569335545.68427
1569335545.69989
1569335545.71552
1569335545.73114
1569335545.74677
1569335545.76239
1569335545.77802
1569335545.79365
1569335545.80927
1569335545.8249
1569335545.84052
1569335545.85615
1569335545.87178
1569335545.8874
1569335545.90303
1569335545.91865
1569335545.93428
1569335545.9499
1569335545.96553
1569335545.98116
1569335545.99678
1569335546.01241
1569335546.02803
1569335546.04366
1569335546.05928
1569335546.07491
1569335546.09054
1569335546.10616
1569335546.12179
1569335546.13741
1569335546.15304
1569335546.16866
1569335546.18429
1569335546.19992
1569335546.21554
1569335546.23117
1569335546.24679
1569335546.26242
1569335546.27804
1569335546.29367
1569335546.3093
1569335546.32492
1569335546.34055
1569335546.35617
1569335546.3718
1569335546.38742
1569335546.40305
1569335546.41868
1569335546.4343
1569335546.44993
1569335546.46555
1569335546.48118
1569335546.4968
1569335546.51243
1569335546.52806
1569335546.54368
1569335546.55931
1569335546.57493
1569335546.59056
1569335546.60618
1569335546.62181
1569335546.63744
1569335546.65306
1569335546.66869
1569335546.68431
1569335546.69994
1569335546.71556
1569335546.73119
1569335546.74682
1569335546.76244
1569335546.77807
1569335546.79369
1569335546.80932
1569335546.82494
1569335546.84057
1569335546.8562
1569335546.87182
1569335546.88745
1569335546.90307
1569335546.9187
1569335546.93432
1569335546.94995
1569335546.96558
1569335546.9812
1569335546.99683
1569335547.01245
1569335547.02808
1569335547.0437
1569335547.05933
1569335547.07496
1569335547.09058
1569335547.10621
1569335547.12183
1569335547.13746
1569335547.15308
1569335547.16871
1569335547.18434
1569335547.19996
1569335547.21559
1569335547.23121
1569335547.24684
1569335547.26246
1569335547.27809
1569335547.29372
1569335547.30934
1569335547.32497
1569335547.34059
1569335547.35622
1569335547.37184
1569335547.38747
1569335547.4031
1569335547.41872
1569335547.43435
1569335547.44997
1569335547.4656
1569335547.48122
1569335547.49685
1569335547.51248
1569335547.5281
1569335547.54373
1569335547.55935
1569335547.57498
1569335547.5906
1569335547.60623
1569335547.62186
1569335547.63748
1569335547.65311
1569335547.66873
1569335547.68436
1569335547.69998
1569335547.71561
1569335547.73124
1569335547.74686
1569335547.76249
1569335547.77811
1569335547.79374
1569335547.80936
1569335547.82499
1569335547.84062
1569335547.85624
1569335547.87187
1569335547.88749
1569335547.90312
1569335547.91874
1569335547.93437
1569335547.95
1569335547.96562
1569335547.98125
1569335547.99687
1569335548.0125
1569335548.02812
1569335548.04375
1569335548.05938
1569335548.075
1569335548.09063
1569335548.10625
1569335548.12188
1569335548.13751
1569335548.15313
1569335548.16876
1569335548.18438
1569335548.20001
1569335548.21563
1569335548.23126
1569335548.24689
1569335548.26251
1569335548.27814
1569335548.29376
1569335548.30939
1569335548.32501
1569335548.34064
1569335548.35627
1569335548.37189
1569335548.38752
1569335548.40314
1569335548.41877
1569335548.43439
1569335548.45002
1569335548.46565
1569335548.48127
1569335548.4969
1569335548.51252
1569335548.52815
1569335548.54377
1569335548.5594
1569335548.57503
1569335548.59065
1569335548.60628
1569335548.6219
1569335548.63753
1569335548.65315
1569335548.66878
1569335548.68441
1569335548.70003
1569335548.71566
1569335548.73128
1569335548.74691
1569335548.76253
1569335548.77816
1569335548.79379
1569335548.80941
1569335548.82504
1569335548.84066
1569335548.85629
1569335548.87191
1569335548.88754
1569335548.90317
1569335548.91879
1569335548.93442
1569335548.95004
1569335548.96567
1569335548.98129
1569335548.99692
1569335549.01255
1569335549.02817
1569335549.0438
1569335549.05942
1569335549.07505
1569335549.09067
1569335549.1063
1569335549.12193
1569335549.13755
1569335549.15318
1569335549.1688
1569335549.18443
1569335549.20005
1569335549.21568
1569335549.23131
1569335549.24693
1569335549.26256
1569335549.27818
1569335549.29381
1569335549.30943
1569335549.32506
1569335549.34069
1569335549.35631
1569335549.37194
1569335549.38756
1569335549.40319
1569335549.41881
1569335549.43444
1569335549.45007
1569335549.46569
1569335549.48132
1569335549.49694
1569335549.51257
1569335549.52819
1569335549.54382
1569335549.55945
1569335549.57507
1569335549.5907
1569335549.60632
1569335549.62195
1569335549.63757
1569335549.6532
1569335549.66883
1569335549.68445
1569335549.70008
1569335549.7157
1569335549.73133
1569335549.74695
1569335549.76258
1569335549.77821
1569335549.79383
1569335549.80946
1569335549.82508
1569335549.84071
1569335549.85633
1569335549.87196
1569335549.88759
1569335549.90321
1569335549.91884
1569335549.93446
1569335549.95009
1569335549.96571
1569335549.98134
1569335549.99697
1569335550.01259
1569335550.02822
1569335550.04384
1569335550.05947
1569335550.07509
1569335550.09072
1569335550.10635
1569335550.12197
1569335550.1376
1569335550.15322
1569335550.16885
1569335550.18447
1569335550.2001
1569335550.21573
1569335550.23135
1569335550.24698
1569335550.2626
1569335550.27823
1569335550.29385
1569335550.30948
1569335550.32511
1569335550.34073
1569335550.35636
1569335550.37198
1569335550.38761
1569335550.40323
1569335550.41886
1569335550.43449
1569335550.45011
1569335550.46574
1569335550.48136
1569335550.49699
1569335550.51261
1569335550.52824
1569335550.54387
1569335550.55949
1569335550.57512
1569335550.59074
1569335550.60637
1569335550.62199
1569335550.63762
1569335550.65325
1569335550.66887
1569335550.6845
1569335550.70012
1569335550.71575
1569335550.73137
1569335550.747
1569335550.76263
1569335550.77825
1569335550.79388
1569335550.8095
1569335550.82513
1569335550.84076
1569335550.85638
1569335550.87201
1569335550.88763
1569335550.90326
1569335550.91888
1569335550.93451
1569335550.95014
1569335550.96576
1569335550.98139
1569335550.99701
1569335551.01264
1569335551.02826
1569335551.04389
1569335551.05952
1569335551.07514
1569335551.09077
1569335551.10639
1569335551.12202
1569335551.13764
1569335551.15327
1569335551.1689
1569335551.18452
1569335551.20015
1569335551.21577
1569335551.2314
1569335551.24702
1569335551.26265
1569335551.27828
1569335551.2939
1569335551.30953
1569335551.32515
1569335551.34078
1569335551.3564
1569335551.37203
1569335551.38766
1569335551.40328
1569335551.41891
1569335551.43453
1569335551.45016
1569335551.46578
1569335551.48141
1569335551.49704
1569335551.51266
1569335551.52829
1569335551.54391
1569335551.55954
1569335551.57516
1569335551.59079
1569335551.60642
1569335551.62204
1569335551.63767
1569335551.65329
1569335551.66892
1569335551.68454
1569335551.70017
1569335551.7158
1569335551.73142
1569335551.74705
1569335551.76267
1569335551.7783
1569335551.79392
1569335551.80955
1569335551.82518
1569335551.8408
1569335551.85643
1569335551.87205
1569335551.88768
1569335551.9033
1569335551.91893
1569335551.93456
1569335551.95018
1569335551.96581
1569335551.98143
1569335551.99706
1569335552.01268
1569335552.02831
1569335552.04394
1569335552.05956
1569335552.07519
1569335552.09081
1569335552.10644
1569335552.12206
1569335552.13769
1569335552.15332
1569335552.16894
1569335552.18457
1569335552.20019
1569335552.21582
1569335552.23144
1569335552.24707
1569335552.2627
1569335552.27832
1569335552.29395
1569335552.30957
1569335552.3252
1569335552.34082
1569335552.35645
1569335552.37208
1569335552.3877
1569335552.40333
1569335552.41895
1569335552.43458
1569335552.4502
1569335552.46583
1569335552.48146
1569335552.49708
1569335552.51271
1569335552.52833
1569335552.54396
1569335552.55958
1569335552.57521
1569335552.59084
1569335552.60646
1569335552.62209
1569335552.63771
1569335552.65334
1569335552.66896
1569335552.68459
1569335552.70022
1569335552.71584
1569335552.73147
1569335552.74709
1569335552.76272
1569335552.77834
1569335552.79397
1569335552.8096
1569335552.82522
1569335552.84085
1569335552.85647
1569335552.8721
1569335552.88772
1569335552.90335
1569335552.91898
1569335552.9346
1569335552.95023
1569335552.96585
1569335552.98148
1569335552.99711
1569335553.01273
1569335553.02836
1569335553.04398
1569335553.05961
1569335553.07523
1569335553.09086
1569335553.10649
1569335553.12211
1569335553.13774
1569335553.15336
1569335553.16899
1569335553.18461
1569335553.20024
1569335553.21587
1569335553.23149
1569335553.24712
1569335553.26274
1569335553.27837
1569335553.29399
1569335553.30962
1569335553.32525
1569335553.34087
1569335553.3565
1569335553.37212
1569335553.38775
1569335553.40337
1569335553.419
1569335553.43463
1569335553.45025
1569335553.46588
1569335553.4815
1569335553.49713
1569335553.51275
1569335553.52838
1569335553.54401
1569335553.55963
1569335553.57526
1569335553.59088
1569335553.60651
1569335553.62213
1569335553.63776
1569335553.65339
1569335553.66901
1569335553.68464
1569335553.70026
1569335553.71589
1569335553.73151
1569335553.74714
1569335553.76277
1569335553.77839
1569335553.79402
1569335553.80964
1569335553.82527
1569335553.84089
1569335553.85652
1569335553.87215
1569335553.88777
1569335553.9034
1569335553.91902
1569335553.93465
1569335553.95027
1569335553.9659
1569335553.98153
1569335553.99715
1569335554.01278
1569335554.0284
1569335554.04403
1569335554.05965
1569335554.07528
1569335554.09091
1569335554.10653
1569335554.12216
1569335554.13778
1569335554.15341
1569335554.16903
1569335554.18466
1569335554.20029
1569335554.21591
1569335554.23154
1569335554.24716
1569335554.26279
1569335554.27841
1569335554.29404
1569335554.30967
1569335554.32529
1569335554.34092
1569335554.35654
1569335554.37217
1569335554.38779
1569335554.40342
1569335554.41905
1569335554.43467
1569335554.4503
1569335554.46592
1569335554.48155
1569335554.49717
1569335554.5128
1569335554.52843
1569335554.54405
1569335554.55968
1569335554.5753
1569335554.59093
1569335554.60655
1569335554.62218
1569335554.63781
1569335554.65343
1569335554.66906
1569335554.68468
1569335554.70031
1569335554.71593
1569335554.73156
1569335554.74719
1569335554.76281
1569335554.77844
1569335554.79406
1569335554.80969
1569335554.82531
1569335554.84094
1569335554.85657
1569335554.87219
1569335554.88782
1569335554.90344
1569335554.91907
1569335554.93469
1569335554.95032
1569335554.96595
1569335554.98157
1569335554.9972
1569335555.01282
1569335555.02845
1569335555.04407
1569335555.0597
1569335555.07533
1569335555.09095
1569335555.10658
1569335555.1222
1569335555.13783
1569335555.15345
1569335555.16908
1569335555.18471
1569335555.20033
1569335555.21596
1569335555.23158
1569335555.24721
1569335555.26284
1569335555.27846
1569335555.29409
1569335555.30971
1569335555.32534
1569335555.34096
1569335555.35659
1569335555.37222
1569335555.38784
1569335555.40347
1569335555.41909
1569335555.43472
1569335555.45034
1569335555.46597
1569335555.4816
1569335555.49722
1569335555.51285
1569335555.52847
1569335555.5441
1569335555.55972
1569335555.57535
1569335555.59098
1569335555.6066
1569335555.62223
1569335555.63785
1569335555.65348
1569335555.6691
1569335555.68473
1569335555.70036
1569335555.71598
1569335555.73161
1569335555.74723
1569335555.76286
1569335555.77848
1569335555.79411
1569335555.80974
1569335555.82536
1569335555.84099
1569335555.85661
1569335555.87224
1569335555.88786
1569335555.90349
1569335555.91912
1569335555.93474
1569335555.95037
1569335555.96599
1569335555.98162
1569335555.99724
1569335556.01287
1569335556.0285
1569335556.04412
1569335556.05975
1569335556.07537
1569335556.091
1569335556.10662
1569335556.12225
1569335556.13788
1569335556.1535
1569335556.16913
1569335556.18475
1569335556.20038
1569335556.216
1569335556.23163
1569335556.24726
1569335556.26288
1569335556.27851
1569335556.29413
1569335556.30976
1569335556.32538
1569335556.34101
1569335556.35664
1569335556.37226
1569335556.38789
1569335556.40351
1569335556.41914
1569335556.43476
1569335556.45039
1569335556.46602
1569335556.48164
1569335556.49727
1569335556.51289
1569335556.52852
1569335556.54414
1569335556.55977
1569335556.5754
1569335556.59102
1569335556.60665
1569335556.62227
1569335556.6379
1569335556.65352
1569335556.66915
1569335556.68478
1569335556.7004
1569335556.71603
1569335556.73165
1569335556.74728
1569335556.7629
1569335556.77853
1569335556.79416
1569335556.80978
1569335556.82541
1569335556.84103
1569335556.85666
1569335556.87228
1569335556.88791
1569335556.90354
1569335556.91916
1569335556.93479
1569335556.95041
1569335556.96604
1569335556.98166
1569335556.99729
1569335557.01292
1569335557.02854
1569335557.04417
1569335557.05979
1569335557.07542
1569335557.09104
1569335557.10667
1569335557.1223
1569335557.13792
1569335557.15355
1569335557.16917
1569335557.1848
1569335557.20042
1569335557.21605
1569335557.23168
1569335557.2473
1569335557.26293
1569335557.27855
1569335557.29418
1569335557.3098
1569335557.32543
1569335557.34106
1569335557.35668
1569335557.37231
1569335557.38793
1569335557.40356
1569335557.41918
1569335557.43481
1569335557.45044
1569335557.46606
1569335557.48169
1569335557.49731
1569335557.51294
1569335557.52856
1569335557.54419
1569335557.55982
1569335557.57544
1569335557.59107
1569335557.60669
1569335557.62232
1569335557.63794
1569335557.65357
1569335557.6692
1569335557.68482
1569335557.70045
1569335557.71607
1569335557.7317
1569335557.74732
1569335557.76295
1569335557.77858
1569335557.7942
1569335557.80983
1569335557.82545
1569335557.84108
1569335557.85671
1569335557.87233
1569335557.88796
1569335557.90358
1569335557.91921
1569335557.93483
1569335557.95046
1569335557.96609
1569335557.98171
1569335557.99734
1569335558.01296
1569335558.02859
1569335558.04421
1569335558.05984
1569335558.07547
1569335558.09109
1569335558.10672
1569335558.12234
1569335558.13797
1569335558.15359
1569335558.16922
1569335558.18485
1569335558.20047
1569335558.2161
1569335558.23172
1569335558.24735
1569335558.26297
1569335558.2786
1569335558.29423
1569335558.30985
1569335558.32548
1569335558.3411
1569335558.35673
1569335558.37235
1569335558.38798
1569335558.40361
1569335558.41923
1569335558.43486
1569335558.45048
1569335558.46611
1569335558.48173
1569335558.49736
1569335558.51299
1569335558.52861
1569335558.54424
1569335558.55986
1569335558.57549
1569335558.59111
1569335558.60674
1569335558.62237
1569335558.63799
1569335558.65362
1569335558.66924
1569335558.68487
1569335558.70049
1569335558.71612
1569335558.73175
1569335558.74737
1569335558.763
1569335558.77862
1569335558.79425
1569335558.80987
1569335558.8255
1569335558.84113
1569335558.85675
1569335558.87238
1569335558.888
1569335558.90363
1569335558.91925
1569335558.93488
1569335558.95051
1569335558.96613
1569335558.98176
1569335558.99738
1569335559.01301
1569335559.02863
1569335559.04426
1569335559.05989
1569335559.07551
1569335559.09114
1569335559.10676
1569335559.12239
1569335559.13801
1569335559.15364
1569335559.16927
1569335559.18489
1569335559.20052
1569335559.21614
1569335559.23177
1569335559.24739
1569335559.26302
1569335559.27865
1569335559.29427
1569335559.3099
1569335559.32552
1569335559.34115
1569335559.35677
1569335559.3724
1569335559.38803
1569335559.40365
1569335559.41928
1569335559.4349
1569335559.45053
1569335559.46615
1569335559.48178
1569335559.49741
1569335559.51303
1569335559.52866
1569335559.54428
1569335559.55991
1569335559.57553
1569335559.59116
1569335559.60679
1569335559.62241
1569335559.63804
1569335559.65366
1569335559.66929
1569335559.68491
1569335559.70054
1569335559.71617
1569335559.73179
1569335559.74742
1569335559.76304
1569335559.77867
1569335559.79429
1569335559.80992
1569335559.82555
1569335559.84117
1569335559.8568
1569335559.87242
1569335559.88805
1569335559.90367
1569335559.9193
1569335559.93493
1569335559.95055
1569335559.96618
1569335559.9818
1569335559.99743
1569335560.01305
1569335560.02868
1569335560.04431
1569335560.05993
1569335560.07556
1569335560.09118
1569335560.10681
1569335560.12244
1569335560.13806
1569335560.15369
1569335560.16931
1569335560.18494
1569335560.20056
1569335560.21619
1569335560.23182
1569335560.24744
1569335560.26307
1569335560.27869
1569335560.29432
1569335560.30994
1569335560.32557
1569335560.3412
1569335560.35682
1569335560.37245
1569335560.38807
1569335560.4037
1569335560.41932
1569335560.43495
1569335560.45058
1569335560.4662
1569335560.48183
1569335560.49745
1569335560.51308
1569335560.5287
1569335560.54433
1569335560.55996
1569335560.57558
1569335560.59121
1569335560.60683
1569335560.62246
1569335560.63808
1569335560.65371
1569335560.66934
1569335560.68496
1569335560.70059
1569335560.71621
1569335560.73184
1569335560.74746
1569335560.76309
1569335560.77872
1569335560.79434
1569335560.80997
1569335560.82559
1569335560.84122
1569335560.85684
1569335560.87247
1569335560.8881
1569335560.90372
1569335560.91935
1569335560.93497
1569335560.9506
1569335560.96622
1569335560.98185
1569335560.99748
1569335561.0131
1569335561.02873
1569335561.04435
1569335561.05998
1569335561.0756
1569335561.09123
1569335561.10686
1569335561.12248
1569335561.13811
1569335561.15373
1569335561.16936
1569335561.18498
1569335561.20061
1569335561.21624
1569335561.23186
1569335561.24749
1569335561.26311
1569335561.27874
1569335561.29436
1569335561.30999
1569335561.32562
1569335561.34124
1569335561.35687
1569335561.37249
1569335561.38812
1569335561.40374
1569335561.41937
1569335561.435
1569335561.45062
1569335561.46625
1569335561.48187
1569335561.4975
1569335561.51312
1569335561.52875
1569335561.54438
1569335561.56
1569335561.57563
1569335561.59125
1569335561.60688
1569335561.6225
1569335561.63813
1569335561.65376
1569335561.66938
1569335561.68501
1569335561.70063
1569335561.71626
1569335561.73188
1569335561.74751
1569335561.76314
1569335561.77876
1569335561.79439
1569335561.81001
1569335561.82564
1569335561.84126
1569335561.85689
1569335561.87252
1569335561.88814
1569335561.90377
1569335561.91939
1569335561.93502
1569335561.95064
1569335561.96627
1569335561.9819
1569335561.99752
1569335562.01315
1569335562.02877
1569335562.0444
1569335562.06002
1569335562.07565
1569335562.09128
1569335562.1069
1569335562.12253
1569335562.13815
1569335562.15378
1569335562.1694
1569335562.18503
1569335562.20066
1569335562.21628
1569335562.23191
1569335562.24753
1569335562.26316
1569335562.27878
1569335562.29441
1569335562.31004
1569335562.32566
1569335562.34129
1569335562.35691
1569335562.37254
1569335562.38817
1569335562.40379
1569335562.41942
1569335562.43504
1569335562.45067
1569335562.46629
1569335562.48192
1569335562.49755
1569335562.51317
1569335562.5288
1569335562.54442
1569335562.56005
1569335562.57567
1569335562.5913
1569335562.60693
1569335562.62255
1569335562.63818
1569335562.6538
1569335562.66943
1569335562.68505
1569335562.70068
1569335562.71631
1569335562.73193
1569335562.74756
1569335562.76318
1569335562.77881
1569335562.79443
1569335562.81006
1569335562.82569
1569335562.84131
1569335562.85694
1569335562.87256
1569335562.88819
1569335562.90381
1569335562.91944
1569335562.93507
1569335562.95069
1569335562.96632
1569335562.98194
1569335562.99757
1569335563.01319
1569335563.02882
1569335563.04445
1569335563.06007
1569335563.0757
1569335563.09132
1569335563.10695
1569335563.12257
1569335563.1382
1569335563.15383
1569335563.16945
1569335563.18508
1569335563.2007
1569335563.21633
1569335563.23195
1569335563.24758
1569335563.26321
1569335563.27883
1569335563.29446
1569335563.31008
1569335563.32571
1569335563.34133
1569335563.35696
1569335563.37259
1569335563.38821
1569335563.40384
1569335563.41946
1569335563.43509
1569335563.45071
1569335563.46634
1569335563.48197
1569335563.49759
1569335563.51322
1569335563.52884
1569335563.54447
1569335563.56009
1569335563.57572
1569335563.59135
1569335563.60697
1569335563.6226
1569335563.63822
1569335563.65385
1569335563.66947
1569335563.6851
1569335563.70073
1569335563.71635
1569335563.73198
1569335563.7476
1569335563.76323
1569335563.77885
1569335563.79448
1569335563.81011
1569335563.82573
1569335563.84136
1569335563.85698
1569335563.87261
1569335563.88823
1569335563.90386
1569335563.91949
1569335563.93511
1569335563.95074
1569335563.96636
1569335563.98199
1569335563.99761
1569335564.01324
1569335564.02887
1569335564.04449
1569335564.06012
1569335564.07574
1569335564.09137
1569335564.10699
1569335564.12262
1569335564.13825
1569335564.15387
1569335564.1695
1569335564.18512
1569335564.20075
1569335564.21637
1569335564.232
1569335564.24763
1569335564.26325
1569335564.27888
1569335564.2945
1569335564.31013
1569335564.32575
1569335564.34138
1569335564.35701
1569335564.37263
1569335564.38826
1569335564.40388
1569335564.41951
1569335564.43513
1569335564.45076
1569335564.46639
1569335564.48201
1569335564.49764
1569335564.51326
1569335564.52889
1569335564.54451
1569335564.56014
1569335564.57577
1569335564.59139
1569335564.60702
1569335564.62264
1569335564.63827
1569335564.65389
1569335564.66952
1569335564.68515
1569335564.70077
1569335564.7164
1569335564.73202
1569335564.74765
1569335564.76327
1569335564.7789
1569335564.79453
1569335564.81015
1569335564.82578
1569335564.8414
1569335564.85703
1569335564.87265
1569335564.88828
1569335564.90391
1569335564.91953
1569335564.93516
1569335564.95078
1569335564.96641
1569335564.98204
1569335564.99766
1569335565.01329
1569335565.02891
1569335565.04454
1569335565.06016
1569335565.07579
1569335565.09142
1569335565.10704
1569335565.12267
1569335565.13829
1569335565.15392
1569335565.16954
1569335565.18517
1569335565.2008
1569335565.21642
1569335565.23205
1569335565.24767
1569335565.2633
1569335565.27892
1569335565.29455
1569335565.31018
1569335565.3258
1569335565.34143
1569335565.35705
1569335565.37268
1569335565.3883
1569335565.40393
1569335565.41956
1569335565.43518
1569335565.45081
1569335565.46643
1569335565.48206
1569335565.49768
1569335565.51331
1569335565.52894
1569335565.54456
1569335565.56019
1569335565.57581
1569335565.59144
1569335565.60706
1569335565.62269
1569335565.63832
1569335565.65394
1569335565.66957
1569335565.68519
1569335565.70082
1569335565.71644
1569335565.73207
1569335565.7477
1569335565.76332
1569335565.77895
1569335565.79457
1569335565.8102
1569335565.82582
1569335565.84145
1569335565.85708
1569335565.8727
1569335565.88833
1569335565.90395
1569335565.91958
1569335565.9352
1569335565.95083
1569335565.96646
1569335565.98208
1569335565.99771
1569335566.01333
1569335566.02896
1569335566.04458
1569335566.06021
1569335566.07584
1569335566.09146
1569335566.10709
1569335566.12271
1569335566.13834
1569335566.15396
1569335566.16959
1569335566.18522
1569335566.20084
1569335566.21647
1569335566.23209
1569335566.24772
1569335566.26334
1569335566.27897
1569335566.2946
1569335566.31022
1569335566.32585
1569335566.34147
1569335566.3571
1569335566.37272
1569335566.38835
1569335566.40398
1569335566.4196
1569335566.43523
1569335566.45085
1569335566.46648
1569335566.4821
1569335566.49773
1569335566.51336
1569335566.52898
1569335566.54461
1569335566.56023
1569335566.57586
1569335566.59148
1569335566.60711
1569335566.62274
1569335566.63836
1569335566.65399
1569335566.66961
1569335566.68524
1569335566.70086
1569335566.71649
1569335566.73212
1569335566.74774
1569335566.76337
1569335566.77899
1569335566.79462
1569335566.81024
1569335566.82587
1569335566.8415
1569335566.85712
1569335566.87275
1569335566.88837
1569335566.904
1569335566.91962
1569335566.93525
1569335566.95088
1569335566.9665
1569335566.98213
1569335566.99775
1569335567.01338
1569335567.029
1569335567.04463
1569335567.06026
1569335567.07588
1569335567.09151
1569335567.10713
1569335567.12276
1569335567.13839
1569335567.15401
1569335567.16964
1569335567.18526
1569335567.20089
1569335567.21651
1569335567.23214
1569335567.24777
1569335567.26339
1569335567.27902
1569335567.29464
1569335567.31027
1569335567.32589
1569335567.34152
1569335567.35715
1569335567.37277
1569335567.3884
1569335567.40402
1569335567.41965
1569335567.43527
1569335567.4509
1569335567.46653
1569335567.48215
1569335567.49778
1569335567.5134
1569335567.52903
1569335567.54465
1569335567.56028
1569335567.57591
1569335567.59153
1569335567.60716
1569335567.62278
1569335567.63841
1569335567.65403
1569335567.66966
1569335567.68529
1569335567.70091
1569335567.71654
1569335567.73216
1569335567.74779
1569335567.76341
1569335567.77904
1569335567.79467
1569335567.81029
1569335567.82592
1569335567.84154
1569335567.85717
1569335567.87279
1569335567.88842
1569335567.90405
1569335567.91967
1569335567.9353
1569335567.95092
1569335567.96655
1569335567.98217
1569335567.9978
1569335568.01343
1569335568.02905
1569335568.04468
1569335568.0603
1569335568.07593
1569335568.09155
1569335568.10718
1569335568.12281
1569335568.13843
1569335568.15406
1569335568.16968
1569335568.18531
1569335568.20093
1569335568.21656
1569335568.23219
1569335568.24781
1569335568.26344
1569335568.27906
1569335568.29469
1569335568.31031
1569335568.32594
1569335568.34157
1569335568.35719
1569335568.37282
1569335568.38844
1569335568.40407
1569335568.41969
1569335568.43532
1569335568.45095
1569335568.46657
1569335568.4822
1569335568.49782
1569335568.51345
1569335568.52907
1569335568.5447
1569335568.56033
1569335568.57595
1569335568.59158
1569335568.6072
1569335568.62283
1569335568.63845
1569335568.65408
1569335568.66971
1569335568.68533
1569335568.70096
1569335568.71658
1569335568.73221
1569335568.74783
1569335568.76346
1569335568.77909
1569335568.79471
1569335568.81034
1569335568.82596
1569335568.84159
1569335568.85721
1569335568.87284
1569335568.88847
1569335568.90409
1569335568.91972
1569335568.93534
1569335568.95097
1569335568.96659
1569335568.98222
1569335568.99785
1569335569.01347
1569335569.0291
1569335569.04472
1569335569.06035
1569335569.07597
1569335569.0916
1569335569.10723
1569335569.12285
1569335569.13848
1569335569.1541
1569335569.16973
1569335569.18535
1569335569.20098
1569335569.21661
1569335569.23223
1569335569.24786
1569335569.26348
1569335569.27911
1569335569.29473
1569335569.31036
1569335569.32599
1569335569.34161
1569335569.35724
1569335569.37286
1569335569.38849
1569335569.40411
1569335569.41974
1569335569.43537
1569335569.45099
1569335569.46662
1569335569.48224
1569335569.49787
1569335569.51349
1569335569.52912
1569335569.54475
1569335569.56037
1569335569.576
1569335569.59162
1569335569.60725
1569335569.62287
1569335569.6385
1569335569.65413
1569335569.66975
1569335569.68538
1569335569.701
1569335569.71663
1569335569.73225
1569335569.74788
1569335569.76351
1569335569.77913
1569335569.79476
1569335569.81038
1569335569.82601
1569335569.84164
1569335569.85726
1569335569.87289
1569335569.88851
1569335569.90414
1569335569.91976
1569335569.93539
1569335569.95102
1569335569.96664
1569335569.98227
1569335569.99789
1569335570.01352
1569335570.02914
1569335570.04477
1569335570.0604
1569335570.07602
1569335570.09165
1569335570.10727
1569335570.1229
1569335570.13852
1569335570.15415
1569335570.16978
1569335570.1854
1569335570.20103
1569335570.21665
1569335570.23228
1569335570.2479
1569335570.26353
1569335570.27916
1569335570.29478
1569335570.31041
1569335570.32603
1569335570.34166
1569335570.35728
1569335570.37291
1569335570.38854
1569335570.40416
1569335570.41979
1569335570.43541
1569335570.45104
1569335570.46666
1569335570.48229
1569335570.49792
1569335570.51354
1569335570.52917
1569335570.54479
1569335570.56042
1569335570.57604
1569335570.59167
1569335570.6073
1569335570.62292
1569335570.63855
1569335570.65417
1569335570.6698
1569335570.68542
1569335570.70105
1569335570.71668
1569335570.7323
1569335570.74793
1569335570.76355
1569335570.77918
1569335570.7948
1569335570.81043
1569335570.82606
1569335570.84168
1569335570.85731
1569335570.87293
1569335570.88856
1569335570.90418
1569335570.91981
1569335570.93544
1569335570.95106
1569335570.96669
1569335570.98231
1569335570.99794
1569335571.01356
1569335571.02919
1569335571.04482
1569335571.06044
1569335571.07607
1569335571.09169
1569335571.10732
1569335571.12294
1569335571.13857
1569335571.1542
1569335571.16982
1569335571.18545
1569335571.20107
1569335571.2167
1569335571.23232
1569335571.24795
1569335571.26358
1569335571.2792
1569335571.29483
1569335571.31045
1569335571.32608
1569335571.3417
1569335571.35733
1569335571.37296
1569335571.38858
1569335571.40421
1569335571.41983
1569335571.43546
1569335571.45108
1569335571.46671
1569335571.48234
1569335571.49796
1569335571.51359
1569335571.52921
1569335571.54484
1569335571.56046
1569335571.57609
1569335571.59172
1569335571.60734
1569335571.62297
1569335571.63859
1569335571.65422
1569335571.66984
1569335571.68547
1569335571.7011
1569335571.71672
1569335571.73235
1569335571.74797
1569335571.7636
1569335571.77922
1569335571.79485
1569335571.81048
1569335571.8261
1569335571.84173
1569335571.85735
1569335571.87298
1569335571.8886
1569335571.90423
1569335571.91986
1569335571.93548
1569335571.95111
1569335571.96673
1569335571.98236
1569335571.99799
1569335572.01361
1569335572.02924
1569335572.04486
1569335572.06049
1569335572.07611
1569335572.09174
1569335572.10737
1569335572.12299
1569335572.13862
1569335572.15424
1569335572.16987
1569335572.18549
1569335572.20112
1569335572.21675
1569335572.23237
1569335572.248
1569335572.26362
1569335572.27925
1569335572.29487
1569335572.3105
1569335572.32613
1569335572.34175
1569335572.35738
1569335572.373
1569335572.38863
1569335572.40425
1569335572.41988
1569335572.43551
1569335572.45113
1569335572.46676
1569335572.48238
1569335572.49801
1569335572.51363
1569335572.52926
1569335572.54489
1569335572.56051
1569335572.57614
1569335572.59176
1569335572.60739
1569335572.62301
1569335572.63864
1569335572.65427
1569335572.66989
1569335572.68552
1569335572.70114
1569335572.71677
1569335572.73239
1569335572.74802
1569335572.76365
1569335572.77927
1569335572.7949
1569335572.81052
1569335572.82615
1569335572.84177
1569335572.8574
1569335572.87303
1569335572.88865
1569335572.90428
1569335572.9199
1569335572.93553
1569335572.95115
1569335572.96678
1569335572.98241
1569335572.99803
1569335573.01366
1569335573.02928
1569335573.04491
1569335573.06053
1569335573.07616
1569335573.09179
1569335573.10741
1569335573.12304
1569335573.13866
1569335573.15429
1569335573.16991
1569335573.18554
1569335573.20117
1569335573.21679
1569335573.23242
1569335573.24804
1569335573.26367
1569335573.27929
1569335573.29492
1569335573.31055
1569335573.32617
1569335573.3418
1569335573.35742
1569335573.37305
1569335573.38867
1569335573.4043
1569335573.41993
1569335573.43555
1569335573.45118
1569335573.4668
1569335573.48243
1569335573.49805
1569335573.51368
1569335573.52931
1569335573.54493
1569335573.56056
1569335573.57618
1569335573.59181
1569335573.60743
1569335573.62306
1569335573.63869
1569335573.65431
1569335573.66994
1569335573.68556
1569335573.70119
1569335573.71681
1569335573.73244
1569335573.74807
1569335573.76369
1569335573.77932
1569335573.79494
1569335573.81057
1569335573.82619
1569335573.84182
1569335573.85745
1569335573.87307
1569335573.8887
1569335573.90432
1569335573.91995
1569335573.93557
1569335573.9512
1569335573.96683
1569335573.98245
1569335573.99808
1569335574.0137
1569335574.02933
1569335574.04495
1569335574.06058
1569335574.07621
1569335574.09183
1569335574.10746
1569335574.12308
1569335574.13871
1569335574.15433
1569335574.16996
1569335574.18559
1569335574.20121
1569335574.21684
1569335574.23246
1569335574.24809
1569335574.26372
1569335574.27934
1569335574.29497
1569335574.31059
1569335574.32622
1569335574.34184
1569335574.35747
1569335574.3731
1569335574.38872
1569335574.40435
1569335574.41997
1569335574.4356
1569335574.45122
1569335574.46685
1569335574.48248
1569335574.4981
1569335574.51373
1569335574.52935
1569335574.54498
1569335574.5606
1569335574.57623
1569335574.59186
1569335574.60748
1569335574.62311
1569335574.63873
1569335574.65436
1569335574.66998
1569335574.68561
1569335574.70124
1569335574.71686
1569335574.73249
1569335574.74811
1569335574.76374
1569335574.77936
1569335574.79499
1569335574.81062
1569335574.82624
1569335574.84187
1569335574.85749
1569335574.87312
1569335574.88874
1569335574.90437
1569335574.92
1569335574.93562
1569335574.95125
1569335574.96687
1569335574.9825
1569335574.99812
1569335575.01375
1569335575.02938
1569335575.045
1569335575.06063
1569335575.07625
1569335575.09188
1569335575.1075
1569335575.12313
1569335575.13876
1569335575.15438
1569335575.17001
1569335575.18563
1569335575.20126
1569335575.21688
1569335575.23251
1569335575.24814
1569335575.26376
1569335575.27939
1569335575.29501
1569335575.31064
1569335575.32626
1569335575.34189
1569335575.35752
1569335575.37314
1569335575.38877
1569335575.40439
1569335575.42002
1569335575.43564
1569335575.45127
1569335575.4669
1569335575.48252
1569335575.49815
1569335575.51377
1569335575.5294
1569335575.54502
1569335575.56065
1569335575.57628
1569335575.5919
1569335575.60753
1569335575.62315
1569335575.63878
1569335575.6544
1569335575.67003
1569335575.68566
1569335575.70128
1569335575.71691
1569335575.73253
1569335575.74816
1569335575.76378
1569335575.77941
1569335575.79504
1569335575.81066
1569335575.82629
1569335575.84191
1569335575.85754
1569335575.87316
1569335575.88879
1569335575.90442
1569335575.92004
1569335575.93567
1569335575.95129
1569335575.96692
1569335575.98254
1569335575.99817
1569335576.0138
1569335576.02942
1569335576.04505
1569335576.06067
1569335576.0763
1569335576.09192
1569335576.10755
1569335576.12318
1569335576.1388
1569335576.15443
1569335576.17005
1569335576.18568
1569335576.2013
1569335576.21693
1569335576.23256
1569335576.24818
1569335576.26381
1569335576.27943
1569335576.29506
1569335576.31068
1569335576.32631
1569335576.34194
1569335576.35756
1569335576.37319
1569335576.38881
1569335576.40444
1569335576.42006
1569335576.43569
1569335576.45132
1569335576.46694
1569335576.48257
1569335576.49819
1569335576.51382
1569335576.52944
1569335576.54507
1569335576.5607
1569335576.57632
1569335576.59195
1569335576.60757
1569335576.6232
1569335576.63882
1569335576.65445
1569335576.67008
1569335576.6857
1569335576.70133
1569335576.71695
1569335576.73258
1569335576.7482
1569335576.76383
1569335576.77946
1569335576.79508
1569335576.81071
1569335576.82633
1569335576.84196
1569335576.85759
1569335576.87321
1569335576.88884
1569335576.90446
1569335576.92009
1569335576.93571
1569335576.95134
1569335576.96697
1569335576.98259
1569335576.99822
1569335577.01384
1569335577.02947
1569335577.04509
1569335577.06072
1569335577.07635
1569335577.09197
1569335577.1076
1569335577.12322
1569335577.13885
1569335577.15447
1569335577.1701
1569335577.18573
1569335577.20135
1569335577.21698
1569335577.2326
1569335577.24823
1569335577.26385
1569335577.27948
1569335577.29511
1569335577.31073
1569335577.32636
1569335577.34198
1569335577.35761
1569335577.37323
1569335577.38886
1569335577.40449
1569335577.42011
1569335577.43574
1569335577.45136
1569335577.46699
1569335577.48261
1569335577.49824
1569335577.51387
1569335577.52949
1569335577.54512
1569335577.56074
1569335577.57637
1569335577.59199
1569335577.60762
1569335577.62325
1569335577.63887
1569335577.6545
1569335577.67012
1569335577.68575
1569335577.70137
1569335577.717
1569335577.73263
1569335577.74825
1569335577.76388
1569335577.7795
1569335577.79513
1569335577.81075
1569335577.82638
1569335577.84201
1569335577.85763
1569335577.87326
1569335577.88888
1569335577.90451
1569335577.92013
1569335577.93576
1569335577.95139
1569335577.96701
1569335577.98264
1569335577.99826
1569335578.01389
1569335578.02951
1569335578.04514
1569335578.06077
1569335578.07639
1569335578.09202
1569335578.10764
1569335578.12327
1569335578.13889
1569335578.15452
1569335578.17015
1569335578.18577
1569335578.2014
1569335578.21702
1569335578.23265
1569335578.24827
1569335578.2639
1569335578.27953
1569335578.29515
1569335578.31078
1569335578.3264
1569335578.34203
1569335578.35765
1569335578.37328
1569335578.38891
1569335578.40453
1569335578.42016
1569335578.43578
1569335578.45141
1569335578.46703
1569335578.48266
1569335578.49829
1569335578.51391
1569335578.52954
1569335578.54516
1569335578.56079
1569335578.57641
1569335578.59204
1569335578.60767
1569335578.62329
1569335578.63892
1569335578.65454
1569335578.67017
1569335578.68579
1569335578.70142
1569335578.71705
1569335578.73267
1569335578.7483
1569335578.76392
1569335578.77955
1569335578.79517
1569335578.8108
1569335578.82643
1569335578.84205
1569335578.85768
1569335578.8733
1569335578.88893
1569335578.90455
1569335578.92018
1569335578.93581
1569335578.95143
1569335578.96706
1569335578.98268
1569335578.99831
1569335579.01393
1569335579.02956
1569335579.04519
1569335579.06081
1569335579.07644
1569335579.09206
1569335579.10769
1569335579.12332
1569335579.13894
1569335579.15457
1569335579.17019
1569335579.18582
1569335579.20144
1569335579.21707
1569335579.2327
1569335579.24832
1569335579.26395
1569335579.27957
1569335579.2952
1569335579.31082
1569335579.32645
1569335579.34208
1569335579.3577
1569335579.37333
1569335579.38895
1569335579.40458
1569335579.4202
1569335579.43583
1569335579.45146
1569335579.46708
1569335579.48271
1569335579.49833
1569335579.51396
1569335579.52958
1569335579.54521
1569335579.56084
1569335579.57646
1569335579.59209
1569335579.60771
1569335579.62334
1569335579.63896
1569335579.65459
1569335579.67022
1569335579.68584
1569335579.70147
1569335579.71709
1569335579.73272
1569335579.74834
1569335579.76397
1569335579.7796
1569335579.79522
1569335579.81085
1569335579.82647
1569335579.8421
1569335579.85772
1569335579.87335
1569335579.88898
1569335579.9046
1569335579.92023
1569335579.93585
1569335579.95148
1569335579.9671
1569335579.98273
1569335579.99836
1569335580.01398
1569335580.02961
1569335580.04523
1569335580.06086
1569335580.07648
1569335580.09211
1569335580.10774
1569335580.12336
1569335580.13899
1569335580.15461
1569335580.17024
1569335580.18586
1569335580.20149
1569335580.21712
1569335580.23274
1569335580.24837
1569335580.26399
1569335580.27962
1569335580.29524
1569335580.31087
1569335580.3265
1569335580.34212
1569335580.35775
1569335580.37337
1569335580.389
1569335580.40462
1569335580.42025
1569335580.43588
1569335580.4515
1569335580.46713
1569335580.48275
1569335580.49838
1569335580.514
1569335580.52963
1569335580.54526
1569335580.56088
1569335580.57651
1569335580.59213
1569335580.60776
1569335580.62338
1569335580.63901
1569335580.65464
1569335580.67026
1569335580.68589
1569335580.70151
1569335580.71714
1569335580.73276
1569335580.74839
1569335580.76402
1569335580.77964
1569335580.79527
1569335580.81089
1569335580.82652
1569335580.84214
1569335580.85777
1569335580.8734
1569335580.88902
1569335580.90465
1569335580.92027
1569335580.9359
1569335580.95152
1569335580.96715
1569335580.98278
1569335580.9984
1569335581.01403
1569335581.02965
1569335581.04528
1569335581.0609
1569335581.07653
1569335581.09216
1569335581.10778
1569335581.12341
1569335581.13903
1569335581.15466
1569335581.17028
1569335581.18591
1569335581.20154
1569335581.21716
1569335581.23279
1569335581.24841
1569335581.26404
1569335581.27966
1569335581.29529
1569335581.31092
1569335581.32654
1569335581.34217
1569335581.35779
1569335581.37342
1569335581.38905
1569335581.40467
1569335581.4203
1569335581.43592
1569335581.45155
1569335581.46717
1569335581.4828
1569335581.49843
1569335581.51405
1569335581.52968
1569335581.5453
1569335581.56093
1569335581.57655
1569335581.59218
1569335581.60781
1569335581.62343
1569335581.63906
1569335581.65468
1569335581.67031
1569335581.68593
1569335581.70156
1569335581.71719
1569335581.73281
1569335581.74844
1569335581.76406
1569335581.77969
1569335581.79531
1569335581.81094
1569335581.82657
1569335581.84219
1569335581.85782
1569335581.87344
1569335581.88907
1569335581.90469
1569335581.92032
1569335581.93595
1569335581.95157
1569335581.9672
1569335581.98282
1569335581.99845
1569335582.01407
1569335582.0297
1569335582.04533
1569335582.06095
1569335582.07658
1569335582.0922
1569335582.10783
1569335582.12345
1569335582.13908
1569335582.15471
1569335582.17033
1569335582.18596
1569335582.20158
1569335582.21721
1569335582.23283
1569335582.24846
1569335582.26409
1569335582.27971
1569335582.29534
1569335582.31096
1569335582.32659
1569335582.34221
1569335582.35784
1569335582.37347
1569335582.38909
1569335582.40472
1569335582.42034
1569335582.43597
1569335582.45159
1569335582.46722
1569335582.48285
1569335582.49847
1569335582.5141
1569335582.52972
1569335582.54535
1569335582.56097
1569335582.5766
1569335582.59223
1569335582.60785
1569335582.62348
1569335582.6391
1569335582.65473
1569335582.67035
1569335582.68598
1569335582.70161
1569335582.71723
1569335582.73286
1569335582.74848
1569335582.76411
1569335582.77973
1569335582.79536
1569335582.81099
1569335582.82661
1569335582.84224
1569335582.85786
1569335582.87349
1569335582.88911
1569335582.90474
1569335582.92037
1569335582.93599
1569335582.95162
1569335582.96724
1569335582.98287
1569335582.99849
1569335583.01412
1569335583.02975
1569335583.04537
1569335583.061
1569335583.07662
1569335583.09225
1569335583.10787
1569335583.1235
1569335583.13913
1569335583.15475
1569335583.17038
1569335583.186
1569335583.20163
1569335583.21725
1569335583.23288
1569335583.24851
1569335583.26413
1569335583.27976
1569335583.29538
1569335583.31101
1569335583.32663
1569335583.34226
1569335583.35789
1569335583.37351
1569335583.38914
1569335583.40476
1569335583.42039
1569335583.43601
1569335583.45164
1569335583.46727
1569335583.48289
1569335583.49852
1569335583.51414
1569335583.52977
1569335583.54539
1569335583.56102
1569335583.57665
1569335583.59227
1569335583.6079
1569335583.62352
1569335583.63915
1569335583.65477
1569335583.6704
1569335583.68603
1569335583.70165
1569335583.71728
1569335583.7329
1569335583.74853
1569335583.76415
1569335583.77978
1569335583.79541
1569335583.81103
1569335583.82666
1569335583.84228
1569335583.85791
1569335583.87353
1569335583.88916
1569335583.90479
1569335583.92041
1569335583.93604
1569335583.95166
1569335583.96729
1569335583.98292
1569335583.99854
1569335584.01417
1569335584.02979
1569335584.04542
1569335584.06104
1569335584.07667
1569335584.0923
1569335584.10792
1569335584.12355
1569335584.13917
1569335584.1548
1569335584.17042
1569335584.18605
1569335584.20168
1569335584.2173
1569335584.23293
1569335584.24855
1569335584.26418
1569335584.2798
1569335584.29543
1569335584.31106
1569335584.32668
1569335584.34231
1569335584.35793
1569335584.37356
1569335584.38918
1569335584.40481
1569335584.42044
1569335584.43606
1569335584.45169
1569335584.46731
1569335584.48294
1569335584.49856
1569335584.51419
1569335584.52982
1569335584.54544
1569335584.56107
1569335584.57669
1569335584.59232
1569335584.60794
1569335584.62357
1569335584.6392
1569335584.65482
1569335584.67045
1569335584.68607
1569335584.7017
1569335584.71732
1569335584.73295
1569335584.74858
1569335584.7642
1569335584.77983
1569335584.79545
1569335584.81108
1569335584.8267
1569335584.84233
1569335584.85796
1569335584.87358
1569335584.88921
1569335584.90483
1569335584.92046
1569335584.93608
1569335584.95171
1569335584.96734
1569335584.98296
1569335584.99859
1569335585.01421
1569335585.02984
1569335585.04546
1569335585.06109
1569335585.07672
1569335585.09234
1569335585.10797
1569335585.12359
1569335585.13922
1569335585.15484
1569335585.17047
1569335585.1861
1569335585.20172
1569335585.21735
1569335585.23297
1569335585.2486
1569335585.26422
1569335585.27985
1569335585.29548
1569335585.3111
1569335585.32673
1569335585.34235
1569335585.35798
1569335585.3736
1569335585.38923
1569335585.40486
1569335585.42048
1569335585.43611
1569335585.45173
1569335585.46736
1569335585.48298
1569335585.49861
1569335585.51424
1569335585.52986
1569335585.54549
1569335585.56111
1569335585.57674
1569335585.59236
1569335585.60799
1569335585.62362
1569335585.63924
1569335585.65487
1569335585.67049
1569335585.68612
1569335585.70174
1569335585.71737
1569335585.733
1569335585.74862
1569335585.76425
1569335585.77987
1569335585.7955
1569335585.81112
1569335585.82675
1569335585.84238
1569335585.858
1569335585.87363
1569335585.88925
1569335585.90488
1569335585.9205
1569335585.93613
1569335585.95176
1569335585.96738
1569335585.98301
1569335585.99863
1569335586.01426
1569335586.02988
1569335586.04551
1569335586.06114
1569335586.07676
1569335586.09239
1569335586.10801
1569335586.12364
1569335586.13926
1569335586.15489
1569335586.17052
1569335586.18614
1569335586.20177
1569335586.21739
1569335586.23302
1569335586.24865
1569335586.26427
1569335586.2799
1569335586.29552
1569335586.31115
1569335586.32677
1569335586.3424
1569335586.35803
1569335586.37365
1569335586.38928
1569335586.4049
1569335586.42053
1569335586.43615
1569335586.45178
1569335586.46741
1569335586.48303
1569335586.49866
1569335586.51428
1569335586.52991
1569335586.54553
1569335586.56116
1569335586.57679
1569335586.59241
1569335586.60804
1569335586.62366
1569335586.63929
1569335586.65491
1569335586.67054
1569335586.68617
1569335586.70179
1569335586.71742
1569335586.73304
1569335586.74867
1569335586.76429
1569335586.77992
1569335586.79555
1569335586.81117
1569335586.8268
1569335586.84242
1569335586.85805
1569335586.87367
1569335586.8893
1569335586.90493
1569335586.92055
1569335586.93618
1569335586.9518
1569335586.96743
1569335586.98305
1569335586.99868
1569335587.01431
1569335587.02993
1569335587.04556
1569335587.06118
1569335587.07681
1569335587.09243
1569335587.10806
1569335587.12369
1569335587.13931
1569335587.15494
1569335587.17056
1569335587.18619
1569335587.20181
1569335587.21744
1569335587.23307
1569335587.24869
1569335587.26432
1569335587.27994
1569335587.29557
1569335587.31119
1569335587.32682
1569335587.34245
1569335587.35807
1569335587.3737
1569335587.38932
1569335587.40495
1569335587.42057
1569335587.4362
1569335587.45183
1569335587.46745
1569335587.48308
1569335587.4987
1569335587.51433
1569335587.52995
1569335587.54558
1569335587.56121
1569335587.57683
1569335587.59246
1569335587.60808
1569335587.62371
1569335587.63933
1569335587.65496
1569335587.67059
1569335587.68621
1569335587.70184
1569335587.71746
1569335587.73309
1569335587.74871
1569335587.76434
1569335587.77997
1569335587.79559
1569335587.81122
1569335587.82684
1569335587.84247
1569335587.85809
1569335587.87372
1569335587.88935
1569335587.90497
1569335587.9206
1569335587.93622
1569335587.95185
1569335587.96747
1569335587.9831
1569335587.99873
1569335588.01435
1569335588.02998
1569335588.0456
1569335588.06123
1569335588.07685
1569335588.09248
1569335588.10811
1569335588.12373
1569335588.13936
1569335588.15498
1569335588.17061
1569335588.18623
1569335588.20186
1569335588.21749
1569335588.23311
1569335588.24874
1569335588.26436
1569335588.27999
1569335588.29561
1569335588.31124
1569335588.32687
1569335588.34249
1569335588.35812
1569335588.37374
1569335588.38937
1569335588.40499
1569335588.42062
1569335588.43625
1569335588.45187
1569335588.4675
1569335588.48312
1569335588.49875
1569335588.51437
1569335588.53
1569335588.54563
1569335588.56125
1569335588.57688
1569335588.5925
1569335588.60813
1569335588.62375
1569335588.63938
1569335588.65501
1569335588.67063
1569335588.68626
1569335588.70188
1569335588.71751
1569335588.73313
1569335588.74876
1569335588.76439
1569335588.78001
1569335588.79564
1569335588.81126
1569335588.82689
1569335588.84252
1569335588.85814
1569335588.87377
1569335588.88939
1569335588.90502
1569335588.92064
1569335588.93627
1569335588.9519
1569335588.96752
1569335588.98315
1569335588.99877
1569335589.0144
1569335589.03002
1569335589.04565
1569335589.06128
1569335589.0769
1569335589.09253
1569335589.10815
1569335589.12378
1569335589.1394
1569335589.15503
1569335589.17066
1569335589.18628
1569335589.20191
1569335589.21753
1569335589.23316
1569335589.24878
1569335589.26441
1569335589.28004
1569335589.29566
1569335589.31129
1569335589.32691
1569335589.34254
1569335589.35816
1569335589.37379
1569335589.38942
1569335589.40504
1569335589.42067
1569335589.43629
1569335589.45192
1569335589.46754
1569335589.48317
1569335589.4988
1569335589.51442
1569335589.53005
1569335589.54567
1569335589.5613
1569335589.57692
1569335589.59255
1569335589.60818
1569335589.6238
1569335589.63943
1569335589.65505
1569335589.67068
1569335589.6863
1569335589.70193
1569335589.71756
1569335589.73318
1569335589.74881
1569335589.76443
1569335589.78006
1569335589.79568
1569335589.81131
1569335589.82694
1569335589.84256
1569335589.85819
1569335589.87381
1569335589.88944
1569335589.90506
1569335589.92069
1569335589.93632
1569335589.95194
1569335589.96757
1569335589.98319
1569335589.99882
1569335590.01444
1569335590.03007
1569335590.0457
1569335590.06132
1569335590.07695
1569335590.09257
1569335590.1082
1569335590.12382
1569335590.13945
1569335590.15508
1569335590.1707
1569335590.18633
1569335590.20195
1569335590.21758
1569335590.2332
1569335590.24883
1569335590.26446
1569335590.28008
1569335590.29571
1569335590.31133
1569335590.32696
1569335590.34258
1569335590.35821
1569335590.37384
1569335590.38946
1569335590.40509
1569335590.42071
1569335590.43634
1569335590.45196
1569335590.46759
1569335590.48322
1569335590.49884
1569335590.51447
1569335590.53009
1569335590.54572
1569335590.56134
1569335590.57697
1569335590.5926
1569335590.60822
1569335590.62385
1569335590.63947
1569335590.6551
1569335590.67072
1569335590.68635
1569335590.70198
1569335590.7176
1569335590.73323
1569335590.74885
1569335590.76448
1569335590.7801
1569335590.79573
1569335590.81136
1569335590.82698
1569335590.84261
1569335590.85823
1569335590.87386
1569335590.88948
1569335590.90511
1569335590.92074
1569335590.93636
1569335590.95199
1569335590.96761
1569335590.98324
1569335590.99886
1569335591.01449
1569335591.03012
1569335591.04574
1569335591.06137
1569335591.07699
1569335591.09262
1569335591.10825
1569335591.12387
1569335591.1395
1569335591.15512
1569335591.17075
1569335591.18637
1569335591.202
1569335591.21763
1569335591.23325
1569335591.24888
1569335591.2645
1569335591.28013
1569335591.29575
1569335591.31138
1569335591.32701
1569335591.34263
1569335591.35826
1569335591.37388
1569335591.38951
1569335591.40513
1569335591.42076
1569335591.43639
1569335591.45201
1569335591.46764
1569335591.48326
1569335591.49889
1569335591.51451
1569335591.53014
1569335591.54577
1569335591.56139
1569335591.57702
1569335591.59264
1569335591.60827
1569335591.62389
1569335591.63952
1569335591.65515
1569335591.67077
1569335591.6864
1569335591.70202
1569335591.71765
1569335591.73327
1569335591.7489
1569335591.76453
1569335591.78015
1569335591.79578
1569335591.8114
1569335591.82703
1569335591.84265
1569335591.85828
1569335591.87391
1569335591.88953
1569335591.90516
1569335591.92078
1569335591.93641
1569335591.95203
1569335591.96766
1569335591.98329
1569335591.99891
1569335592.01454
1569335592.03016
1569335592.04579
1569335592.06141
1569335592.07704
1569335592.09267
1569335592.10829
1569335592.12392
1569335592.13954
1569335592.15517
1569335592.17079
1569335592.18642
1569335592.20205
1569335592.21767
1569335592.2333
1569335592.24892
1569335592.26455
1569335592.28017
1569335592.2958
1569335592.31143
1569335592.32705
1569335592.34268
1569335592.3583
1569335592.37393
1569335592.38955
1569335592.40518
1569335592.42081
1569335592.43643
1569335592.45206
1569335592.46768
1569335592.48331
1569335592.49893
1569335592.51456
1569335592.53019
1569335592.54581
1569335592.56144
1569335592.57706
1569335592.59269
1569335592.60831
1569335592.62394
1569335592.63957
1569335592.65519
1569335592.67082
1569335592.68644
1569335592.70207
1569335592.71769
1569335592.73332
1569335592.74895
1569335592.76457
1569335592.7802
1569335592.79582
1569335592.81145
1569335592.82707
1569335592.8427
1569335592.85833
1569335592.87395
1569335592.88958
1569335592.9052
1569335592.92083
1569335592.93645
1569335592.95208
1569335592.96771
1569335592.98333
1569335592.99896
1569335593.01458
1569335593.03021
1569335593.04583
1569335593.06146
1569335593.07709
1569335593.09271
1569335593.10834
1569335593.12396
1569335593.13959
1569335593.15521
1569335593.17084
1569335593.18647
1569335593.20209
1569335593.21772
1569335593.23334
1569335593.24897
1569335593.2646
1569335593.28022
1569335593.29585
1569335593.31147
1569335593.3271
1569335593.34272
1569335593.35835
1569335593.37398
1569335593.3896
1569335593.40523
1569335593.42085
1569335593.43648
1569335593.4521
1569335593.46773
1569335593.48336
1569335593.49898
1569335593.51461
1569335593.53023
1569335593.54586
1569335593.56148
1569335593.57711
1569335593.59274
1569335593.60836
1569335593.62399
1569335593.63961
1569335593.65524
1569335593.67086
1569335593.68649
1569335593.70212
1569335593.71774
1569335593.73337
1569335593.74899
1569335593.76462
1569335593.78024
1569335593.79587
1569335593.8115
1569335593.82712
1569335593.84275
1569335593.85837
1569335593.874
1569335593.88962
1569335593.90525
1569335593.92088
1569335593.9365
1569335593.95213
1569335593.96775
1569335593.98338
1569335593.999
1569335594.01463
1569335594.03026
1569335594.04588
1569335594.06151
1569335594.07713
1569335594.09276
1569335594.10838
1569335594.12401
1569335594.13964
1569335594.15526
1569335594.17089
1569335594.18651
1569335594.20214
1569335594.21776
1569335594.23339
1569335594.24902
1569335594.26464
1569335594.28027
1569335594.29589
1569335594.31152
1569335594.32714
1569335594.34277
1569335594.3584
1569335594.37402
1569335594.38965
1569335594.40527
1569335594.4209
1569335594.43652
1569335594.45215
1569335594.46778
1569335594.4834
1569335594.49903
1569335594.51465
1569335594.53028
1569335594.5459
1569335594.56153
1569335594.57716
1569335594.59278
1569335594.60841
1569335594.62403
1569335594.63966
1569335594.65528
1569335594.67091
1569335594.68654
1569335594.70216
1569335594.71779
1569335594.73341
1569335594.74904
1569335594.76466
1569335594.78029
1569335594.79592
1569335594.81154
1569335594.82717
1569335594.84279
1569335594.85842
1569335594.87404
1569335594.88967
1569335594.9053
1569335594.92092
1569335594.93655
1569335594.95217
1569335594.9678
1569335594.98342
1569335594.99905
1569335595.01468
1569335595.0303
1569335595.04593
1569335595.06155
1569335595.07718
1569335595.0928
1569335595.10843
1569335595.12406
1569335595.13968
1569335595.15531
1569335595.17093
1569335595.18656
1569335595.20218
1569335595.21781
1569335595.23344
1569335595.24906
1569335595.26469
1569335595.28031
1569335595.29594
1569335595.31156
1569335595.32719
1569335595.34282
1569335595.35844
1569335595.37407
1569335595.38969
1569335595.40532
1569335595.42094
1569335595.43657
1569335595.4522
1569335595.46782
1569335595.48345
1569335595.49907
1569335595.5147
1569335595.53032
1569335595.54595
1569335595.56158
1569335595.5772
1569335595.59283
1569335595.60845
1569335595.62408
1569335595.6397
1569335595.65533
1569335595.67096
1569335595.68658
1569335595.70221
1569335595.71783
1569335595.73346
1569335595.74908
1569335595.76471
1569335595.78034
1569335595.79596
1569335595.81159
1569335595.82721
1569335595.84284
1569335595.85846
1569335595.87409
1569335595.88972
1569335595.90534
1569335595.92097
1569335595.93659
1569335595.95222
1569335595.96785
1569335595.98347
1569335595.9991
1569335596.01472
1569335596.03035
1569335596.04597
1569335596.0616
1569335596.07723
1569335596.09285
1569335596.10848
1569335596.1241
1569335596.13973
1569335596.15535
1569335596.17098
1569335596.18661
1569335596.20223
1569335596.21786
1569335596.23348
1569335596.24911
1569335596.26473
1569335596.28036
1569335596.29599
1569335596.31161
1569335596.32724
1569335596.34286
1569335596.35849
1569335596.37411
1569335596.38974
1569335596.40537
1569335596.42099
1569335596.43662
1569335596.45224
1569335596.46787
1569335596.48349
1569335596.49912
1569335596.51475
1569335596.53037
1569335596.546
1569335596.56162
1569335596.57725
1569335596.59287
1569335596.6085
1569335596.62413
1569335596.63975
1569335596.65538
1569335596.671
1569335596.68663
1569335596.70225
1569335596.71788
1569335596.73351
1569335596.74913
1569335596.76476
1569335596.78038
1569335596.79601
1569335596.81163
1569335596.82726
1569335596.84289
1569335596.85851
1569335596.87414
1569335596.88976
1569335596.90539
1569335596.92101
1569335596.93664
1569335596.95227
1569335596.96789
1569335596.98352
1569335596.99914
1569335597.01477
1569335597.03039
1569335597.04602
1569335597.06165
1569335597.07727
1569335597.0929
1569335597.10852
1569335597.12415
1569335597.13977
1569335597.1554
1569335597.17103
1569335597.18665
1569335597.20228
1569335597.2179
1569335597.23353
1569335597.24915
1569335597.26478
1569335597.28041
1569335597.29603
1569335597.31166
1569335597.32728
1569335597.34291
1569335597.35853
1569335597.37416
1569335597.38979
1569335597.40541
1569335597.42104
1569335597.43666
1569335597.45229
1569335597.46791
1569335597.48354
1569335597.49917
1569335597.51479
1569335597.53042
1569335597.54604
1569335597.56167
1569335597.57729
1569335597.59292
1569335597.60855
1569335597.62417
1569335597.6398
1569335597.65542
1569335597.67105
1569335597.68667
1569335597.7023
1569335597.71793
1569335597.73355
1569335597.74918
1569335597.7648
1569335597.78043
1569335597.79605
1569335597.81168
1569335597.82731
1569335597.84293
1569335597.85856
1569335597.87418
1569335597.88981
1569335597.90543
1569335597.92106
1569335597.93669
1569335597.95231
1569335597.96794
1569335597.98356
1569335597.99919
1569335598.01481
1569335598.03044
1569335598.04607
1569335598.06169
1569335598.07732
1569335598.09294
1569335598.10857
1569335598.1242
1569335598.13982
1569335598.15545
1569335598.17107
1569335598.1867
1569335598.20232
1569335598.21795
1569335598.23358
1569335598.2492
1569335598.26483
1569335598.28045
1569335598.29608
1569335598.3117
1569335598.32733
1569335598.34296
1569335598.35858
1569335598.37421
1569335598.38983
1569335598.40546
1569335598.42108
1569335598.43671
1569335598.45234
1569335598.46796
1569335598.48359
1569335598.49921
1569335598.51484
1569335598.53046
1569335598.54609
1569335598.56172
1569335598.57734
1569335598.59297
1569335598.60859
1569335598.62422
1569335598.63984
1569335598.65547
1569335598.6711
1569335598.68672
1569335598.70235
1569335598.71797
1569335598.7336
1569335598.74922
1569335598.76485
1569335598.78048
1569335598.7961
1569335598.81173
1569335598.82735
1569335598.84298
1569335598.8586
1569335598.87423
1569335598.88986
1569335598.90548
1569335598.92111
1569335598.93673
1569335598.95236
1569335598.96798
1569335598.98361
1569335598.99924
1569335599.01486
1569335599.03049
1569335599.04611
1569335599.06174
1569335599.07736
1569335599.09299
1569335599.10862
1569335599.12424
1569335599.13987
1569335599.15549
1569335599.17112
1569335599.18674
1569335599.20237
1569335599.218
1569335599.23362
1569335599.24925
1569335599.26487
1569335599.2805
1569335599.29612
1569335599.31175
1569335599.32738
1569335599.343
1569335599.35863
1569335599.37425
1569335599.38988
1569335599.4055
1569335599.42113
1569335599.43676
1569335599.45238
1569335599.46801
1569335599.48363
1569335599.49926
1569335599.51488
1569335599.53051
1569335599.54614
1569335599.56176
1569335599.57739
1569335599.59301
1569335599.60864
1569335599.62426
1569335599.63989
1569335599.65552
1569335599.67114
1569335599.68677
1569335599.70239
1569335599.71802
1569335599.73364
1569335599.74927
1569335599.7649
1569335599.78052
1569335599.79615
1569335599.81177
1569335599.8274
1569335599.84302
1569335599.85865
1569335599.87428
1569335599.8899
1569335599.90553
1569335599.92115
1569335599.93678
1569335599.9524
1569335599.96803
1569335599.98366
1569335599.99928
1569335600.01491
1569335600.03053
1569335600.04616
1569335600.06178
1569335600.07741
1569335600.09304
1569335600.10866
1569335600.12429
1569335600.13991
1569335600.15554
1569335600.17116
1569335600.18679
1569335600.20242
1569335600.21804
1569335600.23367
1569335600.24929
1569335600.26492
1569335600.28054
1569335600.29617
1569335600.3118
1569335600.32742
1569335600.34305
1569335600.35867
1569335600.3743
1569335600.38993
1569335600.40555
1569335600.42118
1569335600.4368
1569335600.45243
1569335600.46805
1569335600.48368
1569335600.49931
1569335600.51493
1569335600.53056
1569335600.54618
1569335600.56181
1569335600.57743
1569335600.59306
1569335600.60869
1569335600.62431
1569335600.63994
1569335600.65556
1569335600.67119
1569335600.68681
1569335600.70244
1569335600.71807
1569335600.73369
1569335600.74932
1569335600.76494
1569335600.78057
1569335600.79619
1569335600.81182
1569335600.82745
1569335600.84307
1569335600.8587
1569335600.87432
1569335600.88995
1569335600.90557
1569335600.9212
1569335600.93683
1569335600.95245
1569335600.96808
1569335600.9837
1569335600.99933
1569335601.01495
1569335601.03058
1569335601.04621
1569335601.06183
1569335601.07746
1569335601.09308
1569335601.10871
1569335601.12433
1569335601.13996
1569335601.15559
1569335601.17121
1569335601.18684
1569335601.20246
1569335601.21809
1569335601.23371
1569335601.24934
1569335601.26497
1569335601.28059
1569335601.29622
1569335601.31184
1569335601.32747
1569335601.34309
1569335601.35872
1569335601.37435
1569335601.38997
1569335601.4056
1569335601.42122
1569335601.43685
1569335601.45247
1569335601.4681
1569335601.48373
1569335601.49935
1569335601.51498
1569335601.5306
1569335601.54623
1569335601.56185
1569335601.57748
1569335601.59311
1569335601.60873
1569335601.62436
1569335601.63998
1569335601.65561
1569335601.67123
1569335601.68686
1569335601.70249
1569335601.71811
1569335601.73374
1569335601.74936
1569335601.76499
1569335601.78061
1569335601.79624
1569335601.81187
1569335601.82749
1569335601.84312
1569335601.85874
1569335601.87437
1569335601.88999
1569335601.90562
1569335601.92125
1569335601.93687
1569335601.9525
1569335601.96812
1569335601.98375
1569335601.99937
1569335602.015
1569335602.03063
1569335602.04625
1569335602.06188
1569335602.0775
1569335602.09313
1569335602.10875
1569335602.12438
1569335602.14001
1569335602.15563
1569335602.17126
1569335602.18688
1569335602.20251
1569335602.21813
1569335602.23376
1569335602.24939
1569335602.26501
1569335602.28064
1569335602.29626
1569335602.31189
1569335602.32751
1569335602.34314
1569335602.35877
1569335602.37439
1569335602.39002
1569335602.40564
1569335602.42127
1569335602.43689
1569335602.45252
1569335602.46815
1569335602.48377
1569335602.4994
1569335602.51502
1569335602.53065
1569335602.54627
1569335602.5619
1569335602.57753
1569335602.59315
1569335602.60878
1569335602.6244
1569335602.64003
1569335602.65565
1569335602.67128
1569335602.68691
1569335602.70253
1569335602.71816
1569335602.73378
1569335602.74941
1569335602.76503
1569335602.78066
1569335602.79629
1569335602.81191
1569335602.82754
1569335602.84316
1569335602.85879
1569335602.87441
1569335602.89004
1569335602.90567
1569335602.92129
1569335602.93692
1569335602.95254
1569335602.96817
1569335602.9838
1569335602.99942
1569335603.01505
1569335603.03067
1569335603.0463
1569335603.06192
1569335603.07755
1569335603.09318
1569335603.1088
1569335603.12443
1569335603.14005
1569335603.15568
1569335603.1713
1569335603.18693
1569335603.20256
1569335603.21818
1569335603.23381
1569335603.24943
1569335603.26506
1569335603.28068
1569335603.29631
1569335603.31194
1569335603.32756
1569335603.34319
1569335603.35881
1569335603.37444
1569335603.39006
1569335603.40569
1569335603.42132
1569335603.43694
1569335603.45257
1569335603.46819
1569335603.48382
1569335603.49944
1569335603.51507
1569335603.5307
1569335603.54632
1569335603.56195
1569335603.57757
1569335603.5932
1569335603.60882
1569335603.62445
1569335603.64008
1569335603.6557
1569335603.67133
1569335603.68695
1569335603.70258
1569335603.7182
1569335603.73383
1569335603.74946
1569335603.76508
1569335603.78071
1569335603.79633
1569335603.81196
1569335603.82758
1569335603.84321
1569335603.85884
1569335603.87446
1569335603.89009
1569335603.90571
1569335603.92134
1569335603.93696
1569335603.95259
1569335603.96822
1569335603.98384
1569335603.99947
1569335604.01509
1569335604.03072
1569335604.04634
1569335604.06197
1569335604.0776
1569335604.09322
1569335604.10885
1569335604.12447
1569335604.1401
1569335604.15572
1569335604.17135
1569335604.18698
1569335604.2026
1569335604.21823
1569335604.23385
1569335604.24948
1569335604.2651
1569335604.28073
1569335604.29636
1569335604.31198
1569335604.32761
1569335604.34323
1569335604.35886
1569335604.37448
1569335604.39011
1569335604.40574
1569335604.42136
1569335604.43699
1569335604.45261
1569335604.46824
1569335604.48386
1569335604.49949
1569335604.51512
1569335604.53074
1569335604.54637
1569335604.56199
1569335604.57762
1569335604.59324
1569335604.60887
1569335604.6245
1569335604.64012
1569335604.65575
1569335604.67137
1569335604.687
1569335604.70262
1569335604.71825
1569335604.73388
1569335604.7495
1569335604.76513
1569335604.78075
1569335604.79638
1569335604.812
1569335604.82763
1569335604.84326
1569335604.85888
1569335604.87451
1569335604.89013
1569335604.90576
1569335604.92138
1569335604.93701
1569335604.95264
1569335604.96826
1569335604.98389
1569335604.99951
1569335605.01514
1569335605.03076
1569335605.04639
1569335605.06202
1569335605.07764
1569335605.09327
1569335605.10889
1569335605.12452
1569335605.14014
1569335605.15577
1569335605.1714
1569335605.18702
1569335605.20265
1569335605.21827
1569335605.2339
1569335605.24953
1569335605.26515
1569335605.28078
1569335605.2964
1569335605.31203
1569335605.32765
1569335605.34328
1569335605.35891
1569335605.37453
1569335605.39016
1569335605.40578
1569335605.42141
1569335605.43703
1569335605.45266
1569335605.46829
1569335605.48391
1569335605.49954
1569335605.51516
1569335605.53079
1569335605.54641
1569335605.56204
1569335605.57767
1569335605.59329
1569335605.60892
1569335605.62454
1569335605.64017
1569335605.65579
1569335605.67142
1569335605.68705
1569335605.70267
1569335605.7183
1569335605.73392
1569335605.74955
1569335605.76517
1569335605.7808
1569335605.79643
1569335605.81205
1569335605.82768
1569335605.8433
1569335605.85893
1569335605.87455
1569335605.89018
1569335605.90581
1569335605.92143
1569335605.93706
1569335605.95268
1569335605.96831
1569335605.98393
1569335605.99956
1569335606.01519
1569335606.03081
1569335606.04644
1569335606.06206
1569335606.07769
1569335606.09331
1569335606.10894
1569335606.12457
1569335606.14019
1569335606.15582
1569335606.17144
1569335606.18707
1569335606.20269
1569335606.21832
1569335606.23395
1569335606.24957
1569335606.2652
1569335606.28082
1569335606.29645
1569335606.31207
1569335606.3277
1569335606.34333
1569335606.35895
1569335606.37458
1569335606.3902
1569335606.40583
1569335606.42145
1569335606.43708
1569335606.45271
1569335606.46833
1569335606.48396
1569335606.49958
1569335606.51521
1569335606.53083
1569335606.54646
1569335606.56209
1569335606.57771
1569335606.59334
1569335606.60896
1569335606.62459
1569335606.64021
1569335606.65584
1569335606.67147
1569335606.68709
1569335606.70272
1569335606.71834
1569335606.73397
1569335606.74959
1569335606.76522
1569335606.78085
1569335606.79647
1569335606.8121
1569335606.82772
1569335606.84335
1569335606.85897
1569335606.8746
1569335606.89023
1569335606.90585
1569335606.92148
1569335606.9371
1569335606.95273
1569335606.96835
1569335606.98398
1569335606.99961
1569335607.01523
1569335607.03086
1569335607.04648
1569335607.06211
1569335607.07773
1569335607.09336
1569335607.10899
1569335607.12461
1569335607.14024
1569335607.15586
1569335607.17149
1569335607.18711
1569335607.20274
1569335607.21837
1569335607.23399
1569335607.24962
1569335607.26524
1569335607.28087
1569335607.29649
1569335607.31212
1569335607.32775
1569335607.34337
1569335607.359
1569335607.37462
1569335607.39025
1569335607.40587
1569335607.4215
1569335607.43713
1569335607.45275
1569335607.46838
1569335607.484
1569335607.49963
1569335607.51525
1569335607.53088
1569335607.54651
1569335607.56213
1569335607.57776
1569335607.59338
1569335607.60901
1569335607.62463
1569335607.64026
1569335607.65589
1569335607.67151
1569335607.68714
1569335607.70276
1569335607.71839
1569335607.73401
1569335607.74964
1569335607.76527
1569335607.78089
1569335607.79652
1569335607.81214
1569335607.82777
1569335607.84339
1569335607.85902
1569335607.87465
1569335607.89027
1569335607.9059
1569335607.92152
1569335607.93715
1569335607.95278
1569335607.9684
1569335607.98403
1569335607.99965
1569335608.01528
1569335608.0309
1569335608.04653
1569335608.06216
1569335608.07778
1569335608.09341
1569335608.10903
1569335608.12466
1569335608.14028
1569335608.15591
1569335608.17154
1569335608.18716
1569335608.20279
1569335608.21841
1569335608.23404
1569335608.24966
1569335608.26529
1569335608.28092
1569335608.29654
1569335608.31217
1569335608.32779
1569335608.34342
1569335608.35904
1569335608.37467
1569335608.3903
1569335608.40592
1569335608.42155
1569335608.43717
1569335608.4528
1569335608.46842
1569335608.48405
1569335608.49968
1569335608.5153
1569335608.53093
1569335608.54655
1569335608.56218
1569335608.5778
1569335608.59343
1569335608.60906
1569335608.62468
1569335608.64031
1569335608.65593
1569335608.67156
1569335608.68718
1569335608.70281
1569335608.71844
1569335608.73406
1569335608.74969
1569335608.76531
1569335608.78094
1569335608.79656
1569335608.81219
1569335608.82782
1569335608.84344
1569335608.85907
1569335608.87469
1569335608.89032
1569335608.90594
1569335608.92157
1569335608.9372
1569335608.95282
1569335608.96845
1569335608.98407
1569335608.9997
1569335609.01532
1569335609.03095
1569335609.04658
1569335609.0622
1569335609.07783
1569335609.09345
1569335609.10908
1569335609.1247
1569335609.14033
1569335609.15596
1569335609.17158
1569335609.18721
1569335609.20283
1569335609.21846
1569335609.23408
1569335609.24971
1569335609.26534
1569335609.28096
1569335609.29659
1569335609.31221
1569335609.32784
1569335609.34346
1569335609.35909
1569335609.37472
1569335609.39034
1569335609.40597
1569335609.42159
1569335609.43722
1569335609.45284
1569335609.46847
1569335609.4841
1569335609.49972
1569335609.51535
1569335609.53097
1569335609.5466
1569335609.56222
1569335609.57785
1569335609.59348
1569335609.6091
1569335609.62473
1569335609.64035
1569335609.65598
1569335609.6716
1569335609.68723
1569335609.70286
1569335609.71848
1569335609.73411
1569335609.74973
1569335609.76536
1569335609.78098
1569335609.79661
1569335609.81224
1569335609.82786
1569335609.84349
1569335609.85911
1569335609.87474
1569335609.89036
1569335609.90599
1569335609.92162
1569335609.93724
1569335609.95287
1569335609.96849
1569335609.98412
1569335609.99974
1569335610.01537
1569335610.031
1569335610.04662
1569335610.06225
1569335610.07787
1569335610.0935
1569335610.10913
1569335610.12475
1569335610.14038
1569335610.156
1569335610.17163
1569335610.18725
1569335610.20288
1569335610.21851
1569335610.23413
1569335610.24976
1569335610.26538
1569335610.28101
1569335610.29663
1569335610.31226
1569335610.32789
1569335610.34351
1569335610.35914
1569335610.37476
1569335610.39039
1569335610.40601
1569335610.42164
1569335610.43727
1569335610.45289
1569335610.46852
1569335610.48414
1569335610.49977
1569335610.51539
1569335610.53102
1569335610.54665
1569335610.56227
1569335610.5779
1569335610.59352
1569335610.60915
1569335610.62477
1569335610.6404
1569335610.65603
1569335610.67165
1569335610.68728
1569335610.7029
1569335610.71853
1569335610.73415
1569335610.74978
1569335610.76541
1569335610.78103
1569335610.79666
1569335610.81228
1569335610.82791
1569335610.84353
1569335610.85916
1569335610.87479
1569335610.89041
1569335610.90604
1569335610.92166
1569335610.93729
1569335610.95291
1569335610.96854
1569335610.98417
1569335610.99979
1569335611.01542
1569335611.03104
1569335611.04667
1569335611.06229
1569335611.07792
1569335611.09355
1569335611.10917
1569335611.1248
1569335611.14042
1569335611.15605
1569335611.17167
1569335611.1873
1569335611.20293
1569335611.21855
1569335611.23418
1569335611.2498
1569335611.26543
1569335611.28105
1569335611.29668
1569335611.31231
1569335611.32793
1569335611.34356
1569335611.35918
1569335611.37481
1569335611.39043
1569335611.40606
1569335611.42169
1569335611.43731
1569335611.45294
1569335611.46856
1569335611.48419
1569335611.49981
1569335611.51544
1569335611.53107
1569335611.54669
1569335611.56232
1569335611.57794
1569335611.59357
1569335611.60919
1569335611.62482
1569335611.64045
1569335611.65607
1569335611.6717
1569335611.68732
1569335611.70295
1569335611.71857
1569335611.7342
1569335611.74983
1569335611.76545
1569335611.78108
1569335611.7967
1569335611.81233
1569335611.82795
1569335611.84358
1569335611.85921
1569335611.87483
1569335611.89046
1569335611.90608
1569335611.92171
1569335611.93733
1569335611.95296
1569335611.96859
1569335611.98421
1569335611.99984
1569335612.01546
1569335612.03109
1569335612.04671
1569335612.06234
1569335612.07797
1569335612.09359
1569335612.10922
1569335612.12484
1569335612.14047
1569335612.15609
1569335612.17172
1569335612.18735
1569335612.20297
1569335612.2186
1569335612.23422
1569335612.24985
1569335612.26547
1569335612.2811
1569335612.29673
1569335612.31235
1569335612.32798
1569335612.3436
1569335612.35923
1569335612.37486
1569335612.39048
1569335612.40611
1569335612.42173
1569335612.43736
1569335612.45298
1569335612.46861
1569335612.48424
1569335612.49986
1569335612.51549
1569335612.53111
1569335612.54674
1569335612.56236
1569335612.57799
1569335612.59362
1569335612.60924
1569335612.62487
1569335612.64049
1569335612.65612
1569335612.67174
1569335612.68737
1569335612.703
1569335612.71862
1569335612.73425
1569335612.74987
1569335612.7655
1569335612.78112
1569335612.79675
1569335612.81238
1569335612.828
1569335612.84363
1569335612.85925
1569335612.87488
1569335612.8905
1569335612.90613
1569335612.92176
1569335612.93738
1569335612.95301
1569335612.96863
1569335612.98426
1569335612.99988
1569335613.01551
1569335613.03114
1569335613.04676
1569335613.06239
1569335613.07801
1569335613.09364
1569335613.10926
1569335613.12489
1569335613.14052
1569335613.15614
1569335613.17177
1569335613.18739
1569335613.20302
1569335613.21864
1569335613.23427
1569335613.2499
1569335613.26552
1569335613.28115
1569335613.29677
1569335613.3124
1569335613.32802
1569335613.34365
1569335613.35928
1569335613.3749
1569335613.39053
1569335613.40615
1569335613.42178
1569335613.4374
1569335613.45303
1569335613.46866
1569335613.48428
1569335613.49991
1569335613.51553
1569335613.53116
1569335613.54678
1569335613.56241
1569335613.57804
1569335613.59366
1569335613.60929
1569335613.62491
1569335613.64054
1569335613.65616
1569335613.67179
1569335613.68742
1569335613.70304
1569335613.71867
1569335613.73429
1569335613.74992
1569335613.76554
1569335613.78117
1569335613.7968
1569335613.81242
1569335613.82805
1569335613.84367
1569335613.8593
1569335613.87492
1569335613.89055
1569335613.90618
1569335613.9218
1569335613.93743
1569335613.95305
1569335613.96868
1569335613.9843
1569335613.99993
1569335614.01556
1569335614.03118
1569335614.04681
1569335614.06243
1569335614.07806
1569335614.09368
1569335614.10931
1569335614.12494
1569335614.14056
1569335614.15619
1569335614.17181
1569335614.18744
1569335614.20306
1569335614.21869
1569335614.23432
1569335614.24994
1569335614.26557
1569335614.28119
1569335614.29682
1569335614.31244
1569335614.32807
1569335614.3437
1569335614.35932
1569335614.37495
1569335614.39057
1569335614.4062
1569335614.42182
1569335614.43745
1569335614.45308
1569335614.4687
1569335614.48433
1569335614.49995
1569335614.51558
1569335614.5312
1569335614.54683
1569335614.56246
1569335614.57808
1569335614.59371
1569335614.60933
1569335614.62496
1569335614.64058
1569335614.65621
1569335614.67184
1569335614.68746
1569335614.70309
1569335614.71871
1569335614.73434
1569335614.74996
1569335614.76559
1569335614.78122
1569335614.79684
1569335614.81247
1569335614.82809
1569335614.84372
1569335614.85934
1569335614.87497
1569335614.8906
1569335614.90622
1569335614.92185
1569335614.93747
1569335614.9531
1569335614.96873
1569335614.98435
1569335614.99998
1569335615.0156
1569335615.03123
1569335615.04685
1569335615.06248
1569335615.07811
1569335615.09373
1569335615.10936
1569335615.12498
1569335615.14061
1569335615.15623
1569335615.17186
1569335615.18749
1569335615.20311
