1569340094.41056
1569340094.42618
1569340094.44181
1569340094.45743
1569340094.47306
1569340094.48868
1569340094.50431
1569340094.51994
1569340094.53556
1569340094.55119
1569340094.56681
1569340094.58244
1569340094.59806
1569340094.61369
1569340094.62932
1569340094.64494
1569340094.66057
1569340094.67619
1569340094.69182
1569340094.70744
1569340094.72307
1569340094.7387
1569340094.75432
1569340094.76995
1569340094.78557
1569340094.8012
1569340094.81682
1569340094.83245
1569340094.84808
1569340094.8637
1569340094.87933
1569340094.89495
1569340094.91058
1569340094.9262
1569340094.94183
1569340094.95746
1569340094.97308
1569340094.98871
1569340095.00433
1569340095.01996
1569340095.03558
1569340095.05121
1569340095.06684
1569340095.08246
1569340095.09809
1569340095.11371
1569340095.12934
1569340095.14496
1569340095.16059
1569340095.17622
1569340095.19184
1569340095.20747
1569340095.22309
1569340095.23872
1569340095.25434
1569340095.26997
1569340095.2856
1569340095.30122
1569340095.31685
1569340095.33247
1569340095.3481
1569340095.36372
1569340095.37935
1569340095.39498
1569340095.4106
1569340095.42623
1569340095.44185
1569340095.45748
1569340095.4731
1569340095.48873
1569340095.50436
1569340095.51998
1569340095.53561
1569340095.55123
1569340095.56686
1569340095.58248
1569340095.59811
1569340095.61374
1569340095.62936
1569340095.64499
1569340095.66061
1569340095.67624
1569340095.69186
1569340095.70749
1569340095.72312
1569340095.73874
1569340095.75437
1569340095.76999
1569340095.78562
1569340095.80124
1569340095.81687
1569340095.8325
1569340095.84812
1569340095.86375
1569340095.87937
1569340095.895
1569340095.91063
1569340095.92625
1569340095.94188
1569340095.9575
1569340095.97313
1569340095.98875
1569340096.00438
1569340096.02001
1569340096.03563
1569340096.05126
1569340096.06688
1569340096.08251
1569340096.09813
1569340096.11376
1569340096.12939
1569340096.14501
1569340096.16064
1569340096.17626
1569340096.19189
1569340096.20751
1569340096.22314
1569340096.23877
1569340096.25439
1569340096.27002
1569340096.28564
1569340096.30127
1569340096.31689
1569340096.33252
1569340096.34815
1569340096.36377
1569340096.3794
1569340096.39502
1569340096.41065
1569340096.42627
1569340096.4419
1569340096.45753
1569340096.47315
1569340096.48878
1569340096.5044
1569340096.52003
1569340096.53565
1569340096.55128
1569340096.56691
1569340096.58253
1569340096.59816
1569340096.61378
1569340096.62941
1569340096.64503
1569340096.66066
1569340096.67629
1569340096.69191
1569340096.70754
1569340096.72316
1569340096.73879
1569340096.75441
1569340096.77004
1569340096.78567
1569340096.80129
1569340096.81692
1569340096.83254
1569340096.84817
1569340096.86379
1569340096.87942
1569340096.89505
1569340096.91067
1569340096.9263
1569340096.94192
1569340096.95755
1569340096.97317
1569340096.9888
1569340097.00443
1569340097.02005
1569340097.03568
1569340097.0513
1569340097.06693
1569340097.08255
1569340097.09818
1569340097.11381
1569340097.12943
1569340097.14506
1569340097.16068
1569340097.17631
1569340097.19193
1569340097.20756
1569340097.22319
1569340097.23881
1569340097.25444
1569340097.27006
1569340097.28569
1569340097.30131
1569340097.31694
1569340097.33257
1569340097.34819
1569340097.36382
1569340097.37944
1569340097.39507
1569340097.41069
1569340097.42632
1569340097.44195
1569340097.45757
1569340097.4732
1569340097.48882
1569340097.50445
1569340097.52007
1569340097.5357
1569340097.55133
1569340097.56695
1569340097.58258
1569340097.5982
1569340097.61383
1569340097.62945
1569340097.64508
1569340097.66071
1569340097.67633
1569340097.69196
1569340097.70758
1569340097.72321
1569340097.73883
1569340097.75446
1569340097.77009
1569340097.78571
1569340097.80134
1569340097.81696
1569340097.83259
1569340097.84821
1569340097.86384
1569340097.87947
1569340097.89509
1569340097.91072
1569340097.92634
1569340097.94197
1569340097.95759
1569340097.97322
1569340097.98885
1569340098.00447
1569340098.0201
1569340098.03572
1569340098.05135
1569340098.06697
1569340098.0826
1569340098.09823
1569340098.11385
1569340098.12948
1569340098.1451
1569340098.16073
1569340098.17636
1569340098.19198
1569340098.20761
1569340098.22323
1569340098.23886
1569340098.25448
1569340098.27011
1569340098.28574
1569340098.30136
1569340098.31699
1569340098.33261
1569340098.34824
1569340098.36386
1569340098.37949
1569340098.39512
1569340098.41074
1569340098.42637
1569340098.44199
1569340098.45762
1569340098.47324
1569340098.48887
1569340098.5045
1569340098.52012
1569340098.53575
1569340098.55137
1569340098.567
1569340098.58262
1569340098.59825
1569340098.61388
1569340098.6295
1569340098.64513
1569340098.66075
1569340098.67638
1569340098.692
1569340098.70763
1569340098.72326
1569340098.73888
1569340098.75451
1569340098.77013
1569340098.78576
1569340098.80138
1569340098.81701
1569340098.83264
1569340098.84826
1569340098.86389
1569340098.87951
1569340098.89514
1569340098.91076
1569340098.92639
1569340098.94202
1569340098.95764
1569340098.97327
1569340098.98889
1569340099.00452
1569340099.02014
1569340099.03577
1569340099.0514
1569340099.06702
1569340099.08265
1569340099.09827
1569340099.1139
1569340099.12952
1569340099.14515
1569340099.16078
1569340099.1764
1569340099.19203
1569340099.20765
1569340099.22328
1569340099.2389
1569340099.25453
1569340099.27016
1569340099.28578
1569340099.30141
1569340099.31703
1569340099.33266
1569340099.34828
1569340099.36391
1569340099.37954
1569340099.39516
1569340099.41079
1569340099.42641
1569340099.44204
1569340099.45766
1569340099.47329
1569340099.48892
1569340099.50454
1569340099.52017
1569340099.53579
1569340099.55142
1569340099.56704
1569340099.58267
1569340099.5983
1569340099.61392
1569340099.62955
1569340099.64517
1569340099.6608
1569340099.67642
1569340099.69205
1569340099.70768
1569340099.7233
1569340099.73893
1569340099.75455
1569340099.77018
1569340099.7858
1569340099.80143
1569340099.81706
1569340099.83268
1569340099.84831
1569340099.86393
1569340099.87956
1569340099.89518
1569340099.91081
1569340099.92644
1569340099.94206
1569340099.95769
1569340099.97331
1569340099.98894
1569340100.00456
1569340100.02019
1569340100.03582
1569340100.05144
1569340100.06707
1569340100.08269
1569340100.09832
1569340100.11394
1569340100.12957
1569340100.1452
1569340100.16082
1569340100.17645
1569340100.19207
1569340100.2077
1569340100.22332
1569340100.23895
1569340100.25458
1569340100.2702
1569340100.28583
1569340100.30145
1569340100.31708
1569340100.33271
1569340100.34833
1569340100.36396
1569340100.37958
1569340100.39521
1569340100.41083
1569340100.42646
1569340100.44209
1569340100.45771
1569340100.47334
1569340100.48896
1569340100.50459
1569340100.52021
1569340100.53584
1569340100.55147
1569340100.56709
1569340100.58272
1569340100.59834
1569340100.61397
1569340100.62959
1569340100.64522
1569340100.66085
1569340100.67647
1569340100.6921
1569340100.70772
1569340100.72335
1569340100.73897
1569340100.7546
1569340100.77023
1569340100.78585
1569340100.80148
1569340100.8171
1569340100.83273
1569340100.84835
1569340100.86398
1569340100.87961
1569340100.89523
1569340100.91086
1569340100.92648
1569340100.94211
1569340100.95773
1569340100.97336
1569340100.98899
1569340101.00461
1569340101.02024
1569340101.03586
1569340101.05149
1569340101.06711
1569340101.08274
1569340101.09837
1569340101.11399
1569340101.12962
1569340101.14524
1569340101.16087
1569340101.17649
1569340101.19212
1569340101.20775
1569340101.22337
1569340101.239
1569340101.25462
1569340101.27025
1569340101.28587
1569340101.3015
1569340101.31713
1569340101.33275
1569340101.34838
1569340101.364
1569340101.37963
1569340101.39525
1569340101.41088
1569340101.42651
1569340101.44213
1569340101.45776
1569340101.47338
1569340101.48901
1569340101.50463
1569340101.52026
1569340101.53589
1569340101.55151
1569340101.56714
1569340101.58276
1569340101.59839
1569340101.61401
1569340101.62964
1569340101.64527
1569340101.66089
1569340101.67652
1569340101.69214
1569340101.70777
1569340101.72339
1569340101.73902
1569340101.75465
1569340101.77027
1569340101.7859
1569340101.80152
1569340101.81715
1569340101.83277
1569340101.8484
1569340101.86403
1569340101.87965
1569340101.89528
1569340101.9109
1569340101.92653
1569340101.94215
1569340101.95778
1569340101.97341
1569340101.98903
1569340102.00466
1569340102.02028
1569340102.03591
1569340102.05153
1569340102.06716
1569340102.08279
1569340102.09841
1569340102.11404
1569340102.12966
1569340102.14529
1569340102.16091
1569340102.17654
1569340102.19217
1569340102.20779
1569340102.22342
1569340102.23904
1569340102.25467
1569340102.27029
1569340102.28592
1569340102.30155
1569340102.31717
1569340102.3328
1569340102.34842
1569340102.36405
1569340102.37967
1569340102.3953
1569340102.41093
1569340102.42655
1569340102.44218
1569340102.4578
1569340102.47343
1569340102.48905
1569340102.50468
1569340102.52031
1569340102.53593
1569340102.55156
1569340102.56718
1569340102.58281
1569340102.59843
1569340102.61406
1569340102.62969
1569340102.64531
1569340102.66094
1569340102.67656
1569340102.69219
1569340102.70781
1569340102.72344
1569340102.73907
1569340102.75469
1569340102.77032
1569340102.78594
1569340102.80157
1569340102.81719
1569340102.83282
1569340102.84845
1569340102.86407
1569340102.8797
1569340102.89532
1569340102.91095
1569340102.92657
1569340102.9422
1569340102.95783
1569340102.97345
1569340102.98908
1569340103.0047
1569340103.02033
1569340103.03596
1569340103.05158
1569340103.06721
1569340103.08283
1569340103.09846
1569340103.11408
1569340103.12971
1569340103.14534
1569340103.16096
1569340103.17659
1569340103.19221
1569340103.20784
1569340103.22346
1569340103.23909
1569340103.25472
1569340103.27034
1569340103.28597
1569340103.30159
1569340103.31722
1569340103.33284
1569340103.34847
1569340103.3641
1569340103.37972
1569340103.39535
1569340103.41097
1569340103.4266
1569340103.44222
1569340103.45785
1569340103.47348
1569340103.4891
1569340103.50473
1569340103.52035
1569340103.53598
1569340103.5516
1569340103.56723
1569340103.58286
1569340103.59848
1569340103.61411
1569340103.62973
1569340103.64536
1569340103.66098
1569340103.67661
1569340103.69224
1569340103.70786
1569340103.72349
1569340103.73911
1569340103.75474
1569340103.77036
1569340103.78599
1569340103.80162
1569340103.81724
1569340103.83287
1569340103.84849
1569340103.86412
1569340103.87974
1569340103.89537
1569340103.911
1569340103.92662
1569340103.94225
1569340103.95787
1569340103.9735
1569340103.98912
1569340104.00475
1569340104.02038
1569340104.036
1569340104.05163
1569340104.06725
1569340104.08288
1569340104.0985
1569340104.11413
1569340104.12976
1569340104.14538
1569340104.16101
1569340104.17663
1569340104.19226
1569340104.20788
1569340104.22351
1569340104.23914
1569340104.25476
1569340104.27039
1569340104.28601
1569340104.30164
1569340104.31726
1569340104.33289
1569340104.34852
1569340104.36414
1569340104.37977
1569340104.39539
1569340104.41102
1569340104.42664
1569340104.44227
1569340104.4579
1569340104.47352
1569340104.48915
1569340104.50477
1569340104.5204
1569340104.53602
1569340104.55165
1569340104.56728
1569340104.5829
1569340104.59853
1569340104.61415
1569340104.62978
1569340104.6454
1569340104.66103
1569340104.67666
1569340104.69228
1569340104.70791
1569340104.72353
1569340104.73916
1569340104.75478
1569340104.77041
1569340104.78604
1569340104.80166
1569340104.81729
1569340104.83291
1569340104.84854
1569340104.86416
1569340104.87979
1569340104.89542
1569340104.91104
1569340104.92667
1569340104.94229
1569340104.95792
1569340104.97354
1569340104.98917
1569340105.0048
1569340105.02042
1569340105.03605
1569340105.05167
1569340105.0673
1569340105.08292
1569340105.09855
1569340105.11418
1569340105.1298
1569340105.14543
1569340105.16105
1569340105.17668
1569340105.19231
1569340105.20793
1569340105.22356
1569340105.23918
1569340105.25481
1569340105.27043
1569340105.28606
1569340105.30169
1569340105.31731
1569340105.33294
1569340105.34856
1569340105.36419
1569340105.37981
1569340105.39544
1569340105.41107
1569340105.42669
1569340105.44232
1569340105.45794
1569340105.47357
1569340105.48919
1569340105.50482
1569340105.52045
1569340105.53607
1569340105.5517
1569340105.56732
1569340105.58295
1569340105.59857
1569340105.6142
1569340105.62983
1569340105.64545
1569340105.66108
1569340105.6767
1569340105.69233
1569340105.70795
1569340105.72358
1569340105.73921
1569340105.75483
1569340105.77046
1569340105.78608
1569340105.80171
1569340105.81733
1569340105.83296
1569340105.84859
1569340105.86421
1569340105.87984
1569340105.89546
1569340105.91109
1569340105.92671
1569340105.94234
1569340105.95797
1569340105.97359
1569340105.98922
1569340106.00484
1569340106.02047
1569340106.03609
1569340106.05172
1569340106.06735
1569340106.08297
1569340106.0986
1569340106.11422
1569340106.12985
1569340106.14547
1569340106.1611
1569340106.17673
1569340106.19235
1569340106.20798
1569340106.2236
1569340106.23923
1569340106.25485
1569340106.27048
1569340106.28611
1569340106.30173
1569340106.31736
1569340106.33298
1569340106.34861
1569340106.36423
1569340106.37986
1569340106.39549
1569340106.41111
1569340106.42674
1569340106.44236
1569340106.45799
1569340106.47361
1569340106.48924
1569340106.50487
1569340106.52049
1569340106.53612
1569340106.55174
1569340106.56737
1569340106.58299
1569340106.59862
1569340106.61425
1569340106.62987
1569340106.6455
1569340106.66112
1569340106.67675
1569340106.69237
1569340106.708
1569340106.72363
1569340106.73925
1569340106.75488
1569340106.7705
1569340106.78613
1569340106.80175
1569340106.81738
1569340106.83301
1569340106.84863
1569340106.86426
1569340106.87988
1569340106.89551
1569340106.91113
1569340106.92676
1569340106.94239
1569340106.95801
1569340106.97364
1569340106.98926
1569340107.00489
1569340107.02051
1569340107.03614
1569340107.05177
1569340107.06739
1569340107.08302
1569340107.09864
1569340107.11427
1569340107.12989
1569340107.14552
1569340107.16115
1569340107.17677
1569340107.1924
1569340107.20802
1569340107.22365
1569340107.23927
1569340107.2549
1569340107.27053
1569340107.28615
1569340107.30178
1569340107.3174
1569340107.33303
1569340107.34865
1569340107.36428
1569340107.37991
1569340107.39553
1569340107.41116
1569340107.42678
1569340107.44241
1569340107.45803
1569340107.47366
1569340107.48929
1569340107.50491
1569340107.52054
1569340107.53616
1569340107.55179
1569340107.56742
1569340107.58304
1569340107.59867
1569340107.61429
1569340107.62992
1569340107.64554
1569340107.66117
1569340107.6768
1569340107.69242
1569340107.70805
1569340107.72367
1569340107.7393
1569340107.75492
1569340107.77055
1569340107.78618
1569340107.8018
1569340107.81743
1569340107.83305
1569340107.84868
1569340107.8643
1569340107.87993
1569340107.89556
1569340107.91118
1569340107.92681
1569340107.94243
1569340107.95806
1569340107.97368
1569340107.98931
1569340108.00494
1569340108.02056
1569340108.03619
1569340108.05181
1569340108.06744
1569340108.08306
1569340108.09869
1569340108.11432
1569340108.12994
1569340108.14557
1569340108.16119
1569340108.17682
1569340108.19244
1569340108.20807
1569340108.2237
1569340108.23932
1569340108.25495
1569340108.27057
1569340108.2862
1569340108.30182
1569340108.31745
1569340108.33308
1569340108.3487
1569340108.36433
1569340108.37995
1569340108.39558
1569340108.4112
1569340108.42683
1569340108.44246
1569340108.45808
1569340108.47371
1569340108.48933
1569340108.50496
1569340108.52058
1569340108.53621
1569340108.55184
1569340108.56746
1569340108.58309
1569340108.59871
1569340108.61434
1569340108.62996
1569340108.64559
1569340108.66122
1569340108.67684
1569340108.69247
1569340108.70809
1569340108.72372
1569340108.73934
1569340108.75497
1569340108.7706
1569340108.78622
1569340108.80185
1569340108.81747
1569340108.8331
1569340108.84872
1569340108.86435
1569340108.87998
1569340108.8956
1569340108.91123
1569340108.92685
1569340108.94248
1569340108.9581
1569340108.97373
1569340108.98936
1569340109.00498
1569340109.02061
1569340109.03623
1569340109.05186
1569340109.06748
1569340109.08311
1569340109.09874
1569340109.11436
1569340109.12999
1569340109.14561
1569340109.16124
1569340109.17686
1569340109.19249
1569340109.20812
1569340109.22374
1569340109.23937
1569340109.25499
1569340109.27062
1569340109.28624
1569340109.30187
1569340109.3175
1569340109.33312
1569340109.34875
1569340109.36437
1569340109.38
1569340109.39562
1569340109.41125
1569340109.42688
1569340109.4425
1569340109.45813
1569340109.47375
1569340109.48938
1569340109.505
1569340109.52063
1569340109.53626
1569340109.55188
1569340109.56751
1569340109.58313
1569340109.59876
1569340109.61438
1569340109.63001
1569340109.64564
1569340109.66126
1569340109.67689
1569340109.69251
1569340109.70814
1569340109.72376
1569340109.73939
1569340109.75502
1569340109.77064
1569340109.78627
1569340109.80189
1569340109.81752
1569340109.83314
1569340109.84877
1569340109.8644
1569340109.88002
1569340109.89565
1569340109.91127
1569340109.9269
1569340109.94252
1569340109.95815
1569340109.97378
1569340109.9894
1569340110.00503
1569340110.02065
1569340110.03628
1569340110.05191
1569340110.06753
1569340110.08316
1569340110.09878
1569340110.11441
1569340110.13003
1569340110.14566
1569340110.16129
1569340110.17691
1569340110.19254
1569340110.20816
1569340110.22379
1569340110.23941
1569340110.25504
1569340110.27067
1569340110.28629
1569340110.30192
1569340110.31754
1569340110.33317
1569340110.34879
1569340110.36442
1569340110.38005
1569340110.39567
1569340110.4113
1569340110.42692
1569340110.44255
1569340110.45817
1569340110.4738
1569340110.48943
1569340110.50505
1569340110.52068
1569340110.5363
1569340110.55193
1569340110.56755
1569340110.58318
1569340110.59881
1569340110.61443
1569340110.63006
1569340110.64568
1569340110.66131
1569340110.67693
1569340110.69256
1569340110.70819
1569340110.72381
1569340110.73944
1569340110.75506
1569340110.77069
1569340110.78631
1569340110.80194
1569340110.81757
1569340110.83319
1569340110.84882
1569340110.86444
1569340110.88007
1569340110.89569
1569340110.91132
1569340110.92695
1569340110.94257
1569340110.9582
1569340110.97382
1569340110.98945
1569340111.00507
1569340111.0207
1569340111.03633
1569340111.05195
1569340111.06758
1569340111.0832
1569340111.09883
1569340111.11445
1569340111.13008
1569340111.14571
1569340111.16133
1569340111.17696
1569340111.19258
1569340111.20821
1569340111.22383
1569340111.23946
1569340111.25509
1569340111.27071
1569340111.28634
1569340111.30196
1569340111.31759
1569340111.33321
1569340111.34884
1569340111.36447
1569340111.38009
1569340111.39572
1569340111.41134
1569340111.42697
1569340111.44259
1569340111.45822
1569340111.47385
1569340111.48947
1569340111.5051
1569340111.52072
1569340111.53635
1569340111.55197
1569340111.5676
1569340111.58323
1569340111.59885
1569340111.61448
1569340111.6301
1569340111.64573
1569340111.66135
1569340111.67698
1569340111.69261
1569340111.70823
1569340111.72386
1569340111.73948
1569340111.75511
1569340111.77073
1569340111.78636
1569340111.80199
1569340111.81761
1569340111.83324
1569340111.84886
1569340111.86449
1569340111.88011
1569340111.89574
1569340111.91137
1569340111.92699
1569340111.94262
1569340111.95824
1569340111.97387
1569340111.98949
1569340112.00512
1569340112.02075
1569340112.03637
1569340112.052
1569340112.06762
1569340112.08325
1569340112.09887
1569340112.1145
1569340112.13013
1569340112.14575
1569340112.16138
1569340112.177
1569340112.19263
1569340112.20825
1569340112.22388
1569340112.23951
1569340112.25513
1569340112.27076
1569340112.28638
1569340112.30201
1569340112.31764
1569340112.33326
1569340112.34889
1569340112.36451
1569340112.38014
1569340112.39576
1569340112.41139
1569340112.42702
1569340112.44264
1569340112.45827
1569340112.47389
1569340112.48952
1569340112.50514
1569340112.52077
1569340112.5364
1569340112.55202
1569340112.56765
1569340112.58327
1569340112.5989
1569340112.61452
1569340112.63015
1569340112.64578
1569340112.6614
1569340112.67703
1569340112.69265
1569340112.70828
1569340112.7239
1569340112.73953
1569340112.75516
1569340112.77078
1569340112.78641
1569340112.80203
1569340112.81766
1569340112.83328
1569340112.84891
1569340112.86454
1569340112.88016
1569340112.89579
1569340112.91141
1569340112.92704
1569340112.94266
1569340112.95829
1569340112.97392
1569340112.98954
1569340113.00517
1569340113.02079
1569340113.03642
1569340113.05204
1569340113.06767
1569340113.0833
1569340113.09892
1569340113.11455
1569340113.13017
1569340113.1458
1569340113.16142
1569340113.17705
1569340113.19268
1569340113.2083
1569340113.22393
1569340113.23955
1569340113.25518
1569340113.2708
1569340113.28643
1569340113.30206
1569340113.31768
1569340113.33331
1569340113.34893
1569340113.36456
1569340113.38018
1569340113.39581
1569340113.41144
1569340113.42706
1569340113.44269
1569340113.45831
1569340113.47394
1569340113.48956
1569340113.50519
1569340113.52082
1569340113.53644
1569340113.55207
1569340113.56769
1569340113.58332
1569340113.59894
1569340113.61457
1569340113.6302
1569340113.64582
1569340113.66145
1569340113.67707
1569340113.6927
1569340113.70832
1569340113.72395
1569340113.73958
1569340113.7552
1569340113.77083
1569340113.78645
1569340113.80208
1569340113.8177
1569340113.83333
1569340113.84896
1569340113.86458
1569340113.88021
1569340113.89583
1569340113.91146
1569340113.92708
1569340113.94271
1569340113.95834
1569340113.97396
1569340113.98959
1569340114.00521
1569340114.02084
1569340114.03646
1569340114.05209
1569340114.06772
1569340114.08334
1569340114.09897
1569340114.11459
1569340114.13022
1569340114.14584
1569340114.16147
1569340114.1771
1569340114.19272
1569340114.20835
1569340114.22397
1569340114.2396
1569340114.25522
1569340114.27085
1569340114.28648
1569340114.3021
1569340114.31773
1569340114.33335
1569340114.34898
1569340114.3646
1569340114.38023
1569340114.39586
1569340114.41148
1569340114.42711
1569340114.44273
1569340114.45836
1569340114.47398
1569340114.48961
1569340114.50524
1569340114.52086
1569340114.53649
1569340114.55211
1569340114.56774
1569340114.58336
1569340114.59899
1569340114.61462
1569340114.63024
1569340114.64587
1569340114.66149
1569340114.67712
1569340114.69274
1569340114.70837
1569340114.724
1569340114.73962
1569340114.75525
1569340114.77087
1569340114.7865
1569340114.80212
1569340114.81775
1569340114.83338
1569340114.849
1569340114.86463
1569340114.88025
1569340114.89588
1569340114.9115
1569340114.92713
1569340114.94276
1569340114.95838
1569340114.97401
1569340114.98963
1569340115.00526
1569340115.02089
1569340115.03651
1569340115.05214
1569340115.06776
1569340115.08339
1569340115.09901
1569340115.11464
1569340115.13027
1569340115.14589
1569340115.16152
1569340115.17714
1569340115.19277
1569340115.20839
1569340115.22402
1569340115.23965
1569340115.25527
1569340115.2709
1569340115.28652
1569340115.30215
1569340115.31777
1569340115.3334
1569340115.34903
1569340115.36465
1569340115.38028
1569340115.3959
1569340115.41153
1569340115.42715
1569340115.44278
1569340115.45841
1569340115.47403
1569340115.48966
1569340115.50528
1569340115.52091
1569340115.53653
1569340115.55216
1569340115.56779
1569340115.58341
1569340115.59904
1569340115.61466
1569340115.63029
1569340115.64591
1569340115.66154
1569340115.67717
1569340115.69279
1569340115.70842
1569340115.72404
1569340115.73967
1569340115.75529
1569340115.77092
1569340115.78655
1569340115.80217
1569340115.8178
1569340115.83342
1569340115.84905
1569340115.86467
1569340115.8803
1569340115.89593
1569340115.91155
1569340115.92718
1569340115.9428
1569340115.95843
1569340115.97405
1569340115.98968
1569340116.00531
1569340116.02093
1569340116.03656
1569340116.05218
1569340116.06781
1569340116.08343
1569340116.09906
1569340116.11469
1569340116.13031
1569340116.14594
1569340116.16156
1569340116.17719
1569340116.19281
1569340116.20844
1569340116.22407
1569340116.23969
1569340116.25532
1569340116.27094
1569340116.28657
1569340116.30219
1569340116.31782
1569340116.33345
1569340116.34907
1569340116.3647
1569340116.38032
1569340116.39595
1569340116.41157
1569340116.4272
1569340116.44283
1569340116.45845
1569340116.47408
1569340116.4897
1569340116.50533
1569340116.52095
1569340116.53658
1569340116.55221
1569340116.56783
1569340116.58346
1569340116.59908
1569340116.61471
1569340116.63033
1569340116.64596
1569340116.66159
1569340116.67721
1569340116.69284
1569340116.70846
1569340116.72409
1569340116.73971
1569340116.75534
1569340116.77097
1569340116.78659
1569340116.80222
1569340116.81784
1569340116.83347
1569340116.84909
1569340116.86472
1569340116.88035
1569340116.89597
1569340116.9116
1569340116.92722
1569340116.94285
1569340116.95847
1569340116.9741
1569340116.98973
1569340117.00535
1569340117.02098
1569340117.0366
1569340117.05223
1569340117.06785
1569340117.08348
1569340117.09911
1569340117.11473
1569340117.13036
1569340117.14598
1569340117.16161
1569340117.17724
1569340117.19286
1569340117.20849
1569340117.22411
1569340117.23974
1569340117.25536
1569340117.27099
1569340117.28662
1569340117.30224
1569340117.31787
1569340117.33349
1569340117.34912
1569340117.36474
1569340117.38037
1569340117.396
1569340117.41162
1569340117.42725
1569340117.44287
1569340117.4585
1569340117.47412
1569340117.48975
1569340117.50538
1569340117.521
1569340117.53663
1569340117.55225
1569340117.56788
1569340117.5835
1569340117.59913
1569340117.61476
1569340117.63038
1569340117.64601
1569340117.66163
1569340117.67726
1569340117.69288
1569340117.70851
1569340117.72414
1569340117.73976
1569340117.75539
1569340117.77101
1569340117.78664
1569340117.80226
1569340117.81789
1569340117.83352
1569340117.84914
1569340117.86477
1569340117.88039
1569340117.89602
1569340117.91164
1569340117.92727
1569340117.9429
1569340117.95852
1569340117.97415
1569340117.98977
1569340118.0054
1569340118.02102
1569340118.03665
1569340118.05228
1569340118.0679
1569340118.08353
1569340118.09915
1569340118.11478
1569340118.1304
1569340118.14603
1569340118.16166
1569340118.17728
1569340118.19291
1569340118.20853
1569340118.22416
1569340118.23978
1569340118.25541
1569340118.27104
1569340118.28666
1569340118.30229
1569340118.31791
1569340118.33354
1569340118.34916
1569340118.36479
1569340118.38042
1569340118.39604
1569340118.41167
1569340118.42729
1569340118.44292
1569340118.45854
1569340118.47417
1569340118.4898
1569340118.50542
1569340118.52105
1569340118.53667
1569340118.5523
1569340118.56792
1569340118.58355
1569340118.59918
1569340118.6148
1569340118.63043
1569340118.64605
1569340118.66168
1569340118.6773
1569340118.69293
1569340118.70856
1569340118.72418
1569340118.73981
1569340118.75543
1569340118.77106
1569340118.78668
1569340118.80231
1569340118.81794
1569340118.83356
1569340118.84919
1569340118.86481
1569340118.88044
1569340118.89606
1569340118.91169
1569340118.92732
1569340118.94294
1569340118.95857
1569340118.97419
1569340118.98982
1569340119.00544
1569340119.02107
1569340119.0367
1569340119.05232
1569340119.06795
1569340119.08357
1569340119.0992
1569340119.11482
1569340119.13045
1569340119.14608
1569340119.1617
1569340119.17733
1569340119.19295
1569340119.20858
1569340119.2242
1569340119.23983
1569340119.25546
1569340119.27108
1569340119.28671
1569340119.30233
1569340119.31796
1569340119.33358
1569340119.34921
1569340119.36484
1569340119.38046
1569340119.39609
1569340119.41171
1569340119.42734
1569340119.44297
1569340119.45859
1569340119.47422
1569340119.48984
1569340119.50547
1569340119.52109
1569340119.53672
1569340119.55235
1569340119.56797
1569340119.5836
1569340119.59922
1569340119.61485
1569340119.63047
1569340119.6461
1569340119.66173
1569340119.67735
1569340119.69298
1569340119.7086
1569340119.72423
1569340119.73985
1569340119.75548
1569340119.77111
1569340119.78673
1569340119.80236
1569340119.81798
1569340119.83361
1569340119.84923
1569340119.86486
1569340119.88049
1569340119.89611
1569340119.91174
1569340119.92736
1569340119.94299
1569340119.95861
1569340119.97424
1569340119.98987
1569340120.00549
1569340120.02112
1569340120.03674
1569340120.05237
1569340120.06799
1569340120.08362
1569340120.09925
1569340120.11487
1569340120.1305
1569340120.14612
1569340120.16175
1569340120.17737
1569340120.193
1569340120.20863
1569340120.22425
1569340120.23988
1569340120.2555
1569340120.27113
1569340120.28675
1569340120.30238
1569340120.31801
1569340120.33363
1569340120.34926
1569340120.36488
1569340120.38051
1569340120.39613
1569340120.41176
1569340120.42739
1569340120.44301
1569340120.45864
1569340120.47426
1569340120.48989
1569340120.50551
1569340120.52114
1569340120.53677
1569340120.55239
1569340120.56802
1569340120.58364
1569340120.59927
1569340120.61489
1569340120.63052
1569340120.64615
1569340120.66177
1569340120.6774
1569340120.69302
1569340120.70865
1569340120.72427
1569340120.7399
1569340120.75553
1569340120.77115
1569340120.78678
1569340120.8024
1569340120.81803
1569340120.83365
1569340120.84928
1569340120.86491
1569340120.88053
1569340120.89616
1569340120.91178
1569340120.92741
1569340120.94303
1569340120.95866
1569340120.97429
1569340120.98991
1569340121.00554
1569340121.02116
1569340121.03679
1569340121.05241
1569340121.06804
1569340121.08367
1569340121.09929
1569340121.11492
1569340121.13054
1569340121.14617
1569340121.16179
1569340121.17742
1569340121.19305
1569340121.20867
1569340121.2243
1569340121.23992
1569340121.25555
1569340121.27117
1569340121.2868
1569340121.30243
1569340121.31805
1569340121.33368
1569340121.3493
1569340121.36493
1569340121.38055
1569340121.39618
1569340121.41181
1569340121.42743
1569340121.44306
1569340121.45868
1569340121.47431
1569340121.48993
1569340121.50556
1569340121.52119
1569340121.53681
1569340121.55244
1569340121.56806
1569340121.58369
1569340121.59931
1569340121.61494
1569340121.63057
1569340121.64619
1569340121.66182
1569340121.67744
1569340121.69307
1569340121.70869
1569340121.72432
1569340121.73995
1569340121.75557
1569340121.7712
1569340121.78682
1569340121.80245
1569340121.81807
1569340121.8337
1569340121.84933
1569340121.86495
1569340121.88058
1569340121.8962
1569340121.91183
1569340121.92745
1569340121.94308
1569340121.95871
1569340121.97433
1569340121.98996
1569340122.00558
1569340122.02121
1569340122.03684
1569340122.05246
1569340122.06809
1569340122.08371
1569340122.09934
1569340122.11496
1569340122.13059
1569340122.14622
1569340122.16184
1569340122.17747
1569340122.19309
1569340122.20872
1569340122.22434
1569340122.23997
1569340122.2556
1569340122.27122
1569340122.28685
1569340122.30247
1569340122.3181
1569340122.33372
1569340122.34935
1569340122.36498
1569340122.3806
1569340122.39623
1569340122.41185
1569340122.42748
1569340122.4431
1569340122.45873
1569340122.47436
1569340122.48998
1569340122.50561
1569340122.52123
1569340122.53686
1569340122.55248
1569340122.56811
1569340122.58374
1569340122.59936
1569340122.61499
1569340122.63061
1569340122.64624
1569340122.66186
1569340122.67749
1569340122.69312
1569340122.70874
1569340122.72437
1569340122.73999
1569340122.75562
1569340122.77124
1569340122.78687
1569340122.8025
1569340122.81812
1569340122.83375
1569340122.84937
1569340122.865
1569340122.88062
1569340122.89625
1569340122.91188
1569340122.9275
1569340122.94313
1569340122.95875
1569340122.97438
1569340122.99
1569340123.00563
1569340123.02126
1569340123.03688
1569340123.05251
1569340123.06813
1569340123.08376
1569340123.09938
1569340123.11501
1569340123.13064
1569340123.14626
1569340123.16189
1569340123.17751
1569340123.19314
1569340123.20876
1569340123.22439
1569340123.24002
1569340123.25564
1569340123.27127
1569340123.28689
1569340123.30252
1569340123.31814
1569340123.33377
1569340123.3494
1569340123.36502
1569340123.38065
1569340123.39627
1569340123.4119
1569340123.42752
1569340123.44315
1569340123.45878
1569340123.4744
1569340123.49003
1569340123.50565
1569340123.52128
1569340123.5369
1569340123.55253
1569340123.56816
1569340123.58378
1569340123.59941
1569340123.61503
1569340123.63066
1569340123.64628
1569340123.66191
1569340123.67754
1569340123.69316
1569340123.70879
1569340123.72441
1569340123.74004
1569340123.75566
1569340123.77129
1569340123.78692
1569340123.80254
1569340123.81817
1569340123.83379
1569340123.84942
1569340123.86504
1569340123.88067
1569340123.8963
1569340123.91192
1569340123.92755
1569340123.94317
1569340123.9588
1569340123.97442
1569340123.99005
1569340124.00568
1569340124.0213
1569340124.03693
1569340124.05255
1569340124.06818
1569340124.0838
1569340124.09943
1569340124.11506
1569340124.13068
1569340124.14631
1569340124.16193
1569340124.17756
1569340124.19318
1569340124.20881
1569340124.22444
1569340124.24006
1569340124.25569
1569340124.27131
1569340124.28694
1569340124.30257
1569340124.31819
1569340124.33382
1569340124.34944
1569340124.36507
1569340124.38069
1569340124.39632
1569340124.41195
1569340124.42757
1569340124.4432
1569340124.45882
1569340124.47445
1569340124.49007
1569340124.5057
1569340124.52133
1569340124.53695
1569340124.55258
1569340124.5682
1569340124.58383
1569340124.59945
1569340124.61508
1569340124.63071
1569340124.64633
1569340124.66196
1569340124.67758
1569340124.69321
1569340124.70883
1569340124.72446
1569340124.74009
1569340124.75571
1569340124.77134
1569340124.78696
1569340124.80259
1569340124.81821
1569340124.83384
1569340124.84947
1569340124.86509
1569340124.88072
1569340124.89634
1569340124.91197
1569340124.92759
1569340124.94322
1569340124.95885
1569340124.97447
1569340124.9901
1569340125.00572
1569340125.02135
1569340125.03697
1569340125.0526
1569340125.06823
1569340125.08385
1569340125.09948
1569340125.1151
1569340125.13073
1569340125.14635
1569340125.16198
1569340125.17761
1569340125.19323
1569340125.20886
1569340125.22448
1569340125.24011
1569340125.25573
1569340125.27136
1569340125.28699
1569340125.30261
1569340125.31824
1569340125.33386
1569340125.34949
1569340125.36511
1569340125.38074
1569340125.39637
1569340125.41199
1569340125.42762
1569340125.44324
1569340125.45887
1569340125.47449
1569340125.49012
1569340125.50575
1569340125.52137
1569340125.537
1569340125.55262
1569340125.56825
1569340125.58387
1569340125.5995
1569340125.61513
1569340125.63075
1569340125.64638
1569340125.662
1569340125.67763
1569340125.69325
1569340125.70888
1569340125.72451
1569340125.74013
1569340125.75576
1569340125.77138
1569340125.78701
1569340125.80263
1569340125.81826
1569340125.83389
1569340125.84951
1569340125.86514
1569340125.88076
1569340125.89639
1569340125.91201
1569340125.92764
1569340125.94327
1569340125.95889
1569340125.97452
1569340125.99014
1569340126.00577
1569340126.02139
1569340126.03702
1569340126.05265
1569340126.06827
1569340126.0839
1569340126.09952
1569340126.11515
1569340126.13077
1569340126.1464
1569340126.16203
1569340126.17765
1569340126.19328
1569340126.2089
1569340126.22453
1569340126.24015
1569340126.25578
1569340126.27141
1569340126.28703
1569340126.30266
1569340126.31828
1569340126.33391
1569340126.34953
1569340126.36516
1569340126.38079
1569340126.39641
1569340126.41204
1569340126.42766
1569340126.44329
1569340126.45892
1569340126.47454
1569340126.49017
1569340126.50579
1569340126.52142
1569340126.53704
1569340126.55267
1569340126.5683
1569340126.58392
1569340126.59955
1569340126.61517
1569340126.6308
1569340126.64642
1569340126.66205
1569340126.67768
1569340126.6933
1569340126.70893
1569340126.72455
1569340126.74018
1569340126.7558
1569340126.77143
1569340126.78706
1569340126.80268
1569340126.81831
1569340126.83393
1569340126.84956
1569340126.86518
1569340126.88081
1569340126.89644
1569340126.91206
1569340126.92769
1569340126.94331
1569340126.95894
1569340126.97456
1569340126.99019
1569340127.00582
1569340127.02144
1569340127.03707
1569340127.05269
1569340127.06832
1569340127.08394
1569340127.09957
1569340127.1152
1569340127.13082
1569340127.14645
1569340127.16207
1569340127.1777
1569340127.19332
1569340127.20895
1569340127.22458
1569340127.2402
1569340127.25583
1569340127.27145
1569340127.28708
1569340127.3027
1569340127.31833
1569340127.33396
1569340127.34958
1569340127.36521
1569340127.38083
1569340127.39646
1569340127.41208
1569340127.42771
1569340127.44334
1569340127.45896
1569340127.47459
1569340127.49021
1569340127.50584
1569340127.52146
1569340127.53709
1569340127.55272
1569340127.56834
1569340127.58397
1569340127.59959
1569340127.61522
1569340127.63084
1569340127.64647
1569340127.6621
1569340127.67772
1569340127.69335
1569340127.70897
1569340127.7246
1569340127.74022
1569340127.75585
1569340127.77148
1569340127.7871
1569340127.80273
1569340127.81835
1569340127.83398
1569340127.8496
1569340127.86523
1569340127.88086
1569340127.89648
1569340127.91211
1569340127.92773
1569340127.94336
1569340127.95898
1569340127.97461
1569340127.99024
1569340128.00586
1569340128.02149
1569340128.03711
1569340128.05274
1569340128.06836
1569340128.08399
1569340128.09962
1569340128.11524
1569340128.13087
1569340128.14649
1569340128.16212
1569340128.17774
1569340128.19337
1569340128.209
1569340128.22462
1569340128.24025
1569340128.25587
1569340128.2715
1569340128.28712
1569340128.30275
1569340128.31838
1569340128.334
1569340128.34963
1569340128.36525
1569340128.38088
1569340128.3965
1569340128.41213
1569340128.42776
1569340128.44338
1569340128.45901
1569340128.47463
1569340128.49026
1569340128.50588
1569340128.52151
1569340128.53714
1569340128.55276
1569340128.56839
1569340128.58401
1569340128.59964
1569340128.61526
1569340128.63089
1569340128.64652
1569340128.66214
1569340128.67777
1569340128.69339
1569340128.70902
1569340128.72464
1569340128.74027
1569340128.7559
1569340128.77152
1569340128.78715
1569340128.80277
1569340128.8184
1569340128.83402
1569340128.84965
1569340128.86528
1569340128.8809
1569340128.89653
1569340128.91215
1569340128.92778
1569340128.9434
1569340128.95903
1569340128.97466
1569340128.99028
1569340129.00591
1569340129.02153
1569340129.03716
1569340129.05278
1569340129.06841
1569340129.08404
1569340129.09966
1569340129.11529
1569340129.13091
1569340129.14654
1569340129.16217
1569340129.17779
1569340129.19342
1569340129.20904
1569340129.22467
1569340129.24029
1569340129.25592
1569340129.27155
1569340129.28717
1569340129.3028
1569340129.31842
1569340129.33405
1569340129.34967
1569340129.3653
1569340129.38093
1569340129.39655
1569340129.41218
1569340129.4278
1569340129.44343
1569340129.45905
1569340129.47468
1569340129.49031
1569340129.50593
1569340129.52156
1569340129.53718
1569340129.55281
1569340129.56843
1569340129.58406
1569340129.59969
1569340129.61531
1569340129.63094
1569340129.64656
1569340129.66219
1569340129.67781
1569340129.69344
1569340129.70907
1569340129.72469
1569340129.74032
1569340129.75594
1569340129.77157
1569340129.78719
1569340129.80282
1569340129.81845
1569340129.83407
1569340129.8497
1569340129.86532
1569340129.88095
1569340129.89657
1569340129.9122
1569340129.92783
1569340129.94345
1569340129.95908
1569340129.9747
1569340129.99033
1569340130.00595
1569340130.02158
1569340130.03721
1569340130.05283
1569340130.06846
1569340130.08408
1569340130.09971
1569340130.11533
1569340130.13096
1569340130.14659
1569340130.16221
1569340130.17784
1569340130.19346
1569340130.20909
1569340130.22471
1569340130.24034
1569340130.25597
1569340130.27159
1569340130.28722
1569340130.30284
1569340130.31847
1569340130.33409
1569340130.34972
1569340130.36535
1569340130.38097
1569340130.3966
1569340130.41222
1569340130.42785
1569340130.44347
1569340130.4591
1569340130.47473
1569340130.49035
1569340130.50598
1569340130.5216
1569340130.53723
1569340130.55285
1569340130.56848
1569340130.58411
1569340130.59973
1569340130.61536
1569340130.63098
1569340130.64661
1569340130.66223
1569340130.67786
1569340130.69349
1569340130.70911
1569340130.72474
1569340130.74036
1569340130.75599
1569340130.77161
1569340130.78724
1569340130.80287
1569340130.81849
1569340130.83412
1569340130.84974
1569340130.86537
1569340130.88099
1569340130.89662
1569340130.91225
1569340130.92787
1569340130.9435
1569340130.95912
1569340130.97475
1569340130.99037
1569340131.006
1569340131.02163
1569340131.03725
1569340131.05288
1569340131.0685
1569340131.08413
1569340131.09975
1569340131.11538
1569340131.13101
1569340131.14663
1569340131.16226
1569340131.17788
1569340131.19351
1569340131.20913
1569340131.22476
1569340131.24039
1569340131.25601
1569340131.27164
1569340131.28726
1569340131.30289
1569340131.31852
1569340131.33414
1569340131.34977
1569340131.36539
1569340131.38102
1569340131.39664
1569340131.41227
1569340131.4279
1569340131.44352
1569340131.45915
1569340131.47477
1569340131.4904
1569340131.50602
1569340131.52165
1569340131.53728
1569340131.5529
1569340131.56853
1569340131.58415
1569340131.59978
1569340131.6154
1569340131.63103
1569340131.64666
1569340131.66228
1569340131.67791
1569340131.69353
1569340131.70916
1569340131.72478
1569340131.74041
1569340131.75604
1569340131.77166
1569340131.78729
1569340131.80291
1569340131.81854
1569340131.83416
1569340131.84979
1569340131.86542
1569340131.88104
1569340131.89667
1569340131.91229
1569340131.92792
1569340131.94354
1569340131.95917
1569340131.9748
1569340131.99042
1569340132.00605
1569340132.02167
1569340132.0373
1569340132.05292
1569340132.06855
1569340132.08418
1569340132.0998
1569340132.11543
1569340132.13105
1569340132.14668
1569340132.1623
1569340132.17793
1569340132.19356
1569340132.20918
1569340132.22481
1569340132.24043
1569340132.25606
1569340132.27168
1569340132.28731
1569340132.30294
1569340132.31856
1569340132.33419
1569340132.34981
1569340132.36544
1569340132.38106
1569340132.39669
1569340132.41232
1569340132.42794
1569340132.44357
1569340132.45919
1569340132.47482
1569340132.49044
1569340132.50607
1569340132.5217
1569340132.53732
1569340132.55295
1569340132.56857
1569340132.5842
1569340132.59982
1569340132.61545
1569340132.63108
1569340132.6467
1569340132.66233
1569340132.67795
1569340132.69358
1569340132.7092
1569340132.72483
1569340132.74046
1569340132.75608
1569340132.77171
1569340132.78733
1569340132.80296
1569340132.81858
1569340132.83421
1569340132.84984
1569340132.86546
1569340132.88109
1569340132.89671
1569340132.91234
1569340132.92796
1569340132.94359
1569340132.95922
1569340132.97484
1569340132.99047
1569340133.00609
1569340133.02172
1569340133.03734
1569340133.05297
1569340133.0686
1569340133.08422
1569340133.09985
1569340133.11547
1569340133.1311
1569340133.14672
1569340133.16235
1569340133.17798
1569340133.1936
1569340133.20923
1569340133.22485
1569340133.24048
1569340133.2561
1569340133.27173
1569340133.28736
1569340133.30298
1569340133.31861
1569340133.33423
1569340133.34986
1569340133.36548
1569340133.38111
1569340133.39674
1569340133.41236
1569340133.42799
1569340133.44361
1569340133.45924
1569340133.47486
1569340133.49049
1569340133.50612
1569340133.52174
1569340133.53737
1569340133.55299
1569340133.56862
1569340133.58424
1569340133.59987
1569340133.6155
1569340133.63112
1569340133.64675
1569340133.66237
1569340133.678
1569340133.69362
1569340133.70925
1569340133.72488
1569340133.7405
1569340133.75613
1569340133.77175
1569340133.78738
1569340133.803
1569340133.81863
1569340133.83426
1569340133.84988
1569340133.86551
1569340133.88113
1569340133.89676
1569340133.91238
1569340133.92801
1569340133.94364
1569340133.95926
1569340133.97489
1569340133.99051
1569340134.00614
1569340134.02177
1569340134.03739
1569340134.05302
1569340134.06864
1569340134.08427
1569340134.09989
1569340134.11552
1569340134.13115
1569340134.14677
1569340134.1624
1569340134.17802
1569340134.19365
1569340134.20927
1569340134.2249
1569340134.24053
1569340134.25615
1569340134.27178
1569340134.2874
1569340134.30303
1569340134.31865
1569340134.33428
1569340134.34991
1569340134.36553
1569340134.38116
1569340134.39678
1569340134.41241
1569340134.42803
1569340134.44366
1569340134.45929
1569340134.47491
1569340134.49054
1569340134.50616
1569340134.52179
1569340134.53741
1569340134.55304
1569340134.56867
1569340134.58429
1569340134.59992
1569340134.61554
1569340134.63117
1569340134.64679
1569340134.66242
1569340134.67805
1569340134.69367
1569340134.7093
1569340134.72492
1569340134.74055
1569340134.75617
1569340134.7718
1569340134.78743
1569340134.80305
1569340134.81868
1569340134.8343
1569340134.84993
1569340134.86555
1569340134.88118
1569340134.89681
1569340134.91243
1569340134.92806
1569340134.94368
1569340134.95931
1569340134.97493
1569340134.99056
1569340135.00619
1569340135.02181
1569340135.03744
1569340135.05306
1569340135.06869
1569340135.08431
1569340135.09994
1569340135.11557
1569340135.13119
1569340135.14682
1569340135.16244
1569340135.17807
1569340135.19369
1569340135.20932
1569340135.22495
1569340135.24057
1569340135.2562
1569340135.27182
1569340135.28745
1569340135.30307
1569340135.3187
1569340135.33433
1569340135.34995
1569340135.36558
1569340135.3812
1569340135.39683
1569340135.41245
1569340135.42808
1569340135.44371
1569340135.45933
1569340135.47496
1569340135.49058
1569340135.50621
1569340135.52183
1569340135.53746
1569340135.55309
1569340135.56871
1569340135.58434
1569340135.59996
1569340135.61559
1569340135.63121
1569340135.64684
1569340135.66247
1569340135.67809
1569340135.69372
1569340135.70934
1569340135.72497
1569340135.74059
1569340135.75622
1569340135.77185
1569340135.78747
1569340135.8031
1569340135.81872
1569340135.83435
1569340135.84997
1569340135.8656
1569340135.88123
1569340135.89685
1569340135.91248
1569340135.9281
1569340135.94373
1569340135.95935
1569340135.97498
1569340135.99061
1569340136.00623
1569340136.02186
1569340136.03748
1569340136.05311
1569340136.06873
1569340136.08436
1569340136.09999
1569340136.11561
1569340136.13124
1569340136.14686
1569340136.16249
1569340136.17812
1569340136.19374
1569340136.20937
1569340136.22499
1569340136.24062
1569340136.25624
1569340136.27187
1569340136.2875
1569340136.30312
1569340136.31875
1569340136.33437
1569340136.35
1569340136.36562
1569340136.38125
1569340136.39688
1569340136.4125
1569340136.42813
1569340136.44375
1569340136.45938
1569340136.475
1569340136.49063
1569340136.50626
1569340136.52188
1569340136.53751
1569340136.55313
1569340136.56876
1569340136.58438
1569340136.60001
1569340136.61564
1569340136.63126
1569340136.64689
1569340136.66251
1569340136.67814
1569340136.69376
1569340136.70939
1569340136.72502
1569340136.74064
1569340136.75627
1569340136.77189
1569340136.78752
1569340136.80314
1569340136.81877
1569340136.8344
1569340136.85002
1569340136.86565
1569340136.88127
1569340136.8969
1569340136.91252
1569340136.92815
1569340136.94378
1569340136.9594
1569340136.97503
1569340136.99065
1569340137.00628
1569340137.0219
1569340137.03753
1569340137.05316
1569340137.06878
1569340137.08441
1569340137.10003
1569340137.11566
1569340137.13128
1569340137.14691
1569340137.16254
1569340137.17816
1569340137.19379
1569340137.20941
1569340137.22504
1569340137.24066
1569340137.25629
1569340137.27192
1569340137.28754
1569340137.30317
1569340137.31879
1569340137.33442
1569340137.35004
1569340137.36567
1569340137.3813
1569340137.39692
1569340137.41255
1569340137.42817
1569340137.4438
1569340137.45942
1569340137.47505
1569340137.49068
1569340137.5063
1569340137.52193
1569340137.53755
1569340137.55318
1569340137.5688
1569340137.58443
1569340137.60006
1569340137.61568
1569340137.63131
1569340137.64693
1569340137.66256
1569340137.67818
1569340137.69381
1569340137.70944
1569340137.72506
1569340137.74069
1569340137.75631
1569340137.77194
1569340137.78756
1569340137.80319
1569340137.81882
1569340137.83444
1569340137.85007
1569340137.86569
1569340137.88132
1569340137.89694
1569340137.91257
1569340137.9282
1569340137.94382
1569340137.95945
1569340137.97507
1569340137.9907
1569340138.00632
1569340138.02195
1569340138.03758
1569340138.0532
1569340138.06883
1569340138.08445
1569340138.10008
1569340138.1157
1569340138.13133
1569340138.14696
1569340138.16258
1569340138.17821
1569340138.19383
1569340138.20946
1569340138.22508
1569340138.24071
1569340138.25634
1569340138.27196
1569340138.28759
1569340138.30321
1569340138.31884
1569340138.33446
1569340138.35009
1569340138.36572
1569340138.38134
1569340138.39697
1569340138.41259
1569340138.42822
1569340138.44385
1569340138.45947
1569340138.4751
1569340138.49072
1569340138.50635
1569340138.52197
1569340138.5376
1569340138.55323
1569340138.56885
1569340138.58448
1569340138.6001
1569340138.61573
1569340138.63135
1569340138.64698
1569340138.66261
1569340138.67823
1569340138.69386
1569340138.70948
1569340138.72511
1569340138.74073
1569340138.75636
1569340138.77199
1569340138.78761
1569340138.80324
1569340138.81886
1569340138.83449
1569340138.85011
1569340138.86574
1569340138.88137
1569340138.89699
1569340138.91262
1569340138.92824
1569340138.94387
1569340138.95949
1569340138.97512
1569340138.99075
1569340139.00637
1569340139.022
1569340139.03762
1569340139.05325
1569340139.06887
1569340139.0845
1569340139.10013
1569340139.11575
1569340139.13138
1569340139.147
1569340139.16263
1569340139.17825
1569340139.19388
1569340139.20951
1569340139.22513
1569340139.24076
1569340139.25638
1569340139.27201
1569340139.28763
1569340139.30326
1569340139.31889
1569340139.33451
1569340139.35014
1569340139.36576
1569340139.38139
1569340139.39701
1569340139.41264
1569340139.42827
1569340139.44389
1569340139.45952
1569340139.47514
1569340139.49077
1569340139.50639
1569340139.52202
1569340139.53765
1569340139.55327
1569340139.5689
1569340139.58452
1569340139.60015
1569340139.61577
1569340139.6314
1569340139.64703
1569340139.66265
1569340139.67828
1569340139.6939
1569340139.70953
1569340139.72515
1569340139.74078
1569340139.75641
1569340139.77203
1569340139.78766
1569340139.80328
1569340139.81891
1569340139.83453
1569340139.85016
1569340139.86579
1569340139.88141
1569340139.89704
1569340139.91266
1569340139.92829
1569340139.94391
1569340139.95954
1569340139.97517
1569340139.99079
1569340140.00642
1569340140.02204
1569340140.03767
1569340140.05329
1569340140.06892
1569340140.08455
1569340140.10017
1569340140.1158
1569340140.13142
1569340140.14705
1569340140.16267
1569340140.1783
1569340140.19393
1569340140.20955
1569340140.22518
1569340140.2408
1569340140.25643
1569340140.27205
1569340140.28768
1569340140.30331
1569340140.31893
1569340140.33456
1569340140.35018
1569340140.36581
1569340140.38143
1569340140.39706
1569340140.41269
1569340140.42831
1569340140.44394
1569340140.45956
1569340140.47519
1569340140.49081
1569340140.50644
1569340140.52207
1569340140.53769
1569340140.55332
1569340140.56894
1569340140.58457
1569340140.60019
1569340140.61582
1569340140.63145
1569340140.64707
1569340140.6627
1569340140.67832
1569340140.69395
1569340140.70957
1569340140.7252
1569340140.74083
1569340140.75645
1569340140.77208
1569340140.7877
1569340140.80333
1569340140.81895
1569340140.83458
1569340140.85021
1569340140.86583
1569340140.88146
1569340140.89708
1569340140.91271
1569340140.92833
1569340140.94396
1569340140.95959
1569340140.97521
1569340140.99084
1569340141.00646
1569340141.02209
1569340141.03771
1569340141.05334
1569340141.06897
1569340141.08459
1569340141.10022
1569340141.11584
1569340141.13147
1569340141.1471
1569340141.16272
1569340141.17835
1569340141.19397
1569340141.2096
1569340141.22522
1569340141.24085
1569340141.25648
1569340141.2721
1569340141.28773
1569340141.30335
1569340141.31898
1569340141.3346
1569340141.35023
1569340141.36586
1569340141.38148
1569340141.39711
1569340141.41273
1569340141.42836
1569340141.44398
1569340141.45961
1569340141.47524
1569340141.49086
1569340141.50649
1569340141.52211
1569340141.53774
1569340141.55336
1569340141.56899
1569340141.58462
1569340141.60024
1569340141.61587
1569340141.63149
1569340141.64712
1569340141.66274
1569340141.67837
1569340141.694
1569340141.70962
1569340141.72525
1569340141.74087
1569340141.7565
1569340141.77212
1569340141.78775
1569340141.80338
1569340141.819
1569340141.83463
1569340141.85025
1569340141.86588
1569340141.8815
1569340141.89713
1569340141.91276
1569340141.92838
1569340141.94401
1569340141.95963
1569340141.97526
1569340141.99088
1569340142.00651
1569340142.02214
1569340142.03776
1569340142.05339
1569340142.06901
1569340142.08464
1569340142.10026
1569340142.11589
1569340142.13152
1569340142.14714
1569340142.16277
1569340142.17839
1569340142.19402
1569340142.20964
1569340142.22527
1569340142.2409
1569340142.25652
1569340142.27215
1569340142.28777
1569340142.3034
1569340142.31902
1569340142.33465
1569340142.35028
1569340142.3659
1569340142.38153
1569340142.39715
1569340142.41278
1569340142.4284
1569340142.44403
1569340142.45966
1569340142.47528
1569340142.49091
1569340142.50653
1569340142.52216
1569340142.53778
1569340142.55341
1569340142.56904
1569340142.58466
1569340142.60029
1569340142.61591
1569340142.63154
1569340142.64716
1569340142.66279
1569340142.67842
1569340142.69404
1569340142.70967
1569340142.72529
1569340142.74092
1569340142.75654
1569340142.77217
1569340142.7878
1569340142.80342
1569340142.81905
1569340142.83467
1569340142.8503
1569340142.86592
1569340142.88155
1569340142.89718
1569340142.9128
1569340142.92843
1569340142.94405
1569340142.95968
1569340142.9753
1569340142.99093
1569340143.00656
1569340143.02218
1569340143.03781
1569340143.05343
1569340143.06906
1569340143.08468
1569340143.10031
1569340143.11594
1569340143.13156
1569340143.14719
1569340143.16281
1569340143.17844
1569340143.19406
1569340143.20969
1569340143.22532
1569340143.24094
1569340143.25657
1569340143.27219
1569340143.28782
1569340143.30345
1569340143.31907
1569340143.3347
1569340143.35032
1569340143.36595
1569340143.38157
1569340143.3972
1569340143.41283
1569340143.42845
1569340143.44408
1569340143.4597
1569340143.47533
1569340143.49095
1569340143.50658
1569340143.52221
1569340143.53783
1569340143.55346
1569340143.56908
1569340143.58471
1569340143.60033
1569340143.61596
1569340143.63159
1569340143.64721
1569340143.66284
1569340143.67846
1569340143.69409
1569340143.70971
1569340143.72534
1569340143.74097
1569340143.75659
1569340143.77222
1569340143.78784
1569340143.80347
1569340143.81909
1569340143.83472
1569340143.85035
1569340143.86597
1569340143.8816
1569340143.89722
1569340143.91285
1569340143.92847
1569340143.9441
1569340143.95973
1569340143.97535
1569340143.99098
1569340144.0066
1569340144.02223
1569340144.03785
1569340144.05348
1569340144.06911
1569340144.08473
1569340144.10036
1569340144.11598
1569340144.13161
1569340144.14723
1569340144.16286
1569340144.17849
1569340144.19411
1569340144.20974
1569340144.22536
1569340144.24099
1569340144.25661
1569340144.27224
1569340144.28787
1569340144.30349
1569340144.31912
1569340144.33474
1569340144.35037
1569340144.36599
1569340144.38162
1569340144.39725
1569340144.41287
1569340144.4285
1569340144.44412
1569340144.45975
1569340144.47537
1569340144.491
1569340144.50663
1569340144.52225
1569340144.53788
1569340144.5535
1569340144.56913
1569340144.58475
1569340144.60038
1569340144.61601
1569340144.63163
1569340144.64726
1569340144.66288
1569340144.67851
1569340144.69413
1569340144.70976
1569340144.72539
1569340144.74101
1569340144.75664
1569340144.77226
1569340144.78789
1569340144.80351
1569340144.81914
1569340144.83477
1569340144.85039
1569340144.86602
1569340144.88164
1569340144.89727
1569340144.91289
1569340144.92852
1569340144.94415
1569340144.95977
1569340144.9754
1569340144.99102
1569340145.00665
1569340145.02227
1569340145.0379
1569340145.05353
1569340145.06915
1569340145.08478
1569340145.1004
1569340145.11603
1569340145.13165
1569340145.14728
1569340145.16291
1569340145.17853
1569340145.19416
1569340145.20978
1569340145.22541
1569340145.24103
1569340145.25666
1569340145.27229
1569340145.28791
1569340145.30354
1569340145.31916
1569340145.33479
1569340145.35041
1569340145.36604
1569340145.38167
1569340145.39729
1569340145.41292
1569340145.42854
1569340145.44417
1569340145.45979
1569340145.47542
1569340145.49105
1569340145.50667
1569340145.5223
1569340145.53792
1569340145.55355
1569340145.56918
1569340145.5848
1569340145.60043
1569340145.61605
1569340145.63168
1569340145.6473
1569340145.66293
1569340145.67856
1569340145.69418
1569340145.70981
1569340145.72543
1569340145.74106
1569340145.75668
1569340145.77231
1569340145.78794
1569340145.80356
1569340145.81919
1569340145.83481
1569340145.85044
1569340145.86606
1569340145.88169
1569340145.89732
1569340145.91294
1569340145.92857
1569340145.94419
1569340145.95982
1569340145.97544
1569340145.99107
1569340146.0067
1569340146.02232
1569340146.03795
1569340146.05357
1569340146.0692
1569340146.08482
1569340146.10045
1569340146.11608
1569340146.1317
1569340146.14733
1569340146.16295
1569340146.17858
1569340146.1942
1569340146.20983
1569340146.22546
1569340146.24108
1569340146.25671
1569340146.27233
1569340146.28796
1569340146.30358
1569340146.31921
1569340146.33484
1569340146.35046
1569340146.36609
1569340146.38171
1569340146.39734
1569340146.41296
1569340146.42859
1569340146.44422
1569340146.45984
1569340146.47547
1569340146.49109
1569340146.50672
1569340146.52234
1569340146.53797
1569340146.5536
1569340146.56922
1569340146.58485
1569340146.60047
1569340146.6161
1569340146.63172
1569340146.64735
1569340146.66298
1569340146.6786
1569340146.69423
1569340146.70985
1569340146.72548
1569340146.7411
1569340146.75673
1569340146.77236
1569340146.78798
1569340146.80361
1569340146.81923
1569340146.83486
1569340146.85048
1569340146.86611
1569340146.88174
1569340146.89736
1569340146.91299
1569340146.92861
1569340146.94424
1569340146.95986
1569340146.97549
1569340146.99112
1569340147.00674
1569340147.02237
1569340147.03799
1569340147.05362
1569340147.06924
1569340147.08487
1569340147.1005
1569340147.11612
1569340147.13175
1569340147.14737
1569340147.163
1569340147.17862
1569340147.19425
1569340147.20988
1569340147.2255
1569340147.24113
1569340147.25675
1569340147.27238
1569340147.288
1569340147.30363
1569340147.31926
1569340147.33488
1569340147.35051
1569340147.36613
1569340147.38176
1569340147.39738
1569340147.41301
1569340147.42864
1569340147.44426
1569340147.45989
1569340147.47551
1569340147.49114
1569340147.50676
1569340147.52239
1569340147.53802
1569340147.55364
1569340147.56927
1569340147.58489
1569340147.60052
1569340147.61614
1569340147.63177
1569340147.6474
1569340147.66302
1569340147.67865
1569340147.69427
1569340147.7099
1569340147.72552
1569340147.74115
1569340147.75678
1569340147.7724
1569340147.78803
1569340147.80365
1569340147.81928
1569340147.8349
1569340147.85053
1569340147.86616
1569340147.88178
1569340147.89741
1569340147.91303
1569340147.92866
1569340147.94428
1569340147.95991
1569340147.97554
1569340147.99116
1569340148.00679
1569340148.02241
1569340148.03804
1569340148.05366
1569340148.06929
1569340148.08492
1569340148.10054
1569340148.11617
1569340148.13179
1569340148.14742
1569340148.16305
1569340148.17867
1569340148.1943
1569340148.20992
1569340148.22555
1569340148.24117
1569340148.2568
1569340148.27243
1569340148.28805
1569340148.30368
1569340148.3193
1569340148.33493
1569340148.35055
1569340148.36618
1569340148.38181
1569340148.39743
1569340148.41306
1569340148.42868
1569340148.44431
1569340148.45993
1569340148.47556
1569340148.49119
1569340148.50681
1569340148.52244
1569340148.53806
1569340148.55369
1569340148.56931
1569340148.58494
1569340148.60057
1569340148.61619
1569340148.63182
1569340148.64744
1569340148.66307
1569340148.67869
1569340148.69432
1569340148.70995
1569340148.72557
1569340148.7412
1569340148.75682
1569340148.77245
1569340148.78807
1569340148.8037
1569340148.81933
1569340148.83495
1569340148.85058
1569340148.8662
1569340148.88183
1569340148.89745
1569340148.91308
1569340148.92871
1569340148.94433
1569340148.95996
1569340148.97558
1569340148.99121
1569340149.00683
1569340149.02246
1569340149.03809
1569340149.05371
1569340149.06934
1569340149.08496
1569340149.10059
1569340149.11621
1569340149.13184
1569340149.14747
1569340149.16309
1569340149.17872
1569340149.19434
1569340149.20997
1569340149.22559
1569340149.24122
1569340149.25685
1569340149.27247
1569340149.2881
1569340149.30372
1569340149.31935
1569340149.33497
1569340149.3506
1569340149.36623
1569340149.38185
1569340149.39748
1569340149.4131
1569340149.42873
1569340149.44435
1569340149.45998
1569340149.47561
1569340149.49123
1569340149.50686
1569340149.52248
1569340149.53811
1569340149.55373
1569340149.56936
1569340149.58499
1569340149.60061
1569340149.61624
1569340149.63186
1569340149.64749
1569340149.66311
1569340149.67874
1569340149.69437
1569340149.70999
1569340149.72562
1569340149.74124
1569340149.75687
1569340149.77249
1569340149.78812
1569340149.80375
1569340149.81937
1569340149.835
1569340149.85062
1569340149.86625
1569340149.88187
1569340149.8975
1569340149.91313
1569340149.92875
1569340149.94438
1569340149.96
1569340149.97563
1569340149.99125
1569340150.00688
1569340150.02251
1569340150.03813
1569340150.05376
1569340150.06938
1569340150.08501
1569340150.10063
1569340150.11626
1569340150.13189
1569340150.14751
1569340150.16314
1569340150.17876
1569340150.19439
1569340150.21001
1569340150.22564
1569340150.24127
1569340150.25689
1569340150.27252
1569340150.28814
1569340150.30377
1569340150.31939
1569340150.33502
1569340150.35065
1569340150.36627
1569340150.3819
1569340150.39752
1569340150.41315
1569340150.42878
1569340150.4444
1569340150.46003
1569340150.47565
1569340150.49128
1569340150.5069
1569340150.52253
1569340150.53816
1569340150.55378
1569340150.56941
1569340150.58503
1569340150.60066
1569340150.61628
1569340150.63191
1569340150.64754
1569340150.66316
1569340150.67879
1569340150.69441
1569340150.71004
1569340150.72566
1569340150.74129
1569340150.75692
1569340150.77254
1569340150.78817
1569340150.80379
1569340150.81942
1569340150.83504
1569340150.85067
1569340150.8663
1569340150.88192
1569340150.89755
1569340150.91317
1569340150.9288
1569340150.94442
1569340150.96005
1569340150.97568
1569340150.9913
1569340151.00693
1569340151.02255
1569340151.03818
1569340151.0538
1569340151.06943
1569340151.08506
1569340151.10068
1569340151.11631
1569340151.13193
1569340151.14756
1569340151.16318
1569340151.17881
1569340151.19444
1569340151.21006
1569340151.22569
1569340151.24131
1569340151.25694
1569340151.27256
1569340151.28819
1569340151.30382
1569340151.31944
1569340151.33507
1569340151.35069
1569340151.36632
1569340151.38194
1569340151.39757
1569340151.4132
1569340151.42882
1569340151.44445
1569340151.46007
1569340151.4757
1569340151.49132
1569340151.50695
1569340151.52258
1569340151.5382
1569340151.55383
1569340151.56945
1569340151.58508
1569340151.6007
1569340151.61633
1569340151.63196
1569340151.64758
1569340151.66321
1569340151.67883
1569340151.69446
1569340151.71008
1569340151.72571
1569340151.74134
1569340151.75696
1569340151.77259
1569340151.78821
1569340151.80384
1569340151.81946
1569340151.83509
1569340151.85072
1569340151.86634
1569340151.88197
1569340151.89759
1569340151.91322
1569340151.92884
1569340151.94447
1569340151.9601
1569340151.97572
1569340151.99135
1569340152.00697
1569340152.0226
1569340152.03822
1569340152.05385
1569340152.06948
1569340152.0851
1569340152.10073
1569340152.11635
1569340152.13198
1569340152.1476
1569340152.16323
1569340152.17886
1569340152.19448
1569340152.21011
1569340152.22573
1569340152.24136
1569340152.25698
1569340152.27261
1569340152.28824
1569340152.30386
1569340152.31949
1569340152.33511
1569340152.35074
1569340152.36636
1569340152.38199
1569340152.39762
1569340152.41324
1569340152.42887
1569340152.44449
1569340152.46012
1569340152.47574
1569340152.49137
1569340152.507
1569340152.52262
1569340152.53825
1569340152.55387
1569340152.5695
1569340152.58512
1569340152.60075
1569340152.61638
1569340152.632
1569340152.64763
1569340152.66325
1569340152.67888
1569340152.6945
1569340152.71013
1569340152.72576
1569340152.74138
1569340152.75701
1569340152.77263
1569340152.78826
1569340152.80388
1569340152.81951
1569340152.83514
1569340152.85076
1569340152.86639
1569340152.88201
1569340152.89764
1569340152.91326
1569340152.92889
1569340152.94452
1569340152.96014
1569340152.97577
1569340152.99139
1569340153.00702
1569340153.02265
1569340153.03827
1569340153.0539
1569340153.06952
1569340153.08515
1569340153.10077
1569340153.1164
1569340153.13203
1569340153.14765
1569340153.16328
1569340153.1789
1569340153.19453
1569340153.21015
1569340153.22578
1569340153.24141
1569340153.25703
1569340153.27266
1569340153.28828
1569340153.30391
1569340153.31953
1569340153.33516
1569340153.35079
1569340153.36641
1569340153.38204
1569340153.39766
1569340153.41329
1569340153.42891
1569340153.44454
1569340153.46017
1569340153.47579
1569340153.49142
1569340153.50704
1569340153.52267
1569340153.53829
1569340153.55392
1569340153.56955
1569340153.58517
1569340153.6008
1569340153.61642
1569340153.63205
1569340153.64767
1569340153.6633
1569340153.67893
1569340153.69455
1569340153.71018
1569340153.7258
1569340153.74143
1569340153.75705
1569340153.77268
1569340153.78831
1569340153.80393
1569340153.81956
1569340153.83518
1569340153.85081
1569340153.86643
1569340153.88206
1569340153.89769
1569340153.91331
1569340153.92894
1569340153.94456
1569340153.96019
1569340153.97581
1569340153.99144
1569340154.00707
1569340154.02269
1569340154.03832
1569340154.05394
1569340154.06957
1569340154.08519
1569340154.10082
1569340154.11645
1569340154.13207
1569340154.1477
1569340154.16332
1569340154.17895
1569340154.19457
1569340154.2102
1569340154.22583
1569340154.24145
1569340154.25708
1569340154.2727
1569340154.28833
1569340154.30395
1569340154.31958
1569340154.33521
1569340154.35083
1569340154.36646
1569340154.38208
1569340154.39771
1569340154.41333
1569340154.42896
1569340154.44459
1569340154.46021
1569340154.47584
1569340154.49146
1569340154.50709
1569340154.52271
1569340154.53834
1569340154.55397
1569340154.56959
1569340154.58522
1569340154.60084
1569340154.61647
1569340154.63209
1569340154.64772
1569340154.66335
1569340154.67897
1569340154.6946
1569340154.71022
1569340154.72585
1569340154.74147
1569340154.7571
1569340154.77273
1569340154.78835
1569340154.80398
1569340154.8196
1569340154.83523
1569340154.85085
1569340154.86648
1569340154.88211
1569340154.89773
1569340154.91336
1569340154.92898
1569340154.94461
1569340154.96023
1569340154.97586
1569340154.99149
1569340155.00711
1569340155.02274
1569340155.03836
1569340155.05399
1569340155.06961
1569340155.08524
1569340155.10087
1569340155.11649
1569340155.13212
1569340155.14774
1569340155.16337
1569340155.17899
1569340155.19462
1569340155.21025
1569340155.22587
1569340155.2415
1569340155.25712
1569340155.27275
1569340155.28838
1569340155.304
1569340155.31963
1569340155.33525
1569340155.35088
1569340155.3665
1569340155.38213
1569340155.39776
1569340155.41338
1569340155.42901
1569340155.44463
1569340155.46026
1569340155.47588
1569340155.49151
1569340155.50714
1569340155.52276
1569340155.53839
1569340155.55401
1569340155.56964
1569340155.58526
1569340155.60089
1569340155.61652
1569340155.63214
1569340155.64777
1569340155.66339
1569340155.67902
1569340155.69464
1569340155.71027
1569340155.7259
1569340155.74152
1569340155.75715
1569340155.77277
1569340155.7884
1569340155.80402
1569340155.81965
1569340155.83528
1569340155.8509
1569340155.86653
1569340155.88215
1569340155.89778
1569340155.9134
1569340155.92903
1569340155.94466
1569340155.96028
1569340155.97591
1569340155.99153
1569340156.00716
1569340156.02278
1569340156.03841
1569340156.05404
1569340156.06966
1569340156.08529
1569340156.10091
1569340156.11654
1569340156.13216
1569340156.14779
1569340156.16342
1569340156.17904
1569340156.19467
1569340156.21029
1569340156.22592
1569340156.24154
1569340156.25717
1569340156.2728
1569340156.28842
1569340156.30405
1569340156.31967
1569340156.3353
1569340156.35092
1569340156.36655
1569340156.38218
1569340156.3978
1569340156.41343
1569340156.42905
1569340156.44468
1569340156.4603
1569340156.47593
1569340156.49156
1569340156.50718
1569340156.52281
1569340156.53843
1569340156.55406
1569340156.56968
1569340156.58531
1569340156.60094
1569340156.61656
1569340156.63219
1569340156.64781
1569340156.66344
1569340156.67906
1569340156.69469
1569340156.71032
1569340156.72594
1569340156.74157
1569340156.75719
1569340156.77282
1569340156.78844
1569340156.80407
1569340156.8197
1569340156.83532
1569340156.85095
1569340156.86657
1569340156.8822
1569340156.89782
1569340156.91345
1569340156.92908
1569340156.9447
1569340156.96033
1569340156.97595
1569340156.99158
1569340157.0072
1569340157.02283
1569340157.03846
1569340157.05408
1569340157.06971
1569340157.08533
1569340157.10096
1569340157.11658
1569340157.13221
1569340157.14784
1569340157.16346
1569340157.17909
1569340157.19471
1569340157.21034
1569340157.22596
1569340157.24159
1569340157.25722
1569340157.27284
1569340157.28847
1569340157.30409
1569340157.31972
1569340157.33534
1569340157.35097
1569340157.3666
1569340157.38222
1569340157.39785
1569340157.41347
1569340157.4291
1569340157.44473
1569340157.46035
1569340157.47598
1569340157.4916
1569340157.50723
1569340157.52285
1569340157.53848
1569340157.55411
1569340157.56973
1569340157.58536
1569340157.60098
1569340157.61661
1569340157.63223
1569340157.64786
1569340157.66349
1569340157.67911
1569340157.69474
1569340157.71036
1569340157.72599
1569340157.74161
1569340157.75724
1569340157.77287
1569340157.78849
1569340157.80412
1569340157.81974
1569340157.83537
1569340157.85099
1569340157.86662
1569340157.88225
1569340157.89787
1569340157.9135
1569340157.92912
1569340157.94475
1569340157.96037
1569340157.976
1569340157.99163
1569340158.00725
1569340158.02288
1569340158.0385
1569340158.05413
1569340158.06975
1569340158.08538
1569340158.10101
1569340158.11663
1569340158.13226
1569340158.14788
1569340158.16351
1569340158.17913
1569340158.19476
1569340158.21039
1569340158.22601
1569340158.24164
1569340158.25726
1569340158.27289
1569340158.28851
1569340158.30414
1569340158.31977
1569340158.33539
1569340158.35102
1569340158.36664
1569340158.38227
1569340158.39789
1569340158.41352
1569340158.42915
1569340158.44477
1569340158.4604
1569340158.47602
1569340158.49165
1569340158.50727
1569340158.5229
1569340158.53853
1569340158.55415
1569340158.56978
1569340158.5854
1569340158.60103
1569340158.61665
1569340158.63228
1569340158.64791
1569340158.66353
1569340158.67916
1569340158.69478
1569340158.71041
1569340158.72603
1569340158.74166
1569340158.75729
1569340158.77291
1569340158.78854
1569340158.80416
1569340158.81979
1569340158.83541
1569340158.85104
1569340158.86667
1569340158.88229
1569340158.89792
1569340158.91354
1569340158.92917
1569340158.94479
1569340158.96042
1569340158.97605
1569340158.99167
1569340159.0073
1569340159.02292
1569340159.03855
1569340159.05417
1569340159.0698
1569340159.08543
1569340159.10105
1569340159.11668
1569340159.1323
1569340159.14793
1569340159.16355
1569340159.17918
1569340159.19481
1569340159.21043
1569340159.22606
1569340159.24168
1569340159.25731
1569340159.27293
1569340159.28856
1569340159.30419
1569340159.31981
1569340159.33544
1569340159.35106
1569340159.36669
1569340159.38231
1569340159.39794
1569340159.41357
1569340159.42919
1569340159.44482
1569340159.46044
1569340159.47607
1569340159.49169
1569340159.50732
1569340159.52295
1569340159.53857
1569340159.5542
1569340159.56982
1569340159.58545
1569340159.60107
1569340159.6167
1569340159.63233
1569340159.64795
1569340159.66358
1569340159.6792
1569340159.69483
1569340159.71045
1569340159.72608
1569340159.74171
1569340159.75733
1569340159.77296
1569340159.78858
1569340159.80421
1569340159.81983
1569340159.83546
1569340159.85109
1569340159.86671
1569340159.88234
1569340159.89796
1569340159.91359
1569340159.92921
1569340159.94484
1569340159.96047
1569340159.97609
1569340159.99172
1569340160.00734
1569340160.02297
1569340160.03859
1569340160.05422
1569340160.06985
1569340160.08547
1569340160.1011
1569340160.11672
1569340160.13235
1569340160.14798
1569340160.1636
1569340160.17923
1569340160.19485
1569340160.21048
1569340160.2261
1569340160.24173
1569340160.25736
1569340160.27298
1569340160.28861
1569340160.30423
1569340160.31986
1569340160.33548
1569340160.35111
1569340160.36674
1569340160.38236
1569340160.39799
1569340160.41361
1569340160.42924
1569340160.44486
1569340160.46049
1569340160.47612
1569340160.49174
1569340160.50737
1569340160.52299
1569340160.53862
1569340160.55424
1569340160.56987
1569340160.5855
1569340160.60112
1569340160.61675
1569340160.63237
1569340160.648
1569340160.66362
1569340160.67925
1569340160.69488
1569340160.7105
1569340160.72613
1569340160.74175
1569340160.75738
1569340160.773
1569340160.78863
1569340160.80426
1569340160.81988
1569340160.83551
1569340160.85113
1569340160.86676
1569340160.88238
1569340160.89801
1569340160.91364
1569340160.92926
1569340160.94489
1569340160.96051
1569340160.97614
1569340160.99176
1569340161.00739
1569340161.02302
1569340161.03864
1569340161.05427
1569340161.06989
1569340161.08552
1569340161.10114
1569340161.11677
1569340161.1324
1569340161.14802
1569340161.16365
1569340161.17927
1569340161.1949
1569340161.21052
1569340161.22615
1569340161.24178
1569340161.2574
1569340161.27303
1569340161.28865
1569340161.30428
1569340161.3199
1569340161.33553
1569340161.35116
1569340161.36678
1569340161.38241
1569340161.39803
1569340161.41366
1569340161.42928
1569340161.44491
1569340161.46054
1569340161.47616
1569340161.49179
1569340161.50741
1569340161.52304
1569340161.53866
1569340161.55429
1569340161.56992
1569340161.58554
1569340161.60117
1569340161.61679
1569340161.63242
1569340161.64804
1569340161.66367
1569340161.6793
1569340161.69492
1569340161.71055
1569340161.72617
1569340161.7418
1569340161.75742
1569340161.77305
1569340161.78868
1569340161.8043
1569340161.81993
1569340161.83555
1569340161.85118
1569340161.8668
1569340161.88243
1569340161.89806
1569340161.91368
1569340161.92931
1569340161.94493
1569340161.96056
1569340161.97618
1569340161.99181
1569340162.00744
1569340162.02306
1569340162.03869
1569340162.05431
1569340162.06994
1569340162.08556
1569340162.10119
1569340162.11682
1569340162.13244
1569340162.14807
1569340162.16369
1569340162.17932
1569340162.19494
1569340162.21057
1569340162.2262
1569340162.24182
1569340162.25745
1569340162.27307
1569340162.2887
1569340162.30433
1569340162.31995
1569340162.33558
1569340162.3512
1569340162.36683
1569340162.38245
1569340162.39808
1569340162.41371
1569340162.42933
1569340162.44496
1569340162.46058
1569340162.47621
1569340162.49183
1569340162.50746
1569340162.52309
1569340162.53871
1569340162.55434
1569340162.56996
1569340162.58559
1569340162.60121
1569340162.61684
1569340162.63247
1569340162.64809
1569340162.66372
1569340162.67934
1569340162.69497
1569340162.71059
1569340162.72622
1569340162.74185
1569340162.75747
1569340162.7731
1569340162.78872
1569340162.80435
1569340162.81997
1569340162.8356
1569340162.85123
1569340162.86685
1569340162.88248
1569340162.8981
1569340162.91373
1569340162.92935
1569340162.94498
1569340162.96061
1569340162.97623
1569340162.99186
1569340163.00748
1569340163.02311
1569340163.03873
1569340163.05436
1569340163.06999
1569340163.08561
1569340163.10124
1569340163.11686
1569340163.13249
1569340163.14811
1569340163.16374
1569340163.17937
1569340163.19499
1569340163.21062
1569340163.22624
1569340163.24187
1569340163.25749
1569340163.27312
1569340163.28875
1569340163.30437
1569340163.32
1569340163.33562
1569340163.35125
1569340163.36687
1569340163.3825
1569340163.39813
1569340163.41375
1569340163.42938
1569340163.445
1569340163.46063
1569340163.47625
1569340163.49188
1569340163.50751
1569340163.52313
1569340163.53876
1569340163.55438
1569340163.57001
1569340163.58563
1569340163.60126
1569340163.61689
1569340163.63251
1569340163.64814
1569340163.66376
1569340163.67939
1569340163.69501
1569340163.71064
1569340163.72627
1569340163.74189
1569340163.75752
1569340163.77314
1569340163.78877
1569340163.80439
1569340163.82002
1569340163.83565
1569340163.85127
1569340163.8669
1569340163.88252
1569340163.89815
1569340163.91377
1569340163.9294
1569340163.94503
1569340163.96065
1569340163.97628
1569340163.9919
1569340164.00753
1569340164.02315
1569340164.03878
1569340164.05441
1569340164.07003
1569340164.08566
1569340164.10128
1569340164.11691
1569340164.13253
1569340164.14816
1569340164.16379
1569340164.17941
1569340164.19504
1569340164.21066
1569340164.22629
1569340164.24191
1569340164.25754
1569340164.27317
1569340164.28879
1569340164.30442
1569340164.32004
1569340164.33567
1569340164.35129
1569340164.36692
1569340164.38255
1569340164.39817
1569340164.4138
1569340164.42942
1569340164.44505
1569340164.46067
1569340164.4763
1569340164.49193
1569340164.50755
1569340164.52318
1569340164.5388
1569340164.55443
1569340164.57006
1569340164.58568
1569340164.60131
1569340164.61693
1569340164.63256
1569340164.64818
1569340164.66381
1569340164.67944
1569340164.69506
1569340164.71069
1569340164.72631
1569340164.74194
1569340164.75756
1569340164.77319
1569340164.78882
1569340164.80444
1569340164.82007
1569340164.83569
1569340164.85132
1569340164.86694
1569340164.88257
1569340164.8982
1569340164.91382
1569340164.92945
1569340164.94507
1569340164.9607
1569340164.97632
1569340164.99195
1569340165.00758
1569340165.0232
1569340165.03883
1569340165.05445
1569340165.07008
1569340165.0857
1569340165.10133
1569340165.11696
1569340165.13258
1569340165.14821
1569340165.16383
1569340165.17946
1569340165.19508
1569340165.21071
1569340165.22634
1569340165.24196
1569340165.25759
1569340165.27321
1569340165.28884
1569340165.30446
1569340165.32009
1569340165.33572
1569340165.35134
1569340165.36697
1569340165.38259
1569340165.39822
1569340165.41384
1569340165.42947
1569340165.4451
1569340165.46072
1569340165.47635
1569340165.49197
1569340165.5076
1569340165.52322
1569340165.53885
1569340165.55448
1569340165.5701
1569340165.58573
1569340165.60135
1569340165.61698
1569340165.6326
1569340165.64823
1569340165.66386
1569340165.67948
1569340165.69511
1569340165.71073
1569340165.72636
1569340165.74198
1569340165.75761
1569340165.77324
1569340165.78886
1569340165.80449
1569340165.82011
1569340165.83574
1569340165.85136
1569340165.86699
1569340165.88262
1569340165.89824
1569340165.91387
1569340165.92949
1569340165.94512
1569340165.96074
1569340165.97637
1569340165.992
1569340166.00762
1569340166.02325
1569340166.03887
1569340166.0545
1569340166.07012
1569340166.08575
1569340166.10138
1569340166.117
1569340166.13263
1569340166.14825
1569340166.16388
1569340166.1795
1569340166.19513
1569340166.21076
1569340166.22638
1569340166.24201
1569340166.25763
1569340166.27326
1569340166.28888
1569340166.30451
1569340166.32014
1569340166.33576
1569340166.35139
1569340166.36701
1569340166.38264
1569340166.39826
1569340166.41389
1569340166.42952
1569340166.44514
1569340166.46077
1569340166.47639
1569340166.49202
1569340166.50764
1569340166.52327
1569340166.5389
1569340166.55452
1569340166.57015
1569340166.58577
1569340166.6014
1569340166.61702
1569340166.63265
1569340166.64828
1569340166.6639
1569340166.67953
1569340166.69515
1569340166.71078
1569340166.7264
1569340166.74203
1569340166.75766
1569340166.77328
1569340166.78891
1569340166.80453
1569340166.82016
1569340166.83578
1569340166.85141
1569340166.86704
1569340166.88266
1569340166.89829
1569340166.91391
1569340166.92954
1569340166.94516
1569340166.96079
1569340166.97642
1569340166.99204
1569340167.00767
1569340167.02329
1569340167.03892
1569340167.05454
1569340167.07017
1569340167.0858
1569340167.10142
1569340167.11705
1569340167.13267
1569340167.1483
1569340167.16393
1569340167.17955
1569340167.19518
1569340167.2108
1569340167.22643
1569340167.24205
1569340167.25768
1569340167.27331
1569340167.28893
1569340167.30456
1569340167.32018
1569340167.33581
1569340167.35143
1569340167.36706
1569340167.38269
1569340167.39831
1569340167.41394
1569340167.42956
1569340167.44519
1569340167.46081
1569340167.47644
1569340167.49207
1569340167.50769
1569340167.52332
1569340167.53894
1569340167.55457
1569340167.57019
1569340167.58582
1569340167.60145
1569340167.61707
1569340167.6327
1569340167.64832
1569340167.66395
1569340167.67957
1569340167.6952
1569340167.71083
1569340167.72645
1569340167.74208
1569340167.7577
1569340167.77333
1569340167.78895
1569340167.80458
1569340167.82021
1569340167.83583
1569340167.85146
1569340167.86708
1569340167.88271
1569340167.89833
1569340167.91396
1569340167.92959
1569340167.94521
1569340167.96084
1569340167.97646
1569340167.99209
1569340168.00771
1569340168.02334
1569340168.03897
1569340168.05459
1569340168.07022
1569340168.08584
1569340168.10147
1569340168.11709
1569340168.13272
1569340168.14835
1569340168.16397
1569340168.1796
1569340168.19522
1569340168.21085
1569340168.22647
1569340168.2421
1569340168.25773
1569340168.27335
1569340168.28898
1569340168.3046
1569340168.32023
1569340168.33585
1569340168.35148
1569340168.36711
1569340168.38273
1569340168.39836
1569340168.41398
1569340168.42961
1569340168.44523
1569340168.46086
1569340168.47649
1569340168.49211
1569340168.50774
1569340168.52336
1569340168.53899
1569340168.55461
1569340168.57024
1569340168.58587
1569340168.60149
1569340168.61712
1569340168.63274
1569340168.64837
1569340168.66399
1569340168.67962
1569340168.69525
1569340168.71087
1569340168.7265
1569340168.74212
1569340168.75775
1569340168.77337
1569340168.789
1569340168.80463
1569340168.82025
1569340168.83588
1569340168.8515
1569340168.86713
1569340168.88275
1569340168.89838
1569340168.91401
1569340168.92963
1569340168.94526
1569340168.96088
1569340168.97651
1569340168.99213
1569340169.00776
1569340169.02339
1569340169.03901
1569340169.05464
1569340169.07026
1569340169.08589
1569340169.10151
1569340169.11714
1569340169.13277
1569340169.14839
1569340169.16402
1569340169.17964
1569340169.19527
1569340169.21089
1569340169.22652
1569340169.24215
1569340169.25777
1569340169.2734
1569340169.28902
1569340169.30465
1569340169.32027
1569340169.3359
1569340169.35153
1569340169.36715
1569340169.38278
1569340169.3984
1569340169.41403
1569340169.42966
1569340169.44528
1569340169.46091
1569340169.47653
1569340169.49216
1569340169.50778
1569340169.52341
1569340169.53904
1569340169.55466
1569340169.57029
1569340169.58591
1569340169.60154
1569340169.61716
1569340169.63279
1569340169.64842
1569340169.66404
1569340169.67967
1569340169.69529
1569340169.71092
1569340169.72654
1569340169.74217
1569340169.7578
1569340169.77342
1569340169.78905
1569340169.80467
1569340169.8203
1569340169.83592
1569340169.85155
1569340169.86718
1569340169.8828
1569340169.89843
1569340169.91405
1569340169.92968
1569340169.9453
1569340169.96093
1569340169.97656
1569340169.99218
1569340170.00781
1569340170.02343
1569340170.03906
1569340170.05468
1569340170.07031
1569340170.08594
1569340170.10156
1569340170.11719
1569340170.13281
1569340170.14844
1569340170.16406
1569340170.17969
1569340170.19532
1569340170.21094
1569340170.22657
1569340170.24219
1569340170.25782
1569340170.27344
1569340170.28907
1569340170.3047
1569340170.32032
1569340170.33595
1569340170.35157
1569340170.3672
1569340170.38282
1569340170.39845
1569340170.41408
1569340170.4297
1569340170.44533
1569340170.46095
1569340170.47658
1569340170.4922
1569340170.50783
1569340170.52346
1569340170.53908
1569340170.55471
1569340170.57033
1569340170.58596
1569340170.60158
1569340170.61721
1569340170.63284
1569340170.64846
1569340170.66409
1569340170.67971
1569340170.69534
1569340170.71096
1569340170.72659
1569340170.74222
1569340170.75784
1569340170.77347
1569340170.78909
1569340170.80472
1569340170.82034
1569340170.83597
1569340170.8516
1569340170.86722
1569340170.88285
1569340170.89847
1569340170.9141
1569340170.92972
1569340170.94535
1569340170.96098
1569340170.9766
1569340170.99223
1569340171.00785
1569340171.02348
1569340171.0391
1569340171.05473
1569340171.07036
1569340171.08598
1569340171.10161
1569340171.11723
1569340171.13286
1569340171.14848
1569340171.16411
1569340171.17974
1569340171.19536
1569340171.21099
1569340171.22661
1569340171.24224
1569340171.25786
1569340171.27349
1569340171.28912
1569340171.30474
1569340171.32037
1569340171.33599
1569340171.35162
1569340171.36724
1569340171.38287
1569340171.3985
1569340171.41412
1569340171.42975
1569340171.44537
1569340171.461
1569340171.47662
1569340171.49225
1569340171.50788
1569340171.5235
1569340171.53913
1569340171.55475
1569340171.57038
1569340171.586
1569340171.60163
1569340171.61726
1569340171.63288
1569340171.64851
1569340171.66413
1569340171.67976
1569340171.69538
1569340171.71101
1569340171.72664
1569340171.74226
1569340171.75789
1569340171.77351
1569340171.78914
1569340171.80476
1569340171.82039
1569340171.83602
1569340171.85164
1569340171.86727
1569340171.88289
1569340171.89852
1569340171.91414
1569340171.92977
1569340171.9454
1569340171.96102
1569340171.97665
1569340171.99227
1569340172.0079
1569340172.02353
1569340172.03915
1569340172.05478
1569340172.0704
1569340172.08603
1569340172.10165
1569340172.11728
1569340172.13291
1569340172.14853
1569340172.16416
1569340172.17978
1569340172.19541
1569340172.21103
1569340172.22666
1569340172.24229
1569340172.25791
1569340172.27354
1569340172.28916
1569340172.30479
1569340172.32041
1569340172.33604
1569340172.35167
1569340172.36729
1569340172.38292
1569340172.39854
1569340172.41417
1569340172.42979
1569340172.44542
1569340172.46105
1569340172.47667
1569340172.4923
1569340172.50792
1569340172.52355
1569340172.53917
1569340172.5548
1569340172.57043
1569340172.58605
1569340172.60168
1569340172.6173
1569340172.63293
1569340172.64855
1569340172.66418
1569340172.67981
1569340172.69543
1569340172.71106
1569340172.72668
1569340172.74231
1569340172.75793
1569340172.77356
1569340172.78919
1569340172.80481
1569340172.82044
1569340172.83606
1569340172.85169
1569340172.86731
1569340172.88294
1569340172.89857
1569340172.91419
1569340172.92982
1569340172.94544
1569340172.96107
1569340172.97669
1569340172.99232
1569340173.00795
1569340173.02357
1569340173.0392
1569340173.05482
1569340173.07045
1569340173.08607
1569340173.1017
1569340173.11733
1569340173.13295
1569340173.14858
1569340173.1642
1569340173.17983
1569340173.19545
1569340173.21108
1569340173.22671
1569340173.24233
1569340173.25796
1569340173.27358
1569340173.28921
1569340173.30483
1569340173.32046
1569340173.33609
1569340173.35171
1569340173.36734
1569340173.38296
1569340173.39859
1569340173.41421
1569340173.42984
1569340173.44547
1569340173.46109
1569340173.47672
1569340173.49234
1569340173.50797
1569340173.52359
1569340173.53922
1569340173.55485
1569340173.57047
1569340173.5861
1569340173.60172
1569340173.61735
1569340173.63297
1569340173.6486
1569340173.66423
1569340173.67985
1569340173.69548
1569340173.7111
1569340173.72673
1569340173.74235
1569340173.75798
1569340173.77361
1569340173.78923
1569340173.80486
1569340173.82048
1569340173.83611
1569340173.85173
1569340173.86736
1569340173.88299
1569340173.89861
1569340173.91424
1569340173.92986
1569340173.94549
1569340173.96111
1569340173.97674
1569340173.99237
1569340174.00799
1569340174.02362
1569340174.03924
1569340174.05487
1569340174.07049
1569340174.08612
1569340174.10175
1569340174.11737
1569340174.133
1569340174.14862
1569340174.16425
1569340174.17987
1569340174.1955
1569340174.21113
1569340174.22675
1569340174.24238
1569340174.258
1569340174.27363
1569340174.28926
1569340174.30488
1569340174.32051
1569340174.33613
1569340174.35176
1569340174.36738
1569340174.38301
1569340174.39864
1569340174.41426
1569340174.42989
1569340174.44551
1569340174.46114
1569340174.47676
1569340174.49239
1569340174.50802
1569340174.52364
1569340174.53927
1569340174.55489
1569340174.57052
1569340174.58614
1569340174.60177
1569340174.6174
1569340174.63302
1569340174.64865
1569340174.66427
1569340174.6799
1569340174.69552
1569340174.71115
1569340174.72678
1569340174.7424
1569340174.75803
1569340174.77365
1569340174.78928
1569340174.8049
1569340174.82053
1569340174.83616
1569340174.85178
1569340174.86741
1569340174.88303
1569340174.89866
1569340174.91428
1569340174.92991
1569340174.94554
1569340174.96116
1569340174.97679
1569340174.99241
1569340175.00804
1569340175.02366
1569340175.03929
1569340175.05492
1569340175.07054
1569340175.08617
1569340175.10179
1569340175.11742
1569340175.13304
1569340175.14867
1569340175.1643
1569340175.17992
1569340175.19555
1569340175.21117
1569340175.2268
1569340175.24242
1569340175.25805
1569340175.27368
1569340175.2893
1569340175.30493
1569340175.32055
1569340175.33618
1569340175.3518
1569340175.36743
1569340175.38306
1569340175.39868
1569340175.41431
1569340175.42993
1569340175.44556
1569340175.46118
1569340175.47681
1569340175.49244
1569340175.50806
1569340175.52369
1569340175.53931
1569340175.55494
1569340175.57056
1569340175.58619
1569340175.60182
1569340175.61744
1569340175.63307
1569340175.64869
1569340175.66432
1569340175.67994
1569340175.69557
1569340175.7112
1569340175.72682
1569340175.74245
1569340175.75807
1569340175.7737
1569340175.78932
1569340175.80495
1569340175.82058
1569340175.8362
1569340175.85183
1569340175.86745
1569340175.88308
1569340175.8987
1569340175.91433
1569340175.92996
1569340175.94558
1569340175.96121
1569340175.97683
1569340175.99246
1569340176.00808
1569340176.02371
1569340176.03934
1569340176.05496
1569340176.07059
1569340176.08621
1569340176.10184
1569340176.11746
1569340176.13309
1569340176.14872
1569340176.16434
1569340176.17997
1569340176.19559
1569340176.21122
1569340176.22684
1569340176.24247
1569340176.2581
1569340176.27372
1569340176.28935
1569340176.30497
1569340176.3206
1569340176.33622
1569340176.35185
1569340176.36748
1569340176.3831
1569340176.39873
1569340176.41435
1569340176.42998
1569340176.4456
1569340176.46123
1569340176.47686
1569340176.49248
1569340176.50811
1569340176.52373
1569340176.53936
1569340176.55499
1569340176.57061
1569340176.58624
1569340176.60186
1569340176.61749
1569340176.63311
1569340176.64874
1569340176.66437
1569340176.67999
1569340176.69562
1569340176.71124
1569340176.72687
1569340176.74249
1569340176.75812
1569340176.77375
1569340176.78937
1569340176.805
1569340176.82062
1569340176.83625
1569340176.85187
1569340176.8675
1569340176.88313
1569340176.89875
1569340176.91438
1569340176.93
1569340176.94563
1569340176.96125
1569340176.97688
1569340176.99251
1569340177.00813
1569340177.02376
1569340177.03938
1569340177.05501
1569340177.07063
1569340177.08626
1569340177.10189
1569340177.11751
1569340177.13314
1569340177.14876
1569340177.16439
1569340177.18001
1569340177.19564
1569340177.21127
1569340177.22689
1569340177.24252
1569340177.25814
1569340177.27377
1569340177.28939
1569340177.30502
1569340177.32065
1569340177.33627
1569340177.3519
1569340177.36752
1569340177.38315
1569340177.39877
1569340177.4144
1569340177.43003
1569340177.44565
1569340177.46128
1569340177.4769
1569340177.49253
1569340177.50815
1569340177.52378
1569340177.53941
1569340177.55503
1569340177.57066
1569340177.58628
1569340177.60191
1569340177.61753
1569340177.63316
1569340177.64879
1569340177.66441
1569340177.68004
1569340177.69566
1569340177.71129
1569340177.72691
1569340177.74254
1569340177.75817
1569340177.77379
1569340177.78942
1569340177.80504
1569340177.82067
1569340177.83629
1569340177.85192
1569340177.86755
1569340177.88317
1569340177.8988
1569340177.91442
1569340177.93005
1569340177.94567
1569340177.9613
1569340177.97693
1569340177.99255
1569340178.00818
1569340178.0238
1569340178.03943
1569340178.05505
1569340178.07068
1569340178.08631
1569340178.10193
1569340178.11756
1569340178.13318
1569340178.14881
1569340178.16443
1569340178.18006
1569340178.19569
1569340178.21131
1569340178.22694
1569340178.24256
1569340178.25819
1569340178.27381
1569340178.28944
1569340178.30507
1569340178.32069
1569340178.33632
1569340178.35194
1569340178.36757
1569340178.38319
1569340178.39882
1569340178.41445
1569340178.43007
1569340178.4457
1569340178.46132
1569340178.47695
1569340178.49257
1569340178.5082
1569340178.52383
1569340178.53945
1569340178.55508
1569340178.5707
1569340178.58633
1569340178.60195
1569340178.61758
1569340178.63321
1569340178.64883
1569340178.66446
1569340178.68008
1569340178.69571
1569340178.71133
1569340178.72696
1569340178.74259
1569340178.75821
1569340178.77384
1569340178.78946
1569340178.80509
1569340178.82071
1569340178.83634
1569340178.85197
1569340178.86759
1569340178.88322
1569340178.89884
1569340178.91447
1569340178.93009
1569340178.94572
1569340178.96135
1569340178.97697
1569340178.9926
1569340179.00822
1569340179.02385
1569340179.03947
1569340179.0551
1569340179.07073
1569340179.08635
1569340179.10198
1569340179.1176
1569340179.13323
1569340179.14886
1569340179.16448
1569340179.18011
1569340179.19573
1569340179.21136
1569340179.22698
1569340179.24261
1569340179.25824
1569340179.27386
1569340179.28949
1569340179.30511
1569340179.32074
1569340179.33636
1569340179.35199
1569340179.36762
1569340179.38324
1569340179.39887
1569340179.41449
1569340179.43012
1569340179.44574
1569340179.46137
1569340179.477
1569340179.49262
1569340179.50825
1569340179.52387
1569340179.5395
1569340179.55512
1569340179.57075
1569340179.58638
1569340179.602
1569340179.61763
1569340179.63325
1569340179.64888
1569340179.6645
1569340179.68013
1569340179.69576
1569340179.71138
1569340179.72701
1569340179.74263
1569340179.75826
1569340179.77388
1569340179.78951
1569340179.80514
1569340179.82076
1569340179.83639
1569340179.85201
1569340179.86764
1569340179.88326
1569340179.89889
1569340179.91452
1569340179.93014
1569340179.94577
1569340179.96139
1569340179.97702
1569340179.99264
1569340180.00827
1569340180.0239
1569340180.03952
1569340180.05515
1569340180.07077
1569340180.0864
1569340180.10202
1569340180.11765
1569340180.13328
1569340180.1489
1569340180.16453
1569340180.18015
1569340180.19578
1569340180.2114
1569340180.22703
1569340180.24266
1569340180.25828
1569340180.27391
1569340180.28953
1569340180.30516
1569340180.32078
1569340180.33641
1569340180.35204
1569340180.36766
1569340180.38329
1569340180.39891
1569340180.41454
1569340180.43016
1569340180.44579
1569340180.46142
1569340180.47704
1569340180.49267
1569340180.50829
1569340180.52392
1569340180.53954
1569340180.55517
1569340180.5708
1569340180.58642
1569340180.60205
1569340180.61767
1569340180.6333
1569340180.64892
1569340180.66455
1569340180.68018
1569340180.6958
1569340180.71143
1569340180.72705
1569340180.74268
1569340180.7583
1569340180.77393
1569340180.78956
1569340180.80518
1569340180.82081
1569340180.83643
1569340180.85206
1569340180.86768
1569340180.88331
1569340180.89894
1569340180.91456
1569340180.93019
1569340180.94581
1569340180.96144
1569340180.97706
1569340180.99269
1569340181.00832
1569340181.02394
1569340181.03957
1569340181.05519
1569340181.07082
1569340181.08644
1569340181.10207
1569340181.1177
1569340181.13332
1569340181.14895
1569340181.16457
1569340181.1802
1569340181.19582
1569340181.21145
1569340181.22708
1569340181.2427
1569340181.25833
1569340181.27395
1569340181.28958
1569340181.3052
1569340181.32083
1569340181.33646
1569340181.35208
1569340181.36771
1569340181.38333
1569340181.39896
1569340181.41459
1569340181.43021
1569340181.44584
1569340181.46146
1569340181.47709
1569340181.49271
1569340181.50834
1569340181.52397
1569340181.53959
1569340181.55522
1569340181.57084
1569340181.58647
1569340181.60209
1569340181.61772
1569340181.63335
1569340181.64897
1569340181.6646
1569340181.68022
1569340181.69585
1569340181.71147
1569340181.7271
1569340181.74273
1569340181.75835
1569340181.77398
1569340181.7896
1569340181.80523
1569340181.82085
1569340181.83648
1569340181.85211
1569340181.86773
1569340181.88336
1569340181.89898
1569340181.91461
1569340181.93023
1569340181.94586
1569340181.96149
1569340181.97711
1569340181.99274
1569340182.00836
1569340182.02399
1569340182.03961
1569340182.05524
1569340182.07087
1569340182.08649
1569340182.10212
1569340182.11774
1569340182.13337
1569340182.14899
1569340182.16462
1569340182.18025
1569340182.19587
1569340182.2115
1569340182.22712
1569340182.24275
1569340182.25837
1569340182.274
1569340182.28963
1569340182.30525
1569340182.32088
1569340182.3365
1569340182.35213
1569340182.36775
1569340182.38338
1569340182.39901
1569340182.41463
1569340182.43026
1569340182.44588
1569340182.46151
1569340182.47713
1569340182.49276
1569340182.50839
1569340182.52401
1569340182.53964
1569340182.55526
1569340182.57089
1569340182.58651
1569340182.60214
1569340182.61777
1569340182.63339
1569340182.64902
1569340182.66464
1569340182.68027
1569340182.69589
1569340182.71152
1569340182.72715
1569340182.74277
1569340182.7584
1569340182.77402
1569340182.78965
1569340182.80527
1569340182.8209
1569340182.83653
1569340182.85215
1569340182.86778
1569340182.8834
1569340182.89903
1569340182.91465
1569340182.93028
1569340182.94591
1569340182.96153
1569340182.97716
1569340182.99278
1569340183.00841
1569340183.02403
1569340183.03966
1569340183.05529
1569340183.07091
1569340183.08654
1569340183.10216
1569340183.11779
1569340183.13341
1569340183.14904
1569340183.16467
1569340183.18029
1569340183.19592
1569340183.21154
1569340183.22717
1569340183.24279
1569340183.25842
1569340183.27405
1569340183.28967
1569340183.3053
1569340183.32092
1569340183.33655
1569340183.35217
1569340183.3678
1569340183.38343
1569340183.39905
1569340183.41468
1569340183.4303
1569340183.44593
1569340183.46155
1569340183.47718
1569340183.49281
1569340183.50843
1569340183.52406
1569340183.53968
1569340183.55531
1569340183.57094
1569340183.58656
1569340183.60219
1569340183.61781
1569340183.63344
1569340183.64906
1569340183.66469
1569340183.68032
1569340183.69594
1569340183.71157
1569340183.72719
1569340183.74282
1569340183.75844
1569340183.77407
1569340183.7897
1569340183.80532
1569340183.82095
1569340183.83657
1569340183.8522
1569340183.86782
1569340183.88345
1569340183.89908
1569340183.9147
1569340183.93033
1569340183.94595
1569340183.96158
1569340183.9772
1569340183.99283
1569340184.00846
1569340184.02408
1569340184.03971
1569340184.05533
1569340184.07096
1569340184.08658
1569340184.10221
1569340184.11784
1569340184.13346
1569340184.14909
1569340184.16471
1569340184.18034
1569340184.19596
1569340184.21159
1569340184.22722
1569340184.24284
1569340184.25847
1569340184.27409
1569340184.28972
1569340184.30534
1569340184.32097
1569340184.3366
1569340184.35222
1569340184.36785
1569340184.38347
1569340184.3991
1569340184.41472
1569340184.43035
1569340184.44598
1569340184.4616
1569340184.47723
1569340184.49285
1569340184.50848
1569340184.5241
1569340184.53973
1569340184.55536
1569340184.57098
1569340184.58661
1569340184.60223
1569340184.61786
1569340184.63348
1569340184.64911
1569340184.66474
1569340184.68036
1569340184.69599
1569340184.71161
1569340184.72724
1569340184.74286
1569340184.75849
1569340184.77412
1569340184.78974
1569340184.80537
1569340184.82099
1569340184.83662
1569340184.85224
1569340184.86787
1569340184.8835
1569340184.89912
1569340184.91475
1569340184.93037
1569340184.946
1569340184.96162
1569340184.97725
1569340184.99288
1569340185.0085
1569340185.02413
1569340185.03975
1569340185.05538
1569340185.071
1569340185.08663
1569340185.10226
1569340185.11788
1569340185.13351
1569340185.14913
1569340185.16476
1569340185.18038
1569340185.19601
1569340185.21164
1569340185.22726
1569340185.24289
1569340185.25851
1569340185.27414
1569340185.28976
1569340185.30539
1569340185.32102
1569340185.33664
1569340185.35227
1569340185.36789
1569340185.38352
1569340185.39914
1569340185.41477
1569340185.4304
1569340185.44602
1569340185.46165
1569340185.47727
1569340185.4929
1569340185.50852
1569340185.52415
1569340185.53978
1569340185.5554
1569340185.57103
1569340185.58665
1569340185.60228
1569340185.6179
1569340185.63353
1569340185.64916
1569340185.66478
1569340185.68041
1569340185.69603
1569340185.71166
1569340185.72728
1569340185.74291
1569340185.75854
1569340185.77416
1569340185.78979
1569340185.80541
1569340185.82104
1569340185.83666
1569340185.85229
1569340185.86792
1569340185.88354
1569340185.89917
1569340185.91479
1569340185.93042
1569340185.94604
1569340185.96167
1569340185.9773
1569340185.99292
1569340186.00855
1569340186.02417
1569340186.0398
1569340186.05542
1569340186.07105
1569340186.08668
1569340186.1023
1569340186.11793
1569340186.13355
1569340186.14918
1569340186.1648
1569340186.18043
1569340186.19606
1569340186.21168
1569340186.22731
1569340186.24293
1569340186.25856
1569340186.27419
1569340186.28981
1569340186.30544
1569340186.32106
1569340186.33669
1569340186.35231
1569340186.36794
1569340186.38357
1569340186.39919
1569340186.41482
1569340186.43044
1569340186.44607
1569340186.46169
1569340186.47732
1569340186.49295
1569340186.50857
1569340186.5242
1569340186.53982
1569340186.55545
1569340186.57107
1569340186.5867
1569340186.60233
1569340186.61795
1569340186.63358
1569340186.6492
1569340186.66483
1569340186.68045
1569340186.69608
1569340186.71171
1569340186.72733
1569340186.74296
1569340186.75858
1569340186.77421
1569340186.78983
1569340186.80546
1569340186.82109
1569340186.83671
1569340186.85234
1569340186.86796
1569340186.88359
1569340186.89921
1569340186.91484
1569340186.93047
1569340186.94609
1569340186.96172
1569340186.97734
1569340186.99297
1569340187.00859
1569340187.02422
1569340187.03985
1569340187.05547
1569340187.0711
1569340187.08672
1569340187.10235
1569340187.11797
1569340187.1336
1569340187.14923
1569340187.16485
1569340187.18048
1569340187.1961
1569340187.21173
1569340187.22735
1569340187.24298
1569340187.25861
1569340187.27423
1569340187.28986
1569340187.30548
1569340187.32111
1569340187.33673
1569340187.35236
1569340187.36799
1569340187.38361
1569340187.39924
1569340187.41486
1569340187.43049
1569340187.44611
1569340187.46174
1569340187.47737
1569340187.49299
1569340187.50862
1569340187.52424
1569340187.53987
1569340187.55549
1569340187.57112
1569340187.58675
1569340187.60237
1569340187.618
1569340187.63362
1569340187.64925
1569340187.66487
1569340187.6805
1569340187.69613
1569340187.71175
1569340187.72738
1569340187.743
1569340187.75863
1569340187.77425
1569340187.78988
1569340187.80551
1569340187.82113
1569340187.83676
1569340187.85238
1569340187.86801
1569340187.88363
1569340187.89926
1569340187.91489
1569340187.93051
1569340187.94614
1569340187.96176
1569340187.97739
1569340187.99301
1569340188.00864
1569340188.02427
1569340188.03989
1569340188.05552
1569340188.07114
1569340188.08677
1569340188.10239
1569340188.11802
1569340188.13365
1569340188.14927
1569340188.1649
1569340188.18052
1569340188.19615
1569340188.21177
1569340188.2274
1569340188.24303
1569340188.25865
1569340188.27428
1569340188.2899
1569340188.30553
1569340188.32115
1569340188.33678
1569340188.35241
1569340188.36803
1569340188.38366
1569340188.39928
1569340188.41491
1569340188.43054
1569340188.44616
1569340188.46179
1569340188.47741
1569340188.49304
1569340188.50866
1569340188.52429
1569340188.53992
1569340188.55554
1569340188.57117
1569340188.58679
1569340188.60242
1569340188.61804
1569340188.63367
1569340188.6493
1569340188.66492
1569340188.68055
1569340188.69617
1569340188.7118
1569340188.72742
1569340188.74305
1569340188.75868
1569340188.7743
1569340188.78993
1569340188.80555
1569340188.82118
1569340188.8368
1569340188.85243
1569340188.86806
1569340188.88368
1569340188.89931
1569340188.91493
1569340188.93056
1569340188.94618
1569340188.96181
1569340188.97744
1569340188.99306
1569340189.00869
1569340189.02431
1569340189.03994
1569340189.05556
1569340189.07119
1569340189.08682
1569340189.10244
1569340189.11807
1569340189.13369
1569340189.14932
1569340189.16494
1569340189.18057
1569340189.1962
1569340189.21182
1569340189.22745
1569340189.24307
1569340189.2587
1569340189.27432
1569340189.28995
1569340189.30558
1569340189.3212
1569340189.33683
1569340189.35245
1569340189.36808
1569340189.3837
1569340189.39933
1569340189.41496
1569340189.43058
1569340189.44621
1569340189.46183
1569340189.47746
1569340189.49308
1569340189.50871
1569340189.52434
1569340189.53996
1569340189.55559
1569340189.57121
1569340189.58684
1569340189.60246
1569340189.61809
1569340189.63372
1569340189.64934
1569340189.66497
1569340189.68059
1569340189.69622
1569340189.71184
1569340189.72747
1569340189.7431
1569340189.75872
1569340189.77435
1569340189.78997
1569340189.8056
1569340189.82122
1569340189.83685
1569340189.85248
1569340189.8681
1569340189.88373
1569340189.89935
1569340189.91498
1569340189.9306
1569340189.94623
1569340189.96186
1569340189.97748
1569340189.99311
1569340190.00873
1569340190.02436
1569340190.03998
1569340190.05561
1569340190.07124
1569340190.08686
1569340190.10249
1569340190.11811
1569340190.13374
1569340190.14936
1569340190.16499
1569340190.18062
1569340190.19624
1569340190.21187
1569340190.22749
1569340190.24312
1569340190.25874
1569340190.27437
1569340190.29
1569340190.30562
1569340190.32125
1569340190.33687
1569340190.3525
1569340190.36812
1569340190.38375
1569340190.39938
1569340190.415
1569340190.43063
1569340190.44625
1569340190.46188
1569340190.4775
1569340190.49313
1569340190.50876
1569340190.52438
1569340190.54001
1569340190.55563
1569340190.57126
1569340190.58688
1569340190.60251
1569340190.61814
1569340190.63376
1569340190.64939
1569340190.66501
1569340190.68064
1569340190.69626
1569340190.71189
1569340190.72752
1569340190.74314
1569340190.75877
1569340190.77439
1569340190.79002
1569340190.80564
1569340190.82127
1569340190.8369
1569340190.85252
1569340190.86815
1569340190.88377
1569340190.8994
1569340190.91503
1569340190.93065
1569340190.94628
1569340190.9619
1569340190.97753
1569340190.99315
1569340191.00878
1569340191.02441
1569340191.04003
1569340191.05566
1569340191.07128
1569340191.08691
1569340191.10253
1569340191.11816
1569340191.13379
1569340191.14941
1569340191.16504
1569340191.18066
1569340191.19629
1569340191.21191
1569340191.22754
1569340191.24317
1569340191.25879
1569340191.27442
1569340191.29004
1569340191.30567
1569340191.32129
1569340191.33692
1569340191.35255
1569340191.36817
1569340191.3838
1569340191.39942
1569340191.41505
1569340191.43067
1569340191.4463
1569340191.46193
1569340191.47755
1569340191.49318
1569340191.5088
1569340191.52443
1569340191.54005
1569340191.55568
1569340191.57131
1569340191.58693
1569340191.60256
1569340191.61818
1569340191.63381
1569340191.64943
1569340191.66506
1569340191.68069
1569340191.69631
1569340191.71194
1569340191.72756
1569340191.74319
1569340191.75881
1569340191.77444
1569340191.79007
1569340191.80569
1569340191.82132
1569340191.83694
1569340191.85257
1569340191.86819
1569340191.88382
1569340191.89945
1569340191.91507
1569340191.9307
1569340191.94632
1569340191.96195
1569340191.97757
1569340191.9932
1569340192.00883
1569340192.02445
1569340192.04008
1569340192.0557
1569340192.07133
1569340192.08695
1569340192.10258
1569340192.11821
1569340192.13383
1569340192.14946
1569340192.16508
1569340192.18071
1569340192.19633
1569340192.21196
1569340192.22759
1569340192.24321
1569340192.25884
1569340192.27446
1569340192.29009
1569340192.30571
1569340192.32134
1569340192.33697
1569340192.35259
1569340192.36822
1569340192.38384
1569340192.39947
1569340192.41509
1569340192.43072
1569340192.44635
1569340192.46197
1569340192.4776
1569340192.49322
1569340192.50885
1569340192.52447
1569340192.5401
1569340192.55573
1569340192.57135
1569340192.58698
1569340192.6026
1569340192.61823
1569340192.63385
1569340192.64948
1569340192.66511
1569340192.68073
1569340192.69636
1569340192.71198
1569340192.72761
1569340192.74323
1569340192.75886
1569340192.77449
1569340192.79011
1569340192.80574
1569340192.82136
1569340192.83699
1569340192.85261
1569340192.86824
1569340192.88387
1569340192.89949
1569340192.91512
1569340192.93074
1569340192.94637
1569340192.96199
1569340192.97762
1569340192.99325
1569340193.00887
1569340193.0245
1569340193.04012
1569340193.05575
1569340193.07137
1569340193.087
1569340193.10263
1569340193.11825
1569340193.13388
1569340193.1495
1569340193.16513
1569340193.18075
1569340193.19638
1569340193.21201
1569340193.22763
1569340193.24326
1569340193.25888
1569340193.27451
1569340193.29014
1569340193.30576
1569340193.32139
1569340193.33701
1569340193.35264
1569340193.36826
1569340193.38389
1569340193.39952
1569340193.41514
1569340193.43077
1569340193.44639
1569340193.46202
1569340193.47764
1569340193.49327
1569340193.5089
1569340193.52452
1569340193.54015
1569340193.55577
1569340193.5714
1569340193.58702
1569340193.60265
1569340193.61828
1569340193.6339
1569340193.64953
1569340193.66515
1569340193.68078
1569340193.6964
1569340193.71203
1569340193.72766
1569340193.74328
1569340193.75891
1569340193.77453
1569340193.79016
1569340193.80578
1569340193.82141
1569340193.83704
1569340193.85266
1569340193.86829
1569340193.88391
1569340193.89954
1569340193.91516
1569340193.93079
1569340193.94642
1569340193.96204
1569340193.97767
1569340193.99329
1569340194.00892
1569340194.02454
1569340194.04017
1569340194.0558
1569340194.07142
1569340194.08705
1569340194.10267
1569340194.1183
1569340194.13392
1569340194.14955
1569340194.16518
1569340194.1808
1569340194.19643
1569340194.21205
1569340194.22768
1569340194.2433
1569340194.25893
1569340194.27456
1569340194.29018
1569340194.30581
1569340194.32143
1569340194.33706
1569340194.35268
1569340194.36831
1569340194.38394
1569340194.39956
1569340194.41519
1569340194.43081
1569340194.44644
1569340194.46206
1569340194.47769
1569340194.49332
1569340194.50894
1569340194.52457
1569340194.54019
1569340194.55582
1569340194.57144
1569340194.58707
1569340194.6027
1569340194.61832
1569340194.63395
1569340194.64957
1569340194.6652
1569340194.68082
1569340194.69645
1569340194.71208
1569340194.7277
1569340194.74333
1569340194.75895
1569340194.77458
1569340194.7902
1569340194.80583
1569340194.82146
1569340194.83708
1569340194.85271
1569340194.86833
1569340194.88396
1569340194.89958
1569340194.91521
1569340194.93084
1569340194.94646
1569340194.96209
1569340194.97771
1569340194.99334
1569340195.00896
1569340195.02459
1569340195.04022
1569340195.05584
1569340195.07147
1569340195.08709
1569340195.10272
1569340195.11834
1569340195.13397
1569340195.1496
1569340195.16522
1569340195.18085
1569340195.19647
1569340195.2121
1569340195.22772
1569340195.24335
1569340195.25898
1569340195.2746
1569340195.29023
1569340195.30585
1569340195.32148
1569340195.3371
1569340195.35273
1569340195.36836
1569340195.38398
1569340195.39961
1569340195.41523
1569340195.43086
1569340195.44648
1569340195.46211
1569340195.47774
1569340195.49336
1569340195.50899
1569340195.52461
1569340195.54024
1569340195.55587
1569340195.57149
1569340195.58712
1569340195.60274
1569340195.61837
1569340195.63399
1569340195.64962
1569340195.66525
1569340195.68087
1569340195.6965
1569340195.71212
1569340195.72775
1569340195.74337
1569340195.759
1569340195.77463
1569340195.79025
1569340195.80588
1569340195.8215
1569340195.83713
1569340195.85275
1569340195.86838
1569340195.88401
1569340195.89963
1569340195.91526
1569340195.93088
1569340195.94651
1569340195.96213
1569340195.97776
1569340195.99339
1569340196.00901
1569340196.02464
1569340196.04026
1569340196.05589
1569340196.07151
1569340196.08714
1569340196.10277
1569340196.11839
1569340196.13402
1569340196.14964
1569340196.16527
1569340196.18089
1569340196.19652
1569340196.21215
1569340196.22777
1569340196.2434
1569340196.25902
1569340196.27465
1569340196.29027
1569340196.3059
1569340196.32153
1569340196.33715
1569340196.35278
1569340196.3684
1569340196.38403
1569340196.39965
1569340196.41528
1569340196.43091
1569340196.44653
1569340196.46216
1569340196.47778
1569340196.49341
1569340196.50903
1569340196.52466
1569340196.54029
1569340196.55591
1569340196.57154
1569340196.58716
1569340196.60279
1569340196.61841
1569340196.63404
1569340196.64967
1569340196.66529
1569340196.68092
1569340196.69654
1569340196.71217
1569340196.72779
1569340196.74342
1569340196.75905
1569340196.77467
1569340196.7903
1569340196.80592
1569340196.82155
1569340196.83717
1569340196.8528
1569340196.86843
1569340196.88405
1569340196.89968
1569340196.9153
1569340196.93093
1569340196.94655
1569340196.96218
1569340196.97781
1569340196.99343
1569340197.00906
1569340197.02468
1569340197.04031
1569340197.05593
1569340197.07156
1569340197.08719
1569340197.10281
1569340197.11844
1569340197.13406
1569340197.14969
1569340197.16531
1569340197.18094
1569340197.19657
1569340197.21219
1569340197.22782
1569340197.24344
1569340197.25907
1569340197.27469
1569340197.29032
1569340197.30595
1569340197.32157
1569340197.3372
1569340197.35282
1569340197.36845
1569340197.38407
1569340197.3997
1569340197.41533
1569340197.43095
1569340197.44658
1569340197.4622
1569340197.47783
1569340197.49345
1569340197.50908
1569340197.52471
1569340197.54033
1569340197.55596
1569340197.57158
1569340197.58721
1569340197.60283
1569340197.61846
1569340197.63409
1569340197.64971
1569340197.66534
1569340197.68096
1569340197.69659
1569340197.71221
1569340197.72784
1569340197.74347
1569340197.75909
1569340197.77472
1569340197.79034
1569340197.80597
1569340197.82159
1569340197.83722
1569340197.85285
1569340197.86847
1569340197.8841
1569340197.89972
1569340197.91535
1569340197.93097
1569340197.9466
1569340197.96223
1569340197.97785
1569340197.99348
1569340198.0091
1569340198.02473
1569340198.04035
1569340198.05598
1569340198.07161
1569340198.08723
1569340198.10286
1569340198.11848
1569340198.13411
1569340198.14974
1569340198.16536
1569340198.18099
1569340198.19661
1569340198.21224
1569340198.22786
1569340198.24349
1569340198.25912
1569340198.27474
1569340198.29037
1569340198.30599
1569340198.32162
1569340198.33724
1569340198.35287
1569340198.3685
1569340198.38412
1569340198.39975
1569340198.41537
1569340198.431
1569340198.44662
1569340198.46225
1569340198.47788
1569340198.4935
1569340198.50913
1569340198.52475
1569340198.54038
1569340198.556
1569340198.57163
1569340198.58726
1569340198.60288
1569340198.61851
1569340198.63413
1569340198.64976
1569340198.66538
1569340198.68101
1569340198.69664
1569340198.71226
1569340198.72789
1569340198.74351
1569340198.75914
1569340198.77476
1569340198.79039
1569340198.80602
1569340198.82164
1569340198.83727
1569340198.85289
1569340198.86852
1569340198.88414
1569340198.89977
1569340198.9154
1569340198.93102
1569340198.94665
1569340198.96227
1569340198.9779
1569340198.99352
1569340199.00915
1569340199.02478
1569340199.0404
1569340199.05603
1569340199.07165
1569340199.08728
1569340199.1029
1569340199.11853
1569340199.13416
1569340199.14978
1569340199.16541
1569340199.18103
1569340199.19666
1569340199.21228
1569340199.22791
1569340199.24354
1569340199.25916
1569340199.27479
1569340199.29041
1569340199.30604
1569340199.32166
1569340199.33729
1569340199.35292
1569340199.36854
1569340199.38417
1569340199.39979
1569340199.41542
1569340199.43104
1569340199.44667
1569340199.4623
1569340199.47792
1569340199.49355
1569340199.50917
1569340199.5248
1569340199.54042
1569340199.55605
1569340199.57168
1569340199.5873
1569340199.60293
1569340199.61855
1569340199.63418
1569340199.6498
1569340199.66543
1569340199.68106
1569340199.69668
1569340199.71231
1569340199.72793
1569340199.74356
1569340199.75918
1569340199.77481
1569340199.79044
1569340199.80606
1569340199.82169
1569340199.83731
1569340199.85294
1569340199.86856
1569340199.88419
1569340199.89982
1569340199.91544
1569340199.93107
1569340199.94669
1569340199.96232
1569340199.97794
1569340199.99357
1569340200.0092
1569340200.02482
1569340200.04045
1569340200.05607
1569340200.0717
1569340200.08732
1569340200.10295
1569340200.11858
1569340200.1342
1569340200.14983
1569340200.16545
1569340200.18108
1569340200.1967
1569340200.21233
1569340200.22796
1569340200.24358
1569340200.25921
1569340200.27483
1569340200.29046
1569340200.30608
1569340200.32171
1569340200.33734
1569340200.35296
1569340200.36859
1569340200.38421
1569340200.39984
1569340200.41547
1569340200.43109
1569340200.44672
1569340200.46234
1569340200.47797
1569340200.49359
1569340200.50922
1569340200.52485
1569340200.54047
1569340200.5561
1569340200.57172
1569340200.58735
1569340200.60297
1569340200.6186
1569340200.63423
1569340200.64985
1569340200.66548
1569340200.6811
1569340200.69673
1569340200.71235
1569340200.72798
1569340200.74361
1569340200.75923
1569340200.77486
1569340200.79048
1569340200.80611
1569340200.82173
1569340200.83736
1569340200.85299
1569340200.86861
1569340200.88424
1569340200.89986
1569340200.91549
1569340200.93111
1569340200.94674
1569340200.96237
1569340200.97799
1569340200.99362
1569340201.00924
1569340201.02487
1569340201.04049
1569340201.05612
1569340201.07175
1569340201.08737
1569340201.103
1569340201.11862
1569340201.13425
1569340201.14987
1569340201.1655
1569340201.18113
1569340201.19675
1569340201.21238
1569340201.228
1569340201.24363
1569340201.25925
1569340201.27488
1569340201.29051
1569340201.30613
1569340201.32176
1569340201.33738
1569340201.35301
1569340201.36863
1569340201.38426
1569340201.39989
1569340201.41551
1569340201.43114
1569340201.44676
1569340201.46239
1569340201.47801
1569340201.49364
1569340201.50927
1569340201.52489
1569340201.54052
1569340201.55614
1569340201.57177
1569340201.58739
1569340201.60302
1569340201.61865
1569340201.63427
1569340201.6499
1569340201.66552
1569340201.68115
1569340201.69677
1569340201.7124
1569340201.72803
1569340201.74365
1569340201.75928
1569340201.7749
1569340201.79053
1569340201.80615
1569340201.82178
1569340201.83741
1569340201.85303
1569340201.86866
1569340201.88428
1569340201.89991
1569340201.91553
1569340201.93116
1569340201.94679
1569340201.96241
1569340201.97804
1569340201.99366
1569340202.00929
1569340202.02491
1569340202.04054
1569340202.05617
1569340202.07179
1569340202.08742
1569340202.10304
1569340202.11867
1569340202.13429
1569340202.14992
1569340202.16555
1569340202.18117
1569340202.1968
1569340202.21242
1569340202.22805
1569340202.24367
1569340202.2593
1569340202.27493
1569340202.29055
1569340202.30618
1569340202.3218
1569340202.33743
1569340202.35305
1569340202.36868
1569340202.38431
1569340202.39993
1569340202.41556
1569340202.43118
1569340202.44681
1569340202.46243
1569340202.47806
1569340202.49369
1569340202.50931
1569340202.52494
1569340202.54056
1569340202.55619
1569340202.57181
1569340202.58744
1569340202.60307
1569340202.61869
1569340202.63432
1569340202.64994
1569340202.66557
1569340202.6812
1569340202.69682
1569340202.71245
1569340202.72807
1569340202.7437
1569340202.75932
1569340202.77495
1569340202.79058
1569340202.8062
1569340202.82183
1569340202.83745
1569340202.85308
1569340202.8687
1569340202.88433
1569340202.89996
1569340202.91558
1569340202.93121
1569340202.94683
1569340202.96246
1569340202.97808
1569340202.99371
1569340203.00934
1569340203.02496
1569340203.04059
1569340203.05621
1569340203.07184
1569340203.08746
1569340203.10309
1569340203.11872
1569340203.13434
1569340203.14997
1569340203.16559
1569340203.18122
1569340203.19684
1569340203.21247
1569340203.2281
1569340203.24372
1569340203.25935
1569340203.27497
1569340203.2906
1569340203.30622
1569340203.32185
1569340203.33748
1569340203.3531
1569340203.36873
1569340203.38435
1569340203.39998
1569340203.4156
1569340203.43123
1569340203.44686
1569340203.46248
1569340203.47811
1569340203.49373
1569340203.50936
1569340203.52498
1569340203.54061
1569340203.55624
1569340203.57186
1569340203.58749
1569340203.60311
1569340203.61874
1569340203.63436
1569340203.64999
1569340203.66562
1569340203.68124
1569340203.69687
1569340203.71249
1569340203.72812
1569340203.74374
1569340203.75937
1569340203.775
1569340203.79062
1569340203.80625
1569340203.82187
1569340203.8375
1569340203.85312
1569340203.86875
1569340203.88438
1569340203.9
1569340203.91563
1569340203.93125
1569340203.94688
1569340203.9625
1569340203.97813
1569340203.99376
1569340204.00938
1569340204.02501
1569340204.04063
1569340204.05626
1569340204.07188
1569340204.08751
1569340204.10314
1569340204.11876
1569340204.13439
1569340204.15001
1569340204.16564
1569340204.18126
1569340204.19689
1569340204.21252
1569340204.22814
1569340204.24377
1569340204.25939
1569340204.27502
1569340204.29064
1569340204.30627
1569340204.3219
1569340204.33752
1569340204.35315
1569340204.36877
1569340204.3844
1569340204.40002
1569340204.41565
1569340204.43128
1569340204.4469
1569340204.46253
1569340204.47815
1569340204.49378
1569340204.5094
1569340204.52503
1569340204.54066
1569340204.55628
1569340204.57191
1569340204.58753
1569340204.60316
1569340204.61878
1569340204.63441
1569340204.65004
1569340204.66566
1569340204.68129
1569340204.69691
1569340204.71254
1569340204.72816
1569340204.74379
1569340204.75942
1569340204.77504
1569340204.79067
1569340204.80629
1569340204.82192
1569340204.83754
1569340204.85317
1569340204.8688
1569340204.88442
1569340204.90005
1569340204.91567
1569340204.9313
1569340204.94692
1569340204.96255
1569340204.97818
1569340204.9938
1569340205.00943
1569340205.02505
1569340205.04068
1569340205.0563
1569340205.07193
1569340205.08756
1569340205.10318
1569340205.11881
1569340205.13443
1569340205.15006
1569340205.16568
1569340205.18131
1569340205.19694
1569340205.21256
1569340205.22819
1569340205.24381
1569340205.25944
1569340205.27507
1569340205.29069
1569340205.30632
1569340205.32194
1569340205.33757
1569340205.35319
1569340205.36882
1569340205.38445
1569340205.40007
1569340205.4157
