1569593233.6562
1569593233.67182
1569593233.68745
1569593233.70307
1569593233.7187
1569593233.73432
1569593233.74995
1569593233.76558
1569593233.7812
1569593233.79683
1569593233.81245
1569593233.82808
1569593233.8437
1569593233.85933
1569593233.87496
1569593233.89058
1569593233.90621
1569593233.92183
1569593233.93746
1569593233.95308
1569593233.96871
1569593233.98434
1569593233.99996
1569593234.01559
1569593234.03121
1569593234.04684
1569593234.06246
1569593234.07809
1569593234.09372
1569593234.10934
1569593234.12497
1569593234.14059
1569593234.15622
1569593234.17184
1569593234.18747
1569593234.2031
1569593234.21872
1569593234.23435
1569593234.24997
1569593234.2656
1569593234.28122
1569593234.29685
1569593234.31248
1569593234.3281
1569593234.34373
1569593234.35935
1569593234.37498
1569593234.3906
1569593234.40623
1569593234.42186
1569593234.43748
1569593234.45311
1569593234.46873
1569593234.48436
1569593234.49998
1569593234.51561
1569593234.53124
1569593234.54686
1569593234.56249
1569593234.57811
1569593234.59374
1569593234.60936
1569593234.62499
1569593234.64062
1569593234.65624
1569593234.67187
1569593234.68749
1569593234.70312
1569593234.71874
1569593234.73437
1569593234.75
1569593234.76562
1569593234.78125
1569593234.79687
1569593234.8125
1569593234.82812
1569593234.84375
1569593234.85938
1569593234.875
1569593234.89063
1569593234.90625
1569593234.92188
1569593234.9375
1569593234.95313
1569593234.96876
1569593234.98438
1569593235.00001
1569593235.01563
1569593235.03126
1569593235.04688
1569593235.06251
1569593235.07814
1569593235.09376
1569593235.10939
1569593235.12501
1569593235.14064
1569593235.15626
1569593235.17189
1569593235.18752
1569593235.20314
1569593235.21877
1569593235.23439
1569593235.25002
1569593235.26564
1569593235.28127
1569593235.2969
1569593235.31252
1569593235.32815
1569593235.34377
1569593235.3594
1569593235.37502
1569593235.39065
1569593235.40628
1569593235.4219
1569593235.43753
1569593235.45315
1569593235.46878
1569593235.4844
1569593235.50003
1569593235.51566
1569593235.53128
1569593235.54691
1569593235.56253
1569593235.57816
1569593235.59378
1569593235.60941
1569593235.62504
1569593235.64066
1569593235.65629
1569593235.67191
1569593235.68754
1569593235.70316
1569593235.71879
1569593235.73442
1569593235.75004
1569593235.76567
1569593235.78129
1569593235.79692
1569593235.81254
1569593235.82817
1569593235.8438
1569593235.85942
1569593235.87505
1569593235.89067
1569593235.9063
1569593235.92193
1569593235.93755
1569593235.95318
1569593235.9688
1569593235.98443
1569593236.00005
1569593236.01568
1569593236.03131
1569593236.04693
1569593236.06256
1569593236.07818
1569593236.09381
1569593236.10943
1569593236.12506
1569593236.14069
1569593236.15631
1569593236.17194
1569593236.18756
1569593236.20319
1569593236.21881
1569593236.23444
1569593236.25007
1569593236.26569
1569593236.28132
1569593236.29694
1569593236.31257
1569593236.32819
1569593236.34382
1569593236.35945
1569593236.37507
1569593236.3907
1569593236.40632
1569593236.42195
1569593236.43757
1569593236.4532
1569593236.46883
1569593236.48445
1569593236.50008
1569593236.5157
1569593236.53133
1569593236.54695
1569593236.56258
1569593236.57821
1569593236.59383
1569593236.60946
1569593236.62508
1569593236.64071
1569593236.65633
1569593236.67196
1569593236.68759
1569593236.70321
1569593236.71884
1569593236.73446
1569593236.75009
1569593236.76571
1569593236.78134
1569593236.79697
1569593236.81259
1569593236.82822
1569593236.84384
1569593236.85947
1569593236.87509
1569593236.89072
1569593236.90635
1569593236.92197
1569593236.9376
1569593236.95322
1569593236.96885
1569593236.98447
1569593237.0001
1569593237.01573
1569593237.03135
1569593237.04698
1569593237.0626
1569593237.07823
1569593237.09385
1569593237.10948
1569593237.12511
1569593237.14073
1569593237.15636
1569593237.17198
1569593237.18761
1569593237.20323
1569593237.21886
1569593237.23449
1569593237.25011
1569593237.26574
1569593237.28136
1569593237.29699
1569593237.31261
1569593237.32824
1569593237.34387
1569593237.35949
1569593237.37512
1569593237.39074
1569593237.40637
1569593237.42199
1569593237.43762
1569593237.45325
1569593237.46887
1569593237.4845
1569593237.50012
1569593237.51575
1569593237.53137
1569593237.547
1569593237.56263
1569593237.57825
1569593237.59388
1569593237.6095
1569593237.62513
1569593237.64075
1569593237.65638
1569593237.67201
1569593237.68763
1569593237.70326
1569593237.71888
1569593237.73451
1569593237.75013
1569593237.76576
1569593237.78139
1569593237.79701
1569593237.81264
1569593237.82826
1569593237.84389
1569593237.85951
1569593237.87514
1569593237.89077
1569593237.90639
1569593237.92202
1569593237.93764
1569593237.95327
1569593237.96889
1569593237.98452
1569593238.00015
1569593238.01577
1569593238.0314
1569593238.04702
1569593238.06265
1569593238.07827
1569593238.0939
1569593238.10953
1569593238.12515
1569593238.14078
1569593238.1564
1569593238.17203
1569593238.18765
1569593238.20328
1569593238.21891
1569593238.23453
1569593238.25016
1569593238.26578
1569593238.28141
1569593238.29703
1569593238.31266
1569593238.32829
1569593238.34391
1569593238.35954
1569593238.37516
1569593238.39079
1569593238.40641
1569593238.42204
1569593238.43767
1569593238.45329
1569593238.46892
1569593238.48454
1569593238.50017
1569593238.5158
1569593238.53142
1569593238.54705
1569593238.56267
1569593238.5783
1569593238.59392
1569593238.60955
1569593238.62518
1569593238.6408
1569593238.65643
1569593238.67205
1569593238.68768
1569593238.7033
1569593238.71893
1569593238.73456
1569593238.75018
1569593238.76581
1569593238.78143
1569593238.79706
1569593238.81268
1569593238.82831
1569593238.84394
1569593238.85956
1569593238.87519
1569593238.89081
1569593238.90644
1569593238.92206
1569593238.93769
1569593238.95332
1569593238.96894
1569593238.98457
1569593239.00019
1569593239.01582
1569593239.03144
1569593239.04707
1569593239.0627
1569593239.07832
1569593239.09395
1569593239.10957
1569593239.1252
1569593239.14082
1569593239.15645
1569593239.17208
1569593239.1877
1569593239.20333
1569593239.21895
1569593239.23458
1569593239.2502
1569593239.26583
1569593239.28146
1569593239.29708
1569593239.31271
1569593239.32833
1569593239.34396
1569593239.35958
1569593239.37521
1569593239.39084
1569593239.40646
1569593239.42209
1569593239.43771
1569593239.45334
1569593239.46896
1569593239.48459
1569593239.50022
1569593239.51584
1569593239.53147
1569593239.54709
1569593239.56272
1569593239.57834
1569593239.59397
1569593239.6096
1569593239.62522
1569593239.64085
1569593239.65647
1569593239.6721
1569593239.68772
1569593239.70335
1569593239.71898
1569593239.7346
1569593239.75023
1569593239.76585
1569593239.78148
1569593239.7971
1569593239.81273
1569593239.82836
1569593239.84398
1569593239.85961
1569593239.87523
1569593239.89086
1569593239.90648
1569593239.92211
1569593239.93774
1569593239.95336
1569593239.96899
1569593239.98461
1569593240.00024
1569593240.01586
1569593240.03149
1569593240.04712
1569593240.06274
1569593240.07837
1569593240.09399
1569593240.10962
1569593240.12524
1569593240.14087
1569593240.1565
1569593240.17212
1569593240.18775
1569593240.20337
1569593240.219
1569593240.23462
1569593240.25025
1569593240.26588
1569593240.2815
1569593240.29713
1569593240.31275
1569593240.32838
1569593240.344
1569593240.35963
1569593240.37526
1569593240.39088
1569593240.40651
1569593240.42213
1569593240.43776
1569593240.45338
1569593240.46901
1569593240.48464
1569593240.50026
1569593240.51589
1569593240.53151
1569593240.54714
1569593240.56276
1569593240.57839
1569593240.59402
1569593240.60964
1569593240.62527
1569593240.64089
1569593240.65652
1569593240.67214
1569593240.68777
1569593240.7034
1569593240.71902
1569593240.73465
1569593240.75027
1569593240.7659
1569593240.78153
1569593240.79715
1569593240.81278
1569593240.8284
1569593240.84403
1569593240.85965
1569593240.87528
1569593240.89091
1569593240.90653
1569593240.92216
1569593240.93778
1569593240.95341
1569593240.96903
1569593240.98466
1569593241.00029
1569593241.01591
1569593241.03154
1569593241.04716
1569593241.06279
1569593241.07841
1569593241.09404
1569593241.10967
1569593241.12529
1569593241.14092
1569593241.15654
1569593241.17217
1569593241.18779
1569593241.20342
1569593241.21905
1569593241.23467
1569593241.2503
1569593241.26592
1569593241.28155
1569593241.29717
1569593241.3128
1569593241.32843
1569593241.34405
1569593241.35968
1569593241.3753
1569593241.39093
1569593241.40655
1569593241.42218
1569593241.43781
1569593241.45343
1569593241.46906
1569593241.48468
1569593241.50031
1569593241.51593
1569593241.53156
1569593241.54719
1569593241.56281
1569593241.57844
1569593241.59406
1569593241.60969
1569593241.62531
1569593241.64094
1569593241.65657
1569593241.67219
1569593241.68782
1569593241.70344
1569593241.71907
1569593241.73469
1569593241.75032
1569593241.76595
1569593241.78157
1569593241.7972
1569593241.81282
1569593241.82845
1569593241.84407
1569593241.8597
1569593241.87533
1569593241.89095
1569593241.90658
1569593241.9222
1569593241.93783
1569593241.95345
1569593241.96908
1569593241.98471
1569593242.00033
1569593242.01596
1569593242.03158
1569593242.04721
1569593242.06283
1569593242.07846
1569593242.09409
1569593242.10971
1569593242.12534
1569593242.14096
1569593242.15659
1569593242.17221
1569593242.18784
1569593242.20347
1569593242.21909
1569593242.23472
1569593242.25034
1569593242.26597
1569593242.28159
1569593242.29722
1569593242.31285
1569593242.32847
1569593242.3441
1569593242.35972
1569593242.37535
1569593242.39097
1569593242.4066
1569593242.42223
1569593242.43785
1569593242.45348
1569593242.4691
1569593242.48473
1569593242.50035
1569593242.51598
1569593242.53161
1569593242.54723
1569593242.56286
1569593242.57848
1569593242.59411
1569593242.60973
1569593242.62536
1569593242.64099
1569593242.65661
1569593242.67224
1569593242.68786
1569593242.70349
1569593242.71911
1569593242.73474
1569593242.75037
1569593242.76599
1569593242.78162
1569593242.79724
1569593242.81287
1569593242.82849
1569593242.84412
1569593242.85975
1569593242.87537
1569593242.891
1569593242.90662
1569593242.92225
1569593242.93788
1569593242.9535
1569593242.96913
1569593242.98475
1569593243.00038
1569593243.016
1569593243.03163
1569593243.04726
1569593243.06288
1569593243.07851
1569593243.09413
1569593243.10976
1569593243.12538
1569593243.14101
1569593243.15664
1569593243.17226
1569593243.18789
1569593243.20351
1569593243.21914
1569593243.23476
1569593243.25039
1569593243.26602
1569593243.28164
1569593243.29727
1569593243.31289
1569593243.32852
1569593243.34414
1569593243.35977
1569593243.3754
1569593243.39102
1569593243.40665
1569593243.42227
1569593243.4379
1569593243.45352
1569593243.46915
1569593243.48478
1569593243.5004
1569593243.51603
1569593243.53165
1569593243.54728
1569593243.5629
1569593243.57853
1569593243.59416
1569593243.60978
1569593243.62541
1569593243.64103
1569593243.65666
1569593243.67228
1569593243.68791
1569593243.70354
1569593243.71916
1569593243.73479
1569593243.75041
1569593243.76604
1569593243.78166
1569593243.79729
1569593243.81292
1569593243.82854
1569593243.84417
1569593243.85979
1569593243.87542
1569593243.89104
1569593243.90667
1569593243.9223
1569593243.93792
1569593243.95355
1569593243.96917
1569593243.9848
1569593244.00042
1569593244.01605
1569593244.03168
1569593244.0473
1569593244.06293
1569593244.07855
1569593244.09418
1569593244.1098
1569593244.12543
1569593244.14106
1569593244.15668
1569593244.17231
1569593244.18793
1569593244.20356
1569593244.21918
1569593244.23481
1569593244.25044
1569593244.26606
1569593244.28169
1569593244.29731
1569593244.31294
1569593244.32856
1569593244.34419
1569593244.35982
1569593244.37544
1569593244.39107
1569593244.40669
1569593244.42232
1569593244.43794
1569593244.45357
1569593244.4692
1569593244.48482
1569593244.50045
1569593244.51607
1569593244.5317
1569593244.54732
1569593244.56295
1569593244.57858
1569593244.5942
1569593244.60983
1569593244.62545
1569593244.64108
1569593244.6567
1569593244.67233
1569593244.68796
1569593244.70358
1569593244.71921
1569593244.73483
1569593244.75046
1569593244.76608
1569593244.78171
1569593244.79734
1569593244.81296
1569593244.82859
1569593244.84421
1569593244.85984
1569593244.87546
1569593244.89109
1569593244.90672
1569593244.92234
1569593244.93797
1569593244.95359
1569593244.96922
1569593244.98484
1569593245.00047
1569593245.0161
1569593245.03172
1569593245.04735
1569593245.06297
1569593245.0786
1569593245.09422
1569593245.10985
1569593245.12548
1569593245.1411
1569593245.15673
1569593245.17235
1569593245.18798
1569593245.2036
1569593245.21923
1569593245.23486
1569593245.25048
1569593245.26611
1569593245.28173
1569593245.29736
1569593245.31298
1569593245.32861
1569593245.34424
1569593245.35986
1569593245.37549
1569593245.39111
1569593245.40674
1569593245.42236
1569593245.43799
1569593245.45362
1569593245.46924
1569593245.48487
1569593245.50049
1569593245.51612
1569593245.53174
1569593245.54737
1569593245.563
1569593245.57862
1569593245.59425
1569593245.60987
1569593245.6255
1569593245.64113
1569593245.65675
1569593245.67238
1569593245.688
1569593245.70363
1569593245.71925
1569593245.73488
1569593245.75051
1569593245.76613
1569593245.78176
1569593245.79738
1569593245.81301
1569593245.82863
1569593245.84426
1569593245.85989
1569593245.87551
1569593245.89114
1569593245.90676
1569593245.92239
1569593245.93801
1569593245.95364
1569593245.96927
1569593245.98489
1569593246.00052
1569593246.01614
1569593246.03177
1569593246.04739
1569593246.06302
1569593246.07865
1569593246.09427
1569593246.1099
1569593246.12552
1569593246.14115
1569593246.15677
1569593246.1724
1569593246.18803
1569593246.20365
1569593246.21928
1569593246.2349
1569593246.25053
1569593246.26615
1569593246.28178
1569593246.29741
1569593246.31303
1569593246.32866
1569593246.34428
1569593246.35991
1569593246.37553
1569593246.39116
1569593246.40679
1569593246.42241
1569593246.43804
1569593246.45366
1569593246.46929
1569593246.48491
1569593246.50054
1569593246.51617
1569593246.53179
1569593246.54742
1569593246.56304
1569593246.57867
1569593246.59429
1569593246.60992
1569593246.62555
1569593246.64117
1569593246.6568
1569593246.67242
1569593246.68805
1569593246.70367
1569593246.7193
1569593246.73493
1569593246.75055
1569593246.76618
1569593246.7818
1569593246.79743
1569593246.81305
1569593246.82868
1569593246.84431
1569593246.85993
1569593246.87556
1569593246.89118
1569593246.90681
1569593246.92243
1569593246.93806
1569593246.95369
1569593246.96931
1569593246.98494
1569593247.00056
1569593247.01619
1569593247.03181
1569593247.04744
1569593247.06307
1569593247.07869
1569593247.09432
1569593247.10994
1569593247.12557
1569593247.14119
1569593247.15682
1569593247.17245
1569593247.18807
1569593247.2037
1569593247.21932
1569593247.23495
1569593247.25057
1569593247.2662
1569593247.28183
1569593247.29745
1569593247.31308
1569593247.3287
1569593247.34433
1569593247.35995
1569593247.37558
1569593247.39121
1569593247.40683
1569593247.42246
1569593247.43808
1569593247.45371
1569593247.46933
1569593247.48496
1569593247.50059
1569593247.51621
1569593247.53184
1569593247.54746
1569593247.56309
1569593247.57871
1569593247.59434
1569593247.60997
1569593247.62559
1569593247.64122
1569593247.65684
1569593247.67247
1569593247.68809
1569593247.70372
1569593247.71935
1569593247.73497
1569593247.7506
1569593247.76622
1569593247.78185
1569593247.79747
1569593247.8131
1569593247.82873
1569593247.84435
1569593247.85998
1569593247.8756
1569593247.89123
1569593247.90686
1569593247.92248
1569593247.93811
1569593247.95373
1569593247.96936
1569593247.98498
1569593248.00061
1569593248.01624
1569593248.03186
1569593248.04749
1569593248.06311
1569593248.07874
1569593248.09436
1569593248.10999
1569593248.12562
1569593248.14124
1569593248.15687
1569593248.17249
1569593248.18812
1569593248.20374
1569593248.21937
1569593248.235
1569593248.25062
1569593248.26625
1569593248.28187
1569593248.2975
1569593248.31312
1569593248.32875
1569593248.34438
1569593248.36
1569593248.37563
1569593248.39125
1569593248.40688
1569593248.4225
1569593248.43813
1569593248.45376
1569593248.46938
1569593248.48501
1569593248.50063
1569593248.51626
1569593248.53188
1569593248.54751
1569593248.56314
1569593248.57876
1569593248.59439
1569593248.61001
1569593248.62564
1569593248.64126
1569593248.65689
1569593248.67252
1569593248.68814
1569593248.70377
1569593248.71939
1569593248.73502
1569593248.75064
1569593248.76627
1569593248.7819
1569593248.79752
1569593248.81315
1569593248.82877
1569593248.8444
1569593248.86002
1569593248.87565
1569593248.89128
1569593248.9069
1569593248.92253
1569593248.93815
1569593248.95378
1569593248.9694
1569593248.98503
1569593249.00066
1569593249.01628
1569593249.03191
1569593249.04753
1569593249.06316
1569593249.07878
1569593249.09441
1569593249.11004
1569593249.12566
1569593249.14129
1569593249.15691
1569593249.17254
1569593249.18816
1569593249.20379
1569593249.21942
1569593249.23504
1569593249.25067
1569593249.26629
1569593249.28192
1569593249.29754
1569593249.31317
1569593249.3288
1569593249.34442
1569593249.36005
1569593249.37567
1569593249.3913
1569593249.40692
1569593249.42255
1569593249.43818
1569593249.4538
1569593249.46943
1569593249.48505
1569593249.50068
1569593249.5163
1569593249.53193
1569593249.54756
1569593249.56318
1569593249.57881
1569593249.59443
1569593249.61006
1569593249.62568
1569593249.64131
1569593249.65694
1569593249.67256
1569593249.68819
1569593249.70381
1569593249.71944
1569593249.73506
1569593249.75069
1569593249.76632
1569593249.78194
1569593249.79757
1569593249.81319
1569593249.82882
1569593249.84444
1569593249.86007
1569593249.8757
1569593249.89132
1569593249.90695
1569593249.92257
1569593249.9382
1569593249.95382
1569593249.96945
1569593249.98508
1569593250.0007
1569593250.01633
1569593250.03195
1569593250.04758
1569593250.06321
1569593250.07883
1569593250.09446
1569593250.11008
1569593250.12571
1569593250.14133
1569593250.15696
1569593250.17259
1569593250.18821
1569593250.20384
1569593250.21946
1569593250.23509
1569593250.25071
1569593250.26634
1569593250.28197
1569593250.29759
1569593250.31322
1569593250.32884
1569593250.34447
1569593250.36009
1569593250.37572
1569593250.39135
1569593250.40697
1569593250.4226
1569593250.43822
1569593250.45385
1569593250.46947
1569593250.4851
1569593250.50073
1569593250.51635
1569593250.53198
1569593250.5476
1569593250.56323
1569593250.57885
1569593250.59448
1569593250.61011
1569593250.62573
1569593250.64136
1569593250.65698
1569593250.67261
1569593250.68823
1569593250.70386
1569593250.71949
1569593250.73511
1569593250.75074
1569593250.76636
1569593250.78199
1569593250.79761
1569593250.81324
1569593250.82887
1569593250.84449
1569593250.86012
1569593250.87574
1569593250.89137
1569593250.90699
1569593250.92262
1569593250.93825
1569593250.95387
1569593250.9695
1569593250.98512
1569593251.00075
1569593251.01637
1569593251.032
1569593251.04763
1569593251.06325
1569593251.07888
1569593251.0945
1569593251.11013
1569593251.12575
1569593251.14138
1569593251.15701
1569593251.17263
1569593251.18826
1569593251.20388
1569593251.21951
1569593251.23513
1569593251.25076
1569593251.26639
1569593251.28201
1569593251.29764
1569593251.31326
1569593251.32889
1569593251.34451
1569593251.36014
1569593251.37577
1569593251.39139
1569593251.40702
1569593251.42264
1569593251.43827
1569593251.45389
1569593251.46952
1569593251.48515
1569593251.50077
1569593251.5164
1569593251.53202
1569593251.54765
1569593251.56327
1569593251.5789
1569593251.59453
1569593251.61015
1569593251.62578
1569593251.6414
1569593251.65703
1569593251.67265
1569593251.68828
1569593251.70391
1569593251.71953
1569593251.73516
1569593251.75078
1569593251.76641
1569593251.78203
1569593251.79766
1569593251.81329
1569593251.82891
1569593251.84454
1569593251.86016
1569593251.87579
1569593251.89141
1569593251.90704
1569593251.92267
1569593251.93829
1569593251.95392
1569593251.96954
1569593251.98517
1569593252.00079
1569593252.01642
1569593252.03205
1569593252.04767
1569593252.0633
1569593252.07892
1569593252.09455
1569593252.11017
1569593252.1258
1569593252.14143
1569593252.15705
1569593252.17268
1569593252.1883
1569593252.20393
1569593252.21955
1569593252.23518
1569593252.25081
1569593252.26643
1569593252.28206
1569593252.29768
1569593252.31331
1569593252.32893
1569593252.34456
1569593252.36019
1569593252.37581
1569593252.39144
1569593252.40706
1569593252.42269
1569593252.43831
1569593252.45394
1569593252.46957
1569593252.48519
1569593252.50082
1569593252.51644
1569593252.53207
1569593252.54769
1569593252.56332
1569593252.57895
1569593252.59457
1569593252.6102
1569593252.62582
1569593252.64145
1569593252.65707
1569593252.6727
1569593252.68833
1569593252.70395
1569593252.71958
1569593252.7352
1569593252.75083
1569593252.76646
1569593252.78208
1569593252.79771
1569593252.81333
1569593252.82896
1569593252.84458
1569593252.86021
1569593252.87584
1569593252.89146
1569593252.90709
1569593252.92271
1569593252.93834
1569593252.95396
1569593252.96959
1569593252.98522
1569593253.00084
1569593253.01647
1569593253.03209
1569593253.04772
1569593253.06334
1569593253.07897
1569593253.0946
1569593253.11022
1569593253.12585
1569593253.14147
1569593253.1571
1569593253.17272
1569593253.18835
1569593253.20398
1569593253.2196
1569593253.23523
1569593253.25085
1569593253.26648
1569593253.2821
1569593253.29773
1569593253.31336
1569593253.32898
1569593253.34461
1569593253.36023
1569593253.37586
1569593253.39148
1569593253.40711
1569593253.42274
1569593253.43836
1569593253.45399
1569593253.46961
1569593253.48524
1569593253.50086
1569593253.51649
1569593253.53212
1569593253.54774
1569593253.56337
1569593253.57899
1569593253.59462
1569593253.61024
1569593253.62587
1569593253.6415
1569593253.65712
1569593253.67275
1569593253.68837
1569593253.704
1569593253.71962
1569593253.73525
1569593253.75088
1569593253.7665
1569593253.78213
1569593253.79775
1569593253.81338
1569593253.829
1569593253.84463
1569593253.86026
1569593253.87588
1569593253.89151
1569593253.90713
1569593253.92276
1569593253.93838
1569593253.95401
1569593253.96964
1569593253.98526
1569593254.00089
1569593254.01651
1569593254.03214
1569593254.04776
1569593254.06339
1569593254.07902
1569593254.09464
1569593254.11027
1569593254.12589
1569593254.14152
1569593254.15714
1569593254.17277
1569593254.1884
1569593254.20402
1569593254.21965
1569593254.23527
1569593254.2509
1569593254.26652
1569593254.28215
1569593254.29778
1569593254.3134
1569593254.32903
1569593254.34465
1569593254.36028
1569593254.3759
1569593254.39153
1569593254.40716
1569593254.42278
1569593254.43841
1569593254.45403
1569593254.46966
1569593254.48528
1569593254.50091
1569593254.51654
1569593254.53216
1569593254.54779
1569593254.56341
1569593254.57904
1569593254.59466
1569593254.61029
1569593254.62592
1569593254.64154
1569593254.65717
1569593254.67279
1569593254.68842
1569593254.70404
1569593254.71967
1569593254.7353
1569593254.75092
1569593254.76655
1569593254.78217
1569593254.7978
1569593254.81342
1569593254.82905
1569593254.84468
1569593254.8603
1569593254.87593
1569593254.89155
1569593254.90718
1569593254.92281
1569593254.93843
1569593254.95406
1569593254.96968
1569593254.98531
1569593255.00093
1569593255.01656
1569593255.03219
1569593255.04781
1569593255.06344
1569593255.07906
1569593255.09469
1569593255.11031
1569593255.12594
1569593255.14157
1569593255.15719
1569593255.17282
1569593255.18844
1569593255.20407
1569593255.21969
1569593255.23532
1569593255.25095
1569593255.26657
1569593255.2822
1569593255.29782
1569593255.31345
1569593255.32907
1569593255.3447
1569593255.36033
1569593255.37595
1569593255.39158
1569593255.4072
1569593255.42283
1569593255.43845
1569593255.45408
1569593255.46971
1569593255.48533
1569593255.50096
1569593255.51658
1569593255.53221
1569593255.54783
1569593255.56346
1569593255.57909
1569593255.59471
1569593255.61034
1569593255.62596
1569593255.64159
1569593255.65721
1569593255.67284
1569593255.68847
1569593255.70409
1569593255.71972
1569593255.73534
1569593255.75097
1569593255.76659
1569593255.78222
1569593255.79785
1569593255.81347
1569593255.8291
1569593255.84472
1569593255.86035
1569593255.87597
1569593255.8916
1569593255.90723
1569593255.92285
1569593255.93848
1569593255.9541
1569593255.96973
1569593255.98535
1569593256.00098
1569593256.01661
1569593256.03223
1569593256.04786
1569593256.06348
1569593256.07911
1569593256.09473
1569593256.11036
1569593256.12599
1569593256.14161
1569593256.15724
1569593256.17286
1569593256.18849
1569593256.20411
1569593256.21974
1569593256.23537
1569593256.25099
1569593256.26662
1569593256.28224
1569593256.29787
1569593256.31349
1569593256.32912
1569593256.34475
1569593256.36037
1569593256.376
1569593256.39162
1569593256.40725
1569593256.42287
1569593256.4385
1569593256.45413
1569593256.46975
1569593256.48538
1569593256.501
1569593256.51663
1569593256.53225
1569593256.54788
1569593256.56351
1569593256.57913
1569593256.59476
1569593256.61038
1569593256.62601
1569593256.64163
1569593256.65726
1569593256.67289
1569593256.68851
1569593256.70414
1569593256.71976
1569593256.73539
1569593256.75101
1569593256.76664
1569593256.78227
1569593256.79789
1569593256.81352
1569593256.82914
1569593256.84477
1569593256.86039
1569593256.87602
1569593256.89165
1569593256.90727
1569593256.9229
1569593256.93852
1569593256.95415
1569593256.96977
1569593256.9854
1569593257.00103
1569593257.01665
1569593257.03228
1569593257.0479
1569593257.06353
1569593257.07915
1569593257.09478
1569593257.11041
1569593257.12603
1569593257.14166
1569593257.15728
1569593257.17291
1569593257.18853
1569593257.20416
1569593257.21979
1569593257.23541
1569593257.25104
1569593257.26666
1569593257.28229
1569593257.29791
1569593257.31354
1569593257.32917
1569593257.34479
1569593257.36042
1569593257.37604
1569593257.39167
1569593257.40729
1569593257.42292
1569593257.43855
1569593257.45417
1569593257.4698
1569593257.48542
1569593257.50105
1569593257.51668
1569593257.5323
1569593257.54793
1569593257.56355
1569593257.57918
1569593257.5948
1569593257.61043
1569593257.62606
1569593257.64168
1569593257.65731
1569593257.67293
1569593257.68856
1569593257.70418
1569593257.71981
1569593257.73544
1569593257.75106
1569593257.76669
1569593257.78231
1569593257.79794
1569593257.81356
1569593257.82919
1569593257.84482
1569593257.86044
1569593257.87607
1569593257.89169
1569593257.90732
1569593257.92294
1569593257.93857
1569593257.9542
1569593257.96982
1569593257.98545
1569593258.00107
1569593258.0167
1569593258.03232
1569593258.04795
1569593258.06358
1569593258.0792
1569593258.09483
1569593258.11045
1569593258.12608
1569593258.1417
1569593258.15733
1569593258.17296
1569593258.18858
1569593258.20421
1569593258.21983
1569593258.23546
1569593258.25108
1569593258.26671
1569593258.28234
1569593258.29796
1569593258.31359
1569593258.32921
1569593258.34484
1569593258.36046
1569593258.37609
1569593258.39172
1569593258.40734
1569593258.42297
1569593258.43859
1569593258.45422
1569593258.46984
1569593258.48547
1569593258.5011
1569593258.51672
1569593258.53235
1569593258.54797
1569593258.5636
1569593258.57922
1569593258.59485
1569593258.61048
1569593258.6261
1569593258.64173
1569593258.65735
1569593258.67298
1569593258.6886
1569593258.70423
1569593258.71986
1569593258.73548
1569593258.75111
1569593258.76673
1569593258.78236
1569593258.79798
1569593258.81361
1569593258.82924
1569593258.84486
1569593258.86049
1569593258.87611
1569593258.89174
1569593258.90736
1569593258.92299
1569593258.93862
1569593258.95424
1569593258.96987
1569593258.98549
1569593259.00112
1569593259.01674
1569593259.03237
1569593259.048
1569593259.06362
1569593259.07925
1569593259.09487
1569593259.1105
1569593259.12612
1569593259.14175
1569593259.15738
1569593259.173
1569593259.18863
1569593259.20425
1569593259.21988
1569593259.2355
1569593259.25113
1569593259.26676
1569593259.28238
1569593259.29801
1569593259.31363
1569593259.32926
1569593259.34488
1569593259.36051
1569593259.37614
1569593259.39176
1569593259.40739
1569593259.42301
1569593259.43864
1569593259.45426
1569593259.46989
1569593259.48552
1569593259.50114
1569593259.51677
1569593259.53239
1569593259.54802
1569593259.56364
1569593259.57927
1569593259.5949
1569593259.61052
1569593259.62615
1569593259.64177
1569593259.6574
1569593259.67302
1569593259.68865
1569593259.70428
1569593259.7199
1569593259.73553
1569593259.75115
1569593259.76678
1569593259.78241
1569593259.79803
1569593259.81366
1569593259.82928
1569593259.84491
1569593259.86053
1569593259.87616
1569593259.89179
1569593259.90741
1569593259.92304
1569593259.93866
1569593259.95429
1569593259.96991
1569593259.98554
1569593260.00117
1569593260.01679
1569593260.03242
1569593260.04804
1569593260.06367
1569593260.07929
1569593260.09492
1569593260.11055
1569593260.12617
1569593260.1418
1569593260.15742
1569593260.17305
1569593260.18867
1569593260.2043
1569593260.21993
1569593260.23555
1569593260.25118
1569593260.2668
1569593260.28243
1569593260.29805
1569593260.31368
1569593260.32931
1569593260.34493
1569593260.36056
1569593260.37618
1569593260.39181
1569593260.40743
1569593260.42306
1569593260.43869
1569593260.45431
1569593260.46994
1569593260.48556
1569593260.50119
1569593260.51681
1569593260.53244
1569593260.54807
1569593260.56369
1569593260.57932
1569593260.59494
1569593260.61057
1569593260.62619
1569593260.64182
1569593260.65745
1569593260.67307
1569593260.6887
1569593260.70432
1569593260.71995
1569593260.73557
1569593260.7512
1569593260.76683
1569593260.78245
1569593260.79808
1569593260.8137
1569593260.82933
1569593260.84495
1569593260.86058
1569593260.87621
1569593260.89183
1569593260.90746
1569593260.92308
1569593260.93871
1569593260.95433
1569593260.96996
1569593260.98559
1569593261.00121
1569593261.01684
1569593261.03246
1569593261.04809
1569593261.06371
1569593261.07934
1569593261.09497
1569593261.11059
1569593261.12622
1569593261.14184
1569593261.15747
1569593261.17309
1569593261.18872
1569593261.20435
1569593261.21997
1569593261.2356
1569593261.25122
1569593261.26685
1569593261.28247
1569593261.2981
1569593261.31373
1569593261.32935
1569593261.34498
1569593261.3606
1569593261.37623
1569593261.39185
1569593261.40748
1569593261.42311
1569593261.43873
1569593261.45436
1569593261.46998
1569593261.48561
1569593261.50123
1569593261.51686
1569593261.53249
1569593261.54811
1569593261.56374
1569593261.57936
1569593261.59499
1569593261.61061
1569593261.62624
1569593261.64187
1569593261.65749
1569593261.67312
1569593261.68874
1569593261.70437
1569593261.71999
1569593261.73562
1569593261.75125
1569593261.76687
1569593261.7825
1569593261.79812
1569593261.81375
1569593261.82937
1569593261.845
1569593261.86063
1569593261.87625
1569593261.89188
1569593261.9075
1569593261.92313
1569593261.93875
1569593261.95438
1569593261.97001
1569593261.98563
1569593262.00126
1569593262.01688
1569593262.03251
1569593262.04814
1569593262.06376
1569593262.07939
1569593262.09501
1569593262.11064
1569593262.12626
1569593262.14189
1569593262.15752
1569593262.17314
1569593262.18877
1569593262.20439
1569593262.22002
1569593262.23564
1569593262.25127
1569593262.2669
1569593262.28252
1569593262.29815
1569593262.31377
1569593262.3294
1569593262.34502
1569593262.36065
1569593262.37628
1569593262.3919
1569593262.40753
1569593262.42315
1569593262.43878
1569593262.4544
1569593262.47003
1569593262.48566
1569593262.50128
1569593262.51691
1569593262.53253
1569593262.54816
1569593262.56378
1569593262.57941
1569593262.59504
1569593262.61066
1569593262.62629
1569593262.64191
1569593262.65754
1569593262.67316
1569593262.68879
1569593262.70442
1569593262.72004
1569593262.73567
1569593262.75129
1569593262.76692
1569593262.78254
1569593262.79817
1569593262.8138
1569593262.82942
1569593262.84505
1569593262.86067
1569593262.8763
1569593262.89192
1569593262.90755
1569593262.92318
1569593262.9388
1569593262.95443
1569593262.97005
1569593262.98568
1569593263.0013
1569593263.01693
1569593263.03256
1569593263.04818
1569593263.06381
1569593263.07943
1569593263.09506
1569593263.11068
1569593263.12631
1569593263.14194
1569593263.15756
1569593263.17319
1569593263.18881
1569593263.20444
1569593263.22006
1569593263.23569
1569593263.25132
1569593263.26694
1569593263.28257
1569593263.29819
1569593263.31382
1569593263.32944
1569593263.34507
1569593263.3607
1569593263.37632
1569593263.39195
1569593263.40757
1569593263.4232
1569593263.43882
1569593263.45445
1569593263.47008
1569593263.4857
1569593263.50133
1569593263.51695
1569593263.53258
1569593263.5482
1569593263.56383
1569593263.57946
1569593263.59508
1569593263.61071
1569593263.62633
1569593263.64196
1569593263.65758
1569593263.67321
1569593263.68884
1569593263.70446
1569593263.72009
1569593263.73571
1569593263.75134
1569593263.76696
1569593263.78259
1569593263.79822
1569593263.81384
1569593263.82947
1569593263.84509
1569593263.86072
1569593263.87634
1569593263.89197
1569593263.9076
1569593263.92322
1569593263.93885
1569593263.95447
1569593263.9701
1569593263.98572
1569593264.00135
1569593264.01698
1569593264.0326
1569593264.04823
1569593264.06385
1569593264.07948
1569593264.0951
1569593264.11073
1569593264.12636
1569593264.14198
1569593264.15761
1569593264.17323
1569593264.18886
1569593264.20448
1569593264.22011
1569593264.23574
1569593264.25136
1569593264.26699
1569593264.28261
1569593264.29824
1569593264.31386
1569593264.32949
1569593264.34512
1569593264.36074
1569593264.37637
1569593264.39199
1569593264.40762
1569593264.42324
1569593264.43887
1569593264.4545
1569593264.47012
1569593264.48575
1569593264.50137
1569593264.517
1569593264.53262
1569593264.54825
1569593264.56388
1569593264.5795
1569593264.59513
1569593264.61075
1569593264.62638
1569593264.64201
1569593264.65763
1569593264.67326
1569593264.68888
1569593264.70451
1569593264.72013
1569593264.73576
1569593264.75139
1569593264.76701
1569593264.78264
1569593264.79826
1569593264.81389
1569593264.82951
1569593264.84514
1569593264.86077
1569593264.87639
1569593264.89202
1569593264.90764
1569593264.92327
1569593264.93889
1569593264.95452
1569593264.97015
1569593264.98577
1569593265.0014
1569593265.01702
1569593265.03265
1569593265.04827
1569593265.0639
1569593265.07953
1569593265.09515
1569593265.11078
1569593265.1264
1569593265.14203
1569593265.15765
1569593265.17328
1569593265.18891
1569593265.20453
1569593265.22016
1569593265.23578
1569593265.25141
1569593265.26703
1569593265.28266
1569593265.29829
1569593265.31391
1569593265.32954
1569593265.34516
1569593265.36079
1569593265.37641
1569593265.39204
1569593265.40767
1569593265.42329
1569593265.43892
1569593265.45454
1569593265.47017
1569593265.48579
1569593265.50142
1569593265.51705
1569593265.53267
1569593265.5483
1569593265.56392
1569593265.57955
1569593265.59517
1569593265.6108
1569593265.62643
1569593265.64205
1569593265.65768
1569593265.6733
1569593265.68893
1569593265.70455
1569593265.72018
1569593265.73581
1569593265.75143
1569593265.76706
1569593265.78268
1569593265.79831
1569593265.81393
1569593265.82956
1569593265.84519
1569593265.86081
1569593265.87644
1569593265.89206
1569593265.90769
1569593265.92331
1569593265.93894
1569593265.95457
1569593265.97019
1569593265.98582
1569593266.00144
1569593266.01707
1569593266.03269
1569593266.04832
1569593266.06395
1569593266.07957
1569593266.0952
1569593266.11082
1569593266.12645
1569593266.14207
1569593266.1577
1569593266.17333
1569593266.18895
1569593266.20458
1569593266.2202
1569593266.23583
1569593266.25145
1569593266.26708
1569593266.28271
1569593266.29833
1569593266.31396
1569593266.32958
1569593266.34521
1569593266.36083
1569593266.37646
1569593266.39209
1569593266.40771
1569593266.42334
1569593266.43896
1569593266.45459
1569593266.47021
1569593266.48584
1569593266.50147
1569593266.51709
1569593266.53272
1569593266.54834
1569593266.56397
1569593266.57959
1569593266.59522
1569593266.61085
1569593266.62647
1569593266.6421
1569593266.65772
1569593266.67335
1569593266.68897
1569593266.7046
1569593266.72023
1569593266.73585
1569593266.75148
1569593266.7671
1569593266.78273
1569593266.79835
1569593266.81398
1569593266.82961
1569593266.84523
1569593266.86086
1569593266.87648
1569593266.89211
1569593266.90774
1569593266.92336
1569593266.93899
1569593266.95461
1569593266.97024
1569593266.98586
1569593267.00149
1569593267.01712
1569593267.03274
1569593267.04837
1569593267.06399
1569593267.07962
1569593267.09524
1569593267.11087
1569593267.1265
1569593267.14212
1569593267.15775
1569593267.17337
1569593267.189
1569593267.20462
1569593267.22025
1569593267.23588
1569593267.2515
1569593267.26713
1569593267.28275
1569593267.29838
1569593267.314
1569593267.32963
1569593267.34526
1569593267.36088
1569593267.37651
1569593267.39213
1569593267.40776
1569593267.42338
1569593267.43901
1569593267.45464
1569593267.47026
1569593267.48589
1569593267.50151
1569593267.51714
1569593267.53276
1569593267.54839
1569593267.56402
1569593267.57964
1569593267.59527
1569593267.61089
1569593267.62652
1569593267.64214
1569593267.65777
1569593267.6734
1569593267.68902
1569593267.70465
1569593267.72027
1569593267.7359
1569593267.75152
1569593267.76715
1569593267.78278
1569593267.7984
1569593267.81403
1569593267.82965
1569593267.84528
1569593267.8609
1569593267.87653
1569593267.89216
1569593267.90778
1569593267.92341
1569593267.93903
1569593267.95466
1569593267.97028
1569593267.98591
1569593268.00154
1569593268.01716
1569593268.03279
1569593268.04841
1569593268.06404
1569593268.07966
1569593268.09529
1569593268.11092
1569593268.12654
1569593268.14217
1569593268.15779
1569593268.17342
1569593268.18904
1569593268.20467
1569593268.2203
1569593268.23592
1569593268.25155
1569593268.26717
1569593268.2828
1569593268.29842
1569593268.31405
1569593268.32968
1569593268.3453
1569593268.36093
1569593268.37655
1569593268.39218
1569593268.4078
1569593268.42343
1569593268.43906
1569593268.45468
1569593268.47031
1569593268.48593
1569593268.50156
1569593268.51718
1569593268.53281
1569593268.54844
1569593268.56406
1569593268.57969
1569593268.59531
1569593268.61094
1569593268.62656
1569593268.64219
1569593268.65782
1569593268.67344
1569593268.68907
1569593268.70469
1569593268.72032
1569593268.73594
1569593268.75157
1569593268.7672
1569593268.78282
1569593268.79845
1569593268.81407
1569593268.8297
1569593268.84532
1569593268.86095
1569593268.87658
1569593268.8922
1569593268.90783
1569593268.92345
1569593268.93908
1569593268.9547
1569593268.97033
1569593268.98596
1569593269.00158
1569593269.01721
1569593269.03283
1569593269.04846
1569593269.06409
1569593269.07971
1569593269.09534
1569593269.11096
1569593269.12659
1569593269.14221
1569593269.15784
1569593269.17347
1569593269.18909
1569593269.20472
1569593269.22034
1569593269.23597
1569593269.25159
1569593269.26722
1569593269.28285
1569593269.29847
1569593269.3141
1569593269.32972
1569593269.34535
1569593269.36097
1569593269.3766
1569593269.39223
1569593269.40785
1569593269.42348
1569593269.4391
1569593269.45473
1569593269.47035
1569593269.48598
1569593269.50161
1569593269.51723
1569593269.53286
1569593269.54848
1569593269.56411
1569593269.57973
1569593269.59536
1569593269.61099
1569593269.62661
1569593269.64224
1569593269.65786
1569593269.67349
1569593269.68911
1569593269.70474
1569593269.72037
1569593269.73599
1569593269.75162
1569593269.76724
1569593269.78287
1569593269.79849
1569593269.81412
1569593269.82975
1569593269.84537
1569593269.861
1569593269.87662
1569593269.89225
1569593269.90787
1569593269.9235
1569593269.93913
1569593269.95475
1569593269.97038
1569593269.986
1569593270.00163
1569593270.01725
1569593270.03288
1569593270.04851
1569593270.06413
1569593270.07976
1569593270.09538
1569593270.11101
1569593270.12663
1569593270.14226
1569593270.15789
1569593270.17351
1569593270.18914
1569593270.20476
1569593270.22039
1569593270.23601
1569593270.25164
1569593270.26727
1569593270.28289
1569593270.29852
1569593270.31414
1569593270.32977
1569593270.34539
1569593270.36102
1569593270.37665
1569593270.39227
1569593270.4079
1569593270.42352
1569593270.43915
1569593270.45477
1569593270.4704
1569593270.48603
1569593270.50165
1569593270.51728
1569593270.5329
1569593270.54853
1569593270.56415
1569593270.57978
1569593270.59541
1569593270.61103
1569593270.62666
1569593270.64228
1569593270.65791
1569593270.67353
1569593270.68916
1569593270.70479
1569593270.72041
1569593270.73604
1569593270.75166
1569593270.76729
1569593270.78291
1569593270.79854
1569593270.81417
1569593270.82979
1569593270.84542
1569593270.86104
1569593270.87667
1569593270.89229
1569593270.90792
1569593270.92355
1569593270.93917
1569593270.9548
1569593270.97042
1569593270.98605
1569593271.00167
1569593271.0173
1569593271.03293
1569593271.04855
1569593271.06418
1569593271.0798
1569593271.09543
1569593271.11105
1569593271.12668
1569593271.14231
1569593271.15793
1569593271.17356
1569593271.18918
1569593271.20481
1569593271.22043
1569593271.23606
1569593271.25169
1569593271.26731
1569593271.28294
1569593271.29856
1569593271.31419
1569593271.32981
1569593271.34544
1569593271.36107
1569593271.37669
1569593271.39232
1569593271.40794
1569593271.42357
1569593271.43919
1569593271.45482
1569593271.47045
1569593271.48607
1569593271.5017
1569593271.51732
1569593271.53295
1569593271.54857
1569593271.5642
1569593271.57983
1569593271.59545
1569593271.61108
1569593271.6267
1569593271.64233
1569593271.65795
1569593271.67358
1569593271.68921
1569593271.70483
1569593271.72046
1569593271.73608
1569593271.75171
1569593271.76734
1569593271.78296
1569593271.79859
1569593271.81421
1569593271.82984
1569593271.84546
1569593271.86109
1569593271.87672
1569593271.89234
1569593271.90797
1569593271.92359
1569593271.93922
1569593271.95484
1569593271.97047
1569593271.9861
1569593272.00172
1569593272.01735
1569593272.03297
1569593272.0486
1569593272.06422
1569593272.07985
1569593272.09548
1569593272.1111
1569593272.12673
1569593272.14235
1569593272.15798
1569593272.1736
1569593272.18923
1569593272.20486
1569593272.22048
1569593272.23611
1569593272.25173
1569593272.26736
1569593272.28298
1569593272.29861
1569593272.31424
1569593272.32986
1569593272.34549
1569593272.36111
1569593272.37674
1569593272.39236
1569593272.40799
1569593272.42362
1569593272.43924
1569593272.45487
1569593272.47049
1569593272.48612
1569593272.50174
1569593272.51737
1569593272.533
1569593272.54862
1569593272.56425
1569593272.57987
1569593272.5955
1569593272.61112
1569593272.62675
1569593272.64238
1569593272.658
1569593272.67363
1569593272.68925
1569593272.70488
1569593272.7205
1569593272.73613
1569593272.75176
1569593272.76738
1569593272.78301
1569593272.79863
1569593272.81426
1569593272.82988
1569593272.84551
1569593272.86114
1569593272.87676
1569593272.89239
1569593272.90801
1569593272.92364
1569593272.93926
1569593272.95489
1569593272.97052
1569593272.98614
1569593273.00177
1569593273.01739
1569593273.03302
1569593273.04864
1569593273.06427
1569593273.0799
1569593273.09552
1569593273.11115
1569593273.12677
1569593273.1424
1569593273.15802
1569593273.17365
1569593273.18928
1569593273.2049
1569593273.22053
1569593273.23615
1569593273.25178
1569593273.2674
1569593273.28303
1569593273.29866
1569593273.31428
1569593273.32991
1569593273.34553
1569593273.36116
1569593273.37678
1569593273.39241
1569593273.40804
1569593273.42366
1569593273.43929
1569593273.45491
1569593273.47054
1569593273.48616
1569593273.50179
1569593273.51742
1569593273.53304
1569593273.54867
1569593273.56429
1569593273.57992
1569593273.59554
1569593273.61117
1569593273.6268
1569593273.64242
1569593273.65805
1569593273.67367
1569593273.6893
1569593273.70492
1569593273.72055
1569593273.73618
1569593273.7518
1569593273.76743
1569593273.78305
1569593273.79868
1569593273.8143
1569593273.82993
1569593273.84556
1569593273.86118
1569593273.87681
1569593273.89243
1569593273.90806
1569593273.92369
1569593273.93931
1569593273.95494
1569593273.97056
1569593273.98619
1569593274.00181
1569593274.01744
1569593274.03307
1569593274.04869
1569593274.06432
1569593274.07994
1569593274.09557
1569593274.11119
1569593274.12682
1569593274.14245
1569593274.15807
1569593274.1737
1569593274.18932
1569593274.20495
1569593274.22057
1569593274.2362
1569593274.25183
1569593274.26745
1569593274.28308
1569593274.2987
1569593274.31433
1569593274.32995
1569593274.34558
1569593274.36121
1569593274.37683
1569593274.39246
1569593274.40808
1569593274.42371
1569593274.43933
1569593274.45496
1569593274.47059
1569593274.48621
1569593274.50184
1569593274.51746
1569593274.53309
1569593274.54871
1569593274.56434
1569593274.57997
1569593274.59559
1569593274.61122
1569593274.62684
1569593274.64247
1569593274.65809
1569593274.67372
1569593274.68935
1569593274.70497
1569593274.7206
1569593274.73622
1569593274.75185
1569593274.76747
1569593274.7831
1569593274.79873
1569593274.81435
1569593274.82998
1569593274.8456
1569593274.86123
1569593274.87685
1569593274.89248
1569593274.90811
1569593274.92373
1569593274.93936
1569593274.95498
1569593274.97061
1569593274.98623
1569593275.00186
1569593275.01749
1569593275.03311
1569593275.04874
1569593275.06436
1569593275.07999
1569593275.09561
1569593275.11124
1569593275.12687
1569593275.14249
1569593275.15812
1569593275.17374
1569593275.18937
1569593275.20499
1569593275.22062
1569593275.23625
1569593275.25187
1569593275.2675
1569593275.28312
1569593275.29875
1569593275.31437
1569593275.33
1569593275.34563
1569593275.36125
1569593275.37688
1569593275.3925
1569593275.40813
1569593275.42375
1569593275.43938
1569593275.45501
1569593275.47063
1569593275.48626
1569593275.50188
1569593275.51751
1569593275.53313
1569593275.54876
1569593275.56439
1569593275.58001
1569593275.59564
1569593275.61126
1569593275.62689
1569593275.64251
1569593275.65814
1569593275.67377
1569593275.68939
1569593275.70502
1569593275.72064
1569593275.73627
1569593275.75189
1569593275.76752
1569593275.78315
1569593275.79877
1569593275.8144
1569593275.83002
1569593275.84565
1569593275.86127
1569593275.8769
1569593275.89253
1569593275.90815
1569593275.92378
1569593275.9394
1569593275.95503
1569593275.97065
1569593275.98628
1569593276.00191
1569593276.01753
1569593276.03316
1569593276.04878
1569593276.06441
1569593276.08003
1569593276.09566
1569593276.11129
1569593276.12691
1569593276.14254
1569593276.15816
1569593276.17379
1569593276.18941
1569593276.20504
1569593276.22067
1569593276.23629
1569593276.25192
1569593276.26754
1569593276.28317
1569593276.29879
1569593276.31442
1569593276.33005
1569593276.34567
1569593276.3613
1569593276.37692
1569593276.39255
1569593276.40817
1569593276.4238
1569593276.43943
1569593276.45505
1569593276.47068
1569593276.4863
1569593276.50193
1569593276.51756
1569593276.53318
1569593276.54881
1569593276.56443
1569593276.58006
1569593276.59568
1569593276.61131
1569593276.62694
1569593276.64256
1569593276.65819
1569593276.67381
1569593276.68944
1569593276.70506
1569593276.72069
1569593276.73632
1569593276.75194
1569593276.76757
1569593276.78319
1569593276.79882
1569593276.81444
1569593276.83007
1569593276.8457
1569593276.86132
1569593276.87695
1569593276.89257
1569593276.9082
1569593276.92382
1569593276.93945
1569593276.95508
1569593276.9707
1569593276.98633
1569593277.00195
1569593277.01758
1569593277.0332
1569593277.04883
1569593277.06446
1569593277.08008
1569593277.09571
1569593277.11133
1569593277.12696
1569593277.14258
1569593277.15821
1569593277.17384
1569593277.18946
1569593277.20509
1569593277.22071
1569593277.23634
1569593277.25196
1569593277.26759
1569593277.28322
1569593277.29884
1569593277.31447
1569593277.33009
1569593277.34572
1569593277.36134
1569593277.37697
1569593277.3926
1569593277.40822
1569593277.42385
1569593277.43947
1569593277.4551
1569593277.47072
1569593277.48635
1569593277.50198
1569593277.5176
1569593277.53323
1569593277.54885
1569593277.56448
1569593277.5801
1569593277.59573
1569593277.61136
1569593277.62698
1569593277.64261
1569593277.65823
1569593277.67386
1569593277.68948
1569593277.70511
1569593277.72074
1569593277.73636
1569593277.75199
1569593277.76761
1569593277.78324
1569593277.79886
1569593277.81449
1569593277.83012
1569593277.84574
1569593277.86137
1569593277.87699
1569593277.89262
1569593277.90824
1569593277.92387
1569593277.9395
1569593277.95512
1569593277.97075
1569593277.98637
1569593278.002
1569593278.01762
1569593278.03325
1569593278.04888
1569593278.0645
1569593278.08013
1569593278.09575
1569593278.11138
1569593278.127
1569593278.14263
1569593278.15826
1569593278.17388
1569593278.18951
1569593278.20513
1569593278.22076
1569593278.23638
1569593278.25201
1569593278.26764
1569593278.28326
1569593278.29889
1569593278.31451
1569593278.33014
1569593278.34576
1569593278.36139
1569593278.37702
1569593278.39264
1569593278.40827
1569593278.42389
1569593278.43952
1569593278.45514
1569593278.47077
1569593278.4864
1569593278.50202
1569593278.51765
1569593278.53327
1569593278.5489
1569593278.56452
1569593278.58015
1569593278.59578
1569593278.6114
1569593278.62703
1569593278.64265
1569593278.65828
1569593278.6739
1569593278.68953
1569593278.70516
1569593278.72078
1569593278.73641
1569593278.75203
1569593278.76766
1569593278.78328
1569593278.79891
1569593278.81454
1569593278.83016
1569593278.84579
1569593278.86141
1569593278.87704
1569593278.89267
1569593278.90829
1569593278.92392
1569593278.93954
1569593278.95517
1569593278.97079
1569593278.98642
1569593279.00205
1569593279.01767
1569593279.0333
1569593279.04892
1569593279.06455
1569593279.08017
1569593279.0958
1569593279.11143
1569593279.12705
1569593279.14268
1569593279.1583
1569593279.17393
1569593279.18955
1569593279.20518
1569593279.22081
1569593279.23643
1569593279.25206
1569593279.26768
1569593279.28331
1569593279.29893
1569593279.31456
1569593279.33019
1569593279.34581
1569593279.36144
1569593279.37706
1569593279.39269
1569593279.40831
1569593279.42394
1569593279.43957
1569593279.45519
1569593279.47082
1569593279.48644
1569593279.50207
1569593279.51769
1569593279.53332
1569593279.54895
1569593279.56457
1569593279.5802
1569593279.59582
1569593279.61145
1569593279.62707
1569593279.6427
1569593279.65833
1569593279.67395
1569593279.68958
1569593279.7052
1569593279.72083
1569593279.73645
1569593279.75208
1569593279.76771
1569593279.78333
1569593279.79896
1569593279.81458
1569593279.83021
1569593279.84583
1569593279.86146
1569593279.87709
1569593279.89271
1569593279.90834
1569593279.92396
1569593279.93959
1569593279.95521
1569593279.97084
1569593279.98647
1569593280.00209
1569593280.01772
1569593280.03334
1569593280.04897
1569593280.06459
1569593280.08022
1569593280.09585
1569593280.11147
1569593280.1271
1569593280.14272
1569593280.15835
1569593280.17397
1569593280.1896
1569593280.20523
1569593280.22085
1569593280.23648
1569593280.2521
1569593280.26773
1569593280.28335
1569593280.29898
1569593280.31461
1569593280.33023
1569593280.34586
1569593280.36148
1569593280.37711
1569593280.39273
1569593280.40836
1569593280.42399
1569593280.43961
1569593280.45524
1569593280.47086
1569593280.48649
1569593280.50211
1569593280.51774
1569593280.53337
1569593280.54899
1569593280.56462
1569593280.58024
1569593280.59587
1569593280.61149
1569593280.62712
1569593280.64275
1569593280.65837
1569593280.674
1569593280.68962
1569593280.70525
1569593280.72087
1569593280.7365
1569593280.75213
1569593280.76775
1569593280.78338
1569593280.799
1569593280.81463
1569593280.83025
1569593280.84588
1569593280.86151
1569593280.87713
1569593280.89276
1569593280.90838
1569593280.92401
1569593280.93963
1569593280.95526
1569593280.97089
1569593280.98651
1569593281.00214
1569593281.01776
1569593281.03339
1569593281.04902
1569593281.06464
1569593281.08027
1569593281.09589
1569593281.11152
1569593281.12714
1569593281.14277
1569593281.1584
1569593281.17402
1569593281.18965
1569593281.20527
1569593281.2209
1569593281.23652
1569593281.25215
1569593281.26778
1569593281.2834
1569593281.29903
1569593281.31465
1569593281.33028
1569593281.3459
1569593281.36153
1569593281.37716
1569593281.39278
1569593281.40841
1569593281.42403
1569593281.43966
1569593281.45528
1569593281.47091
1569593281.48654
1569593281.50216
1569593281.51779
1569593281.53341
1569593281.54904
1569593281.56466
1569593281.58029
1569593281.59592
1569593281.61154
1569593281.62717
1569593281.64279
1569593281.65842
1569593281.67404
1569593281.68967
1569593281.7053
1569593281.72092
1569593281.73655
1569593281.75217
1569593281.7678
1569593281.78342
1569593281.79905
1569593281.81468
1569593281.8303
1569593281.84593
1569593281.86155
1569593281.87718
1569593281.8928
1569593281.90843
1569593281.92406
1569593281.93968
1569593281.95531
1569593281.97093
1569593281.98656
1569593282.00218
1569593282.01781
1569593282.03344
1569593282.04906
1569593282.06469
1569593282.08031
1569593282.09594
1569593282.11156
1569593282.12719
1569593282.14282
1569593282.15844
1569593282.17407
1569593282.18969
1569593282.20532
1569593282.22094
1569593282.23657
1569593282.2522
1569593282.26782
1569593282.28345
1569593282.29907
1569593282.3147
1569593282.33032
1569593282.34595
1569593282.36158
1569593282.3772
1569593282.39283
1569593282.40845
1569593282.42408
1569593282.4397
1569593282.45533
1569593282.47096
1569593282.48658
1569593282.50221
1569593282.51783
1569593282.53346
1569593282.54908
1569593282.56471
1569593282.58034
1569593282.59596
1569593282.61159
1569593282.62721
1569593282.64284
1569593282.65846
1569593282.67409
1569593282.68972
1569593282.70534
1569593282.72097
1569593282.73659
1569593282.75222
1569593282.76784
1569593282.78347
1569593282.7991
1569593282.81472
1569593282.83035
1569593282.84597
1569593282.8616
1569593282.87722
1569593282.89285
1569593282.90848
1569593282.9241
1569593282.93973
1569593282.95535
1569593282.97098
1569593282.9866
1569593283.00223
1569593283.01786
1569593283.03348
1569593283.04911
1569593283.06473
1569593283.08036
1569593283.09598
1569593283.11161
1569593283.12724
1569593283.14286
1569593283.15849
1569593283.17411
1569593283.18974
1569593283.20536
1569593283.22099
1569593283.23662
1569593283.25224
1569593283.26787
1569593283.28349
1569593283.29912
1569593283.31474
1569593283.33037
1569593283.346
1569593283.36162
1569593283.37725
1569593283.39287
1569593283.4085
1569593283.42412
1569593283.43975
1569593283.45538
1569593283.471
1569593283.48663
1569593283.50225
1569593283.51788
1569593283.5335
1569593283.54913
1569593283.56476
1569593283.58038
1569593283.59601
1569593283.61163
1569593283.62726
1569593283.64288
1569593283.65851
1569593283.67414
1569593283.68976
1569593283.70539
1569593283.72101
1569593283.73664
1569593283.75227
1569593283.76789
1569593283.78352
1569593283.79914
1569593283.81477
1569593283.83039
1569593283.84602
1569593283.86165
1569593283.87727
1569593283.8929
1569593283.90852
1569593283.92415
1569593283.93977
1569593283.9554
1569593283.97103
1569593283.98665
1569593284.00228
1569593284.0179
1569593284.03353
1569593284.04915
1569593284.06478
1569593284.08041
1569593284.09603
1569593284.11166
1569593284.12728
1569593284.14291
1569593284.15853
1569593284.17416
1569593284.18979
1569593284.20541
1569593284.22104
1569593284.23666
1569593284.25229
1569593284.26791
1569593284.28354
1569593284.29917
1569593284.31479
1569593284.33042
1569593284.34604
1569593284.36167
1569593284.37729
1569593284.39292
1569593284.40855
1569593284.42417
1569593284.4398
1569593284.45542
1569593284.47105
1569593284.48667
1569593284.5023
1569593284.51793
1569593284.53355
1569593284.54918
1569593284.5648
1569593284.58043
1569593284.59605
1569593284.61168
1569593284.62731
1569593284.64293
1569593284.65856
1569593284.67418
1569593284.68981
1569593284.70543
1569593284.72106
1569593284.73669
1569593284.75231
1569593284.76794
1569593284.78356
1569593284.79919
1569593284.81481
1569593284.83044
1569593284.84607
1569593284.86169
1569593284.87732
1569593284.89294
1569593284.90857
1569593284.92419
1569593284.93982
1569593284.95545
1569593284.97107
1569593284.9867
1569593285.00232
1569593285.01795
1569593285.03357
1569593285.0492
1569593285.06483
1569593285.08045
1569593285.09608
1569593285.1117
1569593285.12733
1569593285.14295
1569593285.15858
1569593285.17421
1569593285.18983
1569593285.20546
1569593285.22108
1569593285.23671
1569593285.25233
1569593285.26796
1569593285.28359
1569593285.29921
1569593285.31484
1569593285.33046
1569593285.34609
1569593285.36171
1569593285.37734
1569593285.39297
1569593285.40859
1569593285.42422
1569593285.43984
1569593285.45547
1569593285.47109
1569593285.48672
1569593285.50235
1569593285.51797
1569593285.5336
1569593285.54922
1569593285.56485
1569593285.58047
1569593285.5961
1569593285.61173
1569593285.62735
1569593285.64298
1569593285.6586
1569593285.67423
1569593285.68985
1569593285.70548
1569593285.72111
1569593285.73673
1569593285.75236
1569593285.76798
1569593285.78361
1569593285.79923
1569593285.81486
1569593285.83049
1569593285.84611
1569593285.86174
1569593285.87736
1569593285.89299
1569593285.90862
1569593285.92424
1569593285.93987
1569593285.95549
1569593285.97112
1569593285.98674
1569593286.00237
1569593286.018
1569593286.03362
1569593286.04925
1569593286.06487
1569593286.0805
1569593286.09612
1569593286.11175
1569593286.12738
1569593286.143
1569593286.15863
1569593286.17425
1569593286.18988
1569593286.2055
1569593286.22113
1569593286.23676
1569593286.25238
1569593286.26801
1569593286.28363
1569593286.29926
1569593286.31488
1569593286.33051
1569593286.34614
1569593286.36176
1569593286.37739
1569593286.39301
1569593286.40864
1569593286.42426
1569593286.43989
1569593286.45552
1569593286.47114
1569593286.48677
1569593286.50239
1569593286.51802
1569593286.53364
1569593286.54927
1569593286.5649
1569593286.58052
1569593286.59615
1569593286.61177
1569593286.6274
1569593286.64302
1569593286.65865
1569593286.67428
1569593286.6899
1569593286.70553
1569593286.72115
1569593286.73678
1569593286.7524
1569593286.76803
1569593286.78366
1569593286.79928
1569593286.81491
1569593286.83053
1569593286.84616
1569593286.86178
1569593286.87741
1569593286.89304
1569593286.90866
1569593286.92429
1569593286.93991
1569593286.95554
1569593286.97116
1569593286.98679
1569593287.00242
1569593287.01804
1569593287.03367
1569593287.04929
1569593287.06492
1569593287.08054
1569593287.09617
1569593287.1118
1569593287.12742
1569593287.14305
1569593287.15867
1569593287.1743
1569593287.18992
1569593287.20555
1569593287.22118
1569593287.2368
1569593287.25243
1569593287.26805
1569593287.28368
1569593287.2993
1569593287.31493
1569593287.33056
1569593287.34618
1569593287.36181
1569593287.37743
1569593287.39306
1569593287.40868
1569593287.42431
1569593287.43994
1569593287.45556
1569593287.47119
1569593287.48681
1569593287.50244
1569593287.51806
1569593287.53369
1569593287.54932
1569593287.56494
1569593287.58057
1569593287.59619
1569593287.61182
1569593287.62744
1569593287.64307
1569593287.6587
1569593287.67432
1569593287.68995
1569593287.70557
1569593287.7212
1569593287.73682
1569593287.75245
1569593287.76808
1569593287.7837
1569593287.79933
1569593287.81495
1569593287.83058
1569593287.8462
1569593287.86183
1569593287.87746
1569593287.89308
1569593287.90871
1569593287.92433
1569593287.93996
1569593287.95558
1569593287.97121
1569593287.98684
1569593288.00246
1569593288.01809
1569593288.03371
1569593288.04934
1569593288.06496
1569593288.08059
1569593288.09622
1569593288.11184
1569593288.12747
1569593288.14309
1569593288.15872
1569593288.17435
1569593288.18997
1569593288.2056
1569593288.22122
1569593288.23685
1569593288.25247
1569593288.2681
1569593288.28373
1569593288.29935
1569593288.31498
1569593288.3306
1569593288.34623
1569593288.36185
1569593288.37748
1569593288.39311
1569593288.40873
1569593288.42436
1569593288.43998
1569593288.45561
1569593288.47123
1569593288.48686
1569593288.50249
1569593288.51811
1569593288.53374
1569593288.54936
1569593288.56499
1569593288.58061
1569593288.59624
1569593288.61187
1569593288.62749
1569593288.64312
1569593288.65874
1569593288.67437
1569593288.68999
1569593288.70562
1569593288.72125
1569593288.73687
1569593288.7525
1569593288.76812
1569593288.78375
1569593288.79937
1569593288.815
1569593288.83063
1569593288.84625
1569593288.86188
1569593288.8775
1569593288.89313
1569593288.90875
1569593288.92438
1569593288.94001
1569593288.95563
1569593288.97126
1569593288.98688
1569593289.00251
1569593289.01813
1569593289.03376
1569593289.04939
1569593289.06501
1569593289.08064
1569593289.09626
1569593289.11189
1569593289.12751
1569593289.14314
1569593289.15877
1569593289.17439
1569593289.19002
1569593289.20564
1569593289.22127
1569593289.23689
1569593289.25252
1569593289.26815
1569593289.28377
1569593289.2994
1569593289.31502
1569593289.33065
1569593289.34627
1569593289.3619
1569593289.37753
1569593289.39315
1569593289.40878
1569593289.4244
1569593289.44003
1569593289.45565
1569593289.47128
1569593289.48691
1569593289.50253
1569593289.51816
1569593289.53378
1569593289.54941
1569593289.56503
1569593289.58066
1569593289.59629
1569593289.61191
1569593289.62754
1569593289.64316
1569593289.65879
1569593289.67441
1569593289.69004
1569593289.70567
1569593289.72129
1569593289.73692
1569593289.75254
1569593289.76817
1569593289.78379
1569593289.79942
1569593289.81505
1569593289.83067
1569593289.8463
1569593289.86192
1569593289.87755
1569593289.89317
1569593289.9088
1569593289.92443
1569593289.94005
1569593289.95568
1569593289.9713
1569593289.98693
1569593290.00255
1569593290.01818
1569593290.03381
1569593290.04943
1569593290.06506
1569593290.08068
1569593290.09631
1569593290.11193
1569593290.12756
1569593290.14319
1569593290.15881
1569593290.17444
1569593290.19006
1569593290.20569
1569593290.22131
1569593290.23694
1569593290.25257
1569593290.26819
1569593290.28382
1569593290.29944
1569593290.31507
1569593290.33069
1569593290.34632
1569593290.36195
1569593290.37757
1569593290.3932
1569593290.40882
1569593290.42445
1569593290.44007
1569593290.4557
1569593290.47133
1569593290.48695
1569593290.50258
1569593290.5182
1569593290.53383
1569593290.54945
1569593290.56508
1569593290.58071
1569593290.59633
1569593290.61196
1569593290.62758
1569593290.64321
1569593290.65883
1569593290.67446
1569593290.69009
1569593290.70571
1569593290.72134
1569593290.73696
1569593290.75259
1569593290.76822
1569593290.78384
1569593290.79947
1569593290.81509
1569593290.83072
1569593290.84634
1569593290.86197
1569593290.8776
1569593290.89322
1569593290.90885
1569593290.92447
1569593290.9401
1569593290.95572
1569593290.97135
1569593290.98698
1569593291.0026
1569593291.01823
1569593291.03385
1569593291.04948
1569593291.0651
1569593291.08073
1569593291.09636
1569593291.11198
1569593291.12761
1569593291.14323
1569593291.15886
1569593291.17448
1569593291.19011
1569593291.20574
1569593291.22136
1569593291.23699
1569593291.25261
1569593291.26824
1569593291.28386
1569593291.29949
1569593291.31512
1569593291.33074
1569593291.34637
1569593291.36199
1569593291.37762
1569593291.39324
1569593291.40887
1569593291.4245
1569593291.44012
1569593291.45575
1569593291.47137
1569593291.487
1569593291.50262
1569593291.51825
1569593291.53388
1569593291.5495
1569593291.56513
1569593291.58075
1569593291.59638
1569593291.612
1569593291.62763
1569593291.64326
1569593291.65888
1569593291.67451
1569593291.69013
1569593291.70576
1569593291.72138
1569593291.73701
1569593291.75264
1569593291.76826
1569593291.78389
1569593291.79951
1569593291.81514
1569593291.83076
1569593291.84639
1569593291.86202
1569593291.87764
1569593291.89327
1569593291.90889
1569593291.92452
1569593291.94014
1569593291.95577
1569593291.9714
1569593291.98702
1569593292.00265
1569593292.01827
1569593292.0339
1569593292.04952
1569593292.06515
1569593292.08078
1569593292.0964
1569593292.11203
1569593292.12765
1569593292.14328
1569593292.1589
1569593292.17453
1569593292.19016
1569593292.20578
1569593292.22141
1569593292.23703
1569593292.25266
1569593292.26828
1569593292.28391
1569593292.29954
1569593292.31516
1569593292.33079
1569593292.34641
1569593292.36204
1569593292.37766
1569593292.39329
1569593292.40892
1569593292.42454
1569593292.44017
1569593292.45579
1569593292.47142
1569593292.48704
1569593292.50267
1569593292.5183
1569593292.53392
1569593292.54955
1569593292.56517
1569593292.5808
1569593292.59642
1569593292.61205
1569593292.62768
1569593292.6433
1569593292.65893
1569593292.67455
1569593292.69018
1569593292.7058
1569593292.72143
1569593292.73706
1569593292.75268
1569593292.76831
1569593292.78393
1569593292.79956
1569593292.81518
1569593292.83081
1569593292.84644
1569593292.86206
1569593292.87769
1569593292.89331
1569593292.90894
1569593292.92456
1569593292.94019
1569593292.95582
1569593292.97144
1569593292.98707
1569593293.00269
1569593293.01832
1569593293.03395
1569593293.04957
1569593293.0652
1569593293.08082
1569593293.09645
1569593293.11207
1569593293.1277
1569593293.14333
1569593293.15895
1569593293.17458
1569593293.1902
1569593293.20583
1569593293.22145
1569593293.23708
1569593293.25271
1569593293.26833
1569593293.28396
1569593293.29958
1569593293.31521
1569593293.33083
1569593293.34646
1569593293.36209
1569593293.37771
1569593293.39334
1569593293.40896
1569593293.42459
1569593293.44021
1569593293.45584
1569593293.47147
1569593293.48709
1569593293.50272
1569593293.51834
1569593293.53397
1569593293.54959
1569593293.56522
1569593293.58085
1569593293.59647
1569593293.6121
1569593293.62772
1569593293.64335
1569593293.65897
1569593293.6746
1569593293.69023
1569593293.70585
1569593293.72148
1569593293.7371
1569593293.75273
1569593293.76835
1569593293.78398
1569593293.79961
1569593293.81523
1569593293.83086
1569593293.84648
1569593293.86211
1569593293.87773
1569593293.89336
1569593293.90899
1569593293.92461
1569593293.94024
1569593293.95586
1569593293.97149
1569593293.98711
1569593294.00274
1569593294.01837
1569593294.03399
1569593294.04962
1569593294.06524
1569593294.08087
1569593294.09649
1569593294.11212
1569593294.12775
1569593294.14337
1569593294.159
1569593294.17462
1569593294.19025
1569593294.20587
1569593294.2215
1569593294.23713
1569593294.25275
1569593294.26838
1569593294.284
1569593294.29963
1569593294.31525
1569593294.33088
1569593294.34651
1569593294.36213
1569593294.37776
1569593294.39338
1569593294.40901
1569593294.42463
1569593294.44026
1569593294.45589
1569593294.47151
1569593294.48714
1569593294.50276
1569593294.51839
1569593294.53401
1569593294.54964
1569593294.56527
1569593294.58089
1569593294.59652
1569593294.61214
1569593294.62777
1569593294.64339
1569593294.65902
1569593294.67465
1569593294.69027
1569593294.7059
1569593294.72152
1569593294.73715
1569593294.75277
1569593294.7684
1569593294.78403
1569593294.79965
1569593294.81528
1569593294.8309
1569593294.84653
1569593294.86215
1569593294.87778
1569593294.89341
1569593294.90903
1569593294.92466
1569593294.94028
1569593294.95591
1569593294.97153
1569593294.98716
1569593295.00279
1569593295.01841
1569593295.03404
1569593295.04966
1569593295.06529
1569593295.08091
1569593295.09654
1569593295.11217
1569593295.12779
1569593295.14342
1569593295.15904
1569593295.17467
1569593295.19029
1569593295.20592
1569593295.22155
1569593295.23717
1569593295.2528
1569593295.26842
1569593295.28405
1569593295.29967
1569593295.3153
1569593295.33093
1569593295.34655
1569593295.36218
1569593295.3778
1569593295.39343
1569593295.40905
1569593295.42468
1569593295.44031
1569593295.45593
1569593295.47156
1569593295.48718
1569593295.50281
1569593295.51844
1569593295.53406
1569593295.54969
1569593295.56531
1569593295.58094
1569593295.59656
1569593295.61219
1569593295.62782
1569593295.64344
1569593295.65907
1569593295.67469
1569593295.69032
1569593295.70594
1569593295.72157
1569593295.7372
1569593295.75282
1569593295.76845
1569593295.78407
1569593295.7997
1569593295.81532
1569593295.83095
1569593295.84658
1569593295.8622
1569593295.87783
1569593295.89345
1569593295.90908
1569593295.9247
1569593295.94033
1569593295.95596
1569593295.97158
1569593295.98721
1569593296.00283
1569593296.01846
1569593296.03408
1569593296.04971
1569593296.06534
1569593296.08096
1569593296.09659
1569593296.11221
1569593296.12784
1569593296.14346
1569593296.15909
1569593296.17472
1569593296.19034
1569593296.20597
1569593296.22159
1569593296.23722
1569593296.25284
1569593296.26847
1569593296.2841
1569593296.29972
1569593296.31535
1569593296.33097
1569593296.3466
1569593296.36222
1569593296.37785
1569593296.39348
1569593296.4091
1569593296.42473
1569593296.44035
1569593296.45598
1569593296.4716
1569593296.48723
1569593296.50286
1569593296.51848
1569593296.53411
1569593296.54973
1569593296.56536
1569593296.58098
1569593296.59661
1569593296.61224
1569593296.62786
1569593296.64349
1569593296.65911
1569593296.67474
1569593296.69036
1569593296.70599
1569593296.72162
1569593296.73724
1569593296.75287
1569593296.76849
1569593296.78412
1569593296.79974
1569593296.81537
1569593296.831
1569593296.84662
1569593296.86225
1569593296.87787
1569593296.8935
1569593296.90912
1569593296.92475
1569593296.94038
1569593296.956
1569593296.97163
1569593296.98725
1569593297.00288
1569593297.0185
1569593297.03413
1569593297.04976
1569593297.06538
1569593297.08101
1569593297.09663
1569593297.11226
1569593297.12788
1569593297.14351
1569593297.15914
1569593297.17476
1569593297.19039
1569593297.20601
1569593297.22164
1569593297.23726
1569593297.25289
1569593297.26852
1569593297.28414
1569593297.29977
1569593297.31539
1569593297.33102
1569593297.34664
1569593297.36227
1569593297.3779
1569593297.39352
1569593297.40915
1569593297.42477
1569593297.4404
1569593297.45602
1569593297.47165
1569593297.48728
1569593297.5029
1569593297.51853
1569593297.53415
1569593297.54978
1569593297.5654
1569593297.58103
1569593297.59666
1569593297.61228
1569593297.62791
1569593297.64353
1569593297.65916
1569593297.67478
1569593297.69041
1569593297.70604
1569593297.72166
1569593297.73729
1569593297.75291
1569593297.76854
1569593297.78416
1569593297.79979
1569593297.81542
1569593297.83104
1569593297.84667
1569593297.86229
1569593297.87792
1569593297.89355
1569593297.90917
1569593297.9248
1569593297.94042
1569593297.95605
1569593297.97167
1569593297.9873
1569593298.00293
1569593298.01855
1569593298.03418
1569593298.0498
1569593298.06543
1569593298.08105
1569593298.09668
1569593298.11231
1569593298.12793
1569593298.14356
1569593298.15918
1569593298.17481
1569593298.19043
1569593298.20606
1569593298.22169
1569593298.23731
1569593298.25294
1569593298.26856
1569593298.28419
1569593298.29981
1569593298.31544
1569593298.33107
1569593298.34669
1569593298.36232
1569593298.37794
1569593298.39357
1569593298.40919
1569593298.42482
1569593298.44045
1569593298.45607
1569593298.4717
1569593298.48732
1569593298.50295
1569593298.51857
1569593298.5342
1569593298.54983
1569593298.56545
1569593298.58108
1569593298.5967
1569593298.61233
1569593298.62795
1569593298.64358
1569593298.65921
1569593298.67483
1569593298.69046
1569593298.70608
1569593298.72171
1569593298.73733
1569593298.75296
1569593298.76859
1569593298.78421
1569593298.79984
1569593298.81546
1569593298.83109
1569593298.84671
1569593298.86234
1569593298.87797
1569593298.89359
1569593298.90922
1569593298.92484
1569593298.94047
1569593298.95609
1569593298.97172
1569593298.98735
1569593299.00297
1569593299.0186
1569593299.03422
1569593299.04985
1569593299.06547
1569593299.0811
1569593299.09673
1569593299.11235
1569593299.12798
1569593299.1436
1569593299.15923
1569593299.17485
1569593299.19048
1569593299.20611
1569593299.22173
1569593299.23736
1569593299.25298
1569593299.26861
1569593299.28423
1569593299.29986
1569593299.31549
1569593299.33111
1569593299.34674
1569593299.36236
1569593299.37799
1569593299.39361
1569593299.40924
1569593299.42487
1569593299.44049
1569593299.45612
1569593299.47174
1569593299.48737
1569593299.50299
1569593299.51862
1569593299.53425
1569593299.54987
1569593299.5655
1569593299.58112
1569593299.59675
1569593299.61237
1569593299.628
1569593299.64363
1569593299.65925
1569593299.67488
1569593299.6905
1569593299.70613
1569593299.72175
1569593299.73738
1569593299.75301
1569593299.76863
1569593299.78426
1569593299.79988
1569593299.81551
1569593299.83113
1569593299.84676
1569593299.86239
1569593299.87801
1569593299.89364
1569593299.90926
1569593299.92489
1569593299.94051
1569593299.95614
1569593299.97177
1569593299.98739
1569593300.00302
1569593300.01864
1569593300.03427
1569593300.0499
1569593300.06552
1569593300.08115
1569593300.09677
1569593300.1124
1569593300.12802
1569593300.14365
1569593300.15928
1569593300.1749
1569593300.19053
1569593300.20615
1569593300.22178
1569593300.2374
1569593300.25303
1569593300.26866
1569593300.28428
1569593300.29991
1569593300.31553
1569593300.33116
1569593300.34678
1569593300.36241
1569593300.37804
1569593300.39366
1569593300.40929
1569593300.42491
1569593300.44054
1569593300.45616
1569593300.47179
1569593300.48742
1569593300.50304
1569593300.51867
1569593300.53429
1569593300.54992
1569593300.56554
1569593300.58117
1569593300.5968
1569593300.61242
1569593300.62805
1569593300.64367
1569593300.6593
1569593300.67492
1569593300.69055
1569593300.70618
1569593300.7218
1569593300.73743
1569593300.75305
1569593300.76868
1569593300.7843
1569593300.79993
1569593300.81556
1569593300.83118
1569593300.84681
1569593300.86243
1569593300.87806
1569593300.89368
1569593300.90931
1569593300.92494
1569593300.94056
1569593300.95619
1569593300.97181
1569593300.98744
1569593301.00306
1569593301.01869
1569593301.03432
1569593301.04994
1569593301.06557
1569593301.08119
1569593301.09682
1569593301.11244
1569593301.12807
1569593301.1437
1569593301.15932
1569593301.17495
1569593301.19057
1569593301.2062
1569593301.22182
1569593301.23745
1569593301.25308
1569593301.2687
1569593301.28433
1569593301.29995
1569593301.31558
1569593301.3312
1569593301.34683
1569593301.36246
1569593301.37808
1569593301.39371
1569593301.40933
1569593301.42496
1569593301.44058
1569593301.45621
1569593301.47184
1569593301.48746
1569593301.50309
1569593301.51871
1569593301.53434
1569593301.54996
1569593301.56559
1569593301.58122
1569593301.59684
1569593301.61247
1569593301.62809
1569593301.64372
1569593301.65934
1569593301.67497
1569593301.6906
1569593301.70622
1569593301.72185
1569593301.73747
1569593301.7531
1569593301.76872
1569593301.78435
1569593301.79998
1569593301.8156
1569593301.83123
1569593301.84685
1569593301.86248
1569593301.8781
1569593301.89373
1569593301.90936
1569593301.92498
1569593301.94061
1569593301.95623
1569593301.97186
1569593301.98748
1569593302.00311
1569593302.01874
1569593302.03436
1569593302.04999
1569593302.06561
1569593302.08124
1569593302.09686
1569593302.11249
1569593302.12812
1569593302.14374
1569593302.15937
1569593302.17499
1569593302.19062
1569593302.20624
1569593302.22187
1569593302.2375
1569593302.25312
1569593302.26875
1569593302.28437
1569593302.3
1569593302.31562
1569593302.33125
1569593302.34688
1569593302.3625
1569593302.37813
1569593302.39375
1569593302.40938
1569593302.425
1569593302.44063
1569593302.45626
1569593302.47188
1569593302.48751
1569593302.50313
1569593302.51876
1569593302.53438
1569593302.55001
1569593302.56564
1569593302.58126
1569593302.59689
1569593302.61251
1569593302.62814
1569593302.64376
1569593302.65939
1569593302.67502
1569593302.69064
1569593302.70627
1569593302.72189
1569593302.73752
1569593302.75315
1569593302.76877
1569593302.7844
1569593302.80002
1569593302.81565
1569593302.83127
1569593302.8469
1569593302.86253
1569593302.87815
1569593302.89378
1569593302.9094
1569593302.92503
1569593302.94065
1569593302.95628
1569593302.97191
1569593302.98753
1569593303.00316
1569593303.01878
1569593303.03441
1569593303.05003
1569593303.06566
1569593303.08129
1569593303.09691
1569593303.11254
1569593303.12816
1569593303.14379
1569593303.15941
1569593303.17504
1569593303.19067
1569593303.20629
1569593303.22192
1569593303.23754
1569593303.25317
1569593303.26879
1569593303.28442
1569593303.30005
1569593303.31567
1569593303.3313
1569593303.34692
1569593303.36255
1569593303.37817
1569593303.3938
1569593303.40943
1569593303.42505
1569593303.44068
1569593303.4563
1569593303.47193
1569593303.48755
1569593303.50318
1569593303.51881
1569593303.53443
1569593303.55006
1569593303.56568
1569593303.58131
1569593303.59693
1569593303.61256
1569593303.62819
1569593303.64381
1569593303.65944
1569593303.67506
1569593303.69069
1569593303.70631
1569593303.72194
1569593303.73757
1569593303.75319
1569593303.76882
1569593303.78444
1569593303.80007
1569593303.81569
1569593303.83132
1569593303.84695
1569593303.86257
1569593303.8782
1569593303.89382
1569593303.90945
1569593303.92507
1569593303.9407
1569593303.95633
1569593303.97195
1569593303.98758
1569593304.0032
1569593304.01883
1569593304.03445
1569593304.05008
1569593304.06571
1569593304.08133
1569593304.09696
1569593304.11258
1569593304.12821
1569593304.14383
1569593304.15946
1569593304.17509
1569593304.19071
1569593304.20634
1569593304.22196
1569593304.23759
1569593304.25321
1569593304.26884
1569593304.28447
1569593304.30009
1569593304.31572
1569593304.33134
1569593304.34697
1569593304.36259
1569593304.37822
1569593304.39385
1569593304.40947
1569593304.4251
1569593304.44072
1569593304.45635
1569593304.47197
1569593304.4876
1569593304.50323
1569593304.51885
1569593304.53448
1569593304.5501
1569593304.56573
1569593304.58135
1569593304.59698
1569593304.61261
1569593304.62823
1569593304.64386
1569593304.65948
1569593304.67511
1569593304.69073
1569593304.70636
1569593304.72199
1569593304.73761
1569593304.75324
1569593304.76886
1569593304.78449
1569593304.80011
1569593304.81574
1569593304.83137
1569593304.84699
1569593304.86262
1569593304.87824
1569593304.89387
1569593304.90949
1569593304.92512
1569593304.94075
1569593304.95637
1569593304.972
1569593304.98762
1569593305.00325
1569593305.01888
1569593305.0345
1569593305.05013
1569593305.06575
1569593305.08138
1569593305.097
1569593305.11263
1569593305.12826
1569593305.14388
1569593305.15951
1569593305.17513
1569593305.19076
1569593305.20638
1569593305.22201
1569593305.23764
1569593305.25326
1569593305.26889
1569593305.28451
1569593305.30014
1569593305.31576
1569593305.33139
1569593305.34702
1569593305.36264
1569593305.37827
1569593305.39389
1569593305.40952
1569593305.42514
1569593305.44077
1569593305.4564
1569593305.47202
1569593305.48765
1569593305.50327
1569593305.5189
1569593305.53452
1569593305.55015
1569593305.56578
1569593305.5814
1569593305.59703
1569593305.61265
1569593305.62828
1569593305.6439
1569593305.65953
1569593305.67516
1569593305.69078
1569593305.70641
1569593305.72203
1569593305.73766
1569593305.75328
1569593305.76891
1569593305.78454
1569593305.80016
1569593305.81579
1569593305.83141
1569593305.84704
1569593305.86266
1569593305.87829
1569593305.89392
1569593305.90954
1569593305.92517
1569593305.94079
1569593305.95642
1569593305.97204
1569593305.98767
1569593306.0033
1569593306.01892
1569593306.03455
1569593306.05017
1569593306.0658
1569593306.08142
1569593306.09705
1569593306.11268
1569593306.1283
1569593306.14393
1569593306.15955
1569593306.17518
1569593306.1908
1569593306.20643
1569593306.22206
1569593306.23768
1569593306.25331
1569593306.26893
1569593306.28456
1569593306.30018
1569593306.31581
1569593306.33144
1569593306.34706
1569593306.36269
1569593306.37831
1569593306.39394
1569593306.40956
1569593306.42519
1569593306.44082
1569593306.45644
1569593306.47207
1569593306.48769
1569593306.50332
1569593306.51894
1569593306.53457
1569593306.5502
1569593306.56582
1569593306.58145
1569593306.59707
1569593306.6127
1569593306.62832
1569593306.64395
1569593306.65958
1569593306.6752
1569593306.69083
1569593306.70645
1569593306.72208
1569593306.7377
1569593306.75333
1569593306.76896
1569593306.78458
1569593306.80021
1569593306.81583
1569593306.83146
1569593306.84708
1569593306.86271
1569593306.87834
1569593306.89396
1569593306.90959
1569593306.92521
1569593306.94084
1569593306.95646
1569593306.97209
1569593306.98772
1569593307.00334
1569593307.01897
1569593307.03459
1569593307.05022
1569593307.06584
1569593307.08147
1569593307.0971
1569593307.11272
1569593307.12835
1569593307.14397
1569593307.1596
1569593307.17523
1569593307.19085
1569593307.20648
1569593307.2221
1569593307.23773
1569593307.25335
1569593307.26898
1569593307.28461
1569593307.30023
1569593307.31586
1569593307.33148
1569593307.34711
1569593307.36273
1569593307.37836
1569593307.39399
1569593307.40961
1569593307.42524
1569593307.44086
1569593307.45649
1569593307.47211
1569593307.48774
1569593307.50337
1569593307.51899
1569593307.53462
1569593307.55024
1569593307.56587
1569593307.58149
1569593307.59712
1569593307.61275
1569593307.62837
1569593307.644
1569593307.65962
1569593307.67525
1569593307.69087
1569593307.7065
1569593307.72213
1569593307.73775
1569593307.75338
1569593307.769
1569593307.78463
1569593307.80025
1569593307.81588
1569593307.83151
1569593307.84713
1569593307.86276
1569593307.87838
1569593307.89401
1569593307.90963
1569593307.92526
1569593307.94089
1569593307.95651
1569593307.97214
1569593307.98776
1569593308.00339
1569593308.01901
1569593308.03464
1569593308.05027
1569593308.06589
1569593308.08152
1569593308.09714
1569593308.11277
1569593308.12839
1569593308.14402
1569593308.15965
1569593308.17527
1569593308.1909
1569593308.20652
1569593308.22215
1569593308.23777
1569593308.2534
1569593308.26903
1569593308.28465
1569593308.30028
1569593308.3159
1569593308.33153
1569593308.34715
1569593308.36278
1569593308.37841
1569593308.39403
1569593308.40966
1569593308.42528
1569593308.44091
1569593308.45653
1569593308.47216
1569593308.48779
1569593308.50341
1569593308.51904
1569593308.53466
1569593308.55029
1569593308.56591
1569593308.58154
1569593308.59717
1569593308.61279
1569593308.62842
1569593308.64404
1569593308.65967
1569593308.67529
1569593308.69092
1569593308.70655
1569593308.72217
1569593308.7378
1569593308.75342
1569593308.76905
1569593308.78467
1569593308.8003
1569593308.81593
1569593308.83155
1569593308.84718
1569593308.8628
1569593308.87843
1569593308.89405
1569593308.90968
1569593308.92531
1569593308.94093
1569593308.95656
1569593308.97218
1569593308.98781
1569593309.00343
1569593309.01906
1569593309.03469
1569593309.05031
1569593309.06594
1569593309.08156
1569593309.09719
1569593309.11281
1569593309.12844
1569593309.14407
1569593309.15969
1569593309.17532
1569593309.19094
1569593309.20657
1569593309.22219
1569593309.23782
1569593309.25345
1569593309.26907
1569593309.2847
1569593309.30032
1569593309.31595
1569593309.33157
1569593309.3472
1569593309.36283
1569593309.37845
1569593309.39408
1569593309.4097
1569593309.42533
1569593309.44095
1569593309.45658
1569593309.47221
1569593309.48783
1569593309.50346
1569593309.51908
1569593309.53471
1569593309.55033
1569593309.56596
1569593309.58159
1569593309.59721
1569593309.61284
1569593309.62846
1569593309.64409
1569593309.65971
1569593309.67534
1569593309.69097
1569593309.70659
1569593309.72222
1569593309.73784
1569593309.75347
1569593309.76909
1569593309.78472
1569593309.80035
1569593309.81597
1569593309.8316
1569593309.84722
1569593309.86285
1569593309.87848
1569593309.8941
1569593309.90973
1569593309.92535
1569593309.94098
1569593309.9566
1569593309.97223
1569593309.98786
1569593310.00348
1569593310.01911
1569593310.03473
1569593310.05036
1569593310.06598
1569593310.08161
1569593310.09724
1569593310.11286
1569593310.12849
1569593310.14411
1569593310.15974
1569593310.17536
1569593310.19099
1569593310.20662
1569593310.22224
1569593310.23787
1569593310.25349
1569593310.26912
1569593310.28474
1569593310.30037
1569593310.316
1569593310.33162
1569593310.34725
1569593310.36287
1569593310.3785
1569593310.39412
1569593310.40975
1569593310.42538
1569593310.441
1569593310.45663
1569593310.47225
1569593310.48788
1569593310.5035
1569593310.51913
1569593310.53476
1569593310.55038
1569593310.56601
1569593310.58163
1569593310.59726
1569593310.61288
1569593310.62851
1569593310.64414
1569593310.65976
1569593310.67539
1569593310.69101
1569593310.70664
1569593310.72226
1569593310.73789
1569593310.75352
1569593310.76914
1569593310.78477
1569593310.80039
1569593310.81602
1569593310.83164
1569593310.84727
1569593310.8629
1569593310.87852
1569593310.89415
1569593310.90977
1569593310.9254
1569593310.94102
1569593310.95665
1569593310.97228
1569593310.9879
1569593311.00353
1569593311.01915
1569593311.03478
1569593311.0504
1569593311.06603
1569593311.08166
1569593311.09728
1569593311.11291
1569593311.12853
1569593311.14416
1569593311.15978
1569593311.17541
1569593311.19104
1569593311.20666
1569593311.22229
1569593311.23791
1569593311.25354
1569593311.26916
1569593311.28479
1569593311.30042
1569593311.31604
1569593311.33167
1569593311.34729
1569593311.36292
1569593311.37854
1569593311.39417
1569593311.4098
1569593311.42542
1569593311.44105
1569593311.45667
1569593311.4723
1569593311.48792
1569593311.50355
1569593311.51918
1569593311.5348
1569593311.55043
1569593311.56605
1569593311.58168
1569593311.5973
1569593311.61293
1569593311.62856
1569593311.64418
1569593311.65981
1569593311.67543
1569593311.69106
1569593311.70668
1569593311.72231
1569593311.73794
1569593311.75356
1569593311.76919
1569593311.78481
1569593311.80044
1569593311.81606
1569593311.83169
1569593311.84732
1569593311.86294
1569593311.87857
1569593311.89419
1569593311.90982
1569593311.92544
1569593311.94107
1569593311.9567
1569593311.97232
1569593311.98795
1569593312.00357
1569593312.0192
1569593312.03483
1569593312.05045
1569593312.06608
1569593312.0817
1569593312.09733
1569593312.11295
1569593312.12858
1569593312.14421
1569593312.15983
1569593312.17546
1569593312.19108
1569593312.20671
1569593312.22233
1569593312.23796
1569593312.25359
1569593312.26921
1569593312.28484
1569593312.30046
1569593312.31609
1569593312.33171
1569593312.34734
1569593312.36297
1569593312.37859
1569593312.39422
1569593312.40984
1569593312.42547
1569593312.44109
1569593312.45672
1569593312.47235
1569593312.48797
1569593312.5036
1569593312.51922
1569593312.53485
1569593312.55047
1569593312.5661
1569593312.58173
1569593312.59735
1569593312.61298
1569593312.6286
1569593312.64423
1569593312.65985
1569593312.67548
1569593312.69111
1569593312.70673
1569593312.72236
1569593312.73798
1569593312.75361
1569593312.76923
1569593312.78486
1569593312.80049
1569593312.81611
1569593312.83174
1569593312.84736
1569593312.86299
1569593312.87861
1569593312.89424
1569593312.90987
1569593312.92549
1569593312.94112
1569593312.95674
1569593312.97237
1569593312.98799
1569593313.00362
1569593313.01925
1569593313.03487
1569593313.0505
1569593313.06612
1569593313.08175
1569593313.09737
1569593313.113
1569593313.12863
1569593313.14425
1569593313.15988
1569593313.1755
1569593313.19113
1569593313.20675
1569593313.22238
1569593313.23801
1569593313.25363
1569593313.26926
1569593313.28488
1569593313.30051
1569593313.31613
1569593313.33176
1569593313.34739
1569593313.36301
1569593313.37864
1569593313.39426
1569593313.40989
1569593313.42551
1569593313.44114
1569593313.45677
1569593313.47239
1569593313.48802
1569593313.50364
1569593313.51927
1569593313.53489
1569593313.55052
1569593313.56615
1569593313.58177
1569593313.5974
1569593313.61302
1569593313.62865
1569593313.64427
1569593313.6599
1569593313.67553
1569593313.69115
1569593313.70678
1569593313.7224
1569593313.73803
1569593313.75365
1569593313.76928
1569593313.78491
1569593313.80053
1569593313.81616
1569593313.83178
1569593313.84741
1569593313.86303
1569593313.87866
1569593313.89429
1569593313.90991
1569593313.92554
1569593313.94116
1569593313.95679
1569593313.97241
1569593313.98804
1569593314.00367
1569593314.01929
1569593314.03492
1569593314.05054
1569593314.06617
1569593314.08179
1569593314.09742
1569593314.11305
1569593314.12867
1569593314.1443
1569593314.15992
1569593314.17555
1569593314.19117
1569593314.2068
1569593314.22243
1569593314.23805
1569593314.25368
1569593314.2693
1569593314.28493
1569593314.30055
1569593314.31618
1569593314.33181
1569593314.34743
1569593314.36306
1569593314.37868
1569593314.39431
1569593314.40994
1569593314.42556
1569593314.44119
1569593314.45681
1569593314.47244
1569593314.48806
1569593314.50369
1569593314.51932
1569593314.53494
1569593314.55057
1569593314.56619
1569593314.58182
1569593314.59744
1569593314.61307
1569593314.6287
1569593314.64432
1569593314.65995
1569593314.67557
1569593314.6912
1569593314.70682
1569593314.72245
1569593314.73808
1569593314.7537
1569593314.76933
1569593314.78495
1569593314.80058
1569593314.8162
1569593314.83183
1569593314.84746
1569593314.86308
1569593314.87871
1569593314.89433
1569593314.90996
1569593314.92558
1569593314.94121
1569593314.95684
1569593314.97246
1569593314.98809
1569593315.00371
1569593315.01934
1569593315.03496
1569593315.05059
1569593315.06622
1569593315.08184
1569593315.09747
1569593315.11309
1569593315.12872
1569593315.14434
1569593315.15997
1569593315.1756
1569593315.19122
1569593315.20685
1569593315.22247
1569593315.2381
1569593315.25372
1569593315.26935
1569593315.28498
1569593315.3006
1569593315.31623
1569593315.33185
1569593315.34748
1569593315.3631
1569593315.37873
1569593315.39436
1569593315.40998
1569593315.42561
1569593315.44123
1569593315.45686
1569593315.47248
1569593315.48811
1569593315.50374
1569593315.51936
1569593315.53499
1569593315.55061
1569593315.56624
1569593315.58186
1569593315.59749
1569593315.61312
1569593315.62874
1569593315.64437
1569593315.65999
1569593315.67562
1569593315.69124
1569593315.70687
1569593315.7225
1569593315.73812
1569593315.75375
1569593315.76937
1569593315.785
1569593315.80062
1569593315.81625
1569593315.83188
1569593315.8475
1569593315.86313
1569593315.87875
1569593315.89438
1569593315.91
1569593315.92563
1569593315.94126
1569593315.95688
1569593315.97251
1569593315.98813
1569593316.00376
1569593316.01938
1569593316.03501
1569593316.05064
1569593316.06626
1569593316.08189
1569593316.09751
1569593316.11314
1569593316.12876
1569593316.14439
1569593316.16002
1569593316.17564
1569593316.19127
1569593316.20689
1569593316.22252
1569593316.23814
1569593316.25377
1569593316.2694
1569593316.28502
1569593316.30065
1569593316.31627
1569593316.3319
1569593316.34752
1569593316.36315
1569593316.37878
1569593316.3944
1569593316.41003
1569593316.42565
1569593316.44128
1569593316.4569
1569593316.47253
1569593316.48816
1569593316.50378
1569593316.51941
1569593316.53503
1569593316.55066
1569593316.56628
1569593316.58191
1569593316.59754
1569593316.61316
1569593316.62879
1569593316.64441
1569593316.66004
1569593316.67566
1569593316.69129
1569593316.70692
1569593316.72254
1569593316.73817
1569593316.75379
1569593316.76942
1569593316.78504
1569593316.80067
1569593316.8163
1569593316.83192
1569593316.84755
1569593316.86317
1569593316.8788
1569593316.89443
1569593316.91005
1569593316.92568
1569593316.9413
1569593316.95693
1569593316.97255
1569593316.98818
1569593317.00381
1569593317.01943
1569593317.03506
1569593317.05068
1569593317.06631
1569593317.08193
1569593317.09756
1569593317.11319
1569593317.12881
1569593317.14444
1569593317.16006
1569593317.17569
1569593317.19131
1569593317.20694
1569593317.22257
1569593317.23819
1569593317.25382
1569593317.26944
1569593317.28507
1569593317.30069
1569593317.31632
1569593317.33195
1569593317.34757
1569593317.3632
1569593317.37882
1569593317.39445
1569593317.41007
1569593317.4257
1569593317.44133
1569593317.45695
1569593317.47258
1569593317.4882
1569593317.50383
1569593317.51945
1569593317.53508
1569593317.55071
1569593317.56633
1569593317.58196
1569593317.59758
1569593317.61321
1569593317.62883
1569593317.64446
1569593317.66009
1569593317.67571
1569593317.69134
1569593317.70696
1569593317.72259
1569593317.73821
1569593317.75384
1569593317.76947
1569593317.78509
1569593317.80072
1569593317.81634
1569593317.83197
1569593317.84759
1569593317.86322
1569593317.87885
1569593317.89447
1569593317.9101
1569593317.92572
1569593317.94135
1569593317.95697
1569593317.9726
1569593317.98823
1569593318.00385
1569593318.01948
1569593318.0351
1569593318.05073
1569593318.06635
1569593318.08198
1569593318.09761
1569593318.11323
1569593318.12886
1569593318.14448
1569593318.16011
1569593318.17573
1569593318.19136
1569593318.20699
1569593318.22261
1569593318.23824
1569593318.25386
1569593318.26949
1569593318.28511
1569593318.30074
1569593318.31637
1569593318.33199
1569593318.34762
1569593318.36324
1569593318.37887
1569593318.39449
1569593318.41012
1569593318.42575
1569593318.44137
1569593318.457
1569593318.47262
1569593318.48825
1569593318.50387
1569593318.5195
1569593318.53513
1569593318.55075
1569593318.56638
1569593318.582
1569593318.59763
1569593318.61325
1569593318.62888
1569593318.64451
1569593318.66013
1569593318.67576
1569593318.69138
1569593318.70701
1569593318.72263
1569593318.73826
1569593318.75389
1569593318.76951
1569593318.78514
1569593318.80076
1569593318.81639
1569593318.83201
1569593318.84764
1569593318.86327
1569593318.87889
1569593318.89452
1569593318.91014
1569593318.92577
1569593318.94139
1569593318.95702
1569593318.97265
1569593318.98827
1569593319.0039
1569593319.01952
1569593319.03515
1569593319.05077
1569593319.0664
1569593319.08203
1569593319.09765
1569593319.11328
1569593319.1289
1569593319.14453
1569593319.16016
1569593319.17578
1569593319.19141
1569593319.20703
1569593319.22266
1569593319.23828
1569593319.25391
1569593319.26954
1569593319.28516
1569593319.30079
1569593319.31641
1569593319.33204
1569593319.34766
1569593319.36329
1569593319.37892
1569593319.39454
1569593319.41017
1569593319.42579
1569593319.44142
1569593319.45704
1569593319.47267
1569593319.4883
1569593319.50392
1569593319.51955
1569593319.53517
1569593319.5508
1569593319.56642
1569593319.58205
1569593319.59768
1569593319.6133
1569593319.62893
1569593319.64455
1569593319.66018
1569593319.6758
1569593319.69143
1569593319.70706
1569593319.72268
1569593319.73831
1569593319.75393
1569593319.76956
1569593319.78518
1569593319.80081
1569593319.81644
1569593319.83206
1569593319.84769
1569593319.86331
1569593319.87894
1569593319.89456
1569593319.91019
1569593319.92582
1569593319.94144
1569593319.95707
1569593319.97269
1569593319.98832
1569593320.00394
1569593320.01957
1569593320.0352
1569593320.05082
1569593320.06645
1569593320.08207
1569593320.0977
1569593320.11332
1569593320.12895
1569593320.14458
1569593320.1602
1569593320.17583
1569593320.19145
1569593320.20708
1569593320.2227
1569593320.23833
1569593320.25396
1569593320.26958
1569593320.28521
1569593320.30083
1569593320.31646
1569593320.33208
1569593320.34771
1569593320.36334
1569593320.37896
1569593320.39459
1569593320.41021
1569593320.42584
1569593320.44146
1569593320.45709
1569593320.47272
1569593320.48834
1569593320.50397
1569593320.51959
1569593320.53522
1569593320.55084
1569593320.56647
1569593320.5821
1569593320.59772
1569593320.61335
1569593320.62897
1569593320.6446
1569593320.66022
1569593320.67585
1569593320.69148
1569593320.7071
1569593320.72273
1569593320.73835
1569593320.75398
1569593320.7696
1569593320.78523
1569593320.80086
1569593320.81648
1569593320.83211
1569593320.84773
1569593320.86336
1569593320.87898
1569593320.89461
1569593320.91024
1569593320.92586
1569593320.94149
1569593320.95711
1569593320.97274
1569593320.98836
1569593321.00399
1569593321.01962
1569593321.03524
1569593321.05087
1569593321.06649
1569593321.08212
1569593321.09774
1569593321.11337
1569593321.129
1569593321.14462
1569593321.16025
1569593321.17587
1569593321.1915
1569593321.20712
1569593321.22275
1569593321.23838
1569593321.254
1569593321.26963
1569593321.28525
1569593321.30088
1569593321.3165
1569593321.33213
1569593321.34776
1569593321.36338
1569593321.37901
1569593321.39463
1569593321.41026
1569593321.42588
1569593321.44151
1569593321.45714
1569593321.47276
1569593321.48839
1569593321.50401
1569593321.51964
1569593321.53526
1569593321.55089
1569593321.56652
1569593321.58214
1569593321.59777
1569593321.61339
1569593321.62902
1569593321.64464
1569593321.66027
1569593321.6759
1569593321.69152
1569593321.70715
1569593321.72277
1569593321.7384
1569593321.75403
1569593321.76965
1569593321.78528
1569593321.8009
1569593321.81653
1569593321.83215
1569593321.84778
1569593321.86341
1569593321.87903
1569593321.89466
1569593321.91028
1569593321.92591
1569593321.94153
1569593321.95716
1569593321.97279
1569593321.98841
1569593322.00404
1569593322.01966
1569593322.03529
1569593322.05091
1569593322.06654
1569593322.08217
1569593322.09779
1569593322.11342
1569593322.12904
1569593322.14467
1569593322.16029
1569593322.17592
1569593322.19155
1569593322.20717
1569593322.2228
1569593322.23842
1569593322.25405
1569593322.26967
1569593322.2853
1569593322.30093
1569593322.31655
1569593322.33218
1569593322.3478
1569593322.36343
1569593322.37905
1569593322.39468
1569593322.41031
1569593322.42593
1569593322.44156
1569593322.45718
1569593322.47281
1569593322.48843
1569593322.50406
1569593322.51969
1569593322.53531
1569593322.55094
1569593322.56656
1569593322.58219
1569593322.59781
1569593322.61344
1569593322.62907
1569593322.64469
1569593322.66032
1569593322.67594
1569593322.69157
1569593322.70719
1569593322.72282
1569593322.73845
1569593322.75407
1569593322.7697
1569593322.78532
1569593322.80095
1569593322.81657
1569593322.8322
1569593322.84783
1569593322.86345
1569593322.87908
1569593322.8947
1569593322.91033
1569593322.92595
1569593322.94158
1569593322.95721
1569593322.97283
1569593322.98846
1569593323.00408
1569593323.01971
1569593323.03533
1569593323.05096
1569593323.06659
1569593323.08221
1569593323.09784
1569593323.11346
1569593323.12909
1569593323.14471
1569593323.16034
1569593323.17597
1569593323.19159
1569593323.20722
1569593323.22284
1569593323.23847
1569593323.25409
1569593323.26972
1569593323.28535
1569593323.30097
1569593323.3166
1569593323.33222
1569593323.34785
1569593323.36347
1569593323.3791
1569593323.39473
1569593323.41035
1569593323.42598
1569593323.4416
1569593323.45723
1569593323.47285
1569593323.48848
1569593323.50411
1569593323.51973
1569593323.53536
1569593323.55098
1569593323.56661
1569593323.58223
1569593323.59786
1569593323.61349
1569593323.62911
1569593323.64474
1569593323.66036
1569593323.67599
1569593323.69161
1569593323.70724
1569593323.72287
1569593323.73849
1569593323.75412
1569593323.76974
1569593323.78537
1569593323.80099
1569593323.81662
1569593323.83225
1569593323.84787
1569593323.8635
1569593323.87912
1569593323.89475
1569593323.91037
1569593323.926
1569593323.94163
1569593323.95725
1569593323.97288
1569593323.9885
1569593324.00413
1569593324.01976
1569593324.03538
1569593324.05101
1569593324.06663
1569593324.08226
1569593324.09788
1569593324.11351
1569593324.12914
1569593324.14476
1569593324.16039
1569593324.17601
1569593324.19164
1569593324.20726
1569593324.22289
1569593324.23852
1569593324.25414
1569593324.26977
1569593324.28539
1569593324.30102
1569593324.31664
1569593324.33227
1569593324.3479
1569593324.36352
1569593324.37915
1569593324.39477
1569593324.4104
1569593324.42602
1569593324.44165
1569593324.45728
1569593324.4729
1569593324.48853
1569593324.50415
1569593324.51978
1569593324.5354
1569593324.55103
1569593324.56666
1569593324.58228
1569593324.59791
1569593324.61353
1569593324.62916
1569593324.64478
1569593324.66041
1569593324.67604
1569593324.69166
1569593324.70729
1569593324.72291
1569593324.73854
1569593324.75416
1569593324.76979
1569593324.78542
1569593324.80104
1569593324.81667
1569593324.83229
1569593324.84792
1569593324.86354
1569593324.87917
1569593324.8948
1569593324.91042
1569593324.92605
1569593324.94167
1569593324.9573
1569593324.97292
1569593324.98855
1569593325.00418
1569593325.0198
1569593325.03543
1569593325.05105
1569593325.06668
1569593325.0823
1569593325.09793
1569593325.11356
1569593325.12918
1569593325.14481
1569593325.16043
1569593325.17606
1569593325.19168
1569593325.20731
1569593325.22294
1569593325.23856
1569593325.25419
1569593325.26981
1569593325.28544
1569593325.30106
1569593325.31669
1569593325.33232
1569593325.34794
1569593325.36357
1569593325.37919
1569593325.39482
1569593325.41044
1569593325.42607
1569593325.4417
1569593325.45732
1569593325.47295
1569593325.48857
1569593325.5042
1569593325.51982
1569593325.53545
1569593325.55108
1569593325.5667
1569593325.58233
1569593325.59795
1569593325.61358
1569593325.6292
1569593325.64483
1569593325.66046
1569593325.67608
1569593325.69171
1569593325.70733
1569593325.72296
1569593325.73858
1569593325.75421
1569593325.76984
1569593325.78546
1569593325.80109
1569593325.81671
1569593325.83234
1569593325.84796
1569593325.86359
1569593325.87922
1569593325.89484
1569593325.91047
1569593325.92609
1569593325.94172
1569593325.95734
1569593325.97297
1569593325.9886
1569593326.00422
1569593326.01985
1569593326.03547
1569593326.0511
1569593326.06672
1569593326.08235
1569593326.09798
1569593326.1136
1569593326.12923
1569593326.14485
1569593326.16048
1569593326.17611
1569593326.19173
1569593326.20736
1569593326.22298
1569593326.23861
1569593326.25423
1569593326.26986
1569593326.28549
1569593326.30111
1569593326.31674
1569593326.33236
1569593326.34799
1569593326.36361
1569593326.37924
1569593326.39487
1569593326.41049
1569593326.42612
1569593326.44174
1569593326.45737
1569593326.47299
1569593326.48862
1569593326.50425
1569593326.51987
1569593326.5355
1569593326.55112
1569593326.56675
1569593326.58237
1569593326.598
1569593326.61363
1569593326.62925
1569593326.64488
1569593326.6605
1569593326.67613
1569593326.69175
1569593326.70738
1569593326.72301
1569593326.73863
1569593326.75426
1569593326.76988
1569593326.78551
1569593326.80113
1569593326.81676
1569593326.83239
1569593326.84801
1569593326.86364
1569593326.87926
1569593326.89489
1569593326.91051
1569593326.92614
1569593326.94177
1569593326.95739
1569593326.97302
1569593326.98864
1569593327.00427
1569593327.01989
1569593327.03552
1569593327.05115
1569593327.06677
1569593327.0824
1569593327.09802
1569593327.11365
1569593327.12927
1569593327.1449
1569593327.16053
1569593327.17615
1569593327.19178
1569593327.2074
1569593327.22303
1569593327.23865
1569593327.25428
1569593327.26991
1569593327.28553
1569593327.30116
1569593327.31678
1569593327.33241
1569593327.34803
1569593327.36366
1569593327.37929
1569593327.39491
1569593327.41054
1569593327.42616
1569593327.44179
1569593327.45741
1569593327.47304
1569593327.48867
1569593327.50429
1569593327.51992
1569593327.53554
1569593327.55117
1569593327.56679
1569593327.58242
1569593327.59805
1569593327.61367
1569593327.6293
1569593327.64492
1569593327.66055
1569593327.67617
1569593327.6918
1569593327.70743
1569593327.72305
1569593327.73868
1569593327.7543
1569593327.76993
1569593327.78555
1569593327.80118
1569593327.81681
1569593327.83243
1569593327.84806
1569593327.86368
1569593327.87931
1569593327.89493
1569593327.91056
1569593327.92619
1569593327.94181
1569593327.95744
1569593327.97306
1569593327.98869
1569593328.00431
1569593328.01994
1569593328.03557
1569593328.05119
1569593328.06682
1569593328.08244
1569593328.09807
1569593328.11369
1569593328.12932
1569593328.14495
1569593328.16057
1569593328.1762
1569593328.19182
1569593328.20745
1569593328.22307
1569593328.2387
1569593328.25433
1569593328.26995
1569593328.28558
1569593328.3012
1569593328.31683
1569593328.33245
1569593328.34808
1569593328.36371
1569593328.37933
1569593328.39496
1569593328.41058
1569593328.42621
1569593328.44183
1569593328.45746
1569593328.47309
1569593328.48871
1569593328.50434
1569593328.51996
1569593328.53559
1569593328.55121
1569593328.56684
1569593328.58247
1569593328.59809
1569593328.61372
1569593328.62934
1569593328.64497
1569593328.66059
1569593328.67622
1569593328.69185
1569593328.70747
1569593328.7231
1569593328.73872
1569593328.75435
1569593328.76997
1569593328.7856
1569593328.80123
1569593328.81685
1569593328.83248
1569593328.8481
1569593328.86373
1569593328.87936
1569593328.89498
1569593328.91061
1569593328.92623
1569593328.94186
1569593328.95748
1569593328.97311
1569593328.98874
1569593329.00436
1569593329.01999
1569593329.03561
1569593329.05124
1569593329.06686
1569593329.08249
1569593329.09812
1569593329.11374
1569593329.12937
1569593329.14499
1569593329.16062
1569593329.17624
1569593329.19187
1569593329.2075
1569593329.22312
1569593329.23875
1569593329.25437
1569593329.27
1569593329.28562
1569593329.30125
1569593329.31688
1569593329.3325
1569593329.34813
1569593329.36375
1569593329.37938
1569593329.395
1569593329.41063
1569593329.42626
1569593329.44188
1569593329.45751
1569593329.47313
1569593329.48876
1569593329.50438
1569593329.52001
1569593329.53564
1569593329.55126
1569593329.56689
1569593329.58251
1569593329.59814
1569593329.61376
1569593329.62939
1569593329.64502
1569593329.66064
1569593329.67627
1569593329.69189
1569593329.70752
1569593329.72314
1569593329.73877
1569593329.7544
1569593329.77002
1569593329.78565
1569593329.80127
1569593329.8169
1569593329.83252
1569593329.84815
1569593329.86378
1569593329.8794
1569593329.89503
1569593329.91065
1569593329.92628
1569593329.9419
1569593329.95753
1569593329.97316
1569593329.98878
1569593330.00441
1569593330.02003
1569593330.03566
1569593330.05128
1569593330.06691
1569593330.08254
1569593330.09816
1569593330.11379
1569593330.12941
1569593330.14504
1569593330.16066
1569593330.17629
1569593330.19192
1569593330.20754
1569593330.22317
1569593330.23879
1569593330.25442
1569593330.27004
1569593330.28567
1569593330.3013
1569593330.31692
1569593330.33255
1569593330.34817
1569593330.3638
1569593330.37942
1569593330.39505
1569593330.41068
1569593330.4263
1569593330.44193
1569593330.45755
1569593330.47318
1569593330.4888
1569593330.50443
1569593330.52006
1569593330.53568
1569593330.55131
1569593330.56693
1569593330.58256
1569593330.59818
1569593330.61381
1569593330.62944
1569593330.64506
1569593330.66069
1569593330.67631
1569593330.69194
1569593330.70756
1569593330.72319
1569593330.73882
1569593330.75444
1569593330.77007
1569593330.78569
1569593330.80132
1569593330.81694
1569593330.83257
1569593330.8482
1569593330.86382
1569593330.87945
1569593330.89507
1569593330.9107
1569593330.92632
1569593330.94195
1569593330.95758
1569593330.9732
1569593330.98883
1569593331.00445
1569593331.02008
1569593331.03571
1569593331.05133
1569593331.06696
1569593331.08258
1569593331.09821
1569593331.11383
1569593331.12946
1569593331.14509
1569593331.16071
1569593331.17634
1569593331.19196
1569593331.20759
1569593331.22321
1569593331.23884
1569593331.25447
1569593331.27009
1569593331.28572
1569593331.30134
1569593331.31697
1569593331.33259
1569593331.34822
1569593331.36385
1569593331.37947
1569593331.3951
1569593331.41072
1569593331.42635
1569593331.44197
1569593331.4576
1569593331.47323
1569593331.48885
1569593331.50448
1569593331.5201
1569593331.53573
1569593331.55135
1569593331.56698
1569593331.58261
1569593331.59823
1569593331.61386
1569593331.62948
1569593331.64511
1569593331.66073
1569593331.67636
1569593331.69199
1569593331.70761
1569593331.72324
1569593331.73886
1569593331.75449
1569593331.77011
1569593331.78574
1569593331.80137
1569593331.81699
1569593331.83262
1569593331.84824
1569593331.86387
1569593331.87949
1569593331.89512
1569593331.91075
1569593331.92637
1569593331.942
1569593331.95762
1569593331.97325
1569593331.98887
1569593332.0045
1569593332.02013
1569593332.03575
1569593332.05138
1569593332.067
1569593332.08263
1569593332.09825
1569593332.11388
1569593332.12951
1569593332.14513
1569593332.16076
1569593332.17638
1569593332.19201
1569593332.20763
1569593332.22326
1569593332.23889
1569593332.25451
1569593332.27014
1569593332.28576
1569593332.30139
1569593332.31701
1569593332.33264
1569593332.34827
1569593332.36389
1569593332.37952
1569593332.39514
1569593332.41077
1569593332.42639
1569593332.44202
1569593332.45765
1569593332.47327
1569593332.4889
1569593332.50452
1569593332.52015
1569593332.53577
1569593332.5514
1569593332.56703
1569593332.58265
1569593332.59828
1569593332.6139
1569593332.62953
1569593332.64515
1569593332.66078
1569593332.67641
1569593332.69203
1569593332.70766
1569593332.72328
1569593332.73891
1569593332.75453
1569593332.77016
1569593332.78579
1569593332.80141
1569593332.81704
1569593332.83266
1569593332.84829
1569593332.86391
1569593332.87954
1569593332.89517
1569593332.91079
1569593332.92642
1569593332.94204
1569593332.95767
1569593332.97329
1569593332.98892
1569593333.00455
1569593333.02017
1569593333.0358
1569593333.05142
1569593333.06705
1569593333.08267
1569593333.0983
1569593333.11393
1569593333.12955
1569593333.14518
1569593333.1608
1569593333.17643
1569593333.19205
1569593333.20768
1569593333.22331
1569593333.23893
1569593333.25456
1569593333.27018
1569593333.28581
1569593333.30143
1569593333.31706
1569593333.33269
1569593333.34831
1569593333.36394
1569593333.37956
1569593333.39519
1569593333.41082
1569593333.42644
1569593333.44207
1569593333.45769
1569593333.47332
1569593333.48894
1569593333.50457
1569593333.5202
1569593333.53582
1569593333.55145
1569593333.56707
1569593333.5827
1569593333.59832
1569593333.61395
1569593333.62958
1569593333.6452
1569593333.66083
1569593333.67645
1569593333.69208
1569593333.7077
1569593333.72333
1569593333.73896
1569593333.75458
1569593333.77021
1569593333.78583
1569593333.80146
1569593333.81708
1569593333.83271
1569593333.84834
1569593333.86396
1569593333.87959
1569593333.89521
1569593333.91084
1569593333.92646
1569593333.94209
1569593333.95772
1569593333.97334
1569593333.98897
1569593334.00459
1569593334.02022
1569593334.03584
1569593334.05147
1569593334.0671
1569593334.08272
1569593334.09835
1569593334.11397
1569593334.1296
1569593334.14522
1569593334.16085
1569593334.17648
1569593334.1921
1569593334.20773
1569593334.22335
1569593334.23898
1569593334.2546
1569593334.27023
1569593334.28586
1569593334.30148
1569593334.31711
1569593334.33273
1569593334.34836
1569593334.36398
1569593334.37961
1569593334.39524
1569593334.41086
1569593334.42649
1569593334.44211
1569593334.45774
1569593334.47336
1569593334.48899
1569593334.50462
1569593334.52024
1569593334.53587
1569593334.55149
1569593334.56712
1569593334.58274
1569593334.59837
1569593334.614
1569593334.62962
1569593334.64525
1569593334.66087
1569593334.6765
1569593334.69212
1569593334.70775
1569593334.72338
1569593334.739
1569593334.75463
1569593334.77025
1569593334.78588
1569593334.8015
1569593334.81713
1569593334.83276
1569593334.84838
1569593334.86401
1569593334.87963
1569593334.89526
1569593334.91088
1569593334.92651
1569593334.94214
1569593334.95776
1569593334.97339
1569593334.98901
1569593335.00464
1569593335.02026
1569593335.03589
1569593335.05152
1569593335.06714
1569593335.08277
1569593335.09839
1569593335.11402
1569593335.12964
1569593335.14527
1569593335.1609
1569593335.17652
1569593335.19215
1569593335.20777
1569593335.2234
1569593335.23902
1569593335.25465
1569593335.27028
1569593335.2859
1569593335.30153
1569593335.31715
1569593335.33278
1569593335.3484
1569593335.36403
1569593335.37966
1569593335.39528
1569593335.41091
1569593335.42653
1569593335.44216
1569593335.45778
1569593335.47341
1569593335.48904
1569593335.50466
1569593335.52029
1569593335.53591
1569593335.55154
1569593335.56716
1569593335.58279
1569593335.59842
1569593335.61404
1569593335.62967
1569593335.64529
1569593335.66092
1569593335.67654
1569593335.69217
1569593335.7078
1569593335.72342
1569593335.73905
1569593335.75467
1569593335.7703
1569593335.78592
1569593335.80155
1569593335.81718
1569593335.8328
1569593335.84843
1569593335.86405
1569593335.87968
1569593335.8953
1569593335.91093
1569593335.92656
1569593335.94218
1569593335.95781
1569593335.97343
1569593335.98906
1569593336.00469
1569593336.02031
1569593336.03594
1569593336.05156
1569593336.06719
1569593336.08281
1569593336.09844
1569593336.11407
1569593336.12969
1569593336.14532
1569593336.16094
1569593336.17657
1569593336.19219
1569593336.20782
1569593336.22345
1569593336.23907
1569593336.2547
1569593336.27032
1569593336.28595
1569593336.30157
1569593336.3172
1569593336.33283
1569593336.34845
1569593336.36408
1569593336.3797
1569593336.39533
1569593336.41095
1569593336.42658
1569593336.44221
1569593336.45783
1569593336.47346
1569593336.48908
1569593336.50471
1569593336.52033
1569593336.53596
1569593336.55159
1569593336.56721
1569593336.58284
1569593336.59846
1569593336.61409
1569593336.62971
1569593336.64534
1569593336.66097
1569593336.67659
1569593336.69222
1569593336.70784
1569593336.72347
1569593336.73909
1569593336.75472
1569593336.77035
1569593336.78597
1569593336.8016
1569593336.81722
1569593336.83285
1569593336.84847
1569593336.8641
1569593336.87973
1569593336.89535
1569593336.91098
1569593336.9266
1569593336.94223
1569593336.95785
1569593336.97348
1569593336.98911
1569593337.00473
1569593337.02036
1569593337.03598
1569593337.05161
1569593337.06723
1569593337.08286
1569593337.09849
1569593337.11411
1569593337.12974
1569593337.14536
1569593337.16099
1569593337.17661
1569593337.19224
1569593337.20787
1569593337.22349
1569593337.23912
1569593337.25474
1569593337.27037
1569593337.28599
1569593337.30162
1569593337.31725
1569593337.33287
1569593337.3485
1569593337.36412
1569593337.37975
1569593337.39537
1569593337.411
1569593337.42663
1569593337.44225
1569593337.45788
1569593337.4735
1569593337.48913
1569593337.50475
1569593337.52038
1569593337.53601
1569593337.55163
1569593337.56726
1569593337.58288
1569593337.59851
1569593337.61413
1569593337.62976
1569593337.64539
1569593337.66101
1569593337.67664
1569593337.69226
1569593337.70789
1569593337.72351
1569593337.73914
1569593337.75477
1569593337.77039
1569593337.78602
1569593337.80164
1569593337.81727
1569593337.83289
1569593337.84852
1569593337.86415
1569593337.87977
1569593337.8954
1569593337.91102
1569593337.92665
1569593337.94227
1569593337.9579
1569593337.97353
1569593337.98915
1569593338.00478
1569593338.0204
1569593338.03603
1569593338.05165
1569593338.06728
1569593338.08291
1569593338.09853
1569593338.11416
1569593338.12978
1569593338.14541
1569593338.16104
1569593338.17666
1569593338.19229
1569593338.20791
1569593338.22354
1569593338.23916
1569593338.25479
1569593338.27042
1569593338.28604
1569593338.30167
1569593338.31729
1569593338.33292
1569593338.34854
1569593338.36417
1569593338.3798
1569593338.39542
1569593338.41105
1569593338.42667
1569593338.4423
1569593338.45792
1569593338.47355
1569593338.48918
1569593338.5048
1569593338.52043
1569593338.53605
1569593338.55168
1569593338.5673
1569593338.58293
1569593338.59856
1569593338.61418
1569593338.62981
1569593338.64543
1569593338.66106
1569593338.67668
1569593338.69231
1569593338.70794
1569593338.72356
1569593338.73919
1569593338.75481
1569593338.77044
1569593338.78606
1569593338.80169
1569593338.81732
1569593338.83294
1569593338.84857
1569593338.86419
1569593338.87982
1569593338.89544
1569593338.91107
1569593338.9267
1569593338.94232
1569593338.95795
1569593338.97357
1569593338.9892
1569593339.00482
1569593339.02045
1569593339.03608
1569593339.0517
1569593339.06733
1569593339.08295
1569593339.09858
1569593339.1142
1569593339.12983
1569593339.14546
1569593339.16108
1569593339.17671
1569593339.19233
1569593339.20796
1569593339.22358
1569593339.23921
1569593339.25484
1569593339.27046
1569593339.28609
1569593339.30171
1569593339.31734
1569593339.33296
1569593339.34859
1569593339.36422
1569593339.37984
1569593339.39547
1569593339.41109
1569593339.42672
1569593339.44234
1569593339.45797
1569593339.4736
1569593339.48922
1569593339.50485
1569593339.52047
1569593339.5361
1569593339.55172
1569593339.56735
1569593339.58298
1569593339.5986
1569593339.61423
1569593339.62985
1569593339.64548
1569593339.6611
1569593339.67673
1569593339.69236
1569593339.70798
1569593339.72361
1569593339.73923
1569593339.75486
1569593339.77048
1569593339.78611
1569593339.80174
1569593339.81736
1569593339.83299
1569593339.84861
1569593339.86424
1569593339.87986
1569593339.89549
1569593339.91112
1569593339.92674
1569593339.94237
1569593339.95799
1569593339.97362
1569593339.98924
1569593340.00487
1569593340.0205
1569593340.03612
1569593340.05175
1569593340.06737
1569593340.083
1569593340.09862
1569593340.11425
1569593340.12988
1569593340.1455
1569593340.16113
1569593340.17675
1569593340.19238
1569593340.208
1569593340.22363
1569593340.23926
1569593340.25488
1569593340.27051
1569593340.28613
1569593340.30176
1569593340.31738
1569593340.33301
1569593340.34864
1569593340.36426
1569593340.37989
1569593340.39551
1569593340.41114
1569593340.42676
1569593340.44239
1569593340.45802
1569593340.47364
1569593340.48927
1569593340.50489
1569593340.52052
1569593340.53614
1569593340.55177
1569593340.5674
1569593340.58302
1569593340.59865
1569593340.61427
1569593340.6299
1569593340.64552
1569593340.66115
1569593340.67678
1569593340.6924
1569593340.70803
1569593340.72365
1569593340.73928
1569593340.7549
1569593340.77053
1569593340.78616
1569593340.80178
1569593340.81741
1569593340.83303
1569593340.84866
1569593340.86429
1569593340.87991
1569593340.89554
1569593340.91116
1569593340.92679
1569593340.94241
1569593340.95804
1569593340.97367
1569593340.98929
1569593341.00492
1569593341.02054
1569593341.03617
1569593341.05179
1569593341.06742
1569593341.08305
1569593341.09867
1569593341.1143
1569593341.12992
1569593341.14555
1569593341.16117
1569593341.1768
1569593341.19243
1569593341.20805
1569593341.22368
1569593341.2393
1569593341.25493
1569593341.27055
1569593341.28618
1569593341.30181
1569593341.31743
1569593341.33306
1569593341.34868
1569593341.36431
1569593341.37993
1569593341.39556
1569593341.41119
1569593341.42681
1569593341.44244
1569593341.45806
1569593341.47369
1569593341.48931
1569593341.50494
1569593341.52057
1569593341.53619
1569593341.55182
1569593341.56744
1569593341.58307
1569593341.59869
1569593341.61432
1569593341.62995
1569593341.64557
1569593341.6612
1569593341.67682
1569593341.69245
1569593341.70807
1569593341.7237
1569593341.73933
1569593341.75495
1569593341.77058
1569593341.7862
1569593341.80183
1569593341.81745
1569593341.83308
1569593341.84871
1569593341.86433
1569593341.87996
1569593341.89558
1569593341.91121
1569593341.92683
1569593341.94246
1569593341.95809
1569593341.97371
1569593341.98934
1569593342.00496
1569593342.02059
1569593342.03621
1569593342.05184
1569593342.06747
1569593342.08309
1569593342.09872
1569593342.11434
1569593342.12997
1569593342.14559
1569593342.16122
1569593342.17685
1569593342.19247
1569593342.2081
1569593342.22372
1569593342.23935
1569593342.25497
1569593342.2706
1569593342.28623
1569593342.30185
1569593342.31748
1569593342.3331
1569593342.34873
1569593342.36435
1569593342.37998
1569593342.39561
1569593342.41123
1569593342.42686
1569593342.44248
1569593342.45811
1569593342.47373
1569593342.48936
1569593342.50499
1569593342.52061
1569593342.53624
1569593342.55186
1569593342.56749
1569593342.58311
1569593342.59874
1569593342.61437
1569593342.62999
1569593342.64562
1569593342.66124
1569593342.67687
1569593342.69249
1569593342.70812
1569593342.72375
1569593342.73937
1569593342.755
1569593342.77062
1569593342.78625
1569593342.80187
1569593342.8175
1569593342.83313
1569593342.84875
1569593342.86438
1569593342.88
1569593342.89563
1569593342.91125
1569593342.92688
1569593342.94251
1569593342.95813
1569593342.97376
1569593342.98938
1569593343.00501
1569593343.02064
1569593343.03626
1569593343.05189
1569593343.06751
1569593343.08314
1569593343.09876
1569593343.11439
1569593343.13002
1569593343.14564
1569593343.16127
1569593343.17689
1569593343.19252
1569593343.20814
1569593343.22377
1569593343.2394
1569593343.25502
1569593343.27065
1569593343.28627
1569593343.3019
1569593343.31752
1569593343.33315
1569593343.34878
1569593343.3644
1569593343.38003
1569593343.39565
1569593343.41128
1569593343.4269
1569593343.44253
1569593343.45816
1569593343.47378
1569593343.48941
1569593343.50503
1569593343.52066
1569593343.53628
1569593343.55191
1569593343.56754
1569593343.58316
1569593343.59879
1569593343.61441
1569593343.63004
1569593343.64566
1569593343.66129
1569593343.67692
1569593343.69254
1569593343.70817
1569593343.72379
1569593343.73942
1569593343.75504
1569593343.77067
1569593343.7863
1569593343.80192
1569593343.81755
1569593343.83317
1569593343.8488
1569593343.86442
1569593343.88005
1569593343.89568
1569593343.9113
1569593343.92693
1569593343.94255
1569593343.95818
1569593343.9738
1569593343.98943
1569593344.00506
1569593344.02068
1569593344.03631
1569593344.05193
1569593344.06756
1569593344.08318
1569593344.09881
1569593344.11444
1569593344.13006
1569593344.14569
1569593344.16131
1569593344.17694
1569593344.19256
1569593344.20819
1569593344.22382
1569593344.23944
1569593344.25507
1569593344.27069
1569593344.28632
1569593344.30194
1569593344.31757
1569593344.3332
1569593344.34882
1569593344.36445
1569593344.38007
1569593344.3957
1569593344.41132
1569593344.42695
1569593344.44258
1569593344.4582
1569593344.47383
1569593344.48945
1569593344.50508
1569593344.5207
1569593344.53633
1569593344.55196
1569593344.56758
1569593344.58321
1569593344.59883
1569593344.61446
1569593344.63008
1569593344.64571
1569593344.66134
