1569594305.70584
1569594305.72147
1569594305.7371
1569594305.75272
1569594305.76835
1569594305.78397
1569594305.7996
1569594305.81522
1569594305.83085
1569594305.84648
1569594305.8621
1569594305.87773
1569594305.89335
1569594305.90898
1569594305.9246
1569594305.94023
1569594305.95586
1569594305.97148
1569594305.98711
1569594306.00273
1569594306.01836
1569594306.03398
1569594306.04961
1569594306.06524
1569594306.08086
1569594306.09649
1569594306.11211
1569594306.12774
1569594306.14336
1569594306.15899
1569594306.17462
1569594306.19024
1569594306.20587
1569594306.22149
1569594306.23712
1569594306.25274
1569594306.26837
1569594306.284
1569594306.29962
1569594306.31525
1569594306.33087
1569594306.3465
1569594306.36213
1569594306.37775
1569594306.39338
1569594306.409
1569594306.42463
1569594306.44025
1569594306.45588
1569594306.47151
1569594306.48713
1569594306.50276
1569594306.51838
1569594306.53401
1569594306.54963
1569594306.56526
1569594306.58089
1569594306.59651
1569594306.61214
1569594306.62776
1569594306.64339
1569594306.65901
1569594306.67464
1569594306.69027
1569594306.70589
1569594306.72152
1569594306.73714
1569594306.75277
1569594306.76839
1569594306.78402
1569594306.79965
1569594306.81527
1569594306.8309
1569594306.84652
1569594306.86215
1569594306.87777
1569594306.8934
1569594306.90903
1569594306.92465
1569594306.94028
1569594306.9559
1569594306.97153
1569594306.98715
1569594307.00278
1569594307.01841
1569594307.03403
1569594307.04966
1569594307.06528
1569594307.08091
1569594307.09653
1569594307.11216
1569594307.12779
1569594307.14341
1569594307.15904
1569594307.17466
1569594307.19029
1569594307.20591
1569594307.22154
1569594307.23717
1569594307.25279
1569594307.26842
1569594307.28404
1569594307.29967
1569594307.31529
1569594307.33092
1569594307.34655
1569594307.36217
1569594307.3778
1569594307.39342
1569594307.40905
1569594307.42467
1569594307.4403
1569594307.45593
1569594307.47155
1569594307.48718
1569594307.5028
1569594307.51843
1569594307.53405
1569594307.54968
1569594307.56531
1569594307.58093
1569594307.59656
1569594307.61218
1569594307.62781
1569594307.64343
1569594307.65906
1569594307.67469
1569594307.69031
1569594307.70594
1569594307.72156
1569594307.73719
1569594307.75281
1569594307.76844
1569594307.78407
1569594307.79969
1569594307.81532
1569594307.83094
1569594307.84657
1569594307.86219
1569594307.87782
1569594307.89345
1569594307.90907
1569594307.9247
1569594307.94032
1569594307.95595
1569594307.97157
1569594307.9872
1569594308.00283
1569594308.01845
1569594308.03408
1569594308.0497
1569594308.06533
1569594308.08095
1569594308.09658
1569594308.11221
1569594308.12783
1569594308.14346
1569594308.15908
1569594308.17471
1569594308.19033
1569594308.20596
1569594308.22159
1569594308.23721
1569594308.25284
1569594308.26846
1569594308.28409
1569594308.29971
1569594308.31534
1569594308.33097
1569594308.34659
1569594308.36222
1569594308.37784
1569594308.39347
1569594308.40909
1569594308.42472
1569594308.44035
1569594308.45597
1569594308.4716
1569594308.48722
1569594308.50285
1569594308.51848
1569594308.5341
1569594308.54973
1569594308.56535
1569594308.58098
1569594308.5966
1569594308.61223
1569594308.62786
1569594308.64348
1569594308.65911
1569594308.67473
1569594308.69036
1569594308.70598
1569594308.72161
1569594308.73724
1569594308.75286
1569594308.76849
1569594308.78411
1569594308.79974
1569594308.81536
1569594308.83099
1569594308.84662
1569594308.86224
1569594308.87787
1569594308.89349
1569594308.90912
1569594308.92474
1569594308.94037
1569594308.956
1569594308.97162
1569594308.98725
1569594309.00287
1569594309.0185
1569594309.03412
1569594309.04975
1569594309.06538
1569594309.081
1569594309.09663
1569594309.11225
1569594309.12788
1569594309.1435
1569594309.15913
1569594309.17476
1569594309.19038
1569594309.20601
1569594309.22163
1569594309.23726
1569594309.25288
1569594309.26851
1569594309.28414
1569594309.29976
1569594309.31539
1569594309.33101
1569594309.34664
1569594309.36226
1569594309.37789
1569594309.39352
1569594309.40914
1569594309.42477
1569594309.44039
1569594309.45602
1569594309.47164
1569594309.48727
1569594309.5029
1569594309.51852
1569594309.53415
1569594309.54977
1569594309.5654
1569594309.58102
1569594309.59665
1569594309.61228
1569594309.6279
1569594309.64353
1569594309.65915
1569594309.67478
1569594309.6904
1569594309.70603
1569594309.72166
1569594309.73728
1569594309.75291
1569594309.76853
1569594309.78416
1569594309.79978
1569594309.81541
1569594309.83104
1569594309.84666
1569594309.86229
1569594309.87791
1569594309.89354
1569594309.90916
1569594309.92479
1569594309.94042
1569594309.95604
1569594309.97167
1569594309.98729
1569594310.00292
1569594310.01854
1569594310.03417
1569594310.0498
1569594310.06542
1569594310.08105
1569594310.09667
1569594310.1123
1569594310.12792
1569594310.14355
1569594310.15918
1569594310.1748
1569594310.19043
1569594310.20605
1569594310.22168
1569594310.2373
1569594310.25293
1569594310.26856
1569594310.28418
1569594310.29981
1569594310.31543
1569594310.33106
1569594310.34668
1569594310.36231
1569594310.37794
1569594310.39356
1569594310.40919
1569594310.42481
1569594310.44044
1569594310.45606
1569594310.47169
1569594310.48732
1569594310.50294
1569594310.51857
1569594310.53419
1569594310.54982
1569594310.56544
1569594310.58107
1569594310.5967
1569594310.61232
1569594310.62795
1569594310.64357
1569594310.6592
1569594310.67482
1569594310.69045
1569594310.70608
1569594310.7217
1569594310.73733
1569594310.75295
1569594310.76858
1569594310.7842
1569594310.79983
1569594310.81546
1569594310.83108
1569594310.84671
1569594310.86233
1569594310.87796
1569594310.89358
1569594310.90921
1569594310.92484
1569594310.94046
1569594310.95609
1569594310.97171
1569594310.98734
1569594311.00296
1569594311.01859
1569594311.03422
1569594311.04984
1569594311.06547
1569594311.08109
1569594311.09672
1569594311.11234
1569594311.12797
1569594311.1436
1569594311.15922
1569594311.17485
1569594311.19047
1569594311.2061
1569594311.22173
1569594311.23735
1569594311.25298
1569594311.2686
1569594311.28423
1569594311.29985
1569594311.31548
1569594311.33111
1569594311.34673
1569594311.36236
1569594311.37798
1569594311.39361
1569594311.40923
1569594311.42486
1569594311.44049
1569594311.45611
1569594311.47174
1569594311.48736
1569594311.50299
1569594311.51861
1569594311.53424
1569594311.54987
1569594311.56549
1569594311.58112
1569594311.59674
1569594311.61237
1569594311.62799
1569594311.64362
1569594311.65925
1569594311.67487
1569594311.6905
1569594311.70612
1569594311.72175
1569594311.73737
1569594311.753
1569594311.76863
1569594311.78425
1569594311.79988
1569594311.8155
1569594311.83113
1569594311.84675
1569594311.86238
1569594311.87801
1569594311.89363
1569594311.90926
1569594311.92488
1569594311.94051
1569594311.95613
1569594311.97176
1569594311.98739
1569594312.00301
1569594312.01864
1569594312.03426
1569594312.04989
1569594312.06551
1569594312.08114
1569594312.09677
1569594312.11239
1569594312.12802
1569594312.14364
1569594312.15927
1569594312.17489
1569594312.19052
1569594312.20615
1569594312.22177
1569594312.2374
1569594312.25302
1569594312.26865
1569594312.28427
1569594312.2999
1569594312.31553
1569594312.33115
1569594312.34678
1569594312.3624
1569594312.37803
1569594312.39365
1569594312.40928
1569594312.42491
1569594312.44053
1569594312.45616
1569594312.47178
1569594312.48741
1569594312.50303
1569594312.51866
1569594312.53429
1569594312.54991
1569594312.56554
1569594312.58116
1569594312.59679
1569594312.61241
1569594312.62804
1569594312.64367
1569594312.65929
1569594312.67492
1569594312.69054
1569594312.70617
1569594312.72179
1569594312.73742
1569594312.75305
1569594312.76867
1569594312.7843
1569594312.79992
1569594312.81555
1569594312.83117
1569594312.8468
1569594312.86243
1569594312.87805
1569594312.89368
1569594312.9093
1569594312.92493
1569594312.94055
1569594312.95618
1569594312.97181
1569594312.98743
1569594313.00306
1569594313.01868
1569594313.03431
1569594313.04993
1569594313.06556
1569594313.08119
1569594313.09681
1569594313.11244
1569594313.12806
1569594313.14369
1569594313.15931
1569594313.17494
1569594313.19057
1569594313.20619
1569594313.22182
1569594313.23744
1569594313.25307
1569594313.26869
1569594313.28432
1569594313.29995
1569594313.31557
1569594313.3312
1569594313.34682
1569594313.36245
1569594313.37808
1569594313.3937
1569594313.40933
1569594313.42495
1569594313.44058
1569594313.4562
1569594313.47183
1569594313.48746
1569594313.50308
1569594313.51871
1569594313.53433
1569594313.54996
1569594313.56558
1569594313.58121
1569594313.59684
1569594313.61246
1569594313.62809
1569594313.64371
1569594313.65934
1569594313.67496
1569594313.69059
1569594313.70622
1569594313.72184
1569594313.73747
1569594313.75309
1569594313.76872
1569594313.78434
1569594313.79997
1569594313.8156
1569594313.83122
1569594313.84685
1569594313.86247
1569594313.8781
1569594313.89372
1569594313.90935
1569594313.92498
1569594313.9406
1569594313.95623
1569594313.97185
1569594313.98748
1569594314.0031
1569594314.01873
1569594314.03436
1569594314.04998
1569594314.06561
1569594314.08123
1569594314.09686
1569594314.11248
1569594314.12811
1569594314.14374
1569594314.15936
1569594314.17499
1569594314.19061
1569594314.20624
1569594314.22186
1569594314.23749
1569594314.25312
1569594314.26874
1569594314.28437
1569594314.29999
1569594314.31562
1569594314.33124
1569594314.34687
1569594314.3625
1569594314.37812
1569594314.39375
1569594314.40937
1569594314.425
1569594314.44062
1569594314.45625
1569594314.47188
1569594314.4875
1569594314.50313
1569594314.51875
1569594314.53438
1569594314.55
1569594314.56563
1569594314.58126
1569594314.59688
1569594314.61251
1569594314.62813
1569594314.64376
1569594314.65938
1569594314.67501
1569594314.69064
1569594314.70626
1569594314.72189
1569594314.73751
1569594314.75314
1569594314.76876
1569594314.78439
1569594314.80002
1569594314.81564
1569594314.83127
1569594314.84689
1569594314.86252
1569594314.87814
1569594314.89377
1569594314.9094
1569594314.92502
1569594314.94065
1569594314.95627
1569594314.9719
1569594314.98752
1569594315.00315
1569594315.01878
1569594315.0344
1569594315.05003
1569594315.06565
1569594315.08128
1569594315.0969
1569594315.11253
1569594315.12816
1569594315.14378
1569594315.15941
1569594315.17503
1569594315.19066
1569594315.20628
1569594315.22191
1569594315.23754
1569594315.25316
1569594315.26879
1569594315.28441
1569594315.30004
1569594315.31566
1569594315.33129
1569594315.34692
1569594315.36254
1569594315.37817
1569594315.39379
1569594315.40942
1569594315.42504
1569594315.44067
1569594315.4563
1569594315.47192
1569594315.48755
1569594315.50317
1569594315.5188
1569594315.53442
1569594315.55005
1569594315.56568
1569594315.5813
1569594315.59693
1569594315.61255
1569594315.62818
1569594315.64381
1569594315.65943
1569594315.67506
1569594315.69068
1569594315.70631
1569594315.72193
1569594315.73756
1569594315.75319
1569594315.76881
1569594315.78444
1569594315.80006
1569594315.81569
1569594315.83131
1569594315.84694
1569594315.86257
1569594315.87819
1569594315.89382
1569594315.90944
1569594315.92507
1569594315.94069
1569594315.95632
1569594315.97195
1569594315.98757
1569594316.0032
1569594316.01882
1569594316.03445
1569594316.05007
1569594316.0657
1569594316.08133
1569594316.09695
1569594316.11258
1569594316.1282
1569594316.14383
1569594316.15945
1569594316.17508
1569594316.19071
1569594316.20633
1569594316.22196
1569594316.23758
1569594316.25321
1569594316.26883
1569594316.28446
1569594316.30009
1569594316.31571
1569594316.33134
1569594316.34696
1569594316.36259
1569594316.37821
1569594316.39384
1569594316.40947
1569594316.42509
1569594316.44072
1569594316.45634
1569594316.47197
1569594316.48759
1569594316.50322
1569594316.51885
1569594316.53447
1569594316.5501
1569594316.56572
1569594316.58135
1569594316.59697
1569594316.6126
1569594316.62823
1569594316.64385
1569594316.65948
1569594316.6751
1569594316.69073
1569594316.70635
1569594316.72198
1569594316.73761
1569594316.75323
1569594316.76886
1569594316.78448
1569594316.80011
1569594316.81573
1569594316.83136
1569594316.84699
1569594316.86261
1569594316.87824
1569594316.89386
1569594316.90949
1569594316.92511
1569594316.94074
1569594316.95637
1569594316.97199
1569594316.98762
1569594317.00324
1569594317.01887
1569594317.03449
1569594317.05012
1569594317.06575
1569594317.08137
1569594317.097
1569594317.11262
1569594317.12825
1569594317.14387
1569594317.1595
1569594317.17513
1569594317.19075
1569594317.20638
1569594317.222
1569594317.23763
1569594317.25325
1569594317.26888
1569594317.28451
1569594317.30013
1569594317.31576
1569594317.33138
1569594317.34701
1569594317.36263
1569594317.37826
1569594317.39389
1569594317.40951
1569594317.42514
1569594317.44076
1569594317.45639
1569594317.47201
1569594317.48764
1569594317.50327
1569594317.51889
1569594317.53452
1569594317.55014
1569594317.56577
1569594317.58139
1569594317.59702
1569594317.61265
1569594317.62827
1569594317.6439
1569594317.65952
1569594317.67515
1569594317.69077
1569594317.7064
1569594317.72203
1569594317.73765
1569594317.75328
1569594317.7689
1569594317.78453
1569594317.80015
1569594317.81578
1569594317.83141
1569594317.84703
1569594317.86266
1569594317.87828
1569594317.89391
1569594317.90953
1569594317.92516
1569594317.94079
1569594317.95641
1569594317.97204
1569594317.98766
1569594318.00329
1569594318.01891
1569594318.03454
1569594318.05017
1569594318.06579
1569594318.08142
1569594318.09704
1569594318.11267
1569594318.12829
1569594318.14392
1569594318.15955
1569594318.17517
1569594318.1908
1569594318.20642
1569594318.22205
1569594318.23767
1569594318.2533
1569594318.26893
1569594318.28455
1569594318.30018
1569594318.3158
1569594318.33143
1569594318.34706
1569594318.36268
1569594318.37831
1569594318.39393
1569594318.40956
1569594318.42518
1569594318.44081
1569594318.45644
1569594318.47206
1569594318.48769
1569594318.50331
1569594318.51894
1569594318.53456
1569594318.55019
1569594318.56582
1569594318.58144
1569594318.59707
1569594318.61269
1569594318.62832
1569594318.64394
1569594318.65957
1569594318.6752
1569594318.69082
1569594318.70645
1569594318.72207
1569594318.7377
1569594318.75332
1569594318.76895
1569594318.78458
1569594318.8002
1569594318.81583
1569594318.83145
1569594318.84708
1569594318.8627
1569594318.87833
1569594318.89396
1569594318.90958
1569594318.92521
1569594318.94083
1569594318.95646
1569594318.97208
1569594318.98771
1569594319.00334
1569594319.01896
1569594319.03459
1569594319.05021
1569594319.06584
1569594319.08146
1569594319.09709
1569594319.11272
1569594319.12834
1569594319.14397
1569594319.15959
1569594319.17522
1569594319.19084
1569594319.20647
1569594319.2221
1569594319.23772
1569594319.25335
1569594319.26897
1569594319.2846
1569594319.30022
1569594319.31585
1569594319.33148
1569594319.3471
1569594319.36273
1569594319.37835
1569594319.39398
1569594319.4096
1569594319.42523
1569594319.44086
1569594319.45648
1569594319.47211
1569594319.48773
1569594319.50336
1569594319.51898
1569594319.53461
1569594319.55024
1569594319.56586
1569594319.58149
1569594319.59711
1569594319.61274
1569594319.62836
1569594319.64399
1569594319.65962
1569594319.67524
1569594319.69087
1569594319.70649
1569594319.72212
1569594319.73774
1569594319.75337
1569594319.769
1569594319.78462
1569594319.80025
1569594319.81587
1569594319.8315
1569594319.84712
1569594319.86275
1569594319.87838
1569594319.894
1569594319.90963
1569594319.92525
1569594319.94088
1569594319.9565
1569594319.97213
1569594319.98776
1569594320.00338
1569594320.01901
1569594320.03463
1569594320.05026
1569594320.06588
1569594320.08151
1569594320.09714
1569594320.11276
1569594320.12839
1569594320.14401
1569594320.15964
1569594320.17526
1569594320.19089
1569594320.20652
1569594320.22214
1569594320.23777
1569594320.25339
1569594320.26902
1569594320.28464
1569594320.30027
1569594320.3159
1569594320.33152
1569594320.34715
1569594320.36277
1569594320.3784
1569594320.39402
1569594320.40965
1569594320.42528
1569594320.4409
1569594320.45653
1569594320.47215
1569594320.48778
1569594320.50341
1569594320.51903
1569594320.53466
1569594320.55028
1569594320.56591
1569594320.58153
1569594320.59716
1569594320.61279
1569594320.62841
1569594320.64404
1569594320.65966
1569594320.67529
1569594320.69091
1569594320.70654
1569594320.72217
1569594320.73779
1569594320.75342
1569594320.76904
1569594320.78467
1569594320.80029
1569594320.81592
1569594320.83155
1569594320.84717
1569594320.8628
1569594320.87842
1569594320.89405
1569594320.90967
1569594320.9253
1569594320.94093
1569594320.95655
1569594320.97218
1569594320.9878
1569594321.00343
1569594321.01905
1569594321.03468
1569594321.05031
1569594321.06593
1569594321.08156
1569594321.09718
1569594321.11281
1569594321.12843
1569594321.14406
1569594321.15969
1569594321.17531
1569594321.19094
1569594321.20656
1569594321.22219
1569594321.23781
1569594321.25344
1569594321.26907
1569594321.28469
1569594321.30032
1569594321.31594
1569594321.33157
1569594321.34719
1569594321.36282
1569594321.37845
1569594321.39407
1569594321.4097
1569594321.42532
1569594321.44095
1569594321.45657
1569594321.4722
1569594321.48783
1569594321.50345
1569594321.51908
1569594321.5347
1569594321.55033
1569594321.56595
1569594321.58158
1569594321.59721
1569594321.61283
1569594321.62846
1569594321.64408
1569594321.65971
1569594321.67533
1569594321.69096
1569594321.70659
1569594321.72221
1569594321.73784
1569594321.75346
1569594321.76909
1569594321.78471
1569594321.80034
1569594321.81597
1569594321.83159
1569594321.84722
1569594321.86284
1569594321.87847
1569594321.89409
1569594321.90972
1569594321.92535
1569594321.94097
1569594321.9566
1569594321.97222
1569594321.98785
1569594322.00347
1569594322.0191
1569594322.03473
1569594322.05035
1569594322.06598
1569594322.0816
1569594322.09723
1569594322.11285
1569594322.12848
1569594322.14411
1569594322.15973
1569594322.17536
1569594322.19098
1569594322.20661
1569594322.22223
1569594322.23786
1569594322.25349
1569594322.26911
1569594322.28474
1569594322.30036
1569594322.31599
1569594322.33161
1569594322.34724
1569594322.36287
1569594322.37849
1569594322.39412
1569594322.40974
1569594322.42537
1569594322.44099
1569594322.45662
1569594322.47225
1569594322.48787
1569594322.5035
1569594322.51912
1569594322.53475
1569594322.55037
1569594322.566
1569594322.58163
1569594322.59725
1569594322.61288
1569594322.6285
1569594322.64413
1569594322.65975
1569594322.67538
1569594322.69101
1569594322.70663
1569594322.72226
1569594322.73788
1569594322.75351
1569594322.76914
1569594322.78476
1569594322.80039
1569594322.81601
1569594322.83164
1569594322.84726
1569594322.86289
1569594322.87852
1569594322.89414
1569594322.90977
1569594322.92539
1569594322.94102
1569594322.95664
1569594322.97227
1569594322.9879
1569594323.00352
1569594323.01915
1569594323.03477
1569594323.0504
1569594323.06602
1569594323.08165
1569594323.09728
1569594323.1129
1569594323.12853
1569594323.14415
1569594323.15978
1569594323.1754
1569594323.19103
1569594323.20666
1569594323.22228
1569594323.23791
1569594323.25353
1569594323.26916
1569594323.28478
1569594323.30041
1569594323.31604
1569594323.33166
1569594323.34729
1569594323.36291
1569594323.37854
1569594323.39416
1569594323.40979
1569594323.42542
1569594323.44104
1569594323.45667
1569594323.47229
1569594323.48792
1569594323.50354
1569594323.51917
1569594323.5348
1569594323.55042
1569594323.56605
1569594323.58167
1569594323.5973
1569594323.61292
1569594323.62855
1569594323.64418
1569594323.6598
1569594323.67543
1569594323.69105
1569594323.70668
1569594323.7223
1569594323.73793
1569594323.75356
1569594323.76918
1569594323.78481
1569594323.80043
1569594323.81606
1569594323.83168
1569594323.84731
1569594323.86294
1569594323.87856
1569594323.89419
1569594323.90981
1569594323.92544
1569594323.94106
1569594323.95669
1569594323.97232
1569594323.98794
1569594324.00357
1569594324.01919
1569594324.03482
1569594324.05044
1569594324.06607
1569594324.0817
1569594324.09732
1569594324.11295
1569594324.12857
1569594324.1442
1569594324.15982
1569594324.17545
1569594324.19108
1569594324.2067
1569594324.22233
1569594324.23795
1569594324.25358
1569594324.2692
1569594324.28483
1569594324.30046
1569594324.31608
1569594324.33171
1569594324.34733
1569594324.36296
1569594324.37858
1569594324.39421
1569594324.40984
1569594324.42546
1569594324.44109
1569594324.45671
1569594324.47234
1569594324.48796
1569594324.50359
1569594324.51922
1569594324.53484
1569594324.55047
1569594324.56609
1569594324.58172
1569594324.59734
1569594324.61297
1569594324.6286
1569594324.64422
1569594324.65985
1569594324.67547
1569594324.6911
1569594324.70672
1569594324.72235
1569594324.73798
1569594324.7536
1569594324.76923
1569594324.78485
1569594324.80048
1569594324.8161
1569594324.83173
1569594324.84736
1569594324.86298
1569594324.87861
1569594324.89423
1569594324.90986
1569594324.92548
1569594324.94111
1569594324.95674
1569594324.97236
1569594324.98799
1569594325.00361
1569594325.01924
1569594325.03486
1569594325.05049
1569594325.06612
1569594325.08174
1569594325.09737
1569594325.11299
1569594325.12862
1569594325.14424
1569594325.15987
1569594325.1755
1569594325.19112
1569594325.20675
1569594325.22237
1569594325.238
1569594325.25362
1569594325.26925
1569594325.28488
1569594325.3005
1569594325.31613
1569594325.33175
1569594325.34738
1569594325.36301
1569594325.37863
1569594325.39426
1569594325.40988
1569594325.42551
1569594325.44113
1569594325.45676
1569594325.47239
1569594325.48801
1569594325.50364
1569594325.51926
1569594325.53489
1569594325.55051
1569594325.56614
1569594325.58177
1569594325.59739
1569594325.61302
1569594325.62864
1569594325.64427
1569594325.65989
1569594325.67552
1569594325.69115
1569594325.70677
1569594325.7224
1569594325.73802
1569594325.75365
1569594325.76927
1569594325.7849
1569594325.80053
1569594325.81615
1569594325.83178
1569594325.8474
1569594325.86303
1569594325.87865
1569594325.89428
1569594325.90991
1569594325.92553
1569594325.94116
1569594325.95678
1569594325.97241
1569594325.98803
1569594326.00366
1569594326.01929
1569594326.03491
1569594326.05054
1569594326.06616
1569594326.08179
1569594326.09741
1569594326.11304
1569594326.12867
1569594326.14429
1569594326.15992
1569594326.17554
1569594326.19117
1569594326.20679
1569594326.22242
1569594326.23805
1569594326.25367
1569594326.2693
1569594326.28492
1569594326.30055
1569594326.31617
1569594326.3318
1569594326.34743
1569594326.36305
1569594326.37868
1569594326.3943
1569594326.40993
1569594326.42555
1569594326.44118
1569594326.45681
1569594326.47243
1569594326.48806
1569594326.50368
1569594326.51931
1569594326.53493
1569594326.55056
1569594326.56619
1569594326.58181
1569594326.59744
1569594326.61306
1569594326.62869
1569594326.64431
1569594326.65994
1569594326.67557
1569594326.69119
1569594326.70682
1569594326.72244
1569594326.73807
1569594326.75369
1569594326.76932
1569594326.78495
1569594326.80057
1569594326.8162
1569594326.83182
1569594326.84745
1569594326.86307
1569594326.8787
1569594326.89433
1569594326.90995
1569594326.92558
1569594326.9412
1569594326.95683
1569594326.97245
1569594326.98808
1569594327.00371
1569594327.01933
1569594327.03496
1569594327.05058
1569594327.06621
1569594327.08183
1569594327.09746
1569594327.11309
1569594327.12871
1569594327.14434
1569594327.15996
1569594327.17559
1569594327.19121
1569594327.20684
1569594327.22247
1569594327.23809
1569594327.25372
1569594327.26934
1569594327.28497
1569594327.30059
1569594327.31622
1569594327.33185
1569594327.34747
1569594327.3631
1569594327.37872
1569594327.39435
1569594327.40997
1569594327.4256
1569594327.44123
1569594327.45685
1569594327.47248
1569594327.4881
1569594327.50373
1569594327.51935
1569594327.53498
1569594327.55061
1569594327.56623
1569594327.58186
1569594327.59748
1569594327.61311
1569594327.62874
1569594327.64436
1569594327.65999
1569594327.67561
1569594327.69124
1569594327.70686
1569594327.72249
1569594327.73812
1569594327.75374
1569594327.76937
1569594327.78499
1569594327.80062
1569594327.81624
1569594327.83187
1569594327.8475
1569594327.86312
1569594327.87875
1569594327.89437
1569594327.91
1569594327.92562
1569594327.94125
1569594327.95688
1569594327.9725
1569594327.98813
1569594328.00375
1569594328.01938
1569594328.035
1569594328.05063
1569594328.06626
1569594328.08188
1569594328.09751
1569594328.11313
1569594328.12876
1569594328.14438
1569594328.16001
1569594328.17564
1569594328.19126
1569594328.20689
1569594328.22251
1569594328.23814
1569594328.25376
1569594328.26939
1569594328.28502
1569594328.30064
1569594328.31627
1569594328.33189
1569594328.34752
1569594328.36314
1569594328.37877
1569594328.3944
1569594328.41002
1569594328.42565
1569594328.44127
1569594328.4569
1569594328.47252
1569594328.48815
1569594328.50378
1569594328.5194
1569594328.53503
1569594328.55065
1569594328.56628
1569594328.5819
1569594328.59753
1569594328.61316
1569594328.62878
1569594328.64441
1569594328.66003
1569594328.67566
1569594328.69128
1569594328.70691
1569594328.72254
1569594328.73816
1569594328.75379
1569594328.76941
1569594328.78504
1569594328.80066
1569594328.81629
1569594328.83192
1569594328.84754
1569594328.86317
1569594328.87879
1569594328.89442
1569594328.91004
1569594328.92567
1569594328.9413
1569594328.95692
1569594328.97255
1569594328.98817
1569594329.0038
1569594329.01942
1569594329.03505
1569594329.05068
1569594329.0663
1569594329.08193
1569594329.09755
1569594329.11318
1569594329.1288
1569594329.14443
1569594329.16006
1569594329.17568
1569594329.19131
1569594329.20693
1569594329.22256
1569594329.23818
1569594329.25381
1569594329.26944
1569594329.28506
1569594329.30069
1569594329.31631
1569594329.33194
1569594329.34756
1569594329.36319
1569594329.37882
1569594329.39444
1569594329.41007
1569594329.42569
1569594329.44132
1569594329.45694
1569594329.47257
1569594329.4882
1569594329.50382
1569594329.51945
1569594329.53507
1569594329.5507
1569594329.56632
1569594329.58195
1569594329.59758
1569594329.6132
1569594329.62883
1569594329.64445
1569594329.66008
1569594329.6757
1569594329.69133
1569594329.70696
1569594329.72258
1569594329.73821
1569594329.75383
1569594329.76946
1569594329.78508
1569594329.80071
1569594329.81634
1569594329.83196
1569594329.84759
1569594329.86321
1569594329.87884
1569594329.89446
1569594329.91009
1569594329.92572
1569594329.94134
1569594329.95697
1569594329.97259
1569594329.98822
1569594330.00384
1569594330.01947
1569594330.0351
1569594330.05072
1569594330.06635
1569594330.08197
1569594330.0976
1569594330.11322
1569594330.12885
1569594330.14448
1569594330.1601
1569594330.17573
1569594330.19135
1569594330.20698
1569594330.22261
1569594330.23823
1569594330.25386
1569594330.26948
1569594330.28511
1569594330.30073
1569594330.31636
1569594330.33199
1569594330.34761
1569594330.36324
1569594330.37886
1569594330.39449
1569594330.41011
1569594330.42574
1569594330.44137
1569594330.45699
1569594330.47262
1569594330.48824
1569594330.50387
1569594330.51949
1569594330.53512
1569594330.55075
1569594330.56637
1569594330.582
1569594330.59762
1569594330.61325
1569594330.62887
1569594330.6445
1569594330.66013
1569594330.67575
1569594330.69138
1569594330.707
1569594330.72263
1569594330.73825
1569594330.75388
1569594330.76951
1569594330.78513
1569594330.80076
1569594330.81638
1569594330.83201
1569594330.84763
1569594330.86326
1569594330.87889
1569594330.89451
1569594330.91014
1569594330.92576
1569594330.94139
1569594330.95701
1569594330.97264
1569594330.98827
1569594331.00389
1569594331.01952
1569594331.03514
1569594331.05077
1569594331.06639
1569594331.08202
1569594331.09765
1569594331.11327
1569594331.1289
1569594331.14452
1569594331.16015
1569594331.17577
1569594331.1914
1569594331.20703
1569594331.22265
1569594331.23828
1569594331.2539
1569594331.26953
1569594331.28515
1569594331.30078
1569594331.31641
1569594331.33203
1569594331.34766
1569594331.36328
1569594331.37891
1569594331.39453
1569594331.41016
1569594331.42579
1569594331.44141
1569594331.45704
1569594331.47266
1569594331.48829
1569594331.50391
1569594331.51954
1569594331.53517
1569594331.55079
1569594331.56642
1569594331.58204
1569594331.59767
1569594331.61329
1569594331.62892
1569594331.64455
1569594331.66017
1569594331.6758
1569594331.69142
1569594331.70705
1569594331.72267
1569594331.7383
1569594331.75393
1569594331.76955
1569594331.78518
1569594331.8008
1569594331.81643
1569594331.83205
1569594331.84768
1569594331.86331
1569594331.87893
1569594331.89456
1569594331.91018
1569594331.92581
1569594331.94143
1569594331.95706
1569594331.97269
1569594331.98831
1569594332.00394
1569594332.01956
1569594332.03519
1569594332.05081
1569594332.06644
1569594332.08207
1569594332.09769
1569594332.11332
1569594332.12894
1569594332.14457
1569594332.16019
1569594332.17582
1569594332.19145
1569594332.20707
1569594332.2227
1569594332.23832
1569594332.25395
1569594332.26957
1569594332.2852
1569594332.30083
1569594332.31645
1569594332.33208
1569594332.3477
1569594332.36333
1569594332.37895
1569594332.39458
1569594332.41021
1569594332.42583
1569594332.44146
1569594332.45708
1569594332.47271
1569594332.48834
1569594332.50396
1569594332.51959
1569594332.53521
1569594332.55084
1569594332.56646
1569594332.58209
1569594332.59772
1569594332.61334
1569594332.62897
1569594332.64459
1569594332.66022
1569594332.67584
1569594332.69147
1569594332.7071
1569594332.72272
1569594332.73835
1569594332.75397
1569594332.7696
1569594332.78522
1569594332.80085
1569594332.81648
1569594332.8321
1569594332.84773
1569594332.86335
1569594332.87898
1569594332.8946
1569594332.91023
1569594332.92586
1569594332.94148
1569594332.95711
1569594332.97273
1569594332.98836
1569594333.00398
1569594333.01961
1569594333.03524
1569594333.05086
1569594333.06649
1569594333.08211
1569594333.09774
1569594333.11336
1569594333.12899
1569594333.14462
1569594333.16024
1569594333.17587
1569594333.19149
1569594333.20712
1569594333.22274
1569594333.23837
1569594333.254
1569594333.26962
1569594333.28525
1569594333.30087
1569594333.3165
1569594333.33212
1569594333.34775
1569594333.36338
1569594333.379
1569594333.39463
1569594333.41025
1569594333.42588
1569594333.4415
1569594333.45713
1569594333.47276
1569594333.48838
1569594333.50401
1569594333.51963
1569594333.53526
1569594333.55088
1569594333.56651
1569594333.58214
1569594333.59776
1569594333.61339
1569594333.62901
1569594333.64464
1569594333.66026
1569594333.67589
1569594333.69152
1569594333.70714
1569594333.72277
1569594333.73839
1569594333.75402
1569594333.76964
1569594333.78527
1569594333.8009
1569594333.81652
1569594333.83215
1569594333.84777
1569594333.8634
1569594333.87902
1569594333.89465
1569594333.91028
1569594333.9259
1569594333.94153
1569594333.95715
1569594333.97278
1569594333.9884
1569594334.00403
1569594334.01966
1569594334.03528
1569594334.05091
1569594334.06653
1569594334.08216
1569594334.09778
1569594334.11341
1569594334.12904
1569594334.14466
1569594334.16029
1569594334.17591
1569594334.19154
1569594334.20716
1569594334.22279
1569594334.23842
1569594334.25404
1569594334.26967
1569594334.28529
1569594334.30092
1569594334.31654
1569594334.33217
1569594334.3478
1569594334.36342
1569594334.37905
1569594334.39467
1569594334.4103
1569594334.42592
1569594334.44155
1569594334.45718
1569594334.4728
1569594334.48843
1569594334.50405
1569594334.51968
1569594334.5353
1569594334.55093
1569594334.56656
1569594334.58218
1569594334.59781
1569594334.61343
1569594334.62906
1569594334.64469
1569594334.66031
1569594334.67594
1569594334.69156
1569594334.70719
1569594334.72281
1569594334.73844
1569594334.75407
1569594334.76969
1569594334.78532
1569594334.80094
1569594334.81657
1569594334.83219
1569594334.84782
1569594334.86345
1569594334.87907
1569594334.8947
1569594334.91032
1569594334.92595
1569594334.94157
1569594334.9572
1569594334.97283
1569594334.98845
1569594335.00408
1569594335.0197
1569594335.03533
1569594335.05095
1569594335.06658
1569594335.08221
1569594335.09783
1569594335.11346
1569594335.12908
1569594335.14471
1569594335.16033
1569594335.17596
1569594335.19159
1569594335.20721
1569594335.22284
1569594335.23846
1569594335.25409
1569594335.26971
1569594335.28534
1569594335.30097
1569594335.31659
1569594335.33222
1569594335.34784
1569594335.36347
1569594335.37909
1569594335.39472
1569594335.41035
1569594335.42597
1569594335.4416
1569594335.45722
1569594335.47285
1569594335.48847
1569594335.5041
1569594335.51973
1569594335.53535
1569594335.55098
1569594335.5666
1569594335.58223
1569594335.59785
1569594335.61348
1569594335.62911
1569594335.64473
1569594335.66036
1569594335.67598
1569594335.69161
1569594335.70723
1569594335.72286
1569594335.73849
1569594335.75411
1569594335.76974
1569594335.78536
1569594335.80099
1569594335.81661
1569594335.83224
1569594335.84787
1569594335.86349
1569594335.87912
1569594335.89474
1569594335.91037
1569594335.92599
1569594335.94162
1569594335.95725
1569594335.97287
1569594335.9885
1569594336.00412
1569594336.01975
1569594336.03537
1569594336.051
1569594336.06663
1569594336.08225
1569594336.09788
1569594336.1135
1569594336.12913
1569594336.14475
1569594336.16038
1569594336.17601
1569594336.19163
1569594336.20726
1569594336.22288
1569594336.23851
1569594336.25413
1569594336.26976
1569594336.28539
1569594336.30101
1569594336.31664
1569594336.33226
1569594336.34789
1569594336.36351
1569594336.37914
1569594336.39477
1569594336.41039
1569594336.42602
1569594336.44164
1569594336.45727
1569594336.47289
1569594336.48852
1569594336.50415
1569594336.51977
1569594336.5354
1569594336.55102
1569594336.56665
1569594336.58227
1569594336.5979
1569594336.61353
1569594336.62915
1569594336.64478
1569594336.6604
1569594336.67603
1569594336.69165
1569594336.70728
1569594336.72291
1569594336.73853
1569594336.75416
1569594336.76978
1569594336.78541
1569594336.80103
1569594336.81666
1569594336.83229
1569594336.84791
1569594336.86354
1569594336.87916
1569594336.89479
1569594336.91041
1569594336.92604
1569594336.94167
1569594336.95729
1569594336.97292
1569594336.98854
1569594337.00417
1569594337.01979
1569594337.03542
1569594337.05105
1569594337.06667
1569594337.0823
1569594337.09792
1569594337.11355
1569594337.12917
1569594337.1448
1569594337.16043
1569594337.17605
1569594337.19168
1569594337.2073
1569594337.22293
1569594337.23855
1569594337.25418
1569594337.26981
1569594337.28543
1569594337.30106
1569594337.31668
1569594337.33231
1569594337.34794
1569594337.36356
1569594337.37919
1569594337.39481
1569594337.41044
1569594337.42606
1569594337.44169
1569594337.45732
1569594337.47294
1569594337.48857
1569594337.50419
1569594337.51982
1569594337.53544
1569594337.55107
1569594337.5667
1569594337.58232
1569594337.59795
1569594337.61357
1569594337.6292
1569594337.64482
1569594337.66045
1569594337.67608
1569594337.6917
1569594337.70733
1569594337.72295
1569594337.73858
1569594337.7542
1569594337.76983
1569594337.78546
1569594337.80108
1569594337.81671
1569594337.83233
1569594337.84796
1569594337.86358
1569594337.87921
1569594337.89484
1569594337.91046
1569594337.92609
1569594337.94171
1569594337.95734
1569594337.97296
1569594337.98859
1569594338.00422
1569594338.01984
1569594338.03547
1569594338.05109
1569594338.06672
1569594338.08234
1569594338.09797
1569594338.1136
1569594338.12922
1569594338.14485
1569594338.16047
1569594338.1761
1569594338.19172
1569594338.20735
1569594338.22298
1569594338.2386
1569594338.25423
1569594338.26985
1569594338.28548
1569594338.3011
1569594338.31673
1569594338.33236
1569594338.34798
1569594338.36361
1569594338.37923
1569594338.39486
1569594338.41048
1569594338.42611
1569594338.44174
1569594338.45736
1569594338.47299
1569594338.48861
1569594338.50424
1569594338.51986
1569594338.53549
1569594338.55112
1569594338.56674
1569594338.58237
1569594338.59799
1569594338.61362
1569594338.62924
1569594338.64487
1569594338.6605
1569594338.67612
1569594338.69175
1569594338.70737
1569594338.723
1569594338.73862
1569594338.75425
1569594338.76988
1569594338.7855
1569594338.80113
1569594338.81675
1569594338.83238
1569594338.848
1569594338.86363
1569594338.87926
1569594338.89488
1569594338.91051
1569594338.92613
1569594338.94176
1569594338.95738
1569594338.97301
1569594338.98864
1569594339.00426
1569594339.01989
1569594339.03551
1569594339.05114
1569594339.06676
1569594339.08239
1569594339.09802
1569594339.11364
1569594339.12927
1569594339.14489
1569594339.16052
1569594339.17614
1569594339.19177
1569594339.2074
1569594339.22302
1569594339.23865
1569594339.25427
1569594339.2699
1569594339.28552
1569594339.30115
1569594339.31678
1569594339.3324
1569594339.34803
1569594339.36365
1569594339.37928
1569594339.3949
1569594339.41053
1569594339.42616
1569594339.44178
1569594339.45741
1569594339.47303
1569594339.48866
1569594339.50429
1569594339.51991
1569594339.53554
1569594339.55116
1569594339.56679
1569594339.58241
1569594339.59804
1569594339.61367
1569594339.62929
1569594339.64492
1569594339.66054
1569594339.67617
1569594339.69179
1569594339.70742
1569594339.72305
1569594339.73867
1569594339.7543
1569594339.76992
1569594339.78555
1569594339.80117
1569594339.8168
1569594339.83243
1569594339.84805
1569594339.86368
1569594339.8793
1569594339.89493
1569594339.91055
1569594339.92618
1569594339.94181
1569594339.95743
1569594339.97306
1569594339.98868
1569594340.00431
1569594340.01993
1569594340.03556
1569594340.05119
1569594340.06681
1569594340.08244
1569594340.09806
1569594340.11369
1569594340.12931
1569594340.14494
1569594340.16057
1569594340.17619
1569594340.19182
1569594340.20744
1569594340.22307
1569594340.23869
1569594340.25432
1569594340.26995
1569594340.28557
1569594340.3012
1569594340.31682
1569594340.33245
1569594340.34807
1569594340.3637
1569594340.37933
1569594340.39495
1569594340.41058
1569594340.4262
1569594340.44183
1569594340.45745
1569594340.47308
1569594340.48871
1569594340.50433
1569594340.51996
1569594340.53558
1569594340.55121
1569594340.56683
1569594340.58246
1569594340.59809
1569594340.61371
1569594340.62934
1569594340.64496
1569594340.66059
1569594340.67621
1569594340.69184
1569594340.70747
1569594340.72309
1569594340.73872
1569594340.75434
1569594340.76997
1569594340.78559
1569594340.80122
1569594340.81685
1569594340.83247
1569594340.8481
1569594340.86372
1569594340.87935
1569594340.89497
1569594340.9106
1569594340.92623
1569594340.94185
1569594340.95748
1569594340.9731
1569594340.98873
1569594341.00435
1569594341.01998
1569594341.03561
1569594341.05123
1569594341.06686
1569594341.08248
1569594341.09811
1569594341.11373
1569594341.12936
1569594341.14499
1569594341.16061
1569594341.17624
1569594341.19186
1569594341.20749
1569594341.22311
1569594341.23874
1569594341.25437
1569594341.26999
1569594341.28562
1569594341.30124
1569594341.31687
1569594341.33249
1569594341.34812
1569594341.36375
1569594341.37937
1569594341.395
1569594341.41062
1569594341.42625
1569594341.44187
1569594341.4575
1569594341.47313
1569594341.48875
1569594341.50438
1569594341.52
1569594341.53563
1569594341.55125
1569594341.56688
1569594341.58251
1569594341.59813
1569594341.61376
1569594341.62938
1569594341.64501
1569594341.66063
1569594341.67626
1569594341.69189
1569594341.70751
1569594341.72314
1569594341.73876
1569594341.75439
1569594341.77002
1569594341.78564
1569594341.80127
1569594341.81689
1569594341.83252
1569594341.84814
1569594341.86377
1569594341.8794
1569594341.89502
1569594341.91065
1569594341.92627
1569594341.9419
1569594341.95752
1569594341.97315
1569594341.98878
1569594342.0044
1569594342.02003
1569594342.03565
1569594342.05128
1569594342.0669
1569594342.08253
1569594342.09816
1569594342.11378
1569594342.12941
1569594342.14503
1569594342.16066
1569594342.17628
1569594342.19191
1569594342.20754
1569594342.22316
1569594342.23879
1569594342.25441
1569594342.27004
1569594342.28566
1569594342.30129
1569594342.31692
1569594342.33254
1569594342.34817
1569594342.36379
1569594342.37942
1569594342.39504
1569594342.41067
1569594342.4263
1569594342.44192
1569594342.45755
1569594342.47317
1569594342.4888
1569594342.50442
1569594342.52005
1569594342.53568
1569594342.5513
1569594342.56693
1569594342.58255
1569594342.59818
1569594342.6138
1569594342.62943
1569594342.64506
1569594342.66068
1569594342.67631
1569594342.69193
1569594342.70756
1569594342.72318
1569594342.73881
1569594342.75444
1569594342.77006
1569594342.78569
1569594342.80131
1569594342.81694
1569594342.83256
1569594342.84819
1569594342.86382
1569594342.87944
1569594342.89507
1569594342.91069
1569594342.92632
1569594342.94194
1569594342.95757
1569594342.9732
1569594342.98882
1569594343.00445
1569594343.02007
1569594343.0357
1569594343.05132
1569594343.06695
1569594343.08258
1569594343.0982
1569594343.11383
1569594343.12945
1569594343.14508
1569594343.1607
1569594343.17633
1569594343.19196
1569594343.20758
1569594343.22321
1569594343.23883
1569594343.25446
1569594343.27008
1569594343.28571
1569594343.30134
1569594343.31696
1569594343.33259
1569594343.34821
1569594343.36384
1569594343.37946
1569594343.39509
1569594343.41072
1569594343.42634
1569594343.44197
1569594343.45759
1569594343.47322
1569594343.48884
1569594343.50447
1569594343.5201
1569594343.53572
1569594343.55135
1569594343.56697
1569594343.5826
1569594343.59822
1569594343.61385
1569594343.62948
1569594343.6451
1569594343.66073
1569594343.67635
1569594343.69198
1569594343.7076
1569594343.72323
1569594343.73886
1569594343.75448
1569594343.77011
1569594343.78573
1569594343.80136
1569594343.81698
1569594343.83261
1569594343.84824
1569594343.86386
1569594343.87949
1569594343.89511
1569594343.91074
1569594343.92636
1569594343.94199
1569594343.95762
1569594343.97324
1569594343.98887
1569594344.00449
1569594344.02012
1569594344.03574
1569594344.05137
1569594344.067
1569594344.08262
1569594344.09825
1569594344.11387
1569594344.1295
1569594344.14512
1569594344.16075
1569594344.17638
1569594344.192
1569594344.20763
1569594344.22325
1569594344.23888
1569594344.2545
1569594344.27013
1569594344.28576
1569594344.30138
1569594344.31701
1569594344.33263
1569594344.34826
1569594344.36389
1569594344.37951
1569594344.39514
1569594344.41076
1569594344.42639
1569594344.44201
1569594344.45764
1569594344.47327
1569594344.48889
1569594344.50452
1569594344.52014
1569594344.53577
1569594344.55139
1569594344.56702
1569594344.58265
1569594344.59827
1569594344.6139
1569594344.62952
1569594344.64515
1569594344.66077
1569594344.6764
1569594344.69203
1569594344.70765
1569594344.72328
1569594344.7389
1569594344.75453
1569594344.77015
1569594344.78578
1569594344.80141
1569594344.81703
1569594344.83266
1569594344.84828
1569594344.86391
1569594344.87953
1569594344.89516
1569594344.91079
1569594344.92641
1569594344.94204
1569594344.95766
1569594344.97329
1569594344.98891
1569594345.00454
1569594345.02017
1569594345.03579
1569594345.05142
1569594345.06704
1569594345.08267
1569594345.09829
1569594345.11392
1569594345.12955
1569594345.14517
1569594345.1608
1569594345.17642
1569594345.19205
1569594345.20767
1569594345.2233
1569594345.23893
1569594345.25455
1569594345.27018
1569594345.2858
1569594345.30143
1569594345.31705
1569594345.33268
1569594345.34831
1569594345.36393
1569594345.37956
1569594345.39518
1569594345.41081
1569594345.42643
1569594345.44206
1569594345.45769
1569594345.47331
1569594345.48894
1569594345.50456
1569594345.52019
1569594345.53581
1569594345.55144
1569594345.56707
1569594345.58269
1569594345.59832
1569594345.61394
1569594345.62957
1569594345.64519
1569594345.66082
1569594345.67645
1569594345.69207
1569594345.7077
1569594345.72332
1569594345.73895
1569594345.75457
1569594345.7702
1569594345.78583
1569594345.80145
1569594345.81708
1569594345.8327
1569594345.84833
1569594345.86395
1569594345.87958
1569594345.89521
1569594345.91083
1569594345.92646
1569594345.94208
1569594345.95771
1569594345.97333
1569594345.98896
1569594346.00459
1569594346.02021
1569594346.03584
1569594346.05146
1569594346.06709
1569594346.08271
1569594346.09834
1569594346.11397
1569594346.12959
1569594346.14522
1569594346.16084
1569594346.17647
1569594346.19209
1569594346.20772
1569594346.22335
1569594346.23897
1569594346.2546
1569594346.27022
1569594346.28585
1569594346.30147
1569594346.3171
1569594346.33273
1569594346.34835
1569594346.36398
1569594346.3796
1569594346.39523
1569594346.41085
1569594346.42648
1569594346.44211
1569594346.45773
1569594346.47336
1569594346.48898
1569594346.50461
1569594346.52023
1569594346.53586
1569594346.55149
1569594346.56711
1569594346.58274
1569594346.59836
1569594346.61399
1569594346.62962
1569594346.64524
1569594346.66087
1569594346.67649
1569594346.69212
1569594346.70774
1569594346.72337
1569594346.739
1569594346.75462
1569594346.77025
1569594346.78587
1569594346.8015
1569594346.81712
1569594346.83275
1569594346.84838
1569594346.864
1569594346.87963
1569594346.89525
1569594346.91088
1569594346.9265
1569594346.94213
1569594346.95776
1569594346.97338
1569594346.98901
1569594347.00463
1569594347.02026
1569594347.03588
1569594347.05151
1569594347.06714
1569594347.08276
1569594347.09839
1569594347.11401
1569594347.12964
1569594347.14526
1569594347.16089
1569594347.17652
1569594347.19214
1569594347.20777
1569594347.22339
1569594347.23902
1569594347.25464
1569594347.27027
1569594347.2859
1569594347.30152
1569594347.31715
1569594347.33277
1569594347.3484
1569594347.36402
1569594347.37965
1569594347.39528
1569594347.4109
1569594347.42653
1569594347.44215
1569594347.45778
1569594347.4734
1569594347.48903
1569594347.50466
1569594347.52028
1569594347.53591
1569594347.55153
1569594347.56716
1569594347.58278
1569594347.59841
1569594347.61404
1569594347.62966
1569594347.64529
1569594347.66091
1569594347.67654
1569594347.69216
1569594347.70779
1569594347.72342
1569594347.73904
1569594347.75467
1569594347.77029
1569594347.78592
1569594347.80154
1569594347.81717
1569594347.8328
1569594347.84842
1569594347.86405
1569594347.87967
1569594347.8953
1569594347.91092
1569594347.92655
1569594347.94218
1569594347.9578
1569594347.97343
1569594347.98905
1569594348.00468
1569594348.0203
1569594348.03593
1569594348.05156
1569594348.06718
1569594348.08281
1569594348.09843
1569594348.11406
1569594348.12968
1569594348.14531
1569594348.16094
1569594348.17656
1569594348.19219
1569594348.20781
1569594348.22344
1569594348.23906
1569594348.25469
1569594348.27032
1569594348.28594
1569594348.30157
1569594348.31719
1569594348.33282
1569594348.34844
1569594348.36407
1569594348.3797
1569594348.39532
1569594348.41095
1569594348.42657
1569594348.4422
1569594348.45782
1569594348.47345
1569594348.48908
1569594348.5047
1569594348.52033
1569594348.53595
1569594348.55158
1569594348.5672
1569594348.58283
1569594348.59846
1569594348.61408
1569594348.62971
1569594348.64533
1569594348.66096
1569594348.67658
1569594348.69221
1569594348.70784
1569594348.72346
1569594348.73909
1569594348.75471
1569594348.77034
1569594348.78596
1569594348.80159
1569594348.81722
1569594348.83284
1569594348.84847
1569594348.86409
1569594348.87972
1569594348.89534
1569594348.91097
1569594348.9266
1569594348.94222
1569594348.95785
1569594348.97347
1569594348.9891
1569594349.00472
1569594349.02035
1569594349.03598
1569594349.0516
1569594349.06723
1569594349.08285
1569594349.09848
1569594349.1141
1569594349.12973
1569594349.14536
1569594349.16098
1569594349.17661
1569594349.19223
1569594349.20786
1569594349.22348
1569594349.23911
1569594349.25474
1569594349.27036
1569594349.28599
1569594349.30161
1569594349.31724
1569594349.33287
1569594349.34849
1569594349.36412
1569594349.37974
1569594349.39537
1569594349.41099
1569594349.42662
1569594349.44225
1569594349.45787
1569594349.4735
1569594349.48912
1569594349.50475
1569594349.52037
1569594349.536
1569594349.55163
1569594349.56725
1569594349.58288
1569594349.5985
1569594349.61413
1569594349.62975
1569594349.64538
1569594349.66101
1569594349.67663
1569594349.69226
1569594349.70788
1569594349.72351
1569594349.73913
1569594349.75476
1569594349.77039
1569594349.78601
1569594349.80164
1569594349.81726
1569594349.83289
1569594349.84851
1569594349.86414
1569594349.87977
1569594349.89539
1569594349.91102
1569594349.92664
1569594349.94227
1569594349.95789
1569594349.97352
1569594349.98915
1569594350.00477
1569594350.0204
1569594350.03602
1569594350.05165
1569594350.06727
1569594350.0829
1569594350.09853
1569594350.11415
1569594350.12978
1569594350.1454
1569594350.16103
1569594350.17665
1569594350.19228
1569594350.20791
1569594350.22353
1569594350.23916
1569594350.25478
1569594350.27041
1569594350.28603
1569594350.30166
1569594350.31729
1569594350.33291
1569594350.34854
1569594350.36416
1569594350.37979
1569594350.39541
1569594350.41104
1569594350.42667
1569594350.44229
1569594350.45792
1569594350.47354
1569594350.48917
1569594350.50479
1569594350.52042
1569594350.53605
1569594350.55167
1569594350.5673
1569594350.58292
1569594350.59855
1569594350.61417
1569594350.6298
1569594350.64543
1569594350.66105
1569594350.67668
1569594350.6923
1569594350.70793
1569594350.72355
1569594350.73918
1569594350.75481
1569594350.77043
1569594350.78606
1569594350.80168
1569594350.81731
1569594350.83293
1569594350.84856
1569594350.86419
1569594350.87981
1569594350.89544
1569594350.91106
1569594350.92669
1569594350.94231
1569594350.95794
1569594350.97357
1569594350.98919
1569594351.00482
1569594351.02044
1569594351.03607
1569594351.05169
1569594351.06732
1569594351.08295
1569594351.09857
1569594351.1142
1569594351.12982
1569594351.14545
1569594351.16107
1569594351.1767
1569594351.19233
1569594351.20795
1569594351.22358
1569594351.2392
1569594351.25483
1569594351.27045
1569594351.28608
1569594351.30171
1569594351.31733
1569594351.33296
1569594351.34858
1569594351.36421
1569594351.37983
1569594351.39546
1569594351.41109
1569594351.42671
1569594351.44234
1569594351.45796
1569594351.47359
1569594351.48922
1569594351.50484
1569594351.52047
1569594351.53609
1569594351.55172
1569594351.56734
1569594351.58297
1569594351.5986
1569594351.61422
1569594351.62985
1569594351.64547
1569594351.6611
1569594351.67672
1569594351.69235
1569594351.70798
1569594351.7236
1569594351.73923
1569594351.75485
1569594351.77048
1569594351.7861
1569594351.80173
1569594351.81736
1569594351.83298
1569594351.84861
1569594351.86423
1569594351.87986
1569594351.89548
1569594351.91111
1569594351.92674
1569594351.94236
1569594351.95799
1569594351.97361
1569594351.98924
1569594352.00486
1569594352.02049
1569594352.03612
1569594352.05174
1569594352.06737
1569594352.08299
1569594352.09862
1569594352.11424
1569594352.12987
1569594352.1455
1569594352.16112
1569594352.17675
1569594352.19237
1569594352.208
1569594352.22362
1569594352.23925
1569594352.25488
1569594352.2705
1569594352.28613
1569594352.30175
1569594352.31738
1569594352.333
1569594352.34863
1569594352.36426
1569594352.37988
1569594352.39551
1569594352.41113
1569594352.42676
1569594352.44238
1569594352.45801
1569594352.47364
1569594352.48926
1569594352.50489
1569594352.52051
1569594352.53614
1569594352.55176
1569594352.56739
1569594352.58302
1569594352.59864
1569594352.61427
1569594352.62989
1569594352.64552
1569594352.66114
1569594352.67677
1569594352.6924
1569594352.70802
1569594352.72365
1569594352.73927
1569594352.7549
1569594352.77052
1569594352.78615
1569594352.80178
1569594352.8174
1569594352.83303
1569594352.84865
1569594352.86428
1569594352.8799
1569594352.89553
1569594352.91116
1569594352.92678
1569594352.94241
1569594352.95803
1569594352.97366
1569594352.98928
1569594353.00491
1569594353.02054
1569594353.03616
1569594353.05179
1569594353.06741
1569594353.08304
1569594353.09866
1569594353.11429
1569594353.12992
1569594353.14554
1569594353.16117
1569594353.17679
1569594353.19242
1569594353.20804
1569594353.22367
1569594353.2393
1569594353.25492
1569594353.27055
1569594353.28617
1569594353.3018
1569594353.31742
1569594353.33305
1569594353.34868
1569594353.3643
1569594353.37993
1569594353.39555
1569594353.41118
1569594353.4268
1569594353.44243
1569594353.45806
1569594353.47368
1569594353.48931
1569594353.50493
1569594353.52056
1569594353.53618
1569594353.55181
1569594353.56744
1569594353.58306
1569594353.59869
1569594353.61431
1569594353.62994
1569594353.64556
1569594353.66119
1569594353.67682
1569594353.69244
1569594353.70807
1569594353.72369
1569594353.73932
1569594353.75495
1569594353.77057
1569594353.7862
1569594353.80182
1569594353.81745
1569594353.83307
1569594353.8487
1569594353.86433
1569594353.87995
1569594353.89558
1569594353.9112
1569594353.92683
1569594353.94245
1569594353.95808
1569594353.97371
1569594353.98933
1569594354.00496
1569594354.02058
1569594354.03621
1569594354.05183
1569594354.06746
1569594354.08309
1569594354.09871
1569594354.11434
1569594354.12996
1569594354.14559
1569594354.16121
1569594354.17684
1569594354.19247
1569594354.20809
1569594354.22372
1569594354.23934
1569594354.25497
1569594354.27059
1569594354.28622
1569594354.30185
1569594354.31747
1569594354.3331
1569594354.34872
1569594354.36435
1569594354.37997
1569594354.3956
1569594354.41123
1569594354.42685
1569594354.44248
1569594354.4581
1569594354.47373
1569594354.48935
1569594354.50498
1569594354.52061
1569594354.53623
1569594354.55186
1569594354.56748
1569594354.58311
1569594354.59873
1569594354.61436
1569594354.62999
1569594354.64561
1569594354.66124
1569594354.67686
1569594354.69249
1569594354.70811
1569594354.72374
1569594354.73937
1569594354.75499
1569594354.77062
1569594354.78624
1569594354.80187
1569594354.81749
1569594354.83312
1569594354.84875
1569594354.86437
1569594354.88
1569594354.89562
1569594354.91125
1569594354.92687
1569594354.9425
1569594354.95813
1569594354.97375
1569594354.98938
1569594355.005
1569594355.02063
1569594355.03625
1569594355.05188
1569594355.06751
1569594355.08313
1569594355.09876
1569594355.11438
1569594355.13001
1569594355.14563
1569594355.16126
1569594355.17689
1569594355.19251
1569594355.20814
1569594355.22376
1569594355.23939
1569594355.25501
1569594355.27064
1569594355.28627
1569594355.30189
1569594355.31752
1569594355.33314
1569594355.34877
1569594355.36439
1569594355.38002
1569594355.39565
1569594355.41127
1569594355.4269
1569594355.44252
1569594355.45815
1569594355.47377
1569594355.4894
1569594355.50503
1569594355.52065
1569594355.53628
1569594355.5519
1569594355.56753
1569594355.58315
1569594355.59878
1569594355.61441
1569594355.63003
1569594355.64566
1569594355.66128
1569594355.67691
1569594355.69253
1569594355.70816
1569594355.72379
1569594355.73941
1569594355.75504
1569594355.77066
1569594355.78629
1569594355.80191
1569594355.81754
1569594355.83317
1569594355.84879
1569594355.86442
1569594355.88004
1569594355.89567
1569594355.91129
1569594355.92692
1569594355.94255
1569594355.95817
1569594355.9738
1569594355.98942
1569594356.00505
1569594356.02067
1569594356.0363
1569594356.05193
1569594356.06755
1569594356.08318
1569594356.0988
1569594356.11443
1569594356.13005
1569594356.14568
1569594356.16131
1569594356.17693
1569594356.19256
1569594356.20818
1569594356.22381
1569594356.23943
1569594356.25506
1569594356.27069
1569594356.28631
1569594356.30194
1569594356.31756
1569594356.33319
1569594356.34882
1569594356.36444
1569594356.38007
1569594356.39569
1569594356.41132
1569594356.42694
1569594356.44257
1569594356.4582
1569594356.47382
1569594356.48945
1569594356.50507
1569594356.5207
1569594356.53632
1569594356.55195
1569594356.56758
1569594356.5832
1569594356.59883
1569594356.61445
1569594356.63008
1569594356.6457
1569594356.66133
1569594356.67696
1569594356.69258
1569594356.70821
1569594356.72383
1569594356.73946
1569594356.75508
1569594356.77071
1569594356.78634
1569594356.80196
1569594356.81759
1569594356.83321
1569594356.84884
1569594356.86446
1569594356.88009
1569594356.89572
1569594356.91134
1569594356.92697
1569594356.94259
1569594356.95822
1569594356.97384
1569594356.98947
1569594357.0051
1569594357.02072
1569594357.03635
1569594357.05197
1569594357.0676
1569594357.08322
1569594357.09885
1569594357.11448
1569594357.1301
1569594357.14573
1569594357.16135
1569594357.17698
1569594357.1926
1569594357.20823
1569594357.22386
1569594357.23948
1569594357.25511
1569594357.27073
1569594357.28636
1569594357.30198
1569594357.31761
1569594357.33324
1569594357.34886
1569594357.36449
1569594357.38011
1569594357.39574
1569594357.41136
1569594357.42699
1569594357.44262
1569594357.45824
1569594357.47387
1569594357.48949
1569594357.50512
1569594357.52074
1569594357.53637
1569594357.552
1569594357.56762
1569594357.58325
1569594357.59887
1569594357.6145
1569594357.63012
1569594357.64575
1569594357.66138
1569594357.677
1569594357.69263
1569594357.70825
1569594357.72388
1569594357.7395
1569594357.75513
1569594357.77076
1569594357.78638
1569594357.80201
1569594357.81763
1569594357.83326
1569594357.84888
1569594357.86451
1569594357.88014
1569594357.89576
1569594357.91139
1569594357.92701
1569594357.94264
1569594357.95826
1569594357.97389
1569594357.98952
1569594358.00514
1569594358.02077
1569594358.03639
1569594358.05202
1569594358.06764
1569594358.08327
1569594358.0989
1569594358.11452
1569594358.13015
1569594358.14577
1569594358.1614
1569594358.17702
1569594358.19265
1569594358.20828
1569594358.2239
1569594358.23953
1569594358.25515
1569594358.27078
1569594358.2864
1569594358.30203
1569594358.31766
1569594358.33328
1569594358.34891
1569594358.36453
1569594358.38016
1569594358.39578
1569594358.41141
1569594358.42704
1569594358.44266
1569594358.45829
1569594358.47391
1569594358.48954
1569594358.50516
1569594358.52079
1569594358.53642
1569594358.55204
1569594358.56767
1569594358.58329
1569594358.59892
1569594358.61455
1569594358.63017
1569594358.6458
1569594358.66142
1569594358.67705
1569594358.69267
1569594358.7083
1569594358.72393
1569594358.73955
1569594358.75518
1569594358.7708
1569594358.78643
1569594358.80205
1569594358.81768
1569594358.83331
1569594358.84893
1569594358.86456
1569594358.88018
1569594358.89581
1569594358.91143
1569594358.92706
1569594358.94269
1569594358.95831
1569594358.97394
1569594358.98956
1569594359.00519
1569594359.02081
1569594359.03644
1569594359.05207
1569594359.06769
1569594359.08332
1569594359.09894
1569594359.11457
1569594359.13019
1569594359.14582
1569594359.16145
1569594359.17707
1569594359.1927
1569594359.20832
1569594359.22395
1569594359.23957
1569594359.2552
1569594359.27083
1569594359.28645
1569594359.30208
1569594359.3177
1569594359.33333
1569594359.34895
1569594359.36458
1569594359.38021
1569594359.39583
1569594359.41146
1569594359.42708
1569594359.44271
1569594359.45833
1569594359.47396
1569594359.48959
1569594359.50521
1569594359.52084
1569594359.53646
1569594359.55209
1569594359.56771
1569594359.58334
1569594359.59897
1569594359.61459
1569594359.63022
1569594359.64584
1569594359.66147
1569594359.67709
1569594359.69272
1569594359.70835
1569594359.72397
1569594359.7396
1569594359.75522
1569594359.77085
1569594359.78647
1569594359.8021
1569594359.81773
1569594359.83335
1569594359.84898
1569594359.8646
1569594359.88023
1569594359.89585
1569594359.91148
1569594359.92711
1569594359.94273
1569594359.95836
1569594359.97398
1569594359.98961
1569594360.00523
1569594360.02086
1569594360.03649
1569594360.05211
1569594360.06774
1569594360.08336
1569594360.09899
1569594360.11461
1569594360.13024
1569594360.14587
1569594360.16149
1569594360.17712
1569594360.19274
1569594360.20837
1569594360.22399
1569594360.23962
1569594360.25525
1569594360.27087
1569594360.2865
1569594360.30212
1569594360.31775
1569594360.33337
1569594360.349
1569594360.36463
1569594360.38025
1569594360.39588
1569594360.4115
1569594360.42713
1569594360.44275
1569594360.45838
1569594360.47401
1569594360.48963
1569594360.50526
1569594360.52088
1569594360.53651
1569594360.55213
1569594360.56776
1569594360.58339
1569594360.59901
1569594360.61464
1569594360.63026
1569594360.64589
1569594360.66151
1569594360.67714
1569594360.69277
1569594360.70839
1569594360.72402
1569594360.73964
1569594360.75527
1569594360.7709
1569594360.78652
1569594360.80215
1569594360.81777
1569594360.8334
1569594360.84902
1569594360.86465
1569594360.88028
1569594360.8959
1569594360.91153
1569594360.92715
1569594360.94278
1569594360.9584
1569594360.97403
1569594360.98966
1569594361.00528
1569594361.02091
1569594361.03653
1569594361.05216
1569594361.06778
1569594361.08341
1569594361.09904
1569594361.11466
1569594361.13029
1569594361.14591
1569594361.16154
1569594361.17716
1569594361.19279
1569594361.20842
1569594361.22404
1569594361.23967
1569594361.25529
1569594361.27092
1569594361.28654
1569594361.30217
1569594361.3178
1569594361.33342
1569594361.34905
1569594361.36467
1569594361.3803
1569594361.39592
1569594361.41155
1569594361.42718
1569594361.4428
1569594361.45843
1569594361.47405
1569594361.48968
1569594361.5053
1569594361.52093
1569594361.53656
1569594361.55218
1569594361.56781
1569594361.58343
1569594361.59906
1569594361.61468
1569594361.63031
1569594361.64594
1569594361.66156
1569594361.67719
1569594361.69281
1569594361.70844
1569594361.72406
1569594361.73969
1569594361.75532
1569594361.77094
1569594361.78657
1569594361.80219
1569594361.81782
1569594361.83344
1569594361.84907
1569594361.8647
1569594361.88032
1569594361.89595
1569594361.91157
1569594361.9272
1569594361.94282
1569594361.95845
1569594361.97408
1569594361.9897
1569594362.00533
1569594362.02095
1569594362.03658
1569594362.0522
1569594362.06783
1569594362.08346
1569594362.09908
1569594362.11471
1569594362.13033
1569594362.14596
1569594362.16158
1569594362.17721
1569594362.19284
1569594362.20846
1569594362.22409
1569594362.23971
1569594362.25534
1569594362.27096
1569594362.28659
1569594362.30222
1569594362.31784
1569594362.33347
1569594362.34909
1569594362.36472
1569594362.38034
1569594362.39597
1569594362.4116
1569594362.42722
1569594362.44285
1569594362.45847
1569594362.4741
1569594362.48972
1569594362.50535
1569594362.52098
1569594362.5366
1569594362.55223
1569594362.56785
1569594362.58348
1569594362.5991
1569594362.61473
1569594362.63036
1569594362.64598
1569594362.66161
1569594362.67723
1569594362.69286
1569594362.70848
1569594362.72411
1569594362.73974
1569594362.75536
1569594362.77099
1569594362.78661
1569594362.80224
1569594362.81786
1569594362.83349
1569594362.84912
1569594362.86474
1569594362.88037
1569594362.89599
1569594362.91162
1569594362.92724
1569594362.94287
1569594362.9585
1569594362.97412
1569594362.98975
1569594363.00537
1569594363.021
1569594363.03662
1569594363.05225
1569594363.06788
1569594363.0835
1569594363.09913
1569594363.11475
1569594363.13038
1569594363.146
1569594363.16163
1569594363.17726
1569594363.19288
1569594363.20851
1569594363.22413
1569594363.23976
1569594363.25538
1569594363.27101
1569594363.28664
1569594363.30226
1569594363.31789
1569594363.33351
1569594363.34914
1569594363.36476
1569594363.38039
1569594363.39602
1569594363.41164
1569594363.42727
1569594363.44289
1569594363.45852
1569594363.47415
1569594363.48977
1569594363.5054
1569594363.52102
1569594363.53665
1569594363.55227
1569594363.5679
1569594363.58353
1569594363.59915
1569594363.61478
1569594363.6304
1569594363.64603
1569594363.66165
1569594363.67728
1569594363.69291
1569594363.70853
1569594363.72416
1569594363.73978
1569594363.75541
1569594363.77103
1569594363.78666
1569594363.80229
1569594363.81791
1569594363.83354
1569594363.84916
1569594363.86479
1569594363.88041
1569594363.89604
1569594363.91167
1569594363.92729
1569594363.94292
1569594363.95854
1569594363.97417
1569594363.98979
1569594364.00542
1569594364.02105
1569594364.03667
1569594364.0523
1569594364.06792
1569594364.08355
1569594364.09917
1569594364.1148
1569594364.13043
1569594364.14605
1569594364.16168
1569594364.1773
1569594364.19293
1569594364.20855
1569594364.22418
1569594364.23981
1569594364.25543
1569594364.27106
1569594364.28668
1569594364.30231
1569594364.31793
1569594364.33356
1569594364.34919
1569594364.36481
1569594364.38044
1569594364.39606
1569594364.41169
1569594364.42731
1569594364.44294
1569594364.45857
1569594364.47419
1569594364.48982
1569594364.50544
1569594364.52107
1569594364.53669
1569594364.55232
1569594364.56795
1569594364.58357
1569594364.5992
1569594364.61482
1569594364.63045
1569594364.64607
1569594364.6617
1569594364.67733
1569594364.69295
1569594364.70858
1569594364.7242
1569594364.73983
1569594364.75545
1569594364.77108
1569594364.78671
1569594364.80233
1569594364.81796
1569594364.83358
1569594364.84921
1569594364.86483
1569594364.88046
1569594364.89609
1569594364.91171
1569594364.92734
1569594364.94296
1569594364.95859
1569594364.97421
1569594364.98984
1569594365.00547
1569594365.02109
1569594365.03672
1569594365.05234
1569594365.06797
1569594365.08359
1569594365.09922
1569594365.11485
1569594365.13047
1569594365.1461
1569594365.16172
1569594365.17735
1569594365.19297
1569594365.2086
1569594365.22423
1569594365.23985
1569594365.25548
1569594365.2711
1569594365.28673
1569594365.30235
1569594365.31798
1569594365.33361
1569594365.34923
1569594365.36486
1569594365.38048
1569594365.39611
1569594365.41173
1569594365.42736
1569594365.44299
1569594365.45861
1569594365.47424
1569594365.48986
1569594365.50549
1569594365.52111
1569594365.53674
1569594365.55237
1569594365.56799
1569594365.58362
1569594365.59924
1569594365.61487
1569594365.6305
1569594365.64612
1569594365.66175
1569594365.67737
1569594365.693
1569594365.70862
1569594365.72425
1569594365.73988
1569594365.7555
1569594365.77113
1569594365.78675
1569594365.80238
1569594365.818
1569594365.83363
1569594365.84926
1569594365.86488
1569594365.88051
1569594365.89613
1569594365.91176
1569594365.92738
1569594365.94301
1569594365.95864
1569594365.97426
1569594365.98989
1569594366.00551
1569594366.02114
1569594366.03676
1569594366.05239
1569594366.06802
1569594366.08364
1569594366.09927
1569594366.11489
1569594366.13052
1569594366.14614
1569594366.16177
1569594366.1774
1569594366.19302
1569594366.20865
1569594366.22427
1569594366.2399
1569594366.25552
1569594366.27115
1569594366.28678
1569594366.3024
1569594366.31803
1569594366.33365
1569594366.34928
1569594366.3649
1569594366.38053
1569594366.39616
1569594366.41178
1569594366.42741
1569594366.44303
1569594366.45866
1569594366.47428
1569594366.48991
1569594366.50554
1569594366.52116
1569594366.53679
1569594366.55241
1569594366.56804
1569594366.58366
1569594366.59929
1569594366.61492
1569594366.63054
1569594366.64617
1569594366.66179
1569594366.67742
1569594366.69304
1569594366.70867
1569594366.7243
1569594366.73992
1569594366.75555
1569594366.77117
1569594366.7868
1569594366.80242
1569594366.81805
1569594366.83368
1569594366.8493
1569594366.86493
1569594366.88055
1569594366.89618
1569594366.9118
1569594366.92743
1569594366.94306
1569594366.95868
1569594366.97431
1569594366.98993
1569594367.00556
1569594367.02118
1569594367.03681
1569594367.05244
1569594367.06806
1569594367.08369
1569594367.09931
1569594367.11494
1569594367.13056
1569594367.14619
1569594367.16182
1569594367.17744
1569594367.19307
1569594367.20869
1569594367.22432
1569594367.23994
1569594367.25557
1569594367.2712
1569594367.28682
1569594367.30245
1569594367.31807
1569594367.3337
1569594367.34932
1569594367.36495
1569594367.38058
1569594367.3962
1569594367.41183
1569594367.42745
1569594367.44308
1569594367.4587
1569594367.47433
1569594367.48996
1569594367.50558
1569594367.52121
1569594367.53683
1569594367.55246
1569594367.56808
1569594367.58371
1569594367.59934
1569594367.61496
1569594367.63059
1569594367.64621
1569594367.66184
1569594367.67746
1569594367.69309
1569594367.70872
1569594367.72434
1569594367.73997
1569594367.75559
1569594367.77122
1569594367.78684
1569594367.80247
1569594367.8181
1569594367.83372
1569594367.84935
1569594367.86497
1569594367.8806
1569594367.89622
1569594367.91185
1569594367.92748
1569594367.9431
1569594367.95873
1569594367.97435
1569594367.98998
1569594368.0056
1569594368.02123
1569594368.03686
1569594368.05248
1569594368.06811
1569594368.08373
1569594368.09936
1569594368.11498
1569594368.13061
1569594368.14624
1569594368.16186
1569594368.17749
1569594368.19311
1569594368.20874
1569594368.22437
1569594368.23999
1569594368.25562
1569594368.27124
1569594368.28687
1569594368.30249
1569594368.31812
1569594368.33375
1569594368.34937
1569594368.365
1569594368.38062
1569594368.39625
1569594368.41187
1569594368.4275
1569594368.44313
1569594368.45875
1569594368.47438
1569594368.49
1569594368.50563
1569594368.52125
1569594368.53688
1569594368.55251
1569594368.56813
1569594368.58376
1569594368.59938
1569594368.61501
1569594368.63063
1569594368.64626
1569594368.66189
1569594368.67751
1569594368.69314
1569594368.70876
1569594368.72439
1569594368.74001
1569594368.75564
1569594368.77127
1569594368.78689
1569594368.80252
1569594368.81814
1569594368.83377
1569594368.84939
1569594368.86502
1569594368.88065
1569594368.89627
1569594368.9119
1569594368.92752
1569594368.94315
1569594368.95877
1569594368.9744
1569594368.99003
1569594369.00565
1569594369.02128
1569594369.0369
1569594369.05253
1569594369.06815
1569594369.08378
1569594369.09941
1569594369.11503
1569594369.13066
1569594369.14628
1569594369.16191
1569594369.17753
1569594369.19316
1569594369.20879
1569594369.22441
1569594369.24004
1569594369.25566
1569594369.27129
1569594369.28691
1569594369.30254
1569594369.31817
1569594369.33379
1569594369.34942
1569594369.36504
1569594369.38067
1569594369.39629
1569594369.41192
1569594369.42755
1569594369.44317
1569594369.4588
1569594369.47442
1569594369.49005
1569594369.50567
1569594369.5213
1569594369.53693
1569594369.55255
1569594369.56818
1569594369.5838
1569594369.59943
1569594369.61505
1569594369.63068
1569594369.64631
1569594369.66193
1569594369.67756
1569594369.69318
1569594369.70881
1569594369.72443
1569594369.74006
1569594369.75569
1569594369.77131
1569594369.78694
1569594369.80256
1569594369.81819
1569594369.83381
1569594369.84944
1569594369.86507
1569594369.88069
1569594369.89632
1569594369.91194
1569594369.92757
1569594369.94319
1569594369.95882
1569594369.97445
1569594369.99007
1569594370.0057
1569594370.02132
1569594370.03695
1569594370.05257
1569594370.0682
1569594370.08383
1569594370.09945
1569594370.11508
1569594370.1307
1569594370.14633
1569594370.16195
1569594370.17758
1569594370.19321
1569594370.20883
1569594370.22446
1569594370.24008
1569594370.25571
1569594370.27133
1569594370.28696
1569594370.30259
1569594370.31821
1569594370.33384
1569594370.34946
1569594370.36509
1569594370.38071
1569594370.39634
1569594370.41197
1569594370.42759
1569594370.44322
1569594370.45884
1569594370.47447
1569594370.4901
1569594370.50572
1569594370.52135
1569594370.53697
1569594370.5526
1569594370.56822
1569594370.58385
1569594370.59948
1569594370.6151
1569594370.63073
1569594370.64635
1569594370.66198
1569594370.6776
1569594370.69323
1569594370.70886
1569594370.72448
1569594370.74011
1569594370.75573
1569594370.77136
1569594370.78698
1569594370.80261
1569594370.81824
1569594370.83386
1569594370.84949
1569594370.86511
1569594370.88074
1569594370.89636
1569594370.91199
1569594370.92762
1569594370.94324
1569594370.95887
1569594370.97449
1569594370.99012
1569594371.00574
1569594371.02137
1569594371.037
1569594371.05262
1569594371.06825
1569594371.08387
1569594371.0995
1569594371.11512
1569594371.13075
1569594371.14638
1569594371.162
1569594371.17763
1569594371.19325
1569594371.20888
1569594371.2245
1569594371.24013
1569594371.25576
1569594371.27138
1569594371.28701
1569594371.30263
1569594371.31826
1569594371.33388
1569594371.34951
1569594371.36514
1569594371.38076
1569594371.39639
1569594371.41201
1569594371.42764
1569594371.44326
1569594371.45889
1569594371.47452
1569594371.49014
1569594371.50577
1569594371.52139
1569594371.53702
1569594371.55264
1569594371.56827
1569594371.5839
1569594371.59952
1569594371.61515
1569594371.63077
1569594371.6464
1569594371.66202
1569594371.67765
1569594371.69328
1569594371.7089
1569594371.72453
1569594371.74015
1569594371.75578
1569594371.7714
1569594371.78703
1569594371.80266
1569594371.81828
1569594371.83391
1569594371.84953
1569594371.86516
1569594371.88078
1569594371.89641
1569594371.91204
1569594371.92766
1569594371.94329
1569594371.95891
1569594371.97454
1569594371.99016
1569594372.00579
1569594372.02142
1569594372.03704
1569594372.05267
1569594372.06829
1569594372.08392
1569594372.09954
1569594372.11517
1569594372.1308
1569594372.14642
1569594372.16205
1569594372.17767
1569594372.1933
1569594372.20892
1569594372.22455
1569594372.24018
1569594372.2558
1569594372.27143
1569594372.28705
1569594372.30268
1569594372.3183
1569594372.33393
1569594372.34956
1569594372.36518
1569594372.38081
1569594372.39643
1569594372.41206
1569594372.42768
1569594372.44331
1569594372.45894
1569594372.47456
1569594372.49019
1569594372.50581
1569594372.52144
1569594372.53706
1569594372.55269
1569594372.56832
1569594372.58394
1569594372.59957
1569594372.61519
1569594372.63082
1569594372.64644
1569594372.66207
1569594372.6777
1569594372.69332
1569594372.70895
1569594372.72457
1569594372.7402
1569594372.75583
1569594372.77145
1569594372.78708
1569594372.8027
1569594372.81833
1569594372.83395
1569594372.84958
1569594372.86521
1569594372.88083
1569594372.89646
1569594372.91208
1569594372.92771
1569594372.94333
1569594372.95896
1569594372.97459
1569594372.99021
1569594373.00584
1569594373.02146
1569594373.03709
1569594373.05271
1569594373.06834
1569594373.08397
1569594373.09959
1569594373.11522
1569594373.13084
1569594373.14647
1569594373.16209
1569594373.17772
1569594373.19335
1569594373.20897
1569594373.2246
1569594373.24022
1569594373.25585
1569594373.27147
1569594373.2871
1569594373.30273
1569594373.31835
1569594373.33398
1569594373.3496
1569594373.36523
1569594373.38085
1569594373.39648
1569594373.41211
1569594373.42773
1569594373.44336
1569594373.45898
1569594373.47461
1569594373.49023
1569594373.50586
1569594373.52149
1569594373.53711
1569594373.55274
1569594373.56836
1569594373.58399
1569594373.59961
1569594373.61524
1569594373.63087
1569594373.64649
1569594373.66212
1569594373.67774
1569594373.69337
1569594373.70899
1569594373.72462
1569594373.74025
1569594373.75587
1569594373.7715
1569594373.78712
1569594373.80275
1569594373.81837
1569594373.834
1569594373.84963
1569594373.86525
1569594373.88088
1569594373.8965
1569594373.91213
1569594373.92775
1569594373.94338
1569594373.95901
1569594373.97463
1569594373.99026
1569594374.00588
1569594374.02151
1569594374.03713
1569594374.05276
1569594374.06839
1569594374.08401
1569594374.09964
1569594374.11526
1569594374.13089
1569594374.14651
1569594374.16214
1569594374.17777
1569594374.19339
1569594374.20902
1569594374.22464
1569594374.24027
1569594374.25589
1569594374.27152
1569594374.28715
1569594374.30277
1569594374.3184
1569594374.33402
1569594374.34965
1569594374.36527
1569594374.3809
1569594374.39653
1569594374.41215
1569594374.42778
1569594374.4434
1569594374.45903
1569594374.47465
1569594374.49028
1569594374.50591
1569594374.52153
1569594374.53716
1569594374.55278
1569594374.56841
1569594374.58403
1569594374.59966
1569594374.61529
1569594374.63091
1569594374.64654
1569594374.66216
1569594374.67779
1569594374.69341
1569594374.70904
1569594374.72467
1569594374.74029
1569594374.75592
1569594374.77154
1569594374.78717
1569594374.80279
1569594374.81842
1569594374.83405
1569594374.84967
1569594374.8653
1569594374.88092
1569594374.89655
1569594374.91217
1569594374.9278
1569594374.94343
1569594374.95905
1569594374.97468
1569594374.9903
1569594375.00593
1569594375.02155
1569594375.03718
1569594375.05281
1569594375.06843
1569594375.08406
1569594375.09968
1569594375.11531
1569594375.13093
1569594375.14656
1569594375.16219
1569594375.17781
1569594375.19344
1569594375.20906
1569594375.22469
1569594375.24031
1569594375.25594
1569594375.27157
1569594375.28719
1569594375.30282
1569594375.31844
1569594375.33407
1569594375.3497
1569594375.36532
1569594375.38095
1569594375.39657
1569594375.4122
1569594375.42782
1569594375.44345
1569594375.45908
1569594375.4747
1569594375.49033
1569594375.50595
1569594375.52158
1569594375.5372
1569594375.55283
1569594375.56846
1569594375.58408
1569594375.59971
1569594375.61533
1569594375.63096
1569594375.64658
1569594375.66221
1569594375.67784
1569594375.69346
1569594375.70909
1569594375.72471
1569594375.74034
1569594375.75596
1569594375.77159
1569594375.78722
1569594375.80284
1569594375.81847
1569594375.83409
1569594375.84972
1569594375.86534
1569594375.88097
1569594375.8966
1569594375.91222
1569594375.92785
1569594375.94347
1569594375.9591
1569594375.97472
1569594375.99035
1569594376.00598
1569594376.0216
1569594376.03723
1569594376.05285
1569594376.06848
1569594376.0841
1569594376.09973
1569594376.11536
1569594376.13098
1569594376.14661
1569594376.16223
1569594376.17786
1569594376.19348
1569594376.20911
1569594376.22474
1569594376.24036
1569594376.25599
1569594376.27161
1569594376.28724
1569594376.30286
1569594376.31849
1569594376.33412
1569594376.34974
1569594376.36537
1569594376.38099
1569594376.39662
1569594376.41224
1569594376.42787
1569594376.4435
1569594376.45912
1569594376.47475
1569594376.49037
1569594376.506
1569594376.52162
1569594376.53725
1569594376.55288
1569594376.5685
1569594376.58413
1569594376.59975
1569594376.61538
1569594376.631
1569594376.64663
1569594376.66226
1569594376.67788
1569594376.69351
1569594376.70913
1569594376.72476
1569594376.74038
1569594376.75601
1569594376.77164
1569594376.78726
1569594376.80289
1569594376.81851
1569594376.83414
1569594376.84976
1569594376.86539
1569594376.88102
1569594376.89664
1569594376.91227
1569594376.92789
1569594376.94352
1569594376.95914
1569594376.97477
1569594376.9904
1569594377.00602
1569594377.02165
1569594377.03727
1569594377.0529
1569594377.06852
1569594377.08415
1569594377.09978
1569594377.1154
1569594377.13103
1569594377.14665
1569594377.16228
1569594377.1779
1569594377.19353
1569594377.20916
1569594377.22478
1569594377.24041
1569594377.25603
1569594377.27166
1569594377.28728
1569594377.30291
1569594377.31854
1569594377.33416
1569594377.34979
1569594377.36541
1569594377.38104
1569594377.39666
1569594377.41229
1569594377.42792
1569594377.44354
1569594377.45917
1569594377.47479
1569594377.49042
1569594377.50604
1569594377.52167
1569594377.5373
1569594377.55292
1569594377.56855
1569594377.58417
1569594377.5998
1569594377.61543
1569594377.63105
1569594377.64668
1569594377.6623
1569594377.67793
1569594377.69355
1569594377.70918
1569594377.72481
1569594377.74043
1569594377.75606
1569594377.77168
1569594377.78731
1569594377.80293
1569594377.81856
1569594377.83419
1569594377.84981
1569594377.86544
1569594377.88106
1569594377.89669
1569594377.91231
1569594377.92794
1569594377.94357
1569594377.95919
1569594377.97482
1569594377.99044
1569594378.00607
1569594378.02169
1569594378.03732
1569594378.05295
1569594378.06857
1569594378.0842
1569594378.09982
1569594378.11545
1569594378.13107
1569594378.1467
1569594378.16233
1569594378.17795
1569594378.19358
1569594378.2092
1569594378.22483
1569594378.24045
1569594378.25608
1569594378.27171
1569594378.28733
1569594378.30296
1569594378.31858
1569594378.33421
1569594378.34983
1569594378.36546
1569594378.38109
1569594378.39671
1569594378.41234
1569594378.42796
1569594378.44359
1569594378.45921
1569594378.47484
1569594378.49047
1569594378.50609
1569594378.52172
1569594378.53734
1569594378.55297
1569594378.56859
1569594378.58422
1569594378.59985
1569594378.61547
1569594378.6311
1569594378.64672
1569594378.66235
1569594378.67797
1569594378.6936
1569594378.70923
1569594378.72485
1569594378.74048
1569594378.7561
1569594378.77173
1569594378.78735
1569594378.80298
1569594378.81861
1569594378.83423
1569594378.84986
1569594378.86548
1569594378.88111
1569594378.89673
1569594378.91236
1569594378.92799
1569594378.94361
1569594378.95924
1569594378.97486
1569594378.99049
1569594379.00611
1569594379.02174
1569594379.03737
1569594379.05299
1569594379.06862
1569594379.08424
1569594379.09987
1569594379.11549
1569594379.13112
1569594379.14675
1569594379.16237
1569594379.178
1569594379.19362
1569594379.20925
1569594379.22487
1569594379.2405
1569594379.25613
1569594379.27175
1569594379.28738
1569594379.303
1569594379.31863
1569594379.33425
1569594379.34988
1569594379.36551
1569594379.38113
1569594379.39676
1569594379.41238
1569594379.42801
1569594379.44363
1569594379.45926
1569594379.47489
1569594379.49051
1569594379.50614
1569594379.52176
1569594379.53739
1569594379.55301
1569594379.56864
1569594379.58427
1569594379.59989
1569594379.61552
1569594379.63114
1569594379.64677
1569594379.66239
1569594379.67802
1569594379.69365
1569594379.70927
1569594379.7249
1569594379.74052
1569594379.75615
1569594379.77177
1569594379.7874
1569594379.80303
1569594379.81865
1569594379.83428
1569594379.8499
1569594379.86553
1569594379.88116
1569594379.89678
1569594379.91241
1569594379.92803
1569594379.94366
1569594379.95928
1569594379.97491
1569594379.99054
1569594380.00616
1569594380.02179
1569594380.03741
1569594380.05304
1569594380.06866
1569594380.08429
1569594380.09992
1569594380.11554
1569594380.13117
1569594380.14679
1569594380.16242
1569594380.17804
1569594380.19367
1569594380.2093
1569594380.22492
1569594380.24055
1569594380.25617
1569594380.2718
1569594380.28742
1569594380.30305
1569594380.31868
1569594380.3343
1569594380.34993
1569594380.36555
1569594380.38118
1569594380.3968
1569594380.41243
1569594380.42806
1569594380.44368
1569594380.45931
1569594380.47493
1569594380.49056
1569594380.50618
1569594380.52181
1569594380.53744
1569594380.55306
1569594380.56869
1569594380.58431
1569594380.59994
1569594380.61556
1569594380.63119
1569594380.64682
1569594380.66244
1569594380.67807
1569594380.69369
1569594380.70932
1569594380.72494
1569594380.74057
1569594380.7562
1569594380.77182
1569594380.78745
1569594380.80307
1569594380.8187
1569594380.83432
1569594380.84995
1569594380.86558
1569594380.8812
1569594380.89683
1569594380.91245
1569594380.92808
1569594380.9437
1569594380.95933
1569594380.97496
1569594380.99058
1569594381.00621
1569594381.02183
1569594381.03746
1569594381.05308
1569594381.06871
1569594381.08434
1569594381.09996
1569594381.11559
1569594381.13121
1569594381.14684
1569594381.16246
1569594381.17809
1569594381.19372
1569594381.20934
1569594381.22497
1569594381.24059
1569594381.25622
1569594381.27184
1569594381.28747
1569594381.3031
1569594381.31872
1569594381.33435
1569594381.34997
1569594381.3656
1569594381.38122
1569594381.39685
1569594381.41248
1569594381.4281
1569594381.44373
1569594381.45935
1569594381.47498
1569594381.4906
1569594381.50623
1569594381.52186
1569594381.53748
1569594381.55311
1569594381.56873
1569594381.58436
1569594381.59998
1569594381.61561
1569594381.63124
1569594381.64686
1569594381.66249
1569594381.67811
1569594381.69374
1569594381.70936
1569594381.72499
1569594381.74062
1569594381.75624
1569594381.77187
1569594381.78749
1569594381.80312
1569594381.81874
1569594381.83437
1569594381.85
1569594381.86562
1569594381.88125
1569594381.89687
1569594381.9125
1569594381.92812
1569594381.94375
1569594381.95938
1569594381.975
1569594381.99063
1569594382.00625
1569594382.02188
1569594382.0375
1569594382.05313
1569594382.06876
1569594382.08438
1569594382.10001
1569594382.11563
1569594382.13126
1569594382.14688
1569594382.16251
1569594382.17814
1569594382.19376
1569594382.20939
1569594382.22501
1569594382.24064
1569594382.25626
1569594382.27189
1569594382.28752
1569594382.30314
1569594382.31877
1569594382.33439
1569594382.35002
1569594382.36564
1569594382.38127
1569594382.3969
1569594382.41252
1569594382.42815
1569594382.44377
1569594382.4594
1569594382.47503
1569594382.49065
1569594382.50628
1569594382.5219
1569594382.53753
1569594382.55315
1569594382.56878
1569594382.58441
1569594382.60003
1569594382.61566
1569594382.63128
1569594382.64691
1569594382.66253
1569594382.67816
1569594382.69379
1569594382.70941
1569594382.72504
1569594382.74066
1569594382.75629
1569594382.77191
1569594382.78754
1569594382.80317
1569594382.81879
1569594382.83442
1569594382.85004
1569594382.86567
1569594382.88129
1569594382.89692
1569594382.91255
1569594382.92817
1569594382.9438
1569594382.95942
1569594382.97505
1569594382.99067
1569594383.0063
1569594383.02193
1569594383.03755
1569594383.05318
1569594383.0688
1569594383.08443
1569594383.10005
1569594383.11568
1569594383.13131
1569594383.14693
1569594383.16256
1569594383.17818
1569594383.19381
1569594383.20943
1569594383.22506
1569594383.24069
1569594383.25631
1569594383.27194
1569594383.28756
1569594383.30319
1569594383.31881
1569594383.33444
1569594383.35007
1569594383.36569
1569594383.38132
1569594383.39694
1569594383.41257
1569594383.42819
1569594383.44382
1569594383.45945
1569594383.47507
1569594383.4907
1569594383.50632
1569594383.52195
1569594383.53757
1569594383.5532
1569594383.56883
1569594383.58445
1569594383.60008
1569594383.6157
1569594383.63133
1569594383.64695
1569594383.66258
1569594383.67821
1569594383.69383
1569594383.70946
1569594383.72508
1569594383.74071
1569594383.75633
1569594383.77196
1569594383.78759
1569594383.80321
1569594383.81884
1569594383.83446
1569594383.85009
1569594383.86571
1569594383.88134
1569594383.89697
1569594383.91259
1569594383.92822
1569594383.94384
1569594383.95947
1569594383.97509
1569594383.99072
1569594384.00635
1569594384.02197
1569594384.0376
1569594384.05322
1569594384.06885
1569594384.08447
1569594384.1001
1569594384.11573
1569594384.13135
1569594384.14698
1569594384.1626
1569594384.17823
1569594384.19385
1569594384.20948
1569594384.22511
1569594384.24073
1569594384.25636
1569594384.27198
1569594384.28761
1569594384.30323
1569594384.31886
1569594384.33449
1569594384.35011
1569594384.36574
1569594384.38136
1569594384.39699
1569594384.41261
1569594384.42824
1569594384.44387
1569594384.45949
1569594384.47512
1569594384.49074
1569594384.50637
1569594384.52199
1569594384.53762
1569594384.55325
1569594384.56887
1569594384.5845
1569594384.60012
1569594384.61575
1569594384.63137
1569594384.647
1569594384.66263
1569594384.67825
1569594384.69388
1569594384.7095
1569594384.72513
1569594384.74076
1569594384.75638
1569594384.77201
1569594384.78763
1569594384.80326
1569594384.81888
1569594384.83451
1569594384.85014
1569594384.86576
1569594384.88139
1569594384.89701
1569594384.91264
1569594384.92826
1569594384.94389
1569594384.95952
1569594384.97514
1569594384.99077
1569594385.00639
1569594385.02202
1569594385.03764
1569594385.05327
1569594385.0689
1569594385.08452
1569594385.10015
1569594385.11577
1569594385.1314
1569594385.14702
1569594385.16265
1569594385.17828
1569594385.1939
1569594385.20953
1569594385.22515
1569594385.24078
1569594385.2564
1569594385.27203
1569594385.28766
1569594385.30328
1569594385.31891
1569594385.33453
1569594385.35016
1569594385.36578
1569594385.38141
1569594385.39704
1569594385.41266
1569594385.42829
1569594385.44391
1569594385.45954
1569594385.47516
1569594385.49079
1569594385.50642
1569594385.52204
1569594385.53767
1569594385.55329
1569594385.56892
1569594385.58454
1569594385.60017
1569594385.6158
1569594385.63142
1569594385.64705
1569594385.66267
1569594385.6783
1569594385.69392
1569594385.70955
1569594385.72518
1569594385.7408
1569594385.75643
1569594385.77205
1569594385.78768
1569594385.8033
1569594385.81893
1569594385.83456
1569594385.85018
1569594385.86581
1569594385.88143
1569594385.89706
1569594385.91268
1569594385.92831
1569594385.94394
1569594385.95956
1569594385.97519
1569594385.99081
1569594386.00644
1569594386.02206
1569594386.03769
1569594386.05332
1569594386.06894
1569594386.08457
1569594386.10019
1569594386.11582
1569594386.13144
1569594386.14707
1569594386.1627
1569594386.17832
1569594386.19395
1569594386.20957
1569594386.2252
1569594386.24082
1569594386.25645
1569594386.27208
1569594386.2877
1569594386.30333
1569594386.31895
1569594386.33458
1569594386.3502
1569594386.36583
1569594386.38146
1569594386.39708
1569594386.41271
1569594386.42833
1569594386.44396
1569594386.45958
1569594386.47521
1569594386.49084
1569594386.50646
1569594386.52209
1569594386.53771
1569594386.55334
1569594386.56896
1569594386.58459
1569594386.60022
1569594386.61584
1569594386.63147
1569594386.64709
1569594386.66272
1569594386.67834
1569594386.69397
1569594386.7096
1569594386.72522
1569594386.74085
1569594386.75647
1569594386.7721
1569594386.78772
1569594386.80335
1569594386.81898
1569594386.8346
1569594386.85023
1569594386.86585
1569594386.88148
1569594386.8971
1569594386.91273
1569594386.92836
1569594386.94398
1569594386.95961
1569594386.97523
1569594386.99086
1569594387.00648
1569594387.02211
1569594387.03774
1569594387.05336
1569594387.06899
1569594387.08461
1569594387.10024
1569594387.11586
1569594387.13149
1569594387.14712
1569594387.16274
1569594387.17837
1569594387.19399
1569594387.20962
1569594387.22525
1569594387.24087
1569594387.2565
1569594387.27212
1569594387.28775
1569594387.30337
1569594387.319
1569594387.33463
1569594387.35025
1569594387.36588
1569594387.3815
1569594387.39713
1569594387.41275
1569594387.42838
1569594387.44401
1569594387.45963
1569594387.47526
1569594387.49088
1569594387.50651
1569594387.52213
1569594387.53776
1569594387.55339
1569594387.56901
1569594387.58464
1569594387.60026
1569594387.61589
1569594387.63151
1569594387.64714
1569594387.66277
1569594387.67839
1569594387.69402
1569594387.70964
1569594387.72527
1569594387.74089
1569594387.75652
1569594387.77215
1569594387.78777
1569594387.8034
1569594387.81902
1569594387.83465
1569594387.85027
1569594387.8659
1569594387.88153
1569594387.89715
1569594387.91278
1569594387.9284
1569594387.94403
1569594387.95965
1569594387.97528
1569594387.99091
1569594388.00653
1569594388.02216
1569594388.03778
1569594388.05341
1569594388.06903
1569594388.08466
1569594388.10029
1569594388.11591
1569594388.13154
1569594388.14716
1569594388.16279
1569594388.17841
1569594388.19404
1569594388.20967
1569594388.22529
1569594388.24092
1569594388.25654
1569594388.27217
1569594388.28779
1569594388.30342
1569594388.31905
1569594388.33467
1569594388.3503
1569594388.36592
1569594388.38155
1569594388.39717
1569594388.4128
1569594388.42843
1569594388.44405
1569594388.45968
1569594388.4753
1569594388.49093
1569594388.50655
1569594388.52218
1569594388.53781
1569594388.55343
1569594388.56906
1569594388.58468
1569594388.60031
1569594388.61593
1569594388.63156
1569594388.64719
1569594388.66281
1569594388.67844
1569594388.69406
1569594388.70969
1569594388.72531
1569594388.74094
1569594388.75657
1569594388.77219
1569594388.78782
1569594388.80344
1569594388.81907
1569594388.83469
1569594388.85032
1569594388.86595
1569594388.88157
1569594388.8972
1569594388.91282
1569594388.92845
1569594388.94407
1569594388.9597
1569594388.97533
1569594388.99095
1569594389.00658
1569594389.0222
1569594389.03783
1569594389.05345
1569594389.06908
1569594389.08471
1569594389.10033
1569594389.11596
1569594389.13158
1569594389.14721
1569594389.16283
1569594389.17846
1569594389.19409
1569594389.20971
1569594389.22534
1569594389.24096
1569594389.25659
1569594389.27221
1569594389.28784
1569594389.30347
1569594389.31909
1569594389.33472
1569594389.35034
1569594389.36597
1569594389.38159
1569594389.39722
1569594389.41285
1569594389.42847
1569594389.4441
1569594389.45972
1569594389.47535
1569594389.49097
1569594389.5066
1569594389.52223
1569594389.53785
1569594389.55348
1569594389.5691
1569594389.58473
1569594389.60036
1569594389.61598
1569594389.63161
1569594389.64723
1569594389.66286
1569594389.67848
1569594389.69411
1569594389.70974
1569594389.72536
1569594389.74099
1569594389.75661
1569594389.77224
1569594389.78786
1569594389.80349
1569594389.81912
1569594389.83474
1569594389.85037
1569594389.86599
1569594389.88162
1569594389.89724
1569594389.91287
1569594389.9285
1569594389.94412
1569594389.95975
1569594389.97537
1569594389.991
1569594390.00662
1569594390.02225
1569594390.03788
1569594390.0535
1569594390.06913
1569594390.08475
1569594390.10038
1569594390.116
1569594390.13163
1569594390.14726
1569594390.16288
1569594390.17851
1569594390.19413
1569594390.20976
1569594390.22538
1569594390.24101
1569594390.25664
1569594390.27226
1569594390.28789
1569594390.30351
1569594390.31914
1569594390.33476
1569594390.35039
1569594390.36602
1569594390.38164
1569594390.39727
1569594390.41289
1569594390.42852
1569594390.44414
1569594390.45977
1569594390.4754
1569594390.49102
1569594390.50665
1569594390.52227
1569594390.5379
1569594390.55352
1569594390.56915
1569594390.58478
1569594390.6004
1569594390.61603
1569594390.63165
1569594390.64728
1569594390.6629
1569594390.67853
1569594390.69416
1569594390.70978
1569594390.72541
1569594390.74103
1569594390.75666
1569594390.77228
1569594390.78791
1569594390.80354
1569594390.81916
1569594390.83479
1569594390.85041
1569594390.86604
1569594390.88166
1569594390.89729
1569594390.91292
1569594390.92854
1569594390.94417
1569594390.95979
1569594390.97542
1569594390.99104
1569594391.00667
1569594391.0223
1569594391.03792
1569594391.05355
1569594391.06917
1569594391.0848
1569594391.10042
1569594391.11605
1569594391.13168
1569594391.1473
1569594391.16293
1569594391.17855
1569594391.19418
1569594391.2098
1569594391.22543
1569594391.24106
1569594391.25668
1569594391.27231
1569594391.28793
1569594391.30356
1569594391.31918
1569594391.33481
1569594391.35044
1569594391.36606
1569594391.38169
1569594391.39731
1569594391.41294
1569594391.42856
1569594391.44419
1569594391.45982
1569594391.47544
1569594391.49107
1569594391.50669
1569594391.52232
1569594391.53794
1569594391.55357
1569594391.5692
1569594391.58482
1569594391.60045
1569594391.61607
1569594391.6317
1569594391.64732
1569594391.66295
1569594391.67858
1569594391.6942
1569594391.70983
1569594391.72545
1569594391.74108
1569594391.75671
1569594391.77233
1569594391.78796
1569594391.80358
1569594391.81921
1569594391.83483
1569594391.85046
1569594391.86609
1569594391.88171
1569594391.89734
1569594391.91296
1569594391.92859
1569594391.94421
1569594391.95984
1569594391.97547
1569594391.99109
1569594392.00672
1569594392.02234
1569594392.03797
1569594392.05359
1569594392.06922
1569594392.08485
1569594392.10047
1569594392.1161
1569594392.13172
1569594392.14735
1569594392.16297
1569594392.1786
1569594392.19423
1569594392.20985
1569594392.22548
1569594392.2411
1569594392.25673
1569594392.27235
1569594392.28798
1569594392.30361
1569594392.31923
1569594392.33486
1569594392.35048
1569594392.36611
1569594392.38173
1569594392.39736
1569594392.41299
1569594392.42861
1569594392.44424
1569594392.45986
1569594392.47549
1569594392.49111
1569594392.50674
1569594392.52237
1569594392.53799
1569594392.55362
1569594392.56924
1569594392.58487
1569594392.60049
1569594392.61612
1569594392.63175
1569594392.64737
1569594392.663
1569594392.67862
1569594392.69425
1569594392.70987
1569594392.7255
1569594392.74113
1569594392.75675
1569594392.77238
1569594392.788
1569594392.80363
1569594392.81925
1569594392.83488
1569594392.85051
1569594392.86613
1569594392.88176
1569594392.89738
1569594392.91301
1569594392.92863
1569594392.94426
1569594392.95989
1569594392.97551
1569594392.99114
1569594393.00676
1569594393.02239
1569594393.03801
1569594393.05364
1569594393.06927
1569594393.08489
1569594393.10052
1569594393.11614
1569594393.13177
1569594393.14739
1569594393.16302
1569594393.17865
1569594393.19427
1569594393.2099
1569594393.22552
1569594393.24115
1569594393.25677
1569594393.2724
1569594393.28803
1569594393.30365
1569594393.31928
1569594393.3349
1569594393.35053
1569594393.36615
1569594393.38178
1569594393.39741
1569594393.41303
1569594393.42866
1569594393.44428
1569594393.45991
1569594393.47553
1569594393.49116
1569594393.50679
1569594393.52241
1569594393.53804
1569594393.55366
1569594393.56929
1569594393.58491
1569594393.60054
1569594393.61617
1569594393.63179
1569594393.64742
1569594393.66304
1569594393.67867
1569594393.69429
1569594393.70992
1569594393.72555
1569594393.74117
1569594393.7568
1569594393.77242
1569594393.78805
1569594393.80367
1569594393.8193
1569594393.83493
1569594393.85055
1569594393.86618
1569594393.8818
1569594393.89743
1569594393.91305
1569594393.92868
1569594393.94431
1569594393.95993
1569594393.97556
1569594393.99118
1569594394.00681
1569594394.02243
1569594394.03806
1569594394.05369
1569594394.06931
1569594394.08494
1569594394.10056
1569594394.11619
1569594394.13181
1569594394.14744
1569594394.16307
1569594394.17869
1569594394.19432
1569594394.20994
1569594394.22557
1569594394.24119
1569594394.25682
1569594394.27245
1569594394.28807
1569594394.3037
1569594394.31932
1569594394.33495
1569594394.35057
1569594394.3662
1569594394.38183
1569594394.39745
1569594394.41308
1569594394.4287
1569594394.44433
1569594394.45996
1569594394.47558
1569594394.49121
1569594394.50683
1569594394.52246
1569594394.53808
1569594394.55371
1569594394.56934
1569594394.58496
1569594394.60059
1569594394.61621
1569594394.63184
1569594394.64746
1569594394.66309
1569594394.67872
1569594394.69434
1569594394.70997
1569594394.72559
1569594394.74122
1569594394.75684
1569594394.77247
1569594394.7881
1569594394.80372
1569594394.81935
1569594394.83497
1569594394.8506
1569594394.86622
1569594394.88185
1569594394.89748
1569594394.9131
1569594394.92873
1569594394.94435
1569594394.95998
1569594394.9756
1569594394.99123
1569594395.00686
1569594395.02248
1569594395.03811
1569594395.05373
1569594395.06936
1569594395.08498
1569594395.10061
1569594395.11624
1569594395.13186
1569594395.14749
1569594395.16311
1569594395.17874
1569594395.19436
1569594395.20999
1569594395.22562
1569594395.24124
1569594395.25687
1569594395.27249
1569594395.28812
1569594395.30374
1569594395.31937
1569594395.335
1569594395.35062
1569594395.36625
1569594395.38187
1569594395.3975
1569594395.41312
1569594395.42875
1569594395.44438
1569594395.46
1569594395.47563
1569594395.49125
1569594395.50688
1569594395.5225
1569594395.53813
1569594395.55376
1569594395.56938
1569594395.58501
1569594395.60063
1569594395.61626
1569594395.63188
1569594395.64751
1569594395.66314
1569594395.67876
1569594395.69439
1569594395.71001
1569594395.72564
1569594395.74126
1569594395.75689
1569594395.77252
1569594395.78814
1569594395.80377
1569594395.81939
1569594395.83502
1569594395.85064
1569594395.86627
1569594395.8819
1569594395.89752
1569594395.91315
1569594395.92877
1569594395.9444
1569594395.96002
1569594395.97565
1569594395.99128
1569594396.0069
1569594396.02253
1569594396.03815
1569594396.05378
1569594396.0694
1569594396.08503
1569594396.10066
1569594396.11628
1569594396.13191
1569594396.14753
1569594396.16316
1569594396.17878
1569594396.19441
1569594396.21004
1569594396.22566
1569594396.24129
1569594396.25691
1569594396.27254
1569594396.28816
1569594396.30379
1569594396.31942
1569594396.33504
1569594396.35067
1569594396.36629
1569594396.38192
1569594396.39754
1569594396.41317
1569594396.4288
1569594396.44442
1569594396.46005
1569594396.47567
1569594396.4913
1569594396.50692
1569594396.52255
1569594396.53818
1569594396.5538
1569594396.56943
1569594396.58505
1569594396.60068
1569594396.61631
1569594396.63193
1569594396.64756
1569594396.66318
1569594396.67881
1569594396.69443
1569594396.71006
1569594396.72569
1569594396.74131
1569594396.75694
1569594396.77256
1569594396.78819
1569594396.80381
1569594396.81944
1569594396.83507
1569594396.85069
1569594396.86632
1569594396.88194
1569594396.89757
1569594396.91319
1569594396.92882
1569594396.94445
1569594396.96007
1569594396.9757
1569594396.99132
1569594397.00695
1569594397.02257
1569594397.0382
1569594397.05383
1569594397.06945
1569594397.08508
1569594397.1007
1569594397.11633
1569594397.13195
1569594397.14758
1569594397.16321
1569594397.17883
1569594397.19446
1569594397.21008
1569594397.22571
1569594397.24133
1569594397.25696
1569594397.27259
1569594397.28821
1569594397.30384
1569594397.31946
1569594397.33509
1569594397.35071
1569594397.36634
1569594397.38197
1569594397.39759
1569594397.41322
1569594397.42884
1569594397.44447
1569594397.46009
1569594397.47572
1569594397.49135
1569594397.50697
1569594397.5226
1569594397.53822
1569594397.55385
1569594397.56947
1569594397.5851
1569594397.60073
1569594397.61635
1569594397.63198
1569594397.6476
1569594397.66323
1569594397.67885
1569594397.69448
1569594397.71011
1569594397.72573
1569594397.74136
1569594397.75698
1569594397.77261
1569594397.78823
1569594397.80386
1569594397.81949
1569594397.83511
1569594397.85074
1569594397.86636
1569594397.88199
1569594397.89761
1569594397.91324
1569594397.92887
1569594397.94449
1569594397.96012
1569594397.97574
1569594397.99137
1569594398.00699
1569594398.02262
1569594398.03825
1569594398.05387
1569594398.0695
1569594398.08512
1569594398.10075
1569594398.11637
1569594398.132
1569594398.14763
1569594398.16325
1569594398.17888
1569594398.1945
1569594398.21013
1569594398.22575
1569594398.24138
1569594398.25701
1569594398.27263
1569594398.28826
1569594398.30388
1569594398.31951
1569594398.33513
1569594398.35076
1569594398.36639
1569594398.38201
1569594398.39764
1569594398.41326
1569594398.42889
1569594398.44451
1569594398.46014
1569594398.47577
1569594398.49139
1569594398.50702
1569594398.52264
1569594398.53827
1569594398.55389
1569594398.56952
1569594398.58515
1569594398.60077
1569594398.6164
1569594398.63202
1569594398.64765
1569594398.66327
1569594398.6789
1569594398.69453
1569594398.71015
1569594398.72578
1569594398.7414
1569594398.75703
1569594398.77265
1569594398.78828
1569594398.80391
1569594398.81953
1569594398.83516
1569594398.85078
1569594398.86641
1569594398.88204
1569594398.89766
1569594398.91329
1569594398.92891
1569594398.94454
1569594398.96016
1569594398.97579
1569594398.99142
1569594399.00704
1569594399.02267
1569594399.03829
1569594399.05392
1569594399.06954
1569594399.08517
1569594399.1008
1569594399.11642
1569594399.13205
1569594399.14767
1569594399.1633
1569594399.17892
1569594399.19455
1569594399.21018
1569594399.2258
1569594399.24143
1569594399.25705
1569594399.27268
1569594399.2883
1569594399.30393
1569594399.31956
1569594399.33518
1569594399.35081
1569594399.36643
1569594399.38206
1569594399.39768
1569594399.41331
1569594399.42894
1569594399.44456
1569594399.46019
1569594399.47581
1569594399.49144
1569594399.50706
1569594399.52269
1569594399.53832
1569594399.55394
1569594399.56957
1569594399.58519
1569594399.60082
1569594399.61644
1569594399.63207
1569594399.6477
1569594399.66332
1569594399.67895
1569594399.69457
1569594399.7102
1569594399.72582
1569594399.74145
1569594399.75708
1569594399.7727
1569594399.78833
1569594399.80395
1569594399.81958
1569594399.8352
1569594399.85083
1569594399.86646
1569594399.88208
1569594399.89771
1569594399.91333
1569594399.92896
1569594399.94458
1569594399.96021
1569594399.97584
1569594399.99146
1569594400.00709
1569594400.02271
1569594400.03834
1569594400.05396
1569594400.06959
1569594400.08522
1569594400.10084
1569594400.11647
1569594400.13209
1569594400.14772
1569594400.16334
1569594400.17897
1569594400.1946
1569594400.21022
1569594400.22585
1569594400.24147
1569594400.2571
1569594400.27272
1569594400.28835
1569594400.30398
1569594400.3196
1569594400.33523
1569594400.35085
1569594400.36648
1569594400.3821
1569594400.39773
1569594400.41336
1569594400.42898
1569594400.44461
1569594400.46023
1569594400.47586
1569594400.49148
1569594400.50711
1569594400.52274
1569594400.53836
1569594400.55399
1569594400.56961
1569594400.58524
1569594400.60086
1569594400.61649
1569594400.63212
1569594400.64774
1569594400.66337
1569594400.67899
1569594400.69462
1569594400.71024
1569594400.72587
1569594400.7415
1569594400.75712
1569594400.77275
1569594400.78837
1569594400.804
1569594400.81962
1569594400.83525
1569594400.85088
1569594400.8665
1569594400.88213
1569594400.89775
1569594400.91338
1569594400.929
1569594400.94463
1569594400.96026
1569594400.97588
1569594400.99151
1569594401.00713
1569594401.02276
1569594401.03838
1569594401.05401
1569594401.06964
1569594401.08526
1569594401.10089
1569594401.11651
1569594401.13214
1569594401.14776
1569594401.16339
1569594401.17902
1569594401.19464
1569594401.21027
1569594401.22589
1569594401.24152
1569594401.25714
1569594401.27277
1569594401.2884
1569594401.30402
1569594401.31965
1569594401.33527
1569594401.3509
1569594401.36652
1569594401.38215
1569594401.39778
1569594401.4134
1569594401.42903
1569594401.44465
1569594401.46028
1569594401.47591
1569594401.49153
1569594401.50716
1569594401.52278
1569594401.53841
1569594401.55403
1569594401.56966
1569594401.58529
1569594401.60091
1569594401.61654
1569594401.63216
1569594401.64779
1569594401.66341
1569594401.67904
1569594401.69467
1569594401.71029
1569594401.72592
1569594401.74154
1569594401.75717
1569594401.77279
1569594401.78842
1569594401.80405
1569594401.81967
1569594401.8353
1569594401.85092
1569594401.86655
1569594401.88217
1569594401.8978
1569594401.91343
1569594401.92905
1569594401.94468
1569594401.9603
1569594401.97593
1569594401.99155
1569594402.00718
1569594402.02281
1569594402.03843
1569594402.05406
1569594402.06968
1569594402.08531
1569594402.10093
1569594402.11656
1569594402.13219
1569594402.14781
1569594402.16344
1569594402.17906
1569594402.19469
1569594402.21031
1569594402.22594
1569594402.24157
1569594402.25719
1569594402.27282
1569594402.28844
1569594402.30407
1569594402.31969
1569594402.33532
1569594402.35095
1569594402.36657
1569594402.3822
1569594402.39782
1569594402.41345
1569594402.42907
1569594402.4447
1569594402.46033
1569594402.47595
1569594402.49158
1569594402.5072
1569594402.52283
1569594402.53845
1569594402.55408
1569594402.56971
1569594402.58533
1569594402.60096
1569594402.61658
1569594402.63221
1569594402.64783
1569594402.66346
1569594402.67909
1569594402.69471
1569594402.71034
1569594402.72596
1569594402.74159
1569594402.75721
1569594402.77284
1569594402.78847
1569594402.80409
1569594402.81972
1569594402.83534
1569594402.85097
1569594402.86659
1569594402.88222
1569594402.89785
1569594402.91347
1569594402.9291
1569594402.94472
1569594402.96035
1569594402.97597
1569594402.9916
1569594403.00723
1569594403.02285
1569594403.03848
1569594403.0541
1569594403.06973
1569594403.08535
1569594403.10098
1569594403.11661
1569594403.13223
1569594403.14786
1569594403.16348
1569594403.17911
1569594403.19473
1569594403.21036
1569594403.22599
1569594403.24161
1569594403.25724
1569594403.27286
1569594403.28849
1569594403.30411
1569594403.31974
1569594403.33537
1569594403.35099
1569594403.36662
1569594403.38224
1569594403.39787
1569594403.41349
1569594403.42912
1569594403.44475
1569594403.46037
1569594403.476
1569594403.49162
1569594403.50725
1569594403.52287
1569594403.5385
1569594403.55413
1569594403.56975
1569594403.58538
1569594403.601
1569594403.61663
1569594403.63225
1569594403.64788
1569594403.66351
1569594403.67913
1569594403.69476
1569594403.71038
1569594403.72601
1569594403.74164
1569594403.75726
1569594403.77289
1569594403.78851
1569594403.80414
1569594403.81976
1569594403.83539
1569594403.85102
1569594403.86664
1569594403.88227
1569594403.89789
1569594403.91352
1569594403.92914
1569594403.94477
1569594403.9604
1569594403.97602
1569594403.99165
1569594404.00727
1569594404.0229
1569594404.03852
1569594404.05415
1569594404.06978
1569594404.0854
1569594404.10103
1569594404.11665
1569594404.13228
1569594404.1479
1569594404.16353
1569594404.17916
1569594404.19478
1569594404.21041
1569594404.22603
1569594404.24166
1569594404.25728
1569594404.27291
1569594404.28854
1569594404.30416
1569594404.31979
1569594404.33541
1569594404.35104
1569594404.36666
1569594404.38229
1569594404.39792
1569594404.41354
1569594404.42917
1569594404.44479
1569594404.46042
1569594404.47604
1569594404.49167
1569594404.5073
1569594404.52292
1569594404.53855
1569594404.55417
1569594404.5698
1569594404.58542
1569594404.60105
1569594404.61668
1569594404.6323
1569594404.64793
1569594404.66355
1569594404.67918
1569594404.6948
1569594404.71043
1569594404.72606
1569594404.74168
1569594404.75731
1569594404.77293
1569594404.78856
1569594404.80418
1569594404.81981
1569594404.83544
1569594404.85106
1569594404.86669
1569594404.88231
1569594404.89794
1569594404.91356
1569594404.92919
1569594404.94482
1569594404.96044
1569594404.97607
1569594404.99169
1569594405.00732
1569594405.02294
1569594405.03857
1569594405.0542
1569594405.06982
1569594405.08545
1569594405.10107
1569594405.1167
1569594405.13232
1569594405.14795
1569594405.16358
1569594405.1792
1569594405.19483
1569594405.21045
1569594405.22608
1569594405.2417
1569594405.25733
1569594405.27296
1569594405.28858
1569594405.30421
1569594405.31983
1569594405.33546
1569594405.35108
1569594405.36671
1569594405.38234
1569594405.39796
1569594405.41359
1569594405.42921
1569594405.44484
1569594405.46046
1569594405.47609
1569594405.49172
1569594405.50734
1569594405.52297
1569594405.53859
1569594405.55422
1569594405.56984
1569594405.58547
1569594405.6011
1569594405.61672
1569594405.63235
1569594405.64797
1569594405.6636
1569594405.67922
1569594405.69485
1569594405.71048
1569594405.7261
1569594405.74173
1569594405.75735
1569594405.77298
1569594405.7886
1569594405.80423
1569594405.81986
1569594405.83548
1569594405.85111
1569594405.86673
1569594405.88236
1569594405.89798
1569594405.91361
1569594405.92924
1569594405.94486
1569594405.96049
1569594405.97611
1569594405.99174
1569594406.00736
1569594406.02299
1569594406.03862
1569594406.05424
1569594406.06987
1569594406.08549
1569594406.10112
1569594406.11675
1569594406.13237
1569594406.148
1569594406.16362
1569594406.17925
1569594406.19487
1569594406.2105
1569594406.22613
1569594406.24175
1569594406.25738
1569594406.273
1569594406.28863
1569594406.30425
1569594406.31988
1569594406.33551
1569594406.35113
1569594406.36676
1569594406.38238
1569594406.39801
1569594406.41363
1569594406.42926
1569594406.44489
1569594406.46051
1569594406.47614
1569594406.49176
1569594406.50739
1569594406.52301
1569594406.53864
1569594406.55427
1569594406.56989
1569594406.58552
1569594406.60114
1569594406.61677
1569594406.63239
1569594406.64802
1569594406.66365
1569594406.67927
1569594406.6949
1569594406.71052
1569594406.72615
1569594406.74177
1569594406.7574
1569594406.77303
1569594406.78865
1569594406.80428
1569594406.8199
1569594406.83553
1569594406.85115
1569594406.86678
1569594406.88241
1569594406.89803
1569594406.91366
1569594406.92928
1569594406.94491
1569594406.96053
1569594406.97616
1569594406.99179
1569594407.00741
1569594407.02304
1569594407.03866
1569594407.05429
1569594407.06991
1569594407.08554
1569594407.10117
1569594407.11679
1569594407.13242
1569594407.14804
1569594407.16367
1569594407.17929
1569594407.19492
1569594407.21055
1569594407.22617
1569594407.2418
1569594407.25742
1569594407.27305
1569594407.28867
1569594407.3043
1569594407.31993
1569594407.33555
1569594407.35118
1569594407.3668
1569594407.38243
1569594407.39805
1569594407.41368
1569594407.42931
1569594407.44493
1569594407.46056
1569594407.47618
1569594407.49181
1569594407.50743
1569594407.52306
1569594407.53869
1569594407.55431
1569594407.56994
1569594407.58556
1569594407.60119
1569594407.61681
1569594407.63244
1569594407.64807
1569594407.66369
1569594407.67932
1569594407.69494
1569594407.71057
1569594407.72619
1569594407.74182
1569594407.75745
1569594407.77307
1569594407.7887
1569594407.80432
1569594407.81995
1569594407.83557
1569594407.8512
1569594407.86683
1569594407.88245
1569594407.89808
1569594407.9137
1569594407.92933
1569594407.94495
1569594407.96058
1569594407.97621
1569594407.99183
1569594408.00746
1569594408.02308
1569594408.03871
1569594408.05433
1569594408.06996
1569594408.08559
1569594408.10121
1569594408.11684
1569594408.13246
1569594408.14809
1569594408.16371
1569594408.17934
1569594408.19497
1569594408.21059
1569594408.22622
1569594408.24184
1569594408.25747
1569594408.27309
1569594408.28872
1569594408.30435
1569594408.31997
1569594408.3356
1569594408.35122
1569594408.36685
1569594408.38247
1569594408.3981
1569594408.41373
1569594408.42935
1569594408.44498
1569594408.4606
1569594408.47623
1569594408.49185
1569594408.50748
1569594408.52311
1569594408.53873
1569594408.55436
1569594408.56998
1569594408.58561
1569594408.60124
1569594408.61686
1569594408.63249
1569594408.64811
1569594408.66374
1569594408.67936
1569594408.69499
1569594408.71062
1569594408.72624
1569594408.74187
1569594408.75749
1569594408.77312
1569594408.78874
1569594408.80437
1569594408.82
1569594408.83562
1569594408.85125
1569594408.86687
1569594408.8825
1569594408.89812
1569594408.91375
1569594408.92938
1569594408.945
1569594408.96063
1569594408.97625
1569594408.99188
1569594409.0075
1569594409.02313
1569594409.03876
1569594409.05438
1569594409.07001
1569594409.08563
1569594409.10126
1569594409.11688
1569594409.13251
1569594409.14814
1569594409.16376
1569594409.17939
1569594409.19501
1569594409.21064
1569594409.22626
1569594409.24189
1569594409.25752
1569594409.27314
1569594409.28877
1569594409.30439
1569594409.32002
1569594409.33564
1569594409.35127
1569594409.3669
1569594409.38252
1569594409.39815
1569594409.41377
1569594409.4294
1569594409.44502
1569594409.46065
1569594409.47628
1569594409.4919
1569594409.50753
1569594409.52315
1569594409.53878
1569594409.5544
1569594409.57003
1569594409.58566
1569594409.60128
1569594409.61691
1569594409.63253
1569594409.64816
1569594409.66378
1569594409.67941
1569594409.69504
1569594409.71066
1569594409.72629
1569594409.74191
1569594409.75754
1569594409.77316
1569594409.78879
1569594409.80442
1569594409.82004
1569594409.83567
1569594409.85129
1569594409.86692
1569594409.88254
1569594409.89817
1569594409.9138
1569594409.92942
1569594409.94505
1569594409.96067
1569594409.9763
1569594409.99192
1569594410.00755
1569594410.02318
1569594410.0388
1569594410.05443
1569594410.07005
1569594410.08568
1569594410.1013
1569594410.11693
1569594410.13256
1569594410.14818
1569594410.16381
1569594410.17943
1569594410.19506
1569594410.21068
1569594410.22631
1569594410.24194
1569594410.25756
1569594410.27319
1569594410.28881
1569594410.30444
1569594410.32006
1569594410.33569
1569594410.35132
1569594410.36694
1569594410.38257
1569594410.39819
1569594410.41382
1569594410.42944
1569594410.44507
1569594410.4607
1569594410.47632
1569594410.49195
1569594410.50757
1569594410.5232
1569594410.53882
1569594410.55445
1569594410.57008
1569594410.5857
1569594410.60133
1569594410.61695
1569594410.63258
1569594410.6482
1569594410.66383
1569594410.67946
1569594410.69508
1569594410.71071
1569594410.72633
1569594410.74196
1569594410.75758
1569594410.77321
1569594410.78884
1569594410.80446
1569594410.82009
1569594410.83571
1569594410.85134
1569594410.86697
1569594410.88259
1569594410.89822
1569594410.91384
1569594410.92947
1569594410.94509
1569594410.96072
1569594410.97635
1569594410.99197
1569594411.0076
1569594411.02322
1569594411.03885
1569594411.05447
1569594411.0701
1569594411.08573
1569594411.10135
1569594411.11698
1569594411.1326
1569594411.14823
1569594411.16385
1569594411.17948
1569594411.19511
1569594411.21073
1569594411.22636
1569594411.24198
1569594411.25761
1569594411.27323
1569594411.28886
1569594411.30449
1569594411.32011
1569594411.33574
1569594411.35136
1569594411.36699
1569594411.38261
1569594411.39824
1569594411.41387
1569594411.42949
1569594411.44512
1569594411.46074
1569594411.47637
1569594411.49199
1569594411.50762
1569594411.52325
1569594411.53887
1569594411.5545
1569594411.57012
1569594411.58575
1569594411.60137
1569594411.617
1569594411.63263
1569594411.64825
1569594411.66388
1569594411.6795
1569594411.69513
1569594411.71075
1569594411.72638
1569594411.74201
1569594411.75763
1569594411.77326
1569594411.78888
1569594411.80451
1569594411.82013
1569594411.83576
1569594411.85139
1569594411.86701
1569594411.88264
1569594411.89826
1569594411.91389
1569594411.92951
1569594411.94514
1569594411.96077
1569594411.97639
1569594411.99202
1569594412.00764
1569594412.02327
1569594412.03889
1569594412.05452
1569594412.07015
1569594412.08577
1569594412.1014
1569594412.11702
1569594412.13265
1569594412.14827
1569594412.1639
1569594412.17953
1569594412.19515
1569594412.21078
1569594412.2264
1569594412.24203
1569594412.25765
1569594412.27328
1569594412.28891
1569594412.30453
1569594412.32016
1569594412.33578
1569594412.35141
1569594412.36703
1569594412.38266
1569594412.39829
1569594412.41391
1569594412.42954
1569594412.44516
1569594412.46079
1569594412.47641
1569594412.49204
1569594412.50767
1569594412.52329
1569594412.53892
1569594412.55454
1569594412.57017
1569594412.58579
1569594412.60142
1569594412.61705
1569594412.63267
1569594412.6483
1569594412.66392
1569594412.67955
1569594412.69517
1569594412.7108
1569594412.72643
1569594412.74205
1569594412.75768
1569594412.7733
1569594412.78893
1569594412.80455
1569594412.82018
1569594412.83581
1569594412.85143
1569594412.86706
1569594412.88268
1569594412.89831
1569594412.91393
1569594412.92956
1569594412.94519
1569594412.96081
1569594412.97644
1569594412.99206
1569594413.00769
1569594413.02331
1569594413.03894
1569594413.05457
1569594413.07019
1569594413.08582
1569594413.10144
1569594413.11707
1569594413.13269
1569594413.14832
1569594413.16395
1569594413.17957
1569594413.1952
1569594413.21082
1569594413.22645
1569594413.24207
1569594413.2577
1569594413.27333
1569594413.28895
1569594413.30458
1569594413.3202
1569594413.33583
1569594413.35145
1569594413.36708
1569594413.38271
1569594413.39833
1569594413.41396
1569594413.42958
1569594413.44521
1569594413.46084
1569594413.47646
1569594413.49209
1569594413.50771
1569594413.52334
1569594413.53896
1569594413.55459
1569594413.57022
1569594413.58584
1569594413.60147
1569594413.61709
1569594413.63272
1569594413.64834
1569594413.66397
1569594413.6796
1569594413.69522
1569594413.71085
1569594413.72647
1569594413.7421
1569594413.75772
1569594413.77335
1569594413.78898
1569594413.8046
1569594413.82023
1569594413.83585
1569594413.85148
1569594413.8671
1569594413.88273
1569594413.89836
1569594413.91398
1569594413.92961
1569594413.94523
1569594413.96086
1569594413.97648
1569594413.99211
1569594414.00774
1569594414.02336
1569594414.03899
1569594414.05461
1569594414.07024
1569594414.08586
1569594414.10149
1569594414.11712
1569594414.13274
1569594414.14837
1569594414.16399
1569594414.17962
1569594414.19524
1569594414.21087
1569594414.2265
1569594414.24212
1569594414.25775
1569594414.27337
1569594414.289
1569594414.30462
1569594414.32025
1569594414.33588
1569594414.3515
1569594414.36713
1569594414.38275
1569594414.39838
1569594414.414
1569594414.42963
1569594414.44526
1569594414.46088
1569594414.47651
1569594414.49213
1569594414.50776
1569594414.52338
1569594414.53901
1569594414.55464
1569594414.57026
1569594414.58589
1569594414.60151
1569594414.61714
1569594414.63276
1569594414.64839
1569594414.66402
1569594414.67964
1569594414.69527
1569594414.71089
1569594414.72652
1569594414.74214
1569594414.75777
1569594414.7734
1569594414.78902
1569594414.80465
1569594414.82027
1569594414.8359
1569594414.85152
1569594414.86715
1569594414.88278
1569594414.8984
1569594414.91403
1569594414.92965
1569594414.94528
1569594414.9609
1569594414.97653
1569594414.99216
1569594415.00778
1569594415.02341
1569594415.03903
1569594415.05466
1569594415.07028
1569594415.08591
1569594415.10154
1569594415.11716
1569594415.13279
1569594415.14841
1569594415.16404
1569594415.17966
1569594415.19529
1569594415.21092
1569594415.22654
1569594415.24217
1569594415.25779
1569594415.27342
1569594415.28904
1569594415.30467
1569594415.3203
1569594415.33592
1569594415.35155
1569594415.36717
1569594415.3828
1569594415.39842
1569594415.41405
1569594415.42968
1569594415.4453
1569594415.46093
1569594415.47655
1569594415.49218
1569594415.5078
1569594415.52343
1569594415.53906
1569594415.55468
1569594415.57031
1569594415.58593
1569594415.60156
1569594415.61718
1569594415.63281
1569594415.64844
1569594415.66406
1569594415.67969
1569594415.69531
1569594415.71094
1569594415.72657
1569594415.74219
1569594415.75782
1569594415.77344
1569594415.78907
1569594415.80469
1569594415.82032
1569594415.83595
1569594415.85157
1569594415.8672
1569594415.88282
1569594415.89845
1569594415.91407
1569594415.9297
1569594415.94533
1569594415.96095
1569594415.97658
1569594415.9922
1569594416.00783
1569594416.02345
1569594416.03908
1569594416.05471
1569594416.07033
1569594416.08596
1569594416.10158
1569594416.11721
1569594416.13283
1569594416.14846
1569594416.16409
1569594416.17971
1569594416.19534
1569594416.21096
1569594416.22659
1569594416.24221
1569594416.25784
1569594416.27347
1569594416.28909
1569594416.30472
1569594416.32034
1569594416.33597
1569594416.35159
1569594416.36722
1569594416.38285
1569594416.39847
1569594416.4141
1569594416.42972
1569594416.44535
1569594416.46097
1569594416.4766
1569594416.49223
1569594416.50785
1569594416.52348
1569594416.5391
1569594416.55473
1569594416.57035
1569594416.58598
1569594416.60161
1569594416.61723
1569594416.63286
1569594416.64848
1569594416.66411
1569594416.67973
1569594416.69536
1569594416.71099
