-27.52168
-31.2583
-35.1839
-39.03723
-42.57828
-45.68391
-48.46446
-51.2406
-54.47905
-58.65685
-63.99281
-70.23395
-76.47832
-81.2021
-82.5394
-78.85667
-69.34146
-54.38306
-35.55354
-15.14104
4.501984
21.56085
35.06749
44.82753
51.09947
54.30177
54.81189
52.99051
49.29911
44.38058
39.0686
34.20004
30.55627
28.61359
28.49108
29.97578
32.60732
35.90442
39.4405
42.95097
46.18293
48.91817
50.86068
51.67278
51.09473
49.06812
45.76419
41.56158
36.95001
32.33732
28.05913
24.23703
20.79733
17.55429
14.23715
10.60883
6.57135
2.225189
-2.183239
-6.296242
-9.840195
-12.69699
-14.91047
-16.72606
-18.48741
-20.58296
-23.30857
-26.84635
-31.11681
-35.84473
-40.61758
-45.00125
-48.76261
-51.94694
-54.88733
-58.09384
-62.12463
-67.30959
-73.61736
-80.38515
-86.24718
-89.33537
-87.70677
-80.02323
-66.07735
-47.0173
-25.02344
-2.673725
17.78834
34.95074
48.24339
57.72902
63.70496
66.51347
66.47559
64.04443
59.88393
54.87317
49.98851
46.06201
43.63866
42.865
43.54058
45.26013
47.59821
50.25107
53.00951
55.68411
57.99111
59.55302
59.9731
59.02647
56.73956
53.4066
49.4694
45.32152
41.2039
37.16219
33.105
28.93262
24.59016
20.12004
15.66407
11.42734
7.588974
4.320328
1.653969
-0.5029449
-2.373787
-4.266342
-6.454727
-9.103996
-12.18357
-15.49445
-18.74467
-21.73001
-24.45866
-27.1813
-30.28536
-34.06464
-38.59468
-43.61609
-48.70041
-53.42812
-57.60925
-61.33826
-64.97072
-68.99019
-73.80193
-79.5592
-85.87198
-91.7124
-95.42432
-95.04434
-88.90732
-76.25667
-57.69334
-35.07918
-11.0555
11.74628
31.36775
46.81511
57.95091
65.1378
68.88788
69.67981
68.03297
64.57726
60.10103
55.47415
51.45207
48.5675
47.00392
46.70718
47.4398
48.93652
50.90802
53.08827
55.22612
57.05388
58.33827
58.86205
58.47493
57.05345
54.562
51.02834
46.59253
41.55486
36.31117
31.29434
26.81174
22.93091
19.44226
16.01149
12.35558
8.410248
4.415619
0.7470245
-2.280762
-4.628906
-6.533737
-8.399902
-10.58795
-13.2493
-16.3383
-19.64891
-22.97008
-26.16435
-29.19885
-32.12001
-35.04021
-38.13345
-41.54982
-45.38072
-49.52559
-53.74033
-57.65126
-60.93628
-63.45012
-65.29791
-66.86301
-68.67934
-71.3271
-75.21349
-80.33432
-85.96017
-90.53848
-91.95024
-88.04439
-77.43652
-60.11165
-37.64003
-12.71962
11.61845
32.82881
49.42532
60.97685
67.84338
70.75894
70.51268
67.79732
63.27788
57.65298
51.67139
46.09619
41.57489
38.51523
37.06403
37.1189
38.41772
40.61879
43.40642
46.48761
49.56644
52.33667
54.43456
55.48743
55.22929
53.56128
50.60843
46.69795
42.28227
37.83467
33.66724
29.86745
26.29466
22.67163
18.75606
14.51016
10.15219
6.09404
2.728348
0.2260895
-1.547974
-3.017059
-4.656006
-6.791794
-9.43074
-12.32629
-15.12457
-17.59592
-19.79199
-22.0002
-24.62691
-27.96655
-32.05626
-36.66324
-41.38928
-45.84354
-49.74811
-53.05136
-55.87259
-58.53084
-61.49368
-65.26543
-70.16963
-76.05458
-82.01233
-86.33739
-86.92242
-81.89011
-70.36424
-52.90131
-31.38214
-8.441513
13.34299
32.05681
46.72368
57.11511
63.45296
66.14073
65.64673
62.56805
57.65195
51.77863
45.84059
40.59102
36.55014
33.99394
32.98058
33.39232
35.0249
37.55688
40.6178
43.83934
46.83865
49.25435
50.74609
51.00249
49.77969
47.04257
42.97441
38.03413
32.82397
27.90131
23.58517
19.83041
16.34758
12.76521
8.928162
4.964508
1.232056
-1.889435
-4.23468
-5.972519
-7.533401
-9.38382
-11.75494
-14.50497
-17.2074
-19.41718
-20.91615
-21.888
-22.8559
-24.46118
-27.1879
-31.11165
-35.91812
-41.03349
-45.86887
-50.03152
-53.43695
-56.26067
-58.89233
-61.862
-65.66405
-70.5842
-76.38162
-82.08176
-85.96561
-85.99399
-80.48013
-68.73466
-51.48273
-30.67311
-8.875961
11.5076
28.81075
42.25565
51.73476
57.46049
59.77138
59.06812
55.88467
50.94063
45.14703
39.4203
34.57132
31.15172
29.422
29.35313
30.73009
33.19464
36.35684
39.87146
43.4334
46.7128
49.33604
50.8864
51.00763
49.54332
46.62878
42.67004
38.16267
33.56412
29.14861
24.96678
20.93419
16.93401
12.95476
9.100754
5.57193
2.543518
0.1054993
-1.826813
-3.493134
-5.195755
-7.203873
-9.604477
-12.27782
-14.96753
-17.44633
-19.69315
-21.9292
-24.56397
-27.9577
-32.2354
-37.19644
-42.36547
-47.20371
-51.3322
-54.63491
-57.33146
-59.85169
-62.69901
-66.336
-70.99824
-76.49709
-82.08353
-86.39312
-87.64301
-84.10846
-74.72228
-59.56496
-39.98193
-18.24921
3.113022
21.99913
37.1735
48.22067
55.29128
58.7226
58.88216
56.17024
51.16347
44.73795
37.99709
32.05774
27.76406
25.50768
25.22079
26.53408
28.92252
31.90973
35.10699
38.24599
41.12021
43.52235
45.17944
45.7909
45.10685
42.98889
39.47415
34.81693
29.41602
23.7382
18.2478
13.30385
9.133667
5.781059
3.116241
0.8660736
-1.296669
-3.675278
-6.425179
-9.451057
-12.4864
-15.20402
-17.35185
-18.94546
-20.21832
-21.56267
-23.3894
-25.95889
-29.29885
-33.20145
-37.27927
-41.12958
-44.47366
-47.23048
-49.57488
-51.91063
-54.7722
-58.65388
-63.7729
-69.73328
-75.38589
-78.9416
-78.36227
-72.05664
-59.50422
-41.61198
-20.49546
1.148895
20.84325
36.96706
48.84103
56.59344
60.66782
61.53178
59.58805
55.26514
49.15797
42.12905
35.21727
29.39833
25.42912
23.62742
23.91432
25.8798
28.94913
32.51987
36.062
39.18543
41.62749
43.24535
43.92844
43.63821
42.32017
39.93787
36.52156
32.15524
27.0825
21.64212
16.26116
11.28308
6.897964
3.103546
-0.2988358
-3.518211
-6.746819
-10.02908
-13.32427
-16.489
-19.38666
-21.91428
-24.04628
-25.88877
-27.61465
-29.51527
-31.89161
-34.96693
-38.78924
-43.16743
-47.73994
-52.06794
-55.82365
-58.87947
-61.45563
-64.08401
-67.43707
-72.05963
-77.9552
-84.30111
-89.39407
-91.02361
-87.10722
-76.53116
-59.61997
-38.11892
-14.69987
7.910286
27.60541
43.25764
54.57537
61.79379
65.31584
65.55859
63.01426
58.34626
52.44201
46.32177
40.9699
37.12972
35.16558
35.06513
36.46676
38.87057
41.74977
44.71368
47.54942
50.11334
52.2335
53.63075
53.94539
52.82928
50.17625
46.13573
41.16186
35.82847
30.63869
25.94037
21.82183
18.16854
14.77361
11.4563
8.133255
4.836731
1.744293
-0.9659042
-3.131073
-4.738228
-5.943291
-7.078789
-8.506317
-10.5049
-13.18488
-16.3791
-19.76833
-22.97187
-25.7644
-28.22263
-30.68884
-33.6246
-37.42316
-42.16983
-47.55817
-53.08972
-58.17783
-62.46207
-65.90474
-68.7678
-71.53992
-74.79301
-78.97444
-84.19714
-89.98418
-95.08768
-97.59633
-95.3984
-86.88161
-71.64323
-50.77475
-26.64904
-2.171326
20.02996
38.24046
51.80666
60.86638
65.96647
67.72175
66.72129
63.60695
59.1269
54.12012
49.41937
45.69367
43.32857
42.4379
42.84901
44.26454
46.35123
48.78448
51.27029
53.54642
55.36468
56.45632
56.59789
55.59605
53.35289
49.93056
45.52032
40.44989
35.11282
29.92584
25.1931
21.08905
17.60626
14.58811
11.82933
9.113174
6.375679
3.632332
1.078468
-1.076309
-2.671547
-3.721474
-4.453697
-5.237503
-6.479294
-8.402275
-11.01028
-14.00861
-17.0237
-19.7188
-22.0233
-24.15728
-26.52626
-29.59383
-33.60712
-38.49962
-43.86778
-49.1676
-53.87788
-57.69172
-60.66157
-63.09957
-65.55659
-68.63399
-72.83672
-78.34824
-84.75065
-90.86323
-94.72851
-94.07603
-87.01229
-72.82722
-52.40712
-28.10574
-3.03997
19.87331
38.62218
52.42238
61.42775
66.29693
67.72719
66.33459
62.66075
57.36326
51.2617
45.23952
40.12882
36.49023
34.64419
34.53683
35.86952
38.20114
41.06806
44.14637
47.18764
49.97081
52.18207
53.42124
53.24777
51.40801
47.95301
43.29985
38.09416
32.93768
28.20139
23.91718
19.89658
15.87719
11.72491
7.47644
3.327477
-0.4440842
-3.622826
-6.088089
-7.90226
-9.267693
-10.47218
-11.7642
-13.27179
-15.00829
-16.84994
-18.69981
-20.54409
-22.47647
-24.71461
-27.49526
-30.91681
-34.92477
-39.29635
-43.64016
-47.54241
-50.71426
-53.10376
-55.02048
-57.08159
-60.03561
-64.4436
-70.32395
-76.81638
-82.20914
-84.27419
-80.90439
-70.91505
-54.55789
-33.54938
-10.59056
11.45048
30.37964
45.01062
55.15091
61.21854
63.74786
63.18452
59.8895
54.3181
47.20905
39.6116
32.6592
27.32961
24.23067
23.50597
24.8814
27.8198
31.70306
35.93959
40.03951
43.61457
46.31744
47.85446
47.97483
46.53513
43.56386
39.31128
34.19524
28.72174
23.3485
18.37672
13.91488
9.906303
6.180504
2.531006
-1.22406
-5.153099
-9.210922
-13.18478
-16.784
-19.70562
-21.77715
-23.09212
-23.99748
-25.04947
-26.75533
-29.41019
-32.93217
-36.95181
-40.96632
-44.57488
-47.62121
-50.20871
-52.66828
-55.41576
-58.9241
-63.54921
-69.35505
-75.87021
-81.88316
-85.49103
-84.52915
-77.31078
-63.29695
-43.56316
-20.50455
2.876747
23.91514
40.92632
53.37089
61.51912
65.92092
67.04716
65.22532
60.84406
54.58963
47.49553
40.76335
35.41427
32.05074
30.75076
31.20172
32.8915
35.34375
38.20136
41.19563
44.12714
46.72388
48.61632
49.38708
48.70437
46.42319
42.71624
37.98116
32.73196
27.47748
22.55746
18.08572
14.00214
10.16862
6.468117
2.892159
-0.4890976
-3.57653
-6.301582
-8.675434
-10.80811
-12.85575
-14.96356
-17.17423
-19.41409
-21.57677
-23.62508
-25.69507
-28.09924
-31.22836
-35.37305
-40.55939
-46.48085
-52.5764
-58.2226
-62.99277
-66.76837
-69.82161
-72.6971
-76.06057
-80.49963
-86.20092
-92.71542
-98.74837
-102.2846
-101.0206
-93.11287
-77.93263
-56.42307
-30.97144
-4.702263
19.39641
39.24401
54.00141
63.84502
69.52906
71.90566
71.6789
69.42782
65.73145
61.30827
56.95444
53.45249
51.33701
50.78997
51.63555
53.4586
55.73328
57.99094
59.8616
61.08313
61.49323
60.95658
59.41547
56.88512
53.43163
49.19838
44.38839
39.27309
34.14186
29.28749
24.88622
20.99393
17.52531
14.3209
11.25762
8.315674
5.564171
3.126091
1.093231
-0.5386581
-1.875763
-3.018345
-4.062557
-5.074604
-6.106895
-7.295204
-8.777557
-10.68605
-13.0855
-15.89157
-18.91103
-21.93896
-24.84191
-27.62594
-30.4811
-33.66005
-37.40677
-41.8418
-46.8769
-52.20049
-57.37741
-61.95295
-65.6293
-68.40718
-70.6157
-72.84007
-75.77068
-79.95369
-85.51711
-91.90381
-97.72815
-100.9373
-99.33452
-91.21803
-76.08072
-54.95676
-30.17594
-4.751862
18.49565
37.61694
51.79199
61.15414
66.40065
68.37831
67.83513
65.43584
61.76273
57.44745
53.13245
49.42476
46.82716
45.58695
45.71161
46.94728
48.93579
51.29348
53.70955
55.94432
57.78297
58.97591
59.2244
58.24833
55.88139
52.21901
47.55479
42.35783
37.09034
32.0739
27.46086
23.27885
19.47861
16.00045
12.81246
9.884632
7.215141
4.83807
2.801128
1.145798
-0.16856
-1.289322
-2.469307
-3.985546
-6.011057
-8.574615
-11.47687
-14.4579
-17.25725
-19.74425
-21.96712
-24.13542
-26.56641
-29.60093
-33.48566
-38.23076
-43.61493
-49.18248
-54.41525
-58.8823
-62.3974
-65.09371
-67.40138
-69.92718
-73.27415
-77.84812
-83.54762
-89.51834
-94.11257
-95.18439
-90.70829
-79.54109
-61.99496
-39.84881
-15.88226
7.027617
26.66563
41.87377
52.49662
58.96172
61.95792
62.10604
60.01703
56.30466
51.67785
46.90274
42.66282
39.49816
37.67529
37.24136
38.02236
39.7199
41.98293
44.52967
47.1209
49.54863
51.56654
52.83438
52.96719
51.6704
48.86254
44.74118
39.77055
34.52056
29.50501
25.02299
21.1051
17.56057
14.13346
10.65394
7.118209
3.695112
0.6431303
-1.816478
-3.616565
-4.86224
-5.812861
-6.786139
-8.073284
-9.807238
-11.96831
-14.37884
-16.79322
-18.99118
-20.89902
-22.65402
-24.56104
-26.99796
-30.24096
-34.32657
-39.02348
-43.90107
-48.46301
-52.36812
-55.56042
-58.26545
-60.94534
-64.19034
-68.48418
-73.95473
-80.06322
-85.4854
-88.23504
-86.2127
-77.95482
-63.23648
-43.34648
-20.76059
1.676598
21.56991
37.46718
48.96668
56.33682
60.07639
60.65748
58.45
53.91164
47.74081
40.88271
34.3993
29.24201
26.06078
25.0601
26.04945
28.55652
32.00482
35.82981
39.58526
42.91544
45.51303
47.07995
47.31329
46.03838
43.25346
39.18655
34.27483
29.01615
23.86967
19.1566
15.00959
11.38079
8.151634
5.114734
2.065115
-1.128047
-4.478713
-7.865241
-11.08119
-13.89685
-16.19761
-18.0387
-19.60835
-21.18739
-23.01151
-25.2104
-27.82282
-30.78284
-33.95721
-37.17558
-40.2746
-43.13313
-45.78429
-48.40887
-51.3467
-54.99261
-59.5703
-64.97647
-70.5139
-74.86804
-76.30787
-73.1815
-64.48598
-50.3597
-32.12365
-11.94381
7.766452
25.02147
38.67627
48.42773
54.52766
57.45321
57.65305
55.50391
51.42043
45.94937
39.8354
33.9581
29.18673
26.18851
25.26719
26.31296
28.82591
32.11541
35.47372
38.38574
40.5466
41.88205
42.39126
42.0371
40.72192
38.33033
34.81165
30.28143
25.09169
19.70623
14.62277
10.18169
6.457526
3.265151
0.2737026
-2.798225
-6.049265
-9.355684
-12.46724
-15.13221
-17.22758
-18.827
-20.17734
-21.63367
-23.53315
-26.11267
-29.45789
-33.46699
-37.87358
-42.31571
-46.45176
-50.07018
-53.17886
-56.00247
-58.94965
-62.51114
-67.09427
-72.75552
-78.95087
-84.40652
-87.22993
-85.41822
-77.52126
-63.25622
-43.74872
-21.26651
1.428455
21.84911
38.34726
50.29874
57.89327
61.75342
62.60912
61.14007
57.98954
53.82553
49.38711
45.41348
42.51987
41.04487
40.96067
41.92906
43.4623
45.14075
46.75279
48.25402
49.64856
50.83176
51.49426
51.23386
49.71238
46.81855
42.72873
37.8698
32.751
27.83619
23.4324
19.67495
16.53391
13.86434
11.45336
9.091162
6.676964
4.215697
1.810905
-0.3902431
-2.245237
-3.713948
-4.843738
-5.78634
-6.750175
-7.945215
-9.508947
-11.45424
-13.66949
-15.97326
-18.23955
-20.47733
-22.87682
-25.71988
-29.28245
-33.68289
-38.80484
-44.32353
-49.80085
-54.82641
-59.09447
-62.49844
-65.18839
-67.54406
-70.14001
-73.60448
-78.30775
-84.07816
-89.92934
-94.07452
-94.32938
-88.81889
-76.65068
-58.39262
-35.97681
-12.12295
10.43057
29.62913
44.41492
54.64201
60.71834
63.33661
63.2594
61.30455
58.27984
54.94651
51.88887
49.46953
47.79
46.81081
46.45271
46.64998
47.37799
48.59838
50.17181
51.82192
53.22401
53.99484
53.84296
52.60638
50.27917
46.99032
42.98263
38.54586
33.96765
29.52727
25.42166
21.76831
18.57182
15.73681
13.1398
10.72113
8.524567
6.653061
5.212708
4.203197
3.450386
2.676397
1.621086
0.1515427
-1.660709
-3.626938
-5.56662
-7.448326
-9.435444
-11.75154
-14.56121
-17.83514
-21.35423
-24.77666
-27.82101
-30.38271
-32.6035
-34.82005
-37.41409
-40.66093
-44.60135
-49.05272
-53.64211
-57.96158
-61.70185
-64.77347
-67.3442
-69.83197
-72.78827
-76.74846
-81.95966
-88.04322
-93.82027
-97.35858
-96.45657
-89.34128
-75.42135
-55.61786
-32.20917
-8.121536
13.87186
31.84823
44.96297
53.3063
57.57402
58.6964
57.61006
55.17644
52.12491
49.07
46.48375
44.68323
43.85682
44.02686
45.05392
46.69614
48.70224
50.87025
53.09736
55.31911
57.36883
58.94235
59.60728
58.96159
56.80973
53.272
48.71606
43.6403
38.51406
33.69331
29.3979
25.70703
22.56076
19.76844
17.12171
14.45156
11.7701
9.24482
7.110237
5.495247
4.343937
3.393578
2.32745
0.9392014
-0.7695198
-2.575554
-4.196392
-5.485737
-6.5238
-7.631226
-9.230164
-11.62101
-14.85441
-18.65775
-22.52885
-25.9782
-28.74413
-30.91826
-32.91499
-35.2725
-38.36734
-42.23292
-46.57967
-50.93588
-54.87995
-58.20129
-60.96185
-63.41238
-65.95476
-69.03575
-73.0665
-78.23656
-84.27695
-90.24733
-94.51688
-95.08869
-90.18052
-78.91441
-61.71393
-40.31911
-17.24507
4.89312
24.0329
39.02295
49.56668
55.99056
58.91418
59.01246
56.93583
53.36789
49.01433
44.64471
40.99321
38.62304
37.84357
38.60835
40.57416
43.2254
46.07158
48.77788
51.16111
53.16885
54.68943
55.55444
55.47792
54.18891
51.56393
47.68215
42.86482
37.57399
32.26808
27.30303
22.83706
18.84337
15.21621
11.87477
8.814129
6.110607
3.852028
2.068172
0.68713
-0.4411049
-1.471325
-2.536942
-3.694981
-5.001606
-6.526024
-8.334579
-10.46045
-12.88009
-15.50047
-18.18962
-20.89196
-23.62783
-26.57724
-29.90904
-33.73583
-37.98137
-42.37012
-46.49918
-49.97672
-52.61277
-54.51134
-56.09306
-57.98734
-60.84084
-65.0361
-70.4062
-76.01118
-80.20787
-81.00514
-76.67638
-66.40173
-50.68533
-31.26366
-10.61794
8.785889
25.17033
37.697
46.33451
51.49632
53.66888
53.24653
50.60846
46.24934
40.8798
35.3957
30.71006
27.52605
26.21692
26.76077
28.78945
31.74806
35.07275
38.27905
41.0705
43.30112
44.86456
45.65461
45.49882
44.2137
41.68028
37.99087
33.40117
28.37644
23.37452
18.72428
14.5482
10.7798
7.27142
3.945835
0.8171272
-2.052116
-4.619778
-6.955238
-9.209389
-11.48345
-13.78608
-15.9948
-17.9732
-19.70143
-21.37876
-23.33932
-25.89509
-29.21962
-33.17271
-37.44554
-41.63469
-45.41192
-48.6344
-51.40793
-54.05518
-57.05807
-60.91843
-65.86267
-71.64655
-77.28118
-81.12453
-81.21326
-75.92711
-64.59296
-47.83758
-27.50751
-6.049675
14.13762
31.32528
44.6702
54.0537
59.73493
62.10255
61.53366
58.45335
53.50275
47.53374
41.53822
36.48983
33.04843
31.49454
31.70964
33.28564
35.71387
38.56136
41.51597
44.37387
46.92254
48.86755
49.85303
49.53885
47.75037
44.55985
40.27119
35.32324
30.16576
25.15312
20.49961
16.27439
12.44569
8.944233
5.70175
2.763416
0.2824707
-1.579596
-2.70731
-3.212944
-3.412586
-3.78801
-4.768871
-6.597816
-9.218815
-12.32156
-15.52522
-18.5155
-21.18893
-23.68105
-26.31929
-29.4596
-33.35024
-38.00322
-43.11969
-48.25987
-52.93508
-56.85629
-60.05133
-62.82597
-65.71112
-69.26569
-73.86559
-79.45883
-85.39389
-90.28667
-92.26223
-89.43289
-80.46915
-65.26352
-45.04602
-22.14045
0.7430344
21.20915
37.71067
49.64827
57.18089
60.90556
61.56088
59.91538
56.74391
52.80379
48.80936
45.33675
42.78059
41.34056
41.03393
41.72599
43.19163
45.15699
47.32151
49.41539
51.19307
52.43597
52.92615
52.46132
50.89142
48.1662
44.41145
39.89744
34.98798
30.03713
25.34319
21.07366
17.27339
13.91713
10.91127
8.169896
5.630598
3.287964
1.169544
-0.6850491
-2.229677
-3.471451
-4.477804
-5.419048
-6.49144
-7.889631
-9.735088
-12.059
-14.79652
-17.77032
-20.77343
-23.64392
-26.35434
-29.05915
-32.02039
-35.50634
-39.60957
-44.18296
-48.87188
-53.26611
-57.07042
-60.23812
-62.98343
-65.6889
-68.8324
-72.83018
-77.91679
-83.92531
-90.05004
-94.79374
-96.14294
-92.1673
-81.70857
-64.93578
-43.43408
-19.76666
3.344309
23.70709
40.06437
52.02083
59.74691
63.67555
64.38234
62.59395
59.20393
55.19057
51.41448
48.49129
46.66219
45.90791
46.08741
47.0423
48.6516
50.77535
53.17714
55.50944
57.39621
58.5043
58.61607
57.64579
55.62534
52.63139
48.7881
44.23253
39.14583
33.81728
28.60019
23.80841
19.69863
16.35273
13.6884
11.50652
9.587927
7.746624
5.89601
4.009252
2.123849
0.3472996
-1.221548
-2.506856
-3.536629
-4.441261
-5.485407
-6.948076
-9.046692
-11.82849
-15.11246
-18.58912
-21.90946
-24.84216
-27.40158
-29.84039
-32.55224
-35.85056
-39.86109
-44.38401
-49.01659
-53.26412
-56.74747
-59.41085
-61.53616
-63.67255
-66.4194
-70.28153
-75.35732
-81.20544
-86.71252
-90.20739
-89.78648
-83.88434
-71.83625
-54.21793
-32.87104
-10.30766
10.91084
28.87285
42.62447
52.10817
57.80151
60.33954
60.34186
58.33051
54.89351
50.70293
46.48921
42.91494
40.45815
39.32709
39.44386
40.56766
42.37538
44.57286
46.94454
49.31237
51.51395
53.28376
54.27273
54.09457
52.50086
49.42231
45.11271
40.05584
34.79017
29.80014
25.34664
21.46017
17.98127
14.6656
11.30914
7.838973
4.364519
1.116536
-1.628182
-3.667744
-4.993107
-5.800795
-6.480377
-7.486521
-9.183701
-11.66865
-14.73692
-17.98285
-20.96776
-23.47552
-25.62232
-27.80175
-30.48776
-33.98932
-38.27421
-43.01049
-47.69484
-51.88364
-55.37186
-58.20743
-60.6534
-63.12453
-66.06631
-69.86507
-74.63421
-79.95143
-84.66791
-87.05389
-85.19638
-77.68433
-64.22625
-45.85951
-24.70368
-3.309467
16.05529
31.91584
43.6817
51.45193
55.67267
56.87499
55.60277
52.45718
48.12629
43.34328
38.849
35.24464
32.95195
32.14026
32.7069
34.41802
36.92233
39.87456
42.96174
45.8867
48.32823
49.93525
50.38221
49.43422
47.05482
43.39869
38.80022
33.65084
28.32294
23.09385
18.14085
13.5341
9.274393
5.350929
1.797299
-1.269
-3.750348
-5.547378
-6.723257
-7.496765
-8.155688
-8.9778
-10.08468
-11.46305
-13.0409
-14.81522
-16.95675
-19.74603
-23.415
-27.97639
-33.14202
-38.3628
-43.07248
-46.88167
-49.70019
-51.81485
-53.75458
-56.1292
-59.4782
-64.08231
-69.7813
-75.84277
-80.91138
-83.18811
-80.94054
-73.01581
-59.37188
-41.17655
-20.53141
0.1412601
18.73776
33.91422
45.16822
52.56104
56.45803
57.25156
55.33553
51.1813
45.46143
39.0164
32.8168
27.80092
24.61985
23.61111
24.69604
27.42731
31.14999
35.17264
38.91225
42.00605
44.27041
45.57443
45.77036
44.64207
42.00303
37.85921
32.50367
26.51913
20.63607
15.47881
11.33418
8.093077
5.309782
2.426235
-0.9142284
-4.748995
-8.715694
-12.2901
-15.00245
-16.75162
-17.8157
-18.77024
-20.23067
-22.52921
-25.65974
-29.28749
-32.95927
-36.31289
-39.20984
-41.76833
-44.27436
-47.12008
-50.6779
-55.25512
-60.89285
-67.16775
-73.05923
-76.98303
-77.12251
-71.99649
-61.05905
-44.96871
-25.52898
-5.098705
14.07253
30.4032
43.16215
52.24975
57.86472
60.19796
59.44033
55.90645
50.26857
43.53764
36.90311
31.44368
27.90136
26.52163
27.15759
29.35864
32.56871
36.18641
39.6881
42.64632
44.77179
45.89606
45.86357
44.5366
41.76394
37.4978
31.89869
25.44209
18.83032
12.78331
7.819092
4.045616
1.156021
-1.405231
-4.170998
-7.389
-10.9372
-14.3974
-17.34421
-19.53239
-21.09983
-22.50406
-24.33185
-27.0736
-30.86964
-35.54788
-40.67653
-45.79781
-50.53771
-54.75171
-58.45027
-61.79979
-65.15376
-68.95257
-73.65466
-79.37548
-85.56793
-90.78206
-92.95222
-89.91598
-80.22675
-63.84808
-42.24575
-18.0139
5.960701
27.24975
44.39866
56.90495
64.9749
69.18774
70.19387
68.73083
65.55553
61.48931
57.33755
53.77172
51.23905
49.92535
49.74852
50.44492
51.70261
53.23228
54.83863
56.39816
57.7698
58.74993
59.0004
58.1634
55.96586
52.39275
47.70679
42.3541
36.86915
31.68863
27.06531
23.04441
19.56056
16.43185
13.54479
10.84295
8.332413
6.080109
4.107071
2.429504
0.9852524
-0.2802887
-1.46093
-2.647644
-3.976074
-5.62545
-7.763428
-10.4953
-13.75831
-17.29989
-20.78143
-23.95624
-26.80181
-29.57503
-32.72211
-36.63351
-41.44804
-46.96691
-52.70949
-58.10606
-62.73376
-66.44881
-69.44977
-72.20786
-75.34084
-79.42537
-84.77147
-91.12395
-97.44849
-101.922
-102.3081
-96.5776
-83.66991
-64.01297
-39.53568
-13.23659
11.69863
32.71717
48.41903
58.63702
64.1225
66.04199
65.58946
63.73359
61.18482
58.48389
56.06196
54.24814
53.28973
53.27928
54.06554
55.36749
56.85052
58.21871
59.33347
60.17558
60.72466
60.86086
60.34021
58.83633
56.10723
52.17558
47.32678
42.05947
36.90202
32.19913
28.06465
24.38078
20.97129
17.75563
14.76934
12.10014
9.781845
7.73616
5.789154
3.828453
1.834923
-0.07397842
-1.702831
-2.982719
-3.985424
-4.944923
-6.168247
-7.916218
-10.29193
-13.256
-16.63142
-20.15981
-23.60946
-26.83116
-29.86465
-32.92922
-36.36706
-40.45243
-45.2822
-50.64708
-56.0786
-61.06067
-65.20821
-68.45186
-71.05986
-73.55455
-76.51877
-80.45464
-85.5112
-91.27127
-96.61698
-99.76368
-98.67686
-91.62
-77.84937
-58.04114
-34.21326
-9.191545
14.17062
33.70649
48.31819
57.93657
63.17616
64.97025
64.2709
61.95043
58.7888
55.42143
52.35065
49.89775
48.23638
47.38324
47.2828
47.85022
48.99229
50.63539
52.62363
54.70351
56.51825
57.65535
57.72358
56.46138
53.8172
49.93118
45.10924
39.7316
34.22591
28.99911
24.36535
20.48032
17.33891
14.80961
12.66234
10.69776
8.786099
6.89412
5.045375
3.250653
1.465766
-0.3565407
-2.211827
-4.026619
-5.688811
-7.15205
-8.504926
-9.967881
-11.84011
-14.32963
-17.45728
-20.9857
-24.55778
-27.83259
-30.66787
-33.20543
-35.75865
-38.70102
-42.25599
-46.37323
-50.79567
-55.16305
-59.16843
-62.69342
-65.83672
-68.82153
-71.97864
-75.65579
-80.10925
-85.34476
-90.83343
-95.33752
-97.00329
-93.83452
-84.3625
-68.33004
-47.00276
-22.87958
1.045118
22.17888
38.90983
50.78336
58.16393
61.80584
62.47057
60.80389
57.41255
52.95055
48.19143
43.93653
40.84779
39.3187
39.38307
40.77272
43.02805
45.69104
48.38548
50.86635
52.99348
54.59767
55.43478
55.21218
53.70386
50.85996
46.88134
42.14565
37.10392
32.17789
27.6485
23.61903
20.0512
16.80225
13.69583
10.58436
7.425377
4.290436
1.373808
-1.092129
-2.936604
-4.123329
-4.834219
-5.405254
-6.266533
-7.764381
-10.06335
-13.06282
-16.45945
-19.83532
-22.87043
-25.47472
-27.84269
-30.35257
-33.38576
-37.15889
-41.61749
-46.48303
-51.35332
-55.87443
-59.82772
-63.1877
-66.06641
-68.75928
-71.68185
-75.28865
-79.89451
-85.29073
-90.47857
-93.66048
-92.64485
-85.58774
-71.83263
-52.23532
-29.06812
-5.277527
16.42977
34.25087
47.50988
56.3865
61.44782
63.25295
62.29664
59.07397
54.26061
48.74156
43.49113
39.3398
36.82845
36.11432
37.01185
39.1921
42.28922
45.94769
49.81619
53.47958
56.41541
58.12903
58.27562
56.73838
53.69215
49.51713
44.6844
39.64468
34.74283
30.16019
25.95147
22.05378
18.31704
14.56503
10.71446
6.857534
3.271074
0.3097038
-1.731316
-2.842196
-3.323044
-3.742638
-4.720993
-6.65271
-9.588524
-13.20623
-16.99107
-20.43186
-23.25296
-25.52197
-27.59632
-29.96958
-33.03323
-36.94931
-41.55849
-46.4659
-51.18443
-55.31424
-58.70055
-61.45404
-63.9752
-66.84435
-70.65648
-75.78534
-82.04831
-88.48206
-93.33344
-94.40369
-89.71048
-78.24876
-60.45273
-38.2068
-14.29483
8.41407
27.72764
42.49554
52.56133
58.39222
60.68755
60.12186
57.32053
52.92487
47.67167
42.37531
37.80976
34.57609
32.98126
33.026
34.46429
36.91965
40.00095
43.37635
46.76752
49.86545
52.31232
53.68425
53.61874
51.90504
48.583
43.97895
38.63839
33.1627
28.02439
23.45431
19.43018
15.76709
12.26967
8.828183
5.487275
2.400603
-0.3224125
-2.663287
-4.762291
-6.811518
-8.97842
-11.26927
-13.56149
-15.67539
-17.49991
-19.13354
-20.82765
-22.9464
-25.80746
-29.54151
-34.01926
-38.88099
-43.64611
-47.8993
-51.4286
-54.28744
-56.78356
-59.41817
-62.76521
-67.22855
-72.79498
-78.75584
-83.64773
-85.48274
-82.30422
-72.8985
-57.33163
-37.06975
-14.58203
7.420541
26.71345
42.00556
52.90575
59.6259
62.62486
62.40024
59.4937
54.55523
48.40509
41.98577
36.2066
31.81486
29.24585
28.62213
29.79609
32.38357
35.90668
39.83359
43.68822
47.04842
49.57581
50.97404
51.01154
49.563
46.6445
42.44516
37.30099
31.62016
25.77832
20.11922
14.89304
10.26351
6.314639
3.015191
0.2237788
-2.290787
-4.76298
-7.372587
-10.15591
-13.00091
-15.73262
-18.17969
-20.29798
-22.21775
-24.2284
-26.69477
-29.88416
-33.84888
-38.3605
-43.01375
-47.36514
-51.11031
-54.20776
-56.86909
-59.48463
-62.52071
-66.43391
-71.48716
-77.53746
-83.76341
-88.59384
-89.95193
-85.83501
-75.07407
-57.92883
-36.12402
-12.36352
10.48673
30.19888
45.55338
56.27021
62.67647
65.34374
64.86367
61.86399
57.08635
51.3837
45.6793
40.80223
37.36884
35.72832
35.91549
37.62909
40.38461
43.57912
46.64787
49.18011
50.96764
51.91946
52.0145
51.17418
49.25038
46.1685
41.96812
36.93093
31.5376
26.32114
21.67898
17.76131
14.43712
11.3926
8.370779
5.279301
2.280003
-0.3545551
-2.415726
-3.921858
-5.149166
-6.512667
-8.367548
-10.84404
-13.78768
-16.86259
-19.73932
-22.27546
-24.55161
-26.88522
-29.63868
-33.09821
-37.33502
-42.1964
-47.31863
-52.27115
-56.67366
-60.31203
-63.26726
-65.89475
-68.79839
-72.60035
-77.64759
-83.69259
-89.64254
-93.63951
-93.47386
-87.34358
-74.5001
-55.69713
-33.03872
-9.362886
12.57951
30.83192
44.54618
53.81832
59.29051
61.73222
61.80227
60.02243
56.91716
53.1086
49.30455
46.17496
44.2298
43.64383
44.31485
45.92898
48.1012
50.50318
52.88199
55.03438
56.70508
57.57618
57.34344
55.8098
52.98236
49.07146
44.43002
39.46045
34.52662
29.88124
25.68327
22.00183
18.80758
16.04815
13.64974
11.55407
9.7248
8.131474
6.718964
5.39143
4.045708
2.593967
1.031408
-0.6235447
-2.355247
-4.223095
-6.380558
-8.99608
-12.16108
-15.77971
-19.59293
-23.21083
-26.36756
-29.03201
-31.42888
-33.93996
-36.90104
-40.44701
-44.45048
-48.62934
-52.63007
-56.23214
-59.36066
-62.09369
-64.64763
-67.3046
-70.43304
-74.35642
-79.12019
-84.19672
-88.31994
-89.63899
-86.20717
-76.71326
-61.09706
-40.73981
-18.09991
4.023666
23.30295
38.42672
49.08668
55.7299
59.03073
59.66452
58.19166
55.16661
51.23525
47.17344
43.74763
41.53269
40.81441
41.48231
43.20087
45.49935
48.02008
50.53751
52.93736
55.11144
56.8186
57.66753
57.24844
55.28756
51.79391
47.06007
41.58862
35.92321
30.50285
25.58493
21.3202
17.74248
14.81326
12.42291
10.38063
8.50005
6.654427
4.862249
3.227218
1.929611
1.051297
0.556078
0.2045331
-0.3521782
-1.47855
-3.463838
-6.368284
-10.05687
-14.17074
-18.26282
-21.93324
-24.97483
-27.43371
-29.62993
-31.9892
-34.84613
-38.31681
-42.20871
-46.14212
-49.7052
-52.58402
-54.73366
-56.38126
-57.96608
-60.04885
-63.15873
-67.57646
-73.14291
-79.00189
-83.59563
-84.90321
-81.04931
-70.97422
-54.91865
-34.50582
-12.28153
9.064562
27.39519
41.58979
51.50122
57.56489
60.39714
60.5903
58.64191
55.15653
50.91064
46.78719
43.60091
41.85477
41.65034
42.71099
44.55788
46.70994
48.84893
50.81174
52.54672
53.95085
54.83774
54.93482
53.98794
51.91738
48.84302
45.09846
41.07671
37.0848
33.21023
29.36
25.34623
21.03015
16.46844
11.82759
7.352558
3.226448
-0.4956512
-3.865002
-6.928577
-9.684467
-12.04425
-13.91235
-15.28421
-16.33844
-17.41255
-18.91788
-21.14849
-24.14519
-27.6596
-31.26775
-34.5324
-37.23576
-39.44338
-41.47174
-43.76875
-46.64365
-50.14197
-54.04028
-57.91753
-61.36237
-64.12862
-66.23393
-67.93592
-69.67707
-71.94579
-75.1711
-79.56303
-84.91908
-90.43233
-94.65516
-95.69718
-91.72932
-81.66313
-65.63205
-45.10917
-22.53095
-0.5621033
18.62746
33.77082
44.54948
51.30926
54.63466
55.17565
53.54413
50.37552
46.4114
42.41647
39.10455
36.97565
36.28562
37.01905
38.94334
41.73385
45.02635
48.46649
51.71832
54.44812
56.32165
57.03952
56.36814
54.21505
50.68936
46.10673
40.94052
35.71751
30.85104
26.57714
22.90741
19.66302
16.60882
13.55513
10.45915
7.438192
4.678865
2.364079
0.5892658
-0.6658897
-1.604975
-2.533747
-3.7992
-5.626188
-8.012564
-10.73554
-13.50587
-16.11442
-18.55249
-21.0472
-23.8672
-27.23117
-31.14537
-35.41446
-39.71739
-43.75837
-47.29626
-50.25291
-52.73772
-55.04328
-57.68533
-61.19535
-65.90321
-71.60122
-77.33826
-81.45605
-81.96367
-77.14626
-66.18646
-49.58274
-29.07634
-7.15172
13.62726
31.26737
44.71632
53.77588
58.80238
60.41264
59.17402
55.64405
50.46449
44.42964
38.45333
33.44133
30.06565
28.63481
29.14609
31.27101
34.55057
38.45257
42.47523
46.16196
49.09637
50.92541
51.35702
50.24522
47.5827
43.60194
38.67227
33.29724
27.97055
23.06202
18.75606
14.97964
11.55199
8.240854
4.968458
1.832762
-0.9662461
-3.223344
-4.914001
-6.236956
-7.595576
-9.352942
-11.70507
-14.54096
-17.48821
-20.15718
-22.31065
-24.06319
-25.82882
-28.16483
-31.47125
-35.8293
-40.91422
-46.13438
-50.85511
-54.68046
-57.58349
-59.88091
-62.13919
-65.00378
-69.01369
-74.35832
-80.59447
-86.52081
-90.26572
-89.705
-83.14573
-69.98781
-51.0949
-28.60589
-5.305948
16.19156
34.10177
47.65599
56.90433
62.3169
64.47172
63.87373
61.06802
56.73523
51.69453
46.82005
42.88347
40.36675
39.42429
39.91958
41.53212
43.88203
46.63763
49.52753
52.31792
54.75965
56.5478
57.30872
56.69541
54.49865
50.73233
45.73307
40.02562
34.23224
28.87524
24.22799
20.30473
16.89386
13.76126
10.6995
7.635952
4.610924
1.780537
-0.6671715
-2.603855
-4.005577
-5.064415
-6.101364
-7.510582
-9.557457
-12.28395
-15.47404
-18.76567
-21.87326
-24.72606
-27.56219
-30.79083
-34.7785
-39.63947
-45.15497
-50.83981
-56.11307
-60.53876
-63.95476
-66.59348
-69.00928
-71.93306
-76.03534
-81.54521
-88.00603
-94.06166
-97.68806
-96.66016
-89.31461
-75.1824
-55.24466
-31.73885
-7.440533
15.07577
34.0094
48.48957
58.43038
64.22346
66.46803
65.87585
63.21241
59.32338
55.05526
51.1151
48.02815
46.08488
45.38987
45.88641
47.40215
49.67183
52.39417
55.235
57.81914
59.76785
60.71201
60.38132
58.61983
55.47462
51.16615
46.06918
40.59328
35.10966
29.90559
25.1786
21.01492
17.39948
14.21272
11.23959
8.320908
5.390884
2.561768
0.07165527
-1.837936
-3.066185
-3.733337
-4.215603
-4.992046
-6.491398
-8.898685
-12.08409
-15.64141
-19.10065
-22.09383
-24.5416
-26.71383
-29.08305
-32.13756
-36.12909
-40.96055
-46.2177
-51.35316
-55.88977
-59.60096
-62.58532
-65.21984
-68.03291
-71.54926
-76.11018
-81.69092
-87.67397
-92.72314
-94.92603
-92.26069
-83.28886
-67.79122
-47.01457
-23.35383
0.3212738
21.48759
38.56825
51.01687
59.10376
63.46774
64.8199
63.82756
61.17742
57.61103
53.87825
50.62095
48.27312
47.03049
46.84661
47.55427
48.89717
50.61344
52.4817
54.3276
55.99754
57.2947
57.94767
57.62834
55.99818
52.88602
48.41475
43.03376
37.40846
32.19888
27.7956
24.23134
21.19931
18.26444
15.08442
11.57369
7.919743
4.469734
1.570042
-0.6139221
-2.100868
-3.114346
-3.957714
-4.94154
-6.348827
-8.381298
-11.12883
-14.49193
-18.19235
-21.8216
-25.03245
-27.65683
-29.8229
-31.91088
-34.39537
-37.61884
-41.64544
-46.25155
-51.00723
-55.44773
-59.26021
-62.37246
-65.0173
-67.65701
-70.87705
-75.16132
-80.59164
-86.57218
-91.6904
-93.9566
-91.303
-82.32822
-66.85077
-46.16479
-22.67668
0.7660837
21.67715
38.47323
50.56997
58.17442
61.86765
62.35137
60.30592
56.42476
51.51657
46.47796
42.15963
39.17662
37.80743
37.96776
39.35173
41.58561
44.33481
47.32168
50.27752
52.88396
54.77582
55.62595
55.21214
53.47968
50.53528
46.60283
41.94508
36.89066
31.76614
26.87299
22.45587
18.62055
15.33282
12.47677
9.875324
7.385478
4.984209
2.705644
0.6681867
-1.000097
-2.260773
-3.192829
-3.990974
-4.955141
-6.354998
-8.329825
-10.85704
-13.7435
-16.70809
-19.50174
-22.03024
-24.35355
-26.73046
-29.4507
-32.765
-36.74134
-41.25889
-46.02529
-50.68561
-54.92832
-58.55033
-61.52423
-63.96703
-66.17953
-68.6411
-71.85693
-76.15931
-81.33627
-86.38068
-89.53223
-88.67245
-82.09052
-69.13903
-50.63955
-28.70249
-6.086628
14.64324
31.70346
44.36306
52.7253
57.33983
58.8795
57.98878
55.25905
51.29623
46.76797
42.36992
38.78794
36.52457
35.8616
36.77908
38.99866
42.06446
45.47013
48.77718
51.64651
53.79636
54.96152
54.89137
53.42653
50.58467
46.58704
41.86045
36.84411
31.91695
27.3093
23.12381
19.39998
16.12171
13.23021
10.62414
8.21171
5.905354
3.686043
1.613316
-0.1857872
-1.58667
-2.585796
-3.32552
-4.067902
-5.160713
-6.874352
-9.325378
-12.40664
-15.81386
-19.15448
-22.15168
-24.73519
-27.12001
-29.68902
-32.79148
-36.60913
-41.01715
-45.67834
-50.15305
-54.11011
-57.40144
-60.12963
-62.60432
-65.2516
-68.53323
-72.79229
-78.05614
-83.79593
-88.80602
-91.32841
-89.47839
-81.88499
-68.23444
-49.55206
-27.96128
-6.041965
13.87103
30.23845
42.487
50.74488
55.50255
57.31938
56.6624
54.01647
49.96173
45.20971
40.55423
36.71724
34.20495
33.26218
33.86605
35.79062
38.67104
42.10478
45.66804
48.95355
51.57059
53.15752
53.38933
52.0677
49.21077
45.05142
40.06286
34.80532
29.80668
25.38923
21.60778
18.29481
15.15126
11.93142
8.579918
5.240211
2.194084
-0.2658997
-1.985157
-3.049191
-3.753456
-4.507473
-5.659565
-7.39555
-9.670456
-12.29855
-15.02949
-17.68555
-20.24924
-22.85016
-25.6995
-28.99566
-32.81687
-37.05396
-41.44747
-45.68536
-49.50455
-52.86536
-55.89693
-58.95392
-62.44455
-66.70087
-71.74519
-77.05765
-81.49413
-83.38884
-81.00868
-73.11543
-59.58187
-41.5344
-21.13895
-0.9051285
16.9982
31.25441
41.48732
47.93564
51.08593
51.34848
49.04549
44.58459
38.6307
32.09409
26.01414
21.35741
18.73973
18.35089
19.9639
23.03391
26.93508
31.09272
35.1008
38.66898
41.59502
43.6
44.31369
43.40725
40.69496
36.29392
30.69021
24.64628
18.92429
14.05737
10.16676
6.985912
4.084986
1.063663
-2.24802
-5.742435
-9.103816
-11.94886
-14.02252
-15.30057
-16.04454
-16.73128
-17.90023
-19.96637
-23.03225
-26.86289
-30.95506
-34.76808
-37.91414
-40.36196
-42.43748
-44.71714
-47.79714
-52.07511
-57.59777
-63.82204
-69.62534
-73.40901
-73.4233
-68.29353
-57.54633
-41.85178
-22.90558
-2.986791
15.72995
31.62328
43.86931
52.2934
57.12108
58.71687
57.47092
53.88406
48.61188
42.49282
36.44106
31.28841
27.6289
25.77175
25.7102
27.18961
29.83472
33.19946
36.85506
40.35727
43.26785
45.12582
45.50066
44.15192
41.07566
36.60477
31.29902
25.76978
20.47304
15.5974
11.06785
6.646809
2.16959
-2.411545
-6.944054
-11.2098
-15.00069
-18.23394
-20.95744
-23.38177
-25.80651
-28.53582
-31.80215
-35.65728
-39.93962
-44.29133
-48.31538
-51.69331
-54.3873
-56.73128
-59.37666
-63.06981
-68.27884
-74.73489
-81.22343
-85.69078
-85.81094
-79.78852
-67.07278
-48.64682
-26.75772
-4.196934
16.53548
33.77568
46.85034
55.81348
61.08503
63.16991
62.59527
59.93381
55.87273
51.19385
46.69394
43.04399
40.68575
39.79902
40.29749
41.93398
44.29846
46.94785
49.46317
51.49865
52.79288
53.1466
52.41068
50.48753
47.40794
43.33336
38.56331
33.44308
28.29398
23.31466
18.61879
14.21765
10.15313
6.495811
3.295929
0.5464935
-1.883064
-4.192497
-6.542511
-8.973953
-11.40858
-13.74608
-15.99093
-18.30087
-20.95705
-24.2366
-28.26686
-32.95044
-38.01357
-43.0934
-47.86518
-52.12607
-55.85053
-59.14883
-62.2917
-65.65894
-69.69164
-74.71025
-80.61612
-86.60019
-91.11227
-92.11214
-87.63926
-76.61787
-59.3513
-37.58006
-13.96245
8.742599
28.41443
43.89488
54.93336
61.85178
65.20049
65.60509
63.75993
60.51475
56.84586
53.65366
51.56061
50.75235
51.06875
52.0798
53.35521
54.59444
55.66576
56.59804
57.43631
58.17142
58.66234
58.65463
57.82226
55.93078
52.86475
48.71156
43.75287
38.40451
33.13012
28.29613
24.09463
20.49715
17.34753
14.46187
11.76575
9.288643
7.17083
5.541031
4.388794
3.548264
2.754951
1.765663
0.4424515
-1.23642
-3.226273
-5.466721
-7.922707
-10.59919
-13.51886
-16.67395
-19.97108
-23.2628
-26.35391
-29.17538
-31.81271
-34.51986
-37.6564
-41.50217
-46.11589
-51.25782
-56.45651
-61.1598
-65.01239
-67.96017
-70.28482
-72.53849
-75.37277
-79.32019
-84.49362
-90.31696
-95.36507
-97.61478
-94.93859
-85.88535
-70.28539
-49.44046
-25.82274
-2.272966
18.74672
35.71318
48.09832
56.12557
60.39876
61.5757
60.32564
57.34868
53.45068
49.49586
46.24282
44.2126
43.58843
44.27294
45.9558
48.28768
50.91745
53.5713
56.00312
57.96309
59.16786
59.32472
58.20665
55.72263
51.97662
47.2813
42.01481
36.61646
31.44573
26.73147
22.52927
18.78761
15.3973
12.27436
9.383791
6.70499
4.292728
2.225121
0.6043806
-0.5041695
-1.101583
-1.344893
-1.52807
-2.04669
-3.277977
-5.411717
-8.398805
-11.97663
-15.76582
-19.40435
-22.69213
-25.5974
-28.26322
-30.9312
-33.89964
-37.4122
-41.58721
-46.28563
-51.16639
-55.73558
-59.53091
-62.31811
-64.28036
-65.95744
-68.12879
-71.51756
-76.46416
-82.71971
-89.26921
-94.3757
-95.91913
-91.98438
-81.48549
-64.65401
-43.11126
-19.4332
3.559725
23.54647
39.18601
50.17706
56.92016
60.16328
60.661
59.04414
55.86071
51.69294
47.17838
43.00753
39.8331
38.11885
38.05122
39.46007
41.93807
44.92014
47.88019
50.45971
52.46036
53.79335
54.37642
54.07842
52.72731
50.21942
46.6055
42.104
37.09228
31.9849
27.11399
22.6793
18.72862
15.18867
11.92634
8.841684
5.900995
3.169041
0.7856693
-1.109303
-2.444763
-3.324745
-4.025963
-4.918354
-6.352169
-8.496307
-11.2557
-14.35043
-17.43364
-20.20596
-22.61918
-24.86005
-27.26455
-30.23224
-33.99454
-38.53899
-43.61777
-48.84361
-53.77973
-58.13232
-61.80357
-64.89775
-67.73228
-70.7321
-74.35921
-78.93305
-84.37795
-89.89606
-93.96861
-94.58195
-89.83204
-78.71371
-61.5451
-40.02379
-16.75208
5.579731
24.89028
40.04575
50.8105
57.50697
60.64562
60.71521
58.22665
53.75951
48.11578
42.22383
37.03494
33.32372
31.52309
31.66677
33.44563
36.36901
39.91305
43.67205
47.33557
50.62849
53.26276
54.89691
55.19795
53.97903
51.30223
47.42556
42.78444
37.80474
32.81927
28.00213
23.38407
18.88945
14.47254
10.16825
6.081688
2.366871
-0.8828545
-3.711525
-6.304996
-8.943806
-11.85427
-15.10603
-18.54939
-21.91029
-24.9262
-27.50257
-29.7474
-31.91249
-34.25463
-36.86619
-39.62152
-42.22697
-44.40665
-46.05158
-47.29539
-48.4976
-50.15495
-52.72775
-56.48956
-61.31367
-66.53631
-70.94235
-72.89412
-70.7546
-63.42196
-50.76571
-33.82547
-14.5395
4.799988
22.2088
36.44592
47.06685
54.19356
58.12002
59.06398
57.16105
52.62656
45.9502
38.01685
29.98308
23.03354
18.08844
15.5865
15.47992
17.31793
20.42124
24.09621
27.74869
30.897
33.20541
34.40117
34.30515
32.85514
30.12704
26.30453
21.66574
16.49401
11.01517
5.431782
-0.08400726
-5.348928
-10.18507
-14.52068
-18.44188
-22.15266
-25.92329
-29.92751
-34.1395
-38.34049
-42.21838
-45.5055
-48.09679
-50.09995
-51.76865
-53.50138
-55.74034
-58.9296
-63.33184
-68.78873
-74.47096
-78.82471
-79.82648
-75.60493
-65.15917
-48.83979
-28.33794
-6.226358
14.86025
32.94613
47.01809
57.00646
63.31395
66.42686
66.70448
64.41875
59.94322
53.95981
47.47043
41.505
36.94524
34.21502
33.30457
33.91984
35.6809
38.30462
41.55408
45.13425
48.52507
51.00418
51.79968
50.41592
46.83887
41.54271
35.32628
28.97554
23.00503
17.54237
12.42118
7.34613
2.120613
-3.246052
-8.556885
-13.5062
-17.81567
-21.3579
-24.23952
-26.7146
-29.186
-32.00597
-35.39724
-39.38752
-43.8013
-48.33072
-52.64289
-56.55344
-60.07026
-63.45798
-67.19653
-71.77829
-77.45921
-83.91003
-89.99341
-93.86223
-93.34837
-86.69405
-73.2189
-53.72523
-30.32644
-5.833328
17.05518
36.4129
51.32349
61.74074
68.11304
71.0551
71.17226
69.13303
65.67666
61.64665
57.84143
54.85873
53.00121
52.2651
52.44143
53.25391
54.46964
55.8942
57.38013
58.7758
59.85566
60.33088
59.87612
58.18825
55.12981
50.77357
45.45361
39.66951
33.96968
28.75891
24.14619
20.00864
16.04362
12.0359
7.94548
3.961632
0.4218826
-2.438057
-4.600441
-6.324715
-8.010399
-10.01044
-12.446
-15.19794
-18.01079
-20.62434
-22.99612
-25.31251
-27.90546
-31.11128
-35.11733
-39.86217
-45.08479
-50.42356
-55.50291
-60.04298
-63.95021
-67.32204
-70.50763
-74.03296
-78.47395
-84.13987
-90.75308
-97.14192
-101.3299
-101.0062
-94.24995
-80.37164
-60.21802
-36.00591
-10.64368
13.1089
33.27838
48.87378
59.73887
66.22981
68.90823
68.47356
65.74476
61.62141
57.04582
52.83487
49.54905
47.47134
46.67454
47.04612
48.3709
50.40786
52.80526
55.21175
57.25202
58.61287
59.01796
58.30645
56.37502
53.20494
48.8987
43.65311
37.82339
31.815
26.00687
20.6711
15.90068
11.65684
7.871437
4.483025
1.461563
-1.231155
-3.698296
-6.120468
-8.638161
-11.28708
-13.95501
-16.46533
-18.72224
-20.86901
-23.24851
-26.25621
-30.15685
-34.8645
-39.99278
-45.02105
-49.51797
-53.29119
-56.43817
-59.23477
-62.05749
-65.33443
-69.47446
-74.74385
-81.01344
-87.40306
-92.2357
-93.26015
-88.3821
-76.53123
-58.22052
-35.5425
-11.49116
10.95736
29.74818
43.97208
53.7337
59.62377
62.28199
62.22852
59.91819
55.94469
51.08497
46.25316
42.22953
39.53107
38.29146
38.35424
39.40544
41.08295
43.06061
45.06681
46.86311
48.19651
48.80361
48.37222
46.63258
43.50176
39.08439
33.72965
27.90608
22.06947
16.5229
11.35546
6.469852
1.676865
-3.089966
-7.771557
-12.16221
-16.04431
-19.34553
-22.19007
-24.87901
-27.70389
-30.82584
-34.18824
-37.55101
-40.66695
-43.39509
-45.77335
-48.07381
-50.69473
-54.05542
-58.46077
-63.82178
-69.46847
-74.04776
-75.73077
-72.73536
-63.95657
-49.50729
-30.76862
-10.07011
10.05763
27.57082
41.26616
50.83088
56.53076
58.89128
58.48102
55.86029
51.59399
46.36076
40.93001
36.06977
32.44291
30.50683
30.39806
31.93311
34.63593
37.90651
41.16172
43.94444
45.95257
46.99999
46.96096
45.71641
43.16336
39.36366
34.52322
29.05825
23.48959
18.28731
13.73196
9.853659
6.427326
3.126251
-0.2718382
-3.821819
-7.344745
-10.54327
-13.17953
-15.18247
-16.71797
-18.12525
-19.77453
-21.90068
-24.61103
-27.84132
-31.45528
-35.27179
-39.16175
-42.95837
-46.58027
-49.98208
-53.24107
-56.65034
-60.61232
-65.53877
-71.5629
-78.27348
-84.47664
-88.37233
-87.91817
-81.50238
-68.62768
-50.1595
-28.22444
-5.588539
15.15743
32.21763
44.81453
53.05716
57.46251
58.61242
56.97646
53.00555
47.33116
40.83238
34.58492
29.61033
26.62178
25.86764
27.08838
29.72901
33.10499
36.62372
39.85332
42.50454
44.39754
45.39634
45.38526
44.23859
41.94989
38.57254
34.29511
29.4076
24.23332
19.10535
14.2842
9.941448
6.122326
2.794361
-0.1692009
-2.920975
-5.611958
-8.334007
-11.03872
-13.60269
-15.81578
-17.58086
-18.93949
-20.11945
-21.49457
-23.40904
-26.06421
-29.40267
-33.15848
-36.91521
-40.30003
-43.12842
-45.45333
-47.56084
-49.83817
-52.71962
-56.53616
-61.43324
-67.21619
-73.17693
-78.06423
-80.20956
-77.8965
-69.91473
-56.15208
-37.75434
-16.88755
3.871422
22.32395
37.1068
47.78646
54.58114
57.992
58.41998
56.21115
51.76195
45.69205
38.91139
32.52566
27.52317
24.5666
23.83618
25.02625
27.59304
30.9397
34.59535
38.21824
41.52456
44.16654
45.71684
45.75291
44.01279
40.5603
35.75159
30.14599
24.32146
18.73967
13.65275
9.164997
5.242657
1.730328
-1.576637
-4.886082
-8.352978
-11.9631
-15.51862
-18.7264
-21.3046
-23.10993
-24.29923
-25.23187
-26.39131
-28.20479
-30.88481
-34.32996
-38.21663
-42.09558
-45.58932
-48.57045
-51.19689
-53.83562
-56.95535
-60.94689
-65.99033
-71.91595
-78.07788
-83.27438
-85.8353
-83.98128
-76.35735
-62.63963
-43.80782
-21.9909
0.1678619
20.26712
36.73739
48.99484
57.20221
61.82823
63.32428
62.04099
58.33828
52.80418
46.30125
39.91735
34.69263
31.42756
30.44126
31.5886
34.30765
37.85091
41.50406
44.74727
47.32681
49.09684
49.98449
49.8504
48.54443
45.96922
42.16948
37.35977
31.88153
26.12535
20.39914
14.97273
9.988834
5.505989
1.476803
-2.212982
-5.709816
-9.119637
-12.41584
-15.48716
-18.15292
-20.32743
-22.08515
-23.71986
-25.60947
-28.10899
-31.37247
-35.28322
-39.55761
-43.83912
-47.83585
-51.40923
-54.57141
-57.46941
-60.31683
-63.38974
-67.00832
-71.47075
-76.80846
-82.51164
-87.33054
-89.40099
-86.73772
-77.91789
-62.71217
-42.32681
-19.1386
4.073078
24.87538
41.76097
54.25483
62.56073
67.18762
68.65055
67.38406
63.87631
58.80471
53.03073
47.48801
42.99209
40.04395
38.79232
39.07904
40.54486
42.82376
45.59467
48.56879
51.44433
53.85061
55.36473
55.57309
54.19607
51.18201
46.75673
41.36871
35.52274
29.65076
24.04584
18.83833
14.09599
9.843399
6.074359
2.768478
-0.1505823
-2.88029
-5.626175
-8.518325
-11.53645
-14.46491
-17.06033
-19.16019
-20.84906
-22.48757
-24.57729
-27.49286
-31.36933
-36.00018
-40.93506
-45.71758
-50.01048
-53.72112
-56.95791
-60.01539
-63.23183
-67.0716
-71.90592
-77.79527
-84.22206
-89.8661
-92.78981
-90.89336
-82.68181
-67.82913
-47.51071
-24.03476
-0.1681299
21.59391
39.57443
52.9961
61.81368
66.40161
67.30947
65.1627
60.71128
54.85482
48.56874
42.80048
38.26446
35.38926
34.29525
34.85393
36.76622
39.6385
43.07602
46.65783
49.98415
52.61543
54.13247
54.21412
52.71081
49.70914
45.49262
40.48364
35.07736
29.67093
24.49195
19.6326
15.1375
10.98135
7.102892
3.433109
-0.1565418
-3.731203
-7.277712
-10.67672
-13.74905
-16.30084
-18.27691
-19.82898
-21.29862
-23.15447
-25.76856
-29.30753
-33.59581
-38.26506
-42.84652
-46.99379
-50.57919
-53.71304
-56.71905
-60.00913
-64.02135
-69.05815
-75.11015
-81.60583
-87.30836
-90.40217
-88.90021
-81.37376
-67.45607
-48.16105
-25.66454
-2.63186
18.45357
35.85333
48.78352
57.28063
61.79121
62.92702
61.27495
57.41782
52.03227
45.94578
40.07378
35.2881
32.27908
31.37001
32.45461
35.09758
38.67719
42.57659
46.30042
49.50109
51.89324
53.23356
53.26893
51.81152
48.86293
44.61843
39.5172
34.07227
28.75595
23.80637
19.22339
14.85614
10.55861
6.334316
2.345673
-1.138207
-3.932712
-6.044439
-7.717004
-9.286013
-11.03051
-13.0175
-15.11678
-17.13296
-18.99287
-20.83285
-23.00808
-25.89588
-29.70471
-34.31207
-39.32239
-44.15522
-48.33993
-51.69107
-54.36238
-56.80478
-59.58379
-63.24881
-68.10775
-74.06171
-80.35632
-85.59608
-87.90414
-85.33882
-76.58228
-61.47713
-41.25005
-18.22634
4.796959
25.36877
41.88587
53.74823
61.15481
64.66814
64.86823
62.25864
57.34716
50.81141
43.59278
36.77175
31.35072
28.05365
27.10277
28.24879
30.92303
34.4624
38.25385
41.84384
44.89935
47.12276
48.28577
48.1385
46.56859
43.62107
39.49987
34.56591
29.24416
23.94902
19.00032
14.60652
10.77004
7.363578
4.153319
0.903802
-2.509461
-6.037523
-9.446665
-12.43439
-14.76419
-16.39288
-17.48622
-18.42885
-19.71444
-21.74335
-24.69922
-28.4801
-32.74668
-37.0328
-40.9174
-44.10768
-46.56371
-48.50787
-50.30555
-52.46278
-55.45412
-59.5765
-64.69988
-70.07784
-74.28685
-75.48826
-71.95614
-62.72146
-48.03296
-29.36599
-8.992725
10.70142
27.84568
41.37651
50.96601
56.72353
58.92633
57.86664
53.98915
47.94497
40.65249
33.19146
26.59377
21.68036
18.94088
18.52677
20.22626
23.58887
27.99446
32.75854
37.2213
40.80663
43.0588
43.65477
42.50925
39.70735
35.56982
30.5585
25.15082
19.74297
14.53678
9.565064
4.730515
-0.03535628
-4.744489
-9.233344
-13.2687
-16.67898
-19.44083
-21.7988
-24.11919
-26.83074
-30.10607
-33.86998
-37.74929
-41.29958
-44.2395
-46.54321
-48.50784
-50.57421
-53.25422
-56.86255
-61.48032
-66.66445
-71.41647
-74.22445
-73.31636
-67.2791
-55.5582
-38.85282
-18.94569
1.727893
20.82737
36.61744
48.23535
55.60148
59.08702
59.2422
56.63802
51.89201
45.7263
38.97645
32.60355
27.49173
24.31737
23.38276
24.5824
27.43758
31.25527
35.29733
38.93436
41.74541
43.47269
43.98916
43.22256
41.16188
37.86537
33.48473
28.24051
22.3603
16.064
9.524799
2.93454
-3.477518
-9.440472
-14.72218
-19.1895
-22.91161
-26.15294
-29.25047
-32.51863
-36.07645
-39.81939
-43.48742
-46.81104
-49.64063
-52.03178
-54.24687
-56.67625
-59.74265
-63.76991
-68.87299
-74.73691
-80.49111
-84.67854
-85.45807
-81.07278
-70.51163
-54.01633
-33.16011
-10.47325
11.33792
30.15001
44.80801
55.10596
61.45597
64.44924
64.58704
62.33127
58.21778
53.00162
47.63188
43.05207
39.97446
38.72754
39.18188
40.90213
43.33018
45.95055
48.41764
50.53522
52.16156
53.07726
52.98344
51.55098
48.59372
44.15909
38.58927
32.40844
26.20988
20.46166
15.40913
11.04618
7.129082
3.365841
-0.530632
-4.671703
-8.978951
-13.16278
-16.87843
-19.85465
-22.06002
-23.78046
-25.51495
-27.78006
-30.93661
-34.99672
-39.62986
-44.34967
-48.67977
-52.36639
-55.45466
-58.25927
-61.2302
-64.89712
-69.68117
-75.69585
-82.48867
-88.90024
-93.08977
-92.9503
-86.73156
-73.7067
-54.53462
-31.19047
-6.421467
16.99858
36.90771
52.12711
62.36443
67.98637
69.697
68.31963
64.74882
59.90557
54.73246
50.1162
46.72526
44.90984
44.65089
45.62638
47.38583
49.50526
51.67595
53.70566
55.46541
56.78793
57.42113
57.05573
55.43438
52.42744
48.14691
42.92878
37.26456
31.64964
26.46618
21.8346
17.65704
13.72851
9.874672
6.117226
2.63903
-0.3003616
-2.582306
-4.330925
-5.877163
-7.635151
-9.901966
-12.68632
-15.75387
-18.71705
-21.26881
-23.35434
-25.22572
-27.33801
-30.17449
-34.00335
-38.73311
-43.97071
-49.13052
-53.70748
-57.46667
-60.54007
-63.38043
-66.62579
-70.84914
-76.34196
-82.87645
-89.55206
-94.82423
-96.72817
-93.37431
-83.57096
-67.31602
-45.93304
-21.78437
2.351391
24.03004
41.60104
54.35764
62.38623
66.23672
66.64644
64.42755
60.42171
55.49686
50.51921
46.2284
43.16543
41.61744
41.59024
42.87156
45.05751
47.67342
50.26995
52.52622
54.2644
55.40167
55.82265
55.31994
53.58808
50.38192
45.70818
39.91122
33.64087
27.59711
22.30564
17.89054
14.15373
10.74057
7.409962
4.146301
1.170818
-1.23447
-2.917694
-3.954803
-4.673859
-5.505461
-6.874641
-8.998358
-11.83375
-15.08813
-18.38231
-21.38156
-24.01695
-26.48251
-29.16364
-32.46606
-36.58317
-41.37238
-46.42621
-51.19516
-55.21829
-58.33578
-60.7424
-62.94313
-65.60512
-69.33335
-74.40365
-80.50383
-86.53679
-90.7244
-90.98096
-85.54088
-73.5746
-55.59094
-33.41102
-9.642504
12.98718
32.3517
47.23037
57.34284
63.04811
65.03599
64.04186
60.78507
55.9872
50.3978
44.86064
40.20831
37.13941
36.03419
36.83102
39.02908
41.91325
44.82014
47.36114
49.44431
51.12868
52.36732
52.86251
52.146
49.78219
45.7022
40.3373
34.49931
29.0679
24.64775
21.30877
18.66395
16.12162
13.18404
9.722191
5.988278
2.482476
-0.3154292
-2.17693
-3.234619
-3.887402
-4.647821
-5.955423
-7.992743
-10.67829
-13.7221
-16.76445
-19.55821
-22.0772
-24.5402
-27.31615
-30.73708
-34.9386
-39.74158
-44.76255
-49.50317
-53.58485
-56.90756
-59.66707
-62.29464
-65.34523
-69.31366
-74.43332
-80.46075
-86.44862
-90.78593
-91.48113
-86.71481
-75.53409
-58.32762
-36.84545
-13.7165
8.313549
27.12757
41.62494
51.61887
57.54358
60.00067
59.55195
56.7108
52.08475
46.44812
40.71361
35.82967
32.45739
30.9691
31.30941
33.12132
35.93011
39.24983
42.6778
45.88255
48.58914
50.44085
51.07917
50.19665
47.66247
43.66869
38.66594
33.27094
28.05339
23.40381
19.42576
16.02094
12.96926
10.06169
7.18346
4.343422
1.629829
-0.8540039
-3.029507
-4.912273
-6.600883
-8.272861
-10.13221
-12.28708
-14.75796
-17.41155
-20.06804
-22.59991
-25.04221
-27.60149
-30.57231
-34.19478
-38.46978
-43.15005
-47.8461
-52.15724
-55.91597
-59.20625
-62.37167
-65.88535
-70.17802
-75.43057
-81.35324
-87.06663
-91.02894
-91.3354
-86.24525
-74.82393
-57.40014
-35.63717
-12.07984
10.54327
30.05508
45.18501
55.60511
61.62051
63.77515
62.67251
58.9445
53.34475
46.82578
40.50825
35.42456
32.31284
31.44176
32.59237
35.18481
38.50572
41.9509
45.12626
47.8318
49.90298
51.13345
51.25927
50.10418
47.63442
44.05804
39.73643
35.08394
30.38463
25.73438
21.06549
16.29521
11.45112
6.73624
2.478592
-1.058922
-3.770805
-5.824444
-7.572624
-9.349552
-11.3261
-13.45163
-15.52844
-17.38647
-19.07876
-20.82832
-22.99465
-25.83153
-29.41582
-33.61255
-38.11718
-42.60298
-46.76662
-50.42118
-53.48867
-56.07639
-58.44825
-61.0443
-64.33604
-68.62233
-73.71042
-78.6936
-81.99651
-81.66822
-76.06158
-64.46991
-47.51151
-27.02202
-5.511848
14.63615
31.75892
45.06314
54.4466
60.12086
62.27998
61.11206
56.94619
50.46062
42.72293
35.05508
28.69034
24.51542
22.92722
23.8258
26.73933
30.9973
35.88298
40.73732
45.02268
48.33308
50.36726
50.91885
49.86164
47.19762
43.06129
37.77672
31.81191
25.69884
19.90923
14.69949
10.1036
5.947151
2.023903
-1.836895
-5.661587
-9.361534
-12.7845
-15.75255
-18.17253
-20.04348
-21.53383
-22.93744
-24.66645
-27.08487
-30.41131
-34.58879
-39.25869
-43.90726
-48.05176
-51.43118
-54.10363
-56.43182
-58.99965
-62.45279
-67.20995
-73.17412
-79.54729
-84.75507
-86.75957
-83.61459
-74.15442
-58.47443
-38.03241
-15.24123
7.259949
27.24289
43.32604
55.01268
62.4352
66.04518
66.39682
64.07143
59.7019
54.03526
47.86889
42.00568
37.16082
33.87333
32.4277
32.87541
34.97191
38.2365
42.05639
45.77278
48.87418
50.99989
51.92862
51.53365
49.75029
46.58106
42.1562
36.79597
30.95014
25.13988
19.76051
14.96609
10.69326
6.768332
2.991234
-0.7633762
-4.524233
-8.282139
-11.97096
-15.44419
-18.52643
-21.05829
-23.00388
-24.61792
-26.36613
-28.75358
-32.14105
-36.52523
-41.54175
-46.65021
-51.36002
-55.41795
-58.86964
-61.98566
-65.10471
-68.62419
-72.92642
-78.201
-84.22337
-90.06603
-94.05835
-94.08838
-88.25562
-75.59863
-56.59918
-33.17763
-8.139317
15.59263
35.74666
51.10189
61.46338
67.35327
69.59872
69.00574
66.27643
62.00975
56.786
51.26389
46.18273
42.22815
39.91663
39.42452
40.55459
42.83502
45.67725
48.56403
51.13479
53.17178
54.50996
54.95291
54.29197
52.37434
49.20078
44.9488
39.96403
34.63008
29.3102
24.23126
19.49697
15.09558
10.96049
6.997053
3.098908
-0.7770493
-4.626183
-8.358078
-11.82139
-14.85457
-17.34229
-19.25789
-20.68936
-21.85718
-23.07438
-24.72852
-27.18822
-30.6943
-35.25335
-40.59391
-46.22723
-51.59965
-56.29501
-60.19996
-63.5595
-66.93974
-70.99052
-76.17303
-82.45745
-89.04843
-94.35314
-96.27707
-92.77518
-82.5937
-65.7955
-43.84965
-19.26869
5.12424
26.9672
44.72802
57.76938
66.1064
70.13708
70.40918
67.64149
62.70765
56.58108
50.23349
44.49638
39.92586
36.82889
35.36382
35.50713
37.15355
40.0431
43.74828
47.73418
51.41355
54.20218
55.65886
55.51891
53.75395
50.57841
46.35597
41.55116
36.579
31.72541
27.08748
22.62027
18.18152
13.69897
9.237024
4.992219
1.175802
-2.093136
-4.885818
-7.430334
-9.950253
-12.55985
-15.2166
-17.7136
-19.88335
-21.71325
-23.40198
-25.3302
-27.8847
-31.30003
-35.5734
-40.43889
-45.45766
-50.20324
-54.38058
-57.96526
-61.19107
-64.46728
-68.29248
-73.08046
-78.93073
-85.39185
-91.30554
-94.85114
-93.96978
-87.00364
-73.32732
-53.76743
-30.45855
-6.205889
16.33489
35.31771
49.929
60.17937
66.412
69.03554
68.35405
64.72469
58.81399
51.60233
44.29865
38.04749
33.67731
31.52345
31.51129
33.23563
36.16898
39.79652
43.63792
47.26237
50.25411
52.23586
52.88617
52.06561
49.80236
46.32299
41.97153
37.0811
31.91901
26.68059
21.50863
16.50778
11.79299
7.456766
3.520011
-0.06203556
-3.418219
-6.662538
-9.847486
-12.91023
-15.72598
-18.17905
-20.22114
-21.93032
-23.50663
-25.24226
-27.39652
-30.16473
-33.57838
-37.49918
-41.67521
-45.82352
-49.72543
-53.3192
-56.73883
-60.24805
-64.19349
-68.87628
-74.4068
-80.47724
-86.19527
-90.06674
-90.21092
-84.91933
-73.24651
-55.54011
-33.46615
-9.601755
13.32531
33.15337
48.67535
59.57471
66.12499
68.79768
68.06207
64.39215
58.44924
51.12115
43.50817
36.74895
31.76856
29.10544
28.82013
30.57243
33.70304
37.50956
41.37579
44.86685
47.71631
49.71554
50.65207
50.30212
48.52397
45.33177
40.954
35.76337
30.23014
24.76353
19.64973
15.03194
10.89967
7.169188
3.724027
0.4407425
-2.772346
-5.960051
-9.118321
-12.19066
-15.03735
-17.50138
-19.50007
-21.06611
-22.45013
-24.0649
-26.35772
-29.58887
-33.72892
-38.41479
-43.11871
-47.34469
-50.86481
-53.78561
-56.52061
-59.67207
-63.78384
-69.15825
-75.60556
-82.271
-87.64227
-89.74098
-86.69136
-77.29279
-61.59592
-41.00858
-17.94613
4.788448
24.83301
40.73096
52.03259
58.99973
62.23705
62.29293
59.61676
54.67048
48.06876
40.71672
33.74966
28.26253
25.04124
24.35825
25.88623
28.89952
32.59935
36.32323
39.72579
42.66814
45.06665
46.64706
47.0312
45.80323
42.77525
38.14357
32.38695
26.19274
20.15982
14.69329
9.883025
5.639259
1.71021
-2.136048
-6.023854
-9.92658
-13.59789
-16.74071
-19.05971
-20.45355
-21.11062
-21.51643
-22.28139
-23.92683
-26.6942
-30.44018
-34.74114
-39.03952
-42.87653
-46.03362
-48.65849
-51.17326
-54.13285
-58.05255
-63.16194
-69.18526
-75.20837
-79.6884
-80.74488
-76.68735
-66.62566
-50.85996
-30.97923
-9.375102
11.37201
29.20944
42.98402
52.42898
57.87128
59.78991
58.61292
54.73126
48.70308
41.37843
33.91176
27.51082
23.13942
21.27665
21.85887
24.43842
28.37424
33.04144
37.8568
42.27547
45.7306
47.67229
47.68483
45.67655
41.94567
37.06137
31.68931
26.35902
21.30595
16.50134
11.78592
7.061703
2.349018
-2.17915
-6.326511
-10.00894
-13.27283
-16.29875
-19.31744
-22.5071
-25.88572
-29.36945
-32.76054
-35.87428
-38.59959
-40.97078
-43.21778
-45.70692
-48.88598
-53.11258
-58.52062
-64.77167
-70.87082
-75.16847
-75.74065
-70.93532
-59.99505
-43.50177
-23.27954
-1.879528
18.20237
35.17519
48.1749
57.0984
62.21683
63.84705
62.3054
58.03786
51.79744
44.66243
37.83469
32.36281
28.9017
27.62381
28.297
30.4197
33.39592
36.64101
39.64743
42.01842
43.45362
43.76547
42.85525
40.73165
37.49128
33.36281
28.66563
23.74323
18.89881
14.23915
9.699787
5.09412
0.2785454
-4.69521
-9.567154
-13.93906
-17.51704
-20.29619
-22.57347
-24.84003
-27.53886
-30.8772
-34.77018
-38.90061
-42.89639
-46.49178
-49.61348
-52.34305
-54.92085
-57.70681
-61.15563
-65.71187
-71.52711
-78.12852
-84.19859
-87.71727
-86.43311
-78.70751
-64.20119
-44.18986
-21.17994
1.825371
22.27607
38.65986
50.5724
58.40382
62.81511
64.40878
63.62608
60.90652
56.84413
52.24902
48.04671
44.98492
43.48766
43.51263
44.67972
46.42873
48.26871
49.9002
51.21589
52.20946
52.78629
52.71542
51.67501
49.39337
45.84601
41.28797
36.17622
30.98144
26.04082
21.44038
17.12672
12.98674
8.986115
5.234772
1.899643
-0.8756256
-3.109436
-5.009109
-6.865662
-8.964455
-11.42275
-14.17112
-16.96029
-19.55396
-21.85681
-24.0289
-26.44746
-29.49372
-33.41177
-38.1589
-43.40532
-48.65985
-53.47574
-57.59039
-61.00468
-63.97578
-66.93857
-70.42751
-74.88022
-80.40285
-86.44196
-91.67123
-94.12437
-91.75716
-83.10475
-67.94364
-47.53917
-24.27763
-0.982933
19.88584
36.76678
49.13181
57.20448
61.6223
63.10956
62.33022
59.91639
56.49888
52.73228
49.23827
46.58016
45.10029
44.94125
45.97852
47.85801
50.15364
52.43006
54.35826
55.73919
56.47245
56.46556
55.60483
53.76664
50.8588
46.94217
42.20488
37.00985
31.76103
26.821
22.404
18.52797
15.12112
12.04746
9.263214
6.806847
4.797413
3.278587
2.208546
1.444233
0.7482376
-0.0336113
-0.9947357
-2.185555
-3.669401
-5.552814
-7.955545
-10.94446
-14.39979
-18.05389
-21.52799
-24.5347
-27.03955
-29.27632
-31.67062
-34.63351
-38.39049
-42.85589
-47.71869
-52.54258
-56.91838
-60.62691
-63.6614
-66.24166
-68.79064
-71.84861
-75.90563
-81.17704
-87.25011
-92.91689
-96.25182
-95.047
-87.61008
-73.41817
-53.49259
-30.15831
-6.350496
15.25831
32.89955
45.92496
54.56847
59.48222
61.37943
60.85407
58.44508
54.75764
50.53524
46.58443
43.57371
41.90063
41.61485
42.46476
44.07553
46.09139
48.26186
50.44772
52.49596
54.12704
54.94009
54.51509
52.57771
49.16197
44.58807
39.37636
34.04456
28.97966
24.35202
20.18058
16.41109
12.98613
9.868894
7.032896
4.464796
2.193343
0.248046
-1.303071
-2.382309
-3.008226
-3.316433
-3.580963
-4.151007
-5.328679
-7.265714
-9.93292
-13.10534
-16.43083
-19.60446
-22.42495
-24.93748
-27.38047
-30.1207
-33.43166
-37.41912
-41.89016
-46.42828
-50.58072
-53.99728
-56.60596
-58.66489
-60.69806
-63.31598
-67.04953
-72.04332
-77.83674
-83.28486
-86.61221
-85.85857
-79.49152
-66.9707
-49.07103
-27.74392
-5.542974
15.08027
32.33997
45.37695
54.09799
58.85851
60.18244
58.58657
54.63914
49.06913
42.78261
36.80418
32.13404
29.47814
29.12043
30.8575
34.10418
38.09411
42.12928
45.70454
48.54554
50.52726
51.53113
51.38588
49.89948
46.99488
42.81601
37.77959
32.45441
27.39863
22.98099
19.24956
16.01933
12.96657
9.789577
6.370432
2.778601
-0.7326965
-3.850939
-6.315435
-8.074633
-9.272783
-10.24891
-11.3992
-13.01178
-15.17791
-17.76959
-20.53016
-23.20047
-25.7061
-28.16809
-30.90462
-34.2694
-38.47258
-43.44264
-48.81635
-54.07814
-58.7288
-62.53685
-65.6085
-68.41286
-71.59251
-75.74014
-81.11911
-87.40056
-93.55661
-97.89725
-98.42641
-93.38373
-81.86018
-64.19271
-41.96931
-17.65451
6.125891
27.16268
44.04505
56.2306
63.79998
67.2401
67.23473
64.61241
60.29966
55.2762
50.41457
46.39838
43.67814
42.44599
42.70259
44.26935
46.81767
49.89135
53.06849
55.96118
58.3246
59.98598
60.74329
60.34109
58.49256
55.03429
50.08741
44.11991
37.79924
31.82984
26.66881
22.38608
18.80032
15.59246
12.50743
9.512703
6.722671
4.323206
2.461203
1.129833
0.1399667
-0.7757025
-1.91814
-3.583645
-5.902521
-8.873322
-12.3131
-15.93287
-19.42525
-22.63046
-25.56499
-28.47045
-31.69119
-35.51893
-40.04524
-45.14068
-50.46984
-55.62953
-60.27325
-64.22974
-67.5843
-70.68123
-74.03817
-78.18001
-83.38829
-89.36945
-95.10497
-98.85947
-98.58356
-92.5093
-79.79414
-60.9209
-37.64775
-12.57117
11.62397
32.72826
49.43672
61.30772
68.56137
71.74531
71.54166
68.66542
63.89577
58.14711
52.38926
47.52215
44.22497
42.81683
43.22851
45.09241
47.90575
51.16317
54.4847
57.57956
60.18124
61.97227
62.60282
61.74605
59.28298
55.35854
50.35826
44.80569
39.17052
33.73155
28.54798
23.52442
18.53361
13.54717
8.732389
4.360279
0.7193518
-2.053638
-4.085328
-5.71499
-7.397078
-9.48634
-12.10772
-15.0879
-18.0667
-20.67161
-22.76017
-24.49904
-26.3497
-28.85738
-32.42619
-37.13509
-42.65934
-48.46672
-53.93906
-58.68514
-62.60801
-65.91231
-69.02385
-72.46331
-76.70239
-81.95511
-87.98431
-93.81508
-97.7631
-97.72636
-91.81216
-79.09645
-60.13542
-36.92713
-12.34632
10.76195
30.32956
45.41785
56.02539
62.59723
65.61205
65.4025
62.29621
56.86133
50.0591
43.09521
37.18987
33.20861
31.543
32.08948
34.41066
37.89922
41.91713
45.89954
49.3455
51.87544
53.203
53.19648
51.81352
49.11617
45.25385
40.44119
34.99195
29.2882
23.71567
18.58747
14.05684
10.11231
6.606063
3.308907
0.04782975
-3.274673
-6.613488
-9.790165
-12.57846
-14.82235
-16.50179
-17.87807
-19.37405
-21.44605
-24.37982
-28.13197
-32.35084
-36.48662
-40.08308
-42.89178
-45.05009
-46.98571
-49.30189
-52.57085
-57.17325
-63.02803
-69.46992
-75.18825
-78.41085
-77.34583
-70.73454
-58.34378
-41.14162
-21.06105
-0.4608541
18.473
34.2311
46.11179
54.04104
58.28665
59.18802
57.07129
52.35003
45.66778
37.96576
30.3838
24.06586
19.88518
18.19793
18.86548
21.31099
24.81259
28.67163
32.36836
35.54333
37.95715
39.4155
39.73366
38.75823
36.41845
32.77007
27.96413
22.27087
16.02719
9.605564
3.355466
-2.412309
-7.518026
-11.96205
-15.88711
-19.54679
-23.15639
-26.77633
-30.31372
-33.55058
-36.31273
-38.51807
-40.26281
-41.76728
-43.28366
-45.11534
-47.57766
-51.00416
-55.50349
-60.7412
-65.69627
-68.73772
-68.05297
-62.24894
-50.94154
-35.00164
-16.31586
2.855423
20.48712
35.24955
46.56491
54.38286
58.8417
60.07465
58.23737
53.62634
46.89212
39.05474
31.37003
25.06148
20.96661
19.38675
19.99158
22.0894
24.87404
27.68563
30.1203
31.95743
33.08507
33.33044
32.46674
30.26761
26.63711
21.70893
15.85726
9.597891
3.490305
-2.014799
-6.758173
-10.89429
-14.85235
-19.13858
-24.09519
-29.70771
-35.60482
-41.17611
-45.83496
-49.3116
-51.74486
-53.64579
-55.69404
-58.52548
-62.56367
-67.81459
-73.76299
-79.27196
-82.70834
-82.21776
-76.27661
-64.26674
-46.81091
-25.66694
-3.252701
18.03909
36.42939
50.92059
61.27596
67.64041
70.34352
69.77583
66.47566
61.21377
54.97176
48.82504
43.6554
40.04799
38.20263
37.9737
39.04914
41.07441
43.73045
46.67731
49.5828
52.04379
53.63519
53.97691
52.83139
50.18946
46.26432
41.42509
36.06438
30.5515
25.11312
19.87921
14.89673
10.16868
5.718506
1.581486
-2.172108
-5.513294
-8.456158
-11.08814
-13.55215
-15.98391
-18.48856
-21.09164
-23.71393
-26.21958
-28.51582
-30.6313
-32.77545
-35.29787
-38.54901
-42.74579
-47.80721
-53.33936
-58.74845
-63.48335
-67.25461
-70.20724
-72.89049
-76.0965
-80.5794
-86.592
-93.59512
-100.051
-103.6618
-101.9555
-93.11752
-76.71847
-54.0191
-27.65306
-0.8253479
23.57384
43.66582
58.72296
68.90341
74.81673
77.18713
76.71416
74.14461
70.3201
66.13077
62.37045
59.58262
57.95168
57.3401
57.42288
57.88824
58.55793
59.42754
60.56638
61.9643
63.40449
64.41829
64.44207
62.98395
59.86538
55.28827
49.73544
43.79981
37.98926
32.61197
27.7651
23.44564
19.58712
16.11483
12.9376
9.977448
7.160759
4.477589
2.015766
-0.1242561
-1.817226
-3.096653
-4.185734
-5.4702
-7.354969
-10.09568
-13.66832
-17.74141
-21.84904
-25.57834
-28.76898
-31.58942
-34.46323
-37.85831
-42.04323
-46.99934
-52.40357
-57.76059
-62.64411
-66.81213
-70.29095
-73.33208
-76.34184
-79.80967
-84.21759
-89.78934
-96.23693
-102.4542
-106.5442
-106.2172
-99.47346
-85.45385
-64.84389
-39.86146
-13.53626
11.12637
31.90493
47.72283
58.4907
64.7588
67.30356
66.93592
64.42893
60.57305
56.20073
52.07574
48.83653
46.85293
46.17319
46.57105
47.67546
49.11787
50.6792
52.31611
54.05672
55.89243
57.58271
58.66394
58.56339
56.83241
53.3381
48.35199
42.46211
36.36849
30.71589
25.86882
21.89361
18.59616
15.66
12.81217
9.920472
7.071608
4.444066
2.298646
0.7558837
-0.2687175
-1.046274
-1.959547
-3.398026
-5.616546
-8.684033
-12.46472
-16.6216
-20.7608
-24.55703
-27.87618
-30.83548
-33.76183
-37.06042
-41.03659
-45.73239
-50.87907
-56.01851
-60.68728
-64.59548
-67.73425
-70.36858
-72.98093
-76.13055
-80.27309
-85.46165
-91.1082
-95.8382
-97.66162
-94.51546
-84.93388
-68.71152
-47.14816
-22.72671
1.604977
23.28774
40.72479
53.37969
61.51353
65.74745
66.73132
65.03554
61.2283
56.00274
50.24682
44.91636
40.83384
38.49041
37.94356
38.88105
40.83133
43.35429
46.13981
48.9843
51.68045
53.88963
55.13487
54.94283
53.02897
49.4607
44.70362
39.41048
34.2213
29.54555
25.46737
21.82415
18.31314
14.68453
10.86953
7.002104
3.342232
0.1500225
-2.423355
-4.454737
-6.189234
-7.972448
-10.11139
-12.70687
-15.65234
-18.64866
-21.35165
-23.54741
-25.27949
-26.85971
-28.73577
-31.37841
-35.01915
-39.60067
-44.74794
-49.92722
-54.64015
-58.65221
-62.04112
-65.19144
-68.64034
-72.88223
-78.10845
-83.94337
-89.33678
-92.61043
-91.81339
-85.31924
-72.42471
-53.7461
-31.15914
-7.318005
15.11427
34.10262
48.60091
58.47591
64.15575
66.26375
65.40849
62.12675
57.05822
50.99379
44.86561
39.60441
35.92578
34.1948
34.33141
35.92729
38.37655
41.14966
43.89742
46.44949
48.75102
50.66085
51.88902
52.00311
50.61872
47.59563
43.15383
37.82058
32.20596
26.80981
21.8303
17.23557
12.87867
8.662121
4.622833
0.8710651
-2.491755
-5.515154
-8.330181
-11.10435
-13.92136
-16.66913
-19.11887
-21.05573
-22.47155
-23.62177
-25.01971
-27.15866
-30.30274
-34.34624
-38.82363
-43.1503
-46.92024
-50.03302
-52.72505
-55.42743
-58.63549
-62.72847
-67.91435
-74.04434
-80.40208
-85.5984
-87.77161
-85.03053
-76.14206
-61.12235
-41.33175
-19.15503
2.777248
22.2947
38.12307
49.87669
57.73927
62.06138
63.11488
61.14172
56.48087
49.82048
42.19059
34.84235
28.95138
25.34331
24.29832
25.56845
28.55548
32.51747
36.77615
40.80747
44.22858
46.70605
47.95184
47.73386
45.96129
42.76616
38.45867
33.47878
28.29124
23.26422
18.60566
14.35266
10.36975
6.453321
2.414589
-1.852266
-6.292604
-10.66142
-14.63488
-17.91463
-20.34241
-22.01298
-23.26132
-24.52748
-26.24295
-28.61556
-31.59922
-34.9011
-38.14133
-41.01804
-43.43568
-45.52972
-47.64977
-50.25916
-53.79668
-58.53768
-64.37083
-70.60851
-75.89642
-78.41748
-76.3412
-68.46004
-54.66739
-36.11884
-14.96761
6.290119
25.45199
41.08657
52.56876
59.85836
63.2363
63.06949
59.80049
54.02017
46.56842
38.53667
31.09994
25.28714
21.72945
20.59701
21.613
24.23793
27.84405
31.87033
35.83205
39.24472
41.64609
42.64052
42.00442
39.79328
36.33241
32.06184
27.39861
22.55447
17.56386
12.39224
7.056918
1.714751
-3.4039
-8.045939
-12.08706
-15.53275
-18.54587
-21.35253
-24.16354
-27.1491
-30.39994
-33.8999
-37.48939
-40.94232
-43.98804
-46.47445
-48.48495
-50.3851
-52.79008
-56.32219
-61.25291
-67.20025
-72.97337
-76.73795
-76.5023
-70.76267
-59.04029
-42.15184
-21.996
-0.9575036
18.67556
35.24513
47.89268
56.44636
61.17313
62.51435
60.94827
56.98514
51.20994
44.33703
37.23656
30.87042
26.14448
23.69759
23.7078
25.83538
29.34502
33.32066
36.94657
39.6793
41.26495
41.62215
40.74691
38.66334
35.47549
31.38288
26.66114
21.54812
16.19361
10.62916
4.853264
-1.003929
-6.677177
-11.83618
-16.29404
-20.1284
-23.70155
-27.44594
-31.64103
-36.22683
-40.84418
-45.03177
-48.4526
-51.07056
-53.12117
-55.03135
-57.28489
-60.40295
-64.76018
-70.39772
-76.74117
-82.40975
-85.34526
-83.33108
-74.82153
-59.58215
-38.97723
-15.55764
7.732414
28.40931
44.98067
56.96828
64.6286
68.48589
69.1047
66.97968
62.68192
56.95369
50.67633
44.81348
40.1874
37.34916
36.48018
37.38749
39.62761
42.66331
46.01791
49.28754
52.14761
54.23396
55.13797
54.47477
51.98318
47.72396
42.07073
35.65608
29.11635
22.97303
17.45153
12.52042
7.945328
3.452248
-1.157646
-5.935688
-10.71516
-15.25917
-19.23831
-22.47819
-25.00726
-27.09137
-29.1743
-31.69596
-34.93042
-38.91148
-43.4159
-48.04581
-52.41056
-56.23314
-59.4706
-62.39837
-65.52336
-69.48597
-74.78691
-81.43619
-88.65047
-94.77246
-97.56313
-94.82687
-85.16422
-68.58145
-46.57524
-21.68647
3.203072
25.60701
43.91524
57.40779
66.13954
70.60636
71.49495
69.60178
65.79578
60.98266
56.00827
51.63129
48.33942
46.40279
45.82748
46.40671
47.82912
49.76834
51.99132
54.30527
56.5707
58.50244
59.72506
59.78033
58.25896
55.01968
50.23421
44.38722
38.15774
32.22699
26.98994
22.5349
18.62972
14.90921
11.11127
7.221516
3.474705
0.267601
-2.111614
-3.670063
-4.707657
-5.741886
-7.279812
-9.569489
-12.59094
-16.04573
-19.53238
-22.78148
-25.73786
-28.61328
-31.76274
-35.54288
-40.08832
-45.28394
-50.7549
-56.00656
-60.6449
-64.4962
-67.68384
-70.58037
-73.74931
-77.73419
-82.92762
-89.27293
-95.99195
-101.511
-103.679
-100.3319
-90.08604
-72.88139
-50.17803
-24.58815
0.9511299
23.91409
42.71131
56.73397
66.1001
71.26446
72.83781
71.46951
67.94598
63.18372
58.19683
53.89523
50.87129
49.328
49.08837
49.75896
50.93859
52.36849
53.9643
55.70561
57.50034
59.08755
60.06708
59.99847
58.60334
55.83537
51.91068
47.22876
42.22642
37.28378
32.67503
28.53528
24.84128
21.52151
18.43475
15.45608
12.50231
9.513645
6.523667
3.59146
0.8397386
-1.654022
-3.860509
-5.834752
-7.705498
-9.577848
-11.5148
-13.46078
-15.28248
-16.82297
-17.98506
-18.81154
-19.43627
-20.08407
-20.92243
-22.10762
-23.65242
-25.46167
-27.37751
-29.23453
-31.00937
-32.81116
-34.92134
-37.63827
-41.16051
-45.42048
-50.11619
-54.80228
-59.05851
-62.66976
-65.65862
-68.29837
-71.00388
-74.23959
-78.3616
-83.43104
-88.98625
-93.88123
-96.34415
-94.37524
-86.37563
-71.78401
-51.45631
-27.49883
-2.694511
20.29348
39.56999
54.18669
63.9798
69.22729
70.38437
68.02669
62.93203
56.12464
48.78957
42.04203
36.65277
32.94774
30.82764
29.9982
30.11191
30.89586
32.15726
33.69279
35.25973
36.51755
37.05115
36.41237
34.24331
30.3341
24.75324
17.89423
10.44217
3.268951
-2.805639
-7.212589
-9.79562
-10.79619
-10.73527
-10.17492
-9.532141
-9.009716
-8.61113
-8.247665
-7.863453
-7.475761
-7.144949
-6.939175
-6.851259
-6.797489
-6.673605
-6.411125
-5.993647
-5.487936
-4.98106
-4.55155
-4.235413
-3.995832
-3.773323
-3.502113
-3.15292
-2.737711
-2.311314
-1.931688
-1.64407
-1.45689
-1.345881
-1.259962
-1.158821
-1.021896
-0.8450623
-0.6589279
-0.4889107
-0.3645382
-0.2856045
-0.2391491
-0.2032757
-0.1616402
-0.1035423
-0.02931404
0.04717445
0.1122723
0.1555672
0.174654
0.1726341
0.1623859
0.1482563
0.1368465
0.1320858
0.1313095
0.1327972
0.1321774
0.1320934
0.1342907
0.1329842
0.1323719
0.1306515
0.1297817
0.1290169
0.1289787
0.1289425
0.1299362
0.1292839
0.1275692
0.1271076
0.1265583
0.1284332
0.1254311
0.1248264
0.1230125
0.1245346
0.1223278
0.1226082
0.1230621
0.1239567
0.1216755
0.1212044
0.1213322
0.120554
0.1209221
0.1190605
0.1196537
0.1174908
0.118206
0.1156235
0.1170559
0.1162663
0.1173744
0.1159496
0.1148338
0.114563
0.115572
0.1135006
0.1140079
0.1152115
0.112896
0.1108437
0.1118965
0.1109657
0.1110764
0.110321
0.1121445
0.1093559
0.1101379
0.1086845
0.1081352
0.1081142
0.1082478
0.1076202
0.1060104
0.1052399
0.1049061
0.1055603
0.1034813
0.1047058
0.1040344
0.1051006
0.1022205
0.1044865
0.1024761
0.1015282
0.1018963
0.1001091
0.1009941
0.1000347
0.1004486
0.09871674
0.09930229
0.09842491
0.09668159
0.09807014
0.09845543
0.09696007
0.09757233
0.09771347
0.0956707
0.0963192
0.09600639
0.09622765
0.09560776
0.09462357
0.09408951
0.09227943
0.09253693
0.09256363
0.09213638
0.09185791
0.09145164
0.09117889
0.09165764
0.09101105
0.09103584
0.09082794
0.09038734
0.09078979
0.09093475
0.08982468
0.09079933
0.08730316
0.0878315
0.08716202
0.08638382
0.0863018
0.0865612
0.08603477
0.08609009
0.08679199
0.08565331
0.08616638
0.08421707
0.08572006
0.08438301
0.08448601
0.085186
0.08400917
0.08345985
0.08423805
0.08145523
0.08002853
0.07881355
0.07696342
0.07710266
0.07655334
0.0768795
0.07773972
0.07906532
0.07402039
0.06336403
0.04971504
0.03057098
0.01681137
0.009273529
0.01014709
0.01788902
0.03643799
0.05438995
0.07024956
0.08677101
0.1000614
0.1201172
0.1456966
0.1792164
0.2194748
0.2674141
0.3047943
0.3324356
0.3523941
0.365551
0.384079
0.4214745
0.4845448
0.5665512
0.6591568
0.7389736
0.7905941
0.8129292
0.8217983
0.8465538
0.9185524
1.05479
1.248613
1.475185
1.686531
1.851259
1.962645
2.05344
2.178511
2.396702
2.738436
3.186199
3.685274
4.14645
4.505154
4.75182
4.943005
5.17034
5.539408
6.125851
6.928265
7.903404
8.956957
9.991547
10.91633
11.71053
12.40909
13.14859
14.17112
15.75839
18.1506
21.39093
25.23502
29.20454
32.71267
35.27622
36.62542
36.72413
35.66558
33.55594
30.47488
26.50772
21.85437
16.88477
12.04713
7.736893
4.129772
1.114681
-1.605381
-4.377007
-7.410614
-10.72268
-14.17147
-17.55093
-20.71359
-23.60086
-26.30653
-29.01286
-31.91911
-35.18243
-38.812
-42.68645
-46.58644
-50.2481
-53.49467
-56.31775
-58.91649
-61.66769
-65.07533
-69.5467
-75.16378
-81.3912
-86.91713
-89.80222
-87.96329
-79.87025
-65.18929
-45.09628
-21.94812
1.377182
22.34507
39.33456
51.79004
59.93917
64.35378
65.59598
64.09434
60.3131
54.89346
48.75558
42.92809
38.31633
35.45285
34.43314
34.98206
36.636
38.92626
41.52209
44.17095
46.68981
48.81007
50.19135
50.48288
49.42147
46.94309
43.20782
38.57407
33.48808
28.39845
23.54576
18.98754
14.62083
10.3237
6.094048
2.095169
-1.444595
-4.301071
-6.387657
-7.837219
-8.924683
-10.0017
-11.34361
-13.07492
-15.11201
-17.2735
-19.3801
-21.37351
-23.39274
-25.72379
-28.68645
-32.48872
-37.08214
-42.15636
-47.27291
-52.01239
-56.16827
-59.78868
-63.13803
-66.62085
-70.66764
-75.58659
-81.37797
-87.51861
-92.82813
-95.56564
-93.80546
-86.02611
-71.76675
-51.89462
-28.50114
-4.310135
18.05595
36.71796
50.7679
60.13629
65.26764
66.74592
65.17603
61.16177
55.44644
48.93987
42.67192
37.60926
34.3998
33.28272
34.04501
36.1977
39.15342
42.39349
45.56816
48.44109
50.82023
52.47073
53.09863
52.43215
50.33089
46.86494
42.31407
37.14295
31.82193
26.7396
22.08549
17.88619
14.03477
10.40197
6.944496
3.717461
0.8826981
-1.405418
-3.049355
-4.112091
-4.807953
-5.491417
-6.541565
-8.20977
-10.55776
-13.36336
-16.29557
-19.05928
-21.55746
-23.9472
-26.5932
-29.84248
-33.87847
-38.60148
-43.68105
-48.69502
-53.28057
-57.21227
-60.48544
-63.2683
-65.90189
-68.84752
-72.5658
-77.27853
-82.65166
-87.59627
-90.31245
-88.77946
-81.424
-67.74363
-48.64217
-26.19762
-3.039261
18.3809
36.31604
49.92894
59.06634
64.00896
65.24236
63.36195
59.09428
53.32843
47.05958
41.23977
36.65524
33.79681
32.83168
33.60353
35.75799
38.81717
42.30402
45.80716
48.97192
51.49789
53.11
53.54203
52.59325
50.22259
46.59313
42.08307
37.17969
32.35969
27.97847
24.17094
20.88679
17.93098
15.07618
12.17157
9.218521
6.335289
3.752678
1.667625
0.139473
-0.9414368
-1.862122
-2.940712
-4.465073
-6.549835
-9.106606
-11.95923
-14.84589
-17.60029
-20.20359
-22.81622
-25.71672
-29.20015
-33.42146
-38.27742
-43.43293
-48.40546
-52.7616
-56.27036
-59.01896
-61.39909
-63.99055
-67.40876
-72.0195
-77.68248
-83.54467
-88.06715
-89.28751
-85.41386
-75.42352
-59.5077
-39.12532
-16.58688
5.561874
25.21284
40.98801
52.33102
59.30813
62.32893
61.95807
58.85833
53.76003
47.47477
40.90795
34.95161
30.35931
27.66248
27.0574
28.3927
31.26553
35.14452
39.46624
43.7214
47.46118
50.2683
51.77759
51.74997
50.09818
46.98117
42.76131
37.88661
32.79976
27.83318
23.17211
18.88353
14.97777
11.43464
8.239258
5.371796
2.769249
0.3582993
-1.962471
-4.289536
-6.683266
-9.144547
-11.60945
-13.97138
-16.11749
-18.03853
-19.83519
-21.75893
-24.13676
-27.23256
-31.11134
-35.61521
-40.37299
-44.95407
-49.03603
-52.49427
-55.44887
-58.20387
-61.1884
-64.84624
-69.39127
-74.58956
-79.52444
-82.63422
-82.03912
-76.17587
-64.44069
-47.49261
-27.15052
-5.788811
14.31944
31.54733
45.05962
54.64781
60.39867
62.4982
61.20496
56.96381
50.52586
42.94699
35.43485
29.14348
24.92828
23.17339
23.76624
26.24885
29.95188
34.18538
38.38857
42.12718
45.07003
46.93213
47.46587
46.46926
43.91618
39.94099
34.8735
29.17152
23.32942
17.74783
12.69788
8.27256
4.396126
0.918335
-2.335136
-5.485939
-8.565292
-11.52245
-14.24785
-16.61513
-18.56897
-20.14507
-21.52564
-23.03209
-25.0041
-27.68858
-31.18063
-35.29527
-39.6792
-43.92088
-47.72821
-51.02732
-54.00755
-57.04928
-60.56934
-64.96964
-70.41256
-76.63354
-82.80243
-87.4886
-88.89371
-85.33684
-75.81964
-60.4278
-40.47929
-18.15975
4.047928
23.99086
40.24227
52.17883
59.83163
63.61903
64.09139
61.8301
57.4689
51.68165
45.25212
39.03579
33.87283
30.46604
29.19205
30.00726
32.44316
35.80296
39.36991
42.63367
45.31476
47.2755
48.3858
48.45087
47.23804
44.59536
40.62909
35.67833
30.27734
24.95012
20.05334
15.69701
11.80318
8.129562
4.434149
0.5390949
-3.651535
-8.068621
-12.50592
-16.66884
-20.25441
-23.06401
-25.13933
-26.79436
-28.55726
-30.97278
-34.37777
-38.74315
-43.6822
-48.61726
-53.03284
-56.70623
-59.78246
-62.73591
-66.18703
-70.7215
-76.57529
-83.43374
-90.24876
-95.28946
-96.49603
-91.99168
-80.75497
-63.06187
-40.50623
-15.59739
8.919252
30.73617
48.32734
61.02934
68.87181
72.3177
72.08115
69.04629
64.16431
58.37307
52.53355
47.3758
43.44772
41.11838
40.5084
41.51786
43.83812
47.02053
50.51055
53.82468
56.57555
58.43563
59.12577
58.38697
56.0959
52.31971
47.37715
41.71695
35.86757
30.24478
25.06985
20.41422
16.22594
12.43547
8.991898
5.835625
2.885674
0.04811478
-2.818413
-5.816452
-8.940434
-12.07823
-15.04308
-17.63948
-19.83839
-21.78255
-23.80614
-26.32735
-29.67899
-33.90839
-38.79924
-43.92565
-48.80188
-53.10811
-56.76187
-59.99022
-63.23969
-67.06123
-71.90976
-77.89536
-84.5072
-90.43565
-93.70338
-92.132
-84.09138
-69.1796
-48.48739
-24.35587
0.3167725
22.89794
41.58846
55.60409
64.93413
69.99834
71.31439
69.47017
65.15691
59.2449
52.75092
46.72478
42.01777
39.12727
38.15775
38.84559
40.77103
43.49948
46.6556
49.93536
53.04954
55.62551
57.24082
57.48998
56.1432
53.22004
49.03831
44.08205
38.85422
33.78483
29.0915
24.79119
20.7662
16.84715
12.92609
9.057564
5.394684
2.139751
-0.5679169
-2.761139
-4.637939
-6.446285
-8.40416
-10.56808
-12.83706
-15.08133
-17.23741
-19.4286
-21.95024
-25.13106
-29.15413
-33.96105
-39.25625
-44.60561
-49.5945
-53.9965
-57.81113
-61.28456
-64.79628
-68.77235
-73.58219
-79.32443
-85.61079
-91.38786
-94.95327
-94.3195
-87.78948
-74.59818
-55.36463
-32.01785
-7.295883
16.00185
35.72728
50.72433
60.76194
66.22968
67.80765
66.19853
62.12446
56.38755
49.88303
43.57937
38.32401
34.77564
33.18633
33.46746
35.24187
37.99937
41.23524
44.52457
47.53033
49.94535
51.52062
51.99277
51.18189
49.0013
45.54067
41.0158
35.72898
30.03879
24.27828
18.75547
13.6998
9.199169
5.230705
1.670351
-1.649509
-4.868137
-8.004177
-10.98875
-13.68853
-15.98973
-17.86284
-19.39912
-20.82523
-22.42162
-24.47304
-27.19934
-30.67232
-34.75011
-39.11138
-43.31705
-46.97564
-49.89542
-52.1846
-54.20399
-56.45874
-59.46349
-63.56188
-68.75326
-74.54462
-79.84727
-83.03783
-82.34241
-76.27496
-64.25475
-46.8873
-25.93274
-3.826538
16.97787
34.59085
47.98964
56.90767
61.62084
62.60803
60.43176
55.65433
48.96137
41.24731
33.55918
27.03487
22.59585
20.75617
21.43787
24.06292
27.77073
31.7562
35.48142
38.7188
41.42545
43.44266
44.48389
44.18393
42.2916
38.86087
34.24395
28.99342
23.62352
18.49249
13.68349
9.125149
4.692518
0.3102789
-3.988865
-8.089977
-11.79447
-14.90118
-17.26779
-18.90304
-20.02119
-21.03277
-22.44096
-24.66478
-27.85882
-31.82842
-36.13146
-40.21341
-43.67504
-46.39926
-48.66075
-50.99501
-54.02119
-58.25821
-63.87039
-70.45727
-76.8824
-81.39839
-82.01602
-77.11259
-66.05263
-49.44617
-29.0983
-7.445363
13.08949
30.71063
44.47426
54.175
60.02917
62.36675
61.55249
57.97694
52.24367
45.22362
38.0322
31.80408
27.43009
25.34763
25.45568
27.26398
30.0813
33.32468
36.56388
39.55991
42.1095
43.91846
44.63783
43.90558
41.55034
37.67664
32.67153
27.09446
21.47508
16.22957
11.50663
7.265877
3.266491
-0.7576065
-4.998762
-9.481718
-14.00888
-18.21875
-21.70579
-24.24905
-25.9546
-27.28669
-28.88767
-31.32144
-34.80608
-39.10689
-43.65166
-47.80967
-51.19206
-53.77832
-55.95433
-58.34085
-61.59464
-66.20223
-72.20843
-79.03755
-85.38412
-89.35022
-88.87292
-82.34289
-69.27072
-50.52246
-28.16431
-4.813759
17.05302
35.67929
50.16824
60.31664
66.32077
68.5199
67.36751
63.44668
57.57214
50.75943
44.07221
38.47093
34.65031
32.94463
33.28671
35.32529
38.48821
42.16636
45.82047
49.0387
51.54518
53.08568
53.4048
52.23827
49.42394
45.02164
39.33318
32.89529
26.33229
20.1736
14.69395
9.893837
5.525627
1.286537
-3.051067
-7.512249
-11.94213
-16.08764
-19.71793
-22.75542
-25.27674
-27.54259
-29.85502
-32.52414
-35.6929
-39.31387
-43.17666
-46.9711
-50.45036
-53.51408
-56.31445
-59.23989
-62.82124
-67.53071
-73.5662
-80.59351
-87.55015
-92.71448
-93.99086
-89.52251
-78.34059
-60.7814
-38.52966
-14.1544
9.607597
30.54468
47.31606
59.4866
67.26019
71.11693
71.64172
69.45014
65.26338
59.92786
54.38178
49.5174
46.04366
44.34241
44.41384
45.95424
48.43342
51.28701
54.03947
56.38412
58.1097
59.03123
58.91904
57.53543
54.75668
50.66485
45.60836
40.06866
34.51665
29.22751
24.25179
19.53819
15.00611
10.67876
6.69252
3.15947
0.12854
-2.470871
-4.800293
-7.066849
-9.4011
-11.8781
-14.50224
-17.22253
-19.97369
-22.75146
-25.67344
-28.92624
-32.71248
-37.09755
-41.96011
-46.97549
-51.73502
-55.9342
-59.47005
-62.51359
-65.45701
-68.84729
-73.21453
-78.85372
-85.53039
-92.23364
-97.18761
-98.15427
-93.10629
-80.99783
-62.2498
-38.76593
-13.34766
11.1193
32.39038
49.17117
61.08826
68.35223
71.44848
71.00215
67.75337
62.62247
56.64317
50.82168
46.00259
42.72061
41.14217
41.11367
42.28367
44.20669
46.48693
48.83814
51.03656
52.89987
54.20605
54.66885
53.99546
52.04392
48.85283
44.67844
39.91409
34.95171
30.05063
25.33233
20.75503
16.2347
11.75796
7.419014
3.428139
0.03896332
-2.59655
-4.507912
-5.94104
-7.261421
-8.793442
-10.70549
-12.89728
-15.17909
-17.36844
-19.49651
-21.84135
-24.78951
-28.63938
-33.40261
-38.77149
-44.22882
-49.31742
-53.75277
-57.56624
-60.98899
-64.36142
-68.07263
-72.43024
-77.56677
-83.21324
-88.52722
-91.98469
-91.70691
-85.92471
-73.71852
-55.4958
-32.99437
-8.824673
14.29099
34.14548
49.54829
60.18451
66.33035
68.56853
67.53359
63.92372
58.56414
52.38865
46.35717
41.38356
38.09402
36.74267
37.19292
38.98005
41.49782
44.16664
46.54696
48.39412
49.60357
50.09352
49.74213
48.41766
46.00402
42.55305
38.26759
33.483
28.51595
23.62088
18.89305
14.367
10.05801
6.011173
2.326937
-0.8915291
-3.612799
-5.889067
-7.868883
-9.765442
-11.73739
-13.85671
-16.08293
-18.29459
-20.41754
-22.46719
-24.59911
-27.08733
-30.19918
-34.03207
-38.45118
-43.08479
-47.4403
-51.13063
-54.04034
-56.40669
-58.73496
-61.68208
-65.80376
-71.30456
-77.86887
-84.49794
-89.61986
-91.32645
-87.90829
-78.34457
-62.73219
-42.37604
-19.53351
3.189317
23.46952
39.72654
51.32341
58.35563
61.35406
60.99569
57.93753
52.81411
46.37547
39.52767
33.27798
28.55011
25.93527
25.54355
27.03549
29.78046
33.12061
36.50722
39.5863
42.13606
43.96206
44.85904
44.5913
42.9783
40.00144
35.87881
31.00434
25.83604
20.80758
16.22935
12.17087
8.548082
5.175367
1.83871
-1.560097
-5.012812
-8.415249
-11.55277
-14.17454
-16.13478
-17.42849
-18.29678
-19.20297
-20.66035
-23.0612
-26.49289
-30.64154
-34.93267
-38.79023
-41.85768
-44.16474
-46.12296
-48.29952
-51.21498
-55.18882
-60.23719
-65.98058
-71.58966
-75.76837
-76.91911
-73.50488
-64.54099
-50.04966
-31.27272
-10.36064
10.16773
28.15923
42.31464
52.23379
58.14846
60.55935
59.9199
56.60032
51.11798
44.25325
37.09736
30.87026
26.55551
24.6329
24.99274
27.07006
30.11083
33.47866
36.76715
39.74291
42.21989
43.90787
44.44206
43.47831
40.88842
36.84507
31.79717
26.29998
20.8135
15.59205
10.64616
5.879082
1.210893
-3.355542
-7.720537
-11.74333
-15.30338
-18.35899
-20.91854
-23.13479
-25.2411
-27.52954
-30.24599
-33.48784
-37.12244
-40.82295
-44.25201
-47.17315
-49.6712
-52.14426
-55.17309
-59.30244
-64.72024
-71.0238
-77.08769
-81.20305
-81.45052
-76.29824
-65.12204
-48.508
-28.19036
-6.542272
14.05812
31.78951
45.63149
55.28616
60.9132
62.87998
61.63466
57.7244
51.90084
45.14133
38.55198
33.16808
29.73813
28.54048
29.38843
31.73563
34.88408
38.25423
41.46321
44.30839
46.65482
48.27367
48.79497
47.80521
45.04351
40.56582
34.81004
28.4357
22.10599
16.30448
11.19414
6.672598
2.474682
-1.664146
-5.855011
-10.02983
-13.96086
-17.34955
-19.95177
-21.75567
-23.01495
-24.24097
-25.9833
-28.65699
-32.38081
-36.91504
-41.8186
-46.58124
-50.83881
-54.44131
-57.50515
-60.37374
-63.56419
-67.6332
-72.93612
-79.34882
-85.94986
-91.04082
-92.4241
-88.10719
-77.00838
-59.48248
-37.29726
-13.09354
10.33995
30.77832
46.93797
58.4369
65.4753
68.58751
68.3934
65.5882
60.98882
55.4743
49.95798
45.25784
41.95984
40.35109
40.41799
41.86374
44.2127
46.99849
49.81884
52.40423
54.56027
56.05084
56.59452
55.88222
53.72598
50.10745
45.31226
39.75322
33.89392
28.11889
22.60537
17.40464
12.50452
7.884542
3.550436
-0.4284134
-3.996975
-7.144518
-9.889713
-12.31032
-14.51478
-16.59292
-18.58927
-20.52466
-22.40459
-24.33515
-26.56016
-29.36597
-33.03611
-37.66125
-43.06825
-48.85897
-54.55425
-59.73854
-64.23458
-68.1431
-71.76982
-75.61835
-80.16769
-85.66264
-91.86055
-97.76534
-101.6255
-101.3082
-94.91611
-81.52784
-61.73536
-37.56868
-11.93479
12.21523
32.64431
48.26108
58.96889
65.33614
68.12541
68.02472
65.63769
61.58566
56.62008
51.59798
47.38216
44.62173
43.59693
44.1801
45.94756
48.39945
51.13145
53.88237
56.50349
58.80759
60.48206
61.12924
60.37835
58.02203
54.15901
49.13914
43.44944
37.57425
31.84479
26.41593
21.34184
16.61852
12.24561
8.260597
4.73362
1.737698
-0.7175064
-2.742306
-4.572735
-6.496712
-8.757313
-11.45415
-14.50018
-17.6494
-20.58164
-23.15019
-25.43857
-27.80148
-30.70087
-34.50735
-39.3013
-44.81421
-50.51588
-55.81995
-60.3114
-63.9136
-66.91062
-69.86049
-73.45889
-78.27127
-84.46214
-91.50849
-98.04142
-101.9795
-101.0036
-93.3253
-78.36002
-57.08575
-31.86949
-5.763456
18.32751
38.33493
53.27785
63.14954
68.52113
70.18129
68.92679
65.51747
60.71682
55.32951
50.15735
45.89821
43.04366
41.7902
42.00125
43.35674
45.43714
47.89246
50.48869
53.05238
55.38294
57.16635
57.99852
57.46937
55.36814
51.74437
46.94524
41.48436
35.88346
30.57436
25.78072
21.537
17.75108
14.24495
10.86568
7.515789
4.21912
1.136307
-1.535461
-3.653225
-5.258608
-6.602833
-8.078356
-9.995329
-12.47819
-15.31223
-18.13044
-20.59492
-22.64512
-24.58345
-26.94895
-30.27539
-34.78451
-40.28127
-46.19706
-51.86594
-56.74007
-60.60049
-63.59258
-66.125
-68.79406
-72.2047
-76.8223
-82.73196
-89.36996
-95.35651
-98.61705
-96.86146
-88.36799
-72.68381
-50.93435
-25.60605
0.2300682
23.76068
43.08975
57.40218
66.74871
71.6209
72.57986
70.2235
65.2547
58.56078
51.24465
44.42822
39.02672
35.60595
34.32447
34.95401
37.08412
40.24425
43.9817
47.87681
51.50097
54.38196
56.07121
56.23232
54.69929
51.57605
47.191
41.99325
36.45023
30.92177
25.60711
20.58762
15.87615
11.44105
7.301564
3.491874
0.0522089
-2.997092
-5.703701
-8.218822
-10.6722
-13.17177
-15.68452
-18.04172
-20.04868
-21.60915
-22.82829
-24.05032
-25.71676
-28.20027
-31.58841
-35.69577
-40.08712
-44.30616
-48.03376
-51.21275
-54.07358
-57.01963
-60.57487
-65.1623
-70.94418
-77.5349
-83.8866
-88.29237
-88.74406
-83.5191
-71.80696
-54.14031
-32.33018
-9.021295
13.12132
32.00969
46.54542
56.50385
62.23148
64.2953
63.19587
59.4189
53.54007
46.35148
38.8903
32.26557
27.43143
24.91499
24.76735
26.5449
29.59872
33.25423
37.00081
40.52973
43.56211
45.78912
46.82405
46.31155
44.06984
40.26328
35.3075
29.78869
24.27919
19.18038
14.66456
10.68173
7.006628
3.341056
-0.5236101
-4.621049
-8.754241
-12.54439
-15.60403
-17.75717
-19.15636
-20.28323
-21.79063
-24.17834
-27.5994
-31.75723
-36.05049
-39.8337
-42.69729
-44.61106
-45.92292
-47.18044
-48.9859
-51.80797
-55.87516
-61.00048
-66.45716
-70.89722
-72.59538
-69.84859
-61.59793
-47.90341
-30.04652
-10.18445
9.340971
26.64399
40.66293
51.07939
58.00317
61.60041
61.98599
59.29853
53.92653
46.66273
38.59632
30.92169
24.63647
20.38128
18.35954
18.41229
20.17685
23.16213
26.87568
30.8267
34.51657
37.4189
39.05257
39.08806
37.39882
34.18546
29.86604
24.94587
19.87074
14.84914
9.844893
4.695856
-0.706646
-6.281487
-11.75939
-16.78107
-21.10795
-24.71833
-27.83327
-30.77954
-33.84029
-37.10442
-40.44983
-43.632
-46.39925
-48.63434
-50.4017
-51.9946
-53.82234
-56.41302
-60.22448
-65.37717
-71.35239
-76.84527
-79.91033
-78.43465
-70.93705
-57.14794
-38.24332
-16.54739
5.225033
24.76826
40.62696
52.27605
59.83207
63.65359
64.11247
61.61178
56.72908
50.28941
43.36214
37.01045
32.06391
29.0008
27.86552
28.42032
30.25734
32.92413
35.98583
39.01383
41.59468
43.35692
44.02587
43.43652
41.61854
38.70362
34.84953
30.21643
24.93404
19.12582
12.94939
6.624256
0.3741617
-5.550363
-10.95119
-15.7253
-19.8512
-23.44372
-26.73805
-30.04494
-33.60649
-37.52481
-41.64004
-45.63144
-49.15269
-51.97306
-54.14109
-55.9778
-58.04816
-60.97573
-65.27749
-71.03461
-77.63857
-83.62538
-86.87328
-85.20113
-77.06055
-62.2113
-41.91903
-18.60484
4.902824
26.12608
43.44431
56.14277
64.21581
68.07999
68.35493
65.77975
61.17542
55.41367
49.32898
43.66001
39.02008
35.86715
34.49478
34.94496
36.98281
40.10239
43.66688
47.00969
49.61777
51.12696
51.31424
50.09465
47.43662
43.45721
38.40525
32.62323
26.46629
20.26809
14.21981
8.401085
2.81221
-2.562927
-7.691246
-12.49379
-16.87281
-20.77552
-24.25634
-27.52397
-30.88892
-34.60864
-38.75412
-43.10557
-47.23781
-50.707
-53.30151
-55.21621
-57.03593
-59.58768
-63.56558
-69.22755
-76.06396
-82.67267
-87.01167
-86.84626
-80.45573
-67.26998
-48.19559
-25.38506
-1.670029
20.27937
38.5942
52.41846
61.7563
67.06464
68.93506
67.90254
64.50892
59.43289
53.48691
47.61434
42.65983
39.2418
37.60561
37.65903
38.99419
41.11476
43.55613
45.94908
48.07256
49.67667
50.45971
50.01865
48.00441
44.25634
38.98977
32.77483
26.33648
20.3409
15.12798
10.66528
6.633133
2.675823
-1.44519
-5.748089
-10.00312
-13.91619
-17.19053
-19.70285
-21.59188
-23.21513
-25.09366
-27.70048
-31.27792
-35.67515
-40.4527
-45.00189
-48.86161
-51.88729
-54.33627
-56.79374
-59.96598
-64.46276
-70.46417
-77.52674
-84.3709
-89.04131
-89.30727
-83.37738
-70.55702
-51.65517
-28.80726
-4.856689
17.42137
36.0639
50.17357
59.75891
65.30927
67.41692
66.57869
63.27971
58.11983
51.95071
45.80666
40.68698
37.31205
35.94018
36.39541
38.20255
40.79971
43.7058
46.54747
49.04593
50.92621
51.86837
51.56353
49.76448
46.37188
41.50402
35.54654
29.07762
22.7211
16.98989
12.10207
7.975407
4.256458
0.5618401
-3.3652
-7.488235
-11.53885
-15.14971
-18.05437
-20.20892
-21.84019
-23.36622
-25.25022
-27.87132
-31.35841
-35.57433
-40.14888
-44.66009
-48.71319
-52.12367
-54.94144
-57.48411
-60.2391
-63.73827
-68.36578
-74.00554
-79.85898
-84.33043
-85.35248
-80.98142
-70.16074
-53.18766
-31.79084
-8.612366
13.58284
32.64562
47.39347
57.56908
63.50888
65.71547
64.69019
60.95135
55.14413
48.14013
41.00972
34.78218
30.24777
27.80648
27.43308
28.74734
31.21265
34.24257
37.33404
40.11781
42.30291
43.63482
43.86738
42.79315
40.30656
36.47804
31.62047
26.22069
20.83803
15.88357
11.48988
7.497789
3.57298
-0.5375566
-4.864316
-9.133812
-12.9498
-15.95676
-18.09121
-19.60205
-20.95243
-22.62995
-24.96438
-28.02366
-31.60144
-35.36609
-38.94954
-42.11348
-44.82701
-47.31495
-49.98678
-53.3167
-57.60838
-62.80327
-68.31083
-72.91378
-74.9857
-72.86056
-65.35928
-52.28775
-34.61169
-14.26403
6.329047
24.92175
39.98341
50.85093
57.5743
60.59121
60.40269
57.46416
52.24979
45.42102
37.91066
30.87576
25.40101
22.2431
21.64642
23.30337
26.52105
30.47256
34.40852
37.72347
40.01357
41.00549
40.55532
38.67207
35.51378
31.35938
26.56969
21.46921
16.26927
11.0731
5.921389
0.8958035
-3.900273
-8.336992
-12.30264
-15.75136
-18.75035
-21.48351
-24.1782
-27.08387
-30.34609
-33.99747
-37.90744
-41.82909
-45.48737
-48.67822
-51.36764
-53.71696
-56.12737
-59.0934
-63.03828
-67.99615
-73.35889
-77.82811
-79.61132
-76.94163
-68.64694
-54.68812
-36.22934
-15.38775
5.414078
24.06915
39.18884
50.22025
57.22871
60.60203
60.81464
58.3603
53.78246
47.80854
41.36612
35.4454
30.94035
28.42137
27.9999
29.3589
31.92599
35.03362
38.13574
40.88049
43.02943
44.4087
44.80964
43.98066
41.74739
38.09558
33.25229
27.64341
21.76075
15.98112
10.46955
5.193794
-0.005842209
-5.184675
-10.24874
-14.92537
-18.85858
-21.85984
-24.00932
-25.66415
-27.38737
-29.70466
-32.87023
-36.77903
-41.04575
-45.15916
-48.71531
-51.60154
-53.97651
-56.27436
-59.10529
-63.06587
-68.47801
-75.1062
-81.89372
-86.98461
-88.10461
-83.26199
-71.51655
-53.45968
-31.08349
-7.261193
15.15834
34.07263
48.43768
58.17791
63.78437
65.93613
65.25867
62.35705
57.8975
52.68584
47.5974
43.43951
40.74425
39.6793
40.07221
41.51682
43.54937
45.7864
47.98007
49.94364
51.47127
52.27706
52.03083
50.44691
47.38546
42.94361
37.46975
31.45994
25.4479
19.8688
14.9804
10.8315
7.306067
4.165437
1.167502
-1.884068
-5.092087
-8.439977
-11.78671
-14.94631
-17.72259
-20.03547
-22.01125
-23.91685
-26.155
-29.08782
-32.90218
-37.44627
-42.33155
-47.03287
-51.08116
-54.2477
-56.63557
-58.6601
-60.92194
-64.12657
-68.75947
-74.88718
-81.87129
-88.23773
-91.90111
-90.65418
-82.9306
-68.37875
-48.16911
-24.64192
-0.6479244
21.23475
39.28999
52.7733
61.72392
66.59644
67.99419
66.50182
62.77523
57.58041
51.79148
46.32985
41.99162
39.32094
38.50662
39.35675
41.4153
44.09837
46.86353
49.25993
51.05468
52.08168
52.22921
51.37763
49.37929
46.16059
41.78347
36.50665
30.7241
24.90666
19.42455
14.50047
10.16331
6.300217
2.71856
-0.7623768
-4.229071
-7.667671
-10.92144
-13.7977
-16.1522
-17.97903
-19.46266
-20.9509
-22.83074
-25.4072
-28.79818
-32.91797
-37.50457
-42.20132
-46.6428
-50.56253
-53.84272
-56.61035
-59.24692
-62.29798
-66.31841
-71.55984
-77.65266
-83.41428
-86.96165
-86.15122
-79.30275
-65.86868
-46.7463
-24.13747
-0.8406181
20.51173
38.09668
51.08539
59.44987
63.59694
64.01265
61.22736
55.84885
48.74811
41.03465
33.8798
28.28805
24.90233
23.90827
25.09286
27.99131
31.98489
36.44293
40.76862
44.39809
46.85089
47.77003
46.94562
44.35694
40.23698
34.991
29.14679
23.22276
17.62578
12.57516
8.011528
3.721512
-0.5616035
-4.932726
-9.292089
-13.36464
-16.88075
-19.74795
-22.10643
-24.31677
-26.74216
-29.56281
-32.70391
-35.92823
-38.96404
-41.62352
-43.87449
-45.84106
-47.75981
-49.99158
-52.96475
-57.04922
-62.25916
-67.99429
-72.88158
-75.0045
-72.46024
-64.07994
-49.8974
-31.26583
-10.46166
10.05317
28.20235
42.71236
53.08402
59.37153
61.84875
60.90717
57.03567
50.91043
43.48773
35.87676
29.16873
24.23403
21.57255
21.2258
22.88282
25.9786
29.8465
33.79296
37.2114
39.57932
40.56466
40.03687
38.06735
34.91273
30.87052
26.20455
21.08446
15.58121
9.816431
3.936399
-1.832167
-7.254616
-12.1726
-16.56757
-20.5557
-24.30108
-27.9902
-31.73592
-35.58514
-39.47064
-43.22623
-46.61486
-49.46168
-51.75525
-53.69647
-55.75067
-58.49328
-62.44683
-67.72631
-73.84854
-79.59082
-83.17488
-82.68521
-76.62239
-64.45568
-46.85548
-25.59193
-3.062639
18.32109
36.65627
50.86169
60.64096
66.24857
68.21716
67.14294
63.66103
58.44603
52.2627
45.98501
40.48716
36.49744
34.4257
34.29929
35.74792
38.19437
41.00716
43.68031
45.86153
47.28436
47.72163
46.92125
44.70478
41.03008
36.0904
30.2673
24.08111
17.96065
12.10348
6.487074
0.9437046
-4.624187
-10.11425
-15.23259
-19.67631
-23.32889
-26.38452
-29.2678
-32.46452
-36.22445
-40.46626
-44.81168
-48.79061
-52.12816
-54.87292
-57.36996
-60.17685
-63.86121
-68.82584
-75.11134
-82.14964
-88.64828
-92.70274
-92.18489
-85.40212
-71.73068
-52.00777
-28.36926
-3.676487
19.31528
38.61712
53.28674
63.28253
69.11346
71.48485
71.0531
68.45277
64.3398
59.43103
54.50815
50.27629
47.28457
45.79438
45.75808
46.86311
48.65345
50.65043
52.46691
53.83779
54.60948
54.67441
53.91288
52.1782
49.36277
45.45415
40.58579
35.02166
29.10294
23.18553
17.57233
12.46863
7.960468
4.000187
0.4382973
-2.9277
-6.265324
-9.651634
-13.02312
-16.23065
-19.14322
-21.75443
-24.25663
-26.97081
-30.22672
-34.16699
-38.6885
-43.42342
-47.93052
-51.84313
-55.056
-57.73305
-60.2472
-63.0848
-66.69331
-71.43159
-77.37466
-84.1642
-90.74236
-95.35806
-95.8401
-90.21875
-77.48904
-58.13708
-34.1648
-8.537033
15.69676
36.20254
51.81977
62.4292
68.58081
71.06467
70.58984
67.76954
63.22843
57.70972
52.04977
47.11263
43.56894
41.76828
41.69877
43.00989
45.20721
47.76778
50.25449
52.36495
53.89486
54.66261
54.5009
53.20757
50.6196
46.7103
41.62326
35.70806
29.45268
23.34362
17.77065
12.89235
8.66275
4.90086
1.382114
-2.046326
-5.444429
-8.73674
-11.77172
-14.38942
-16.51812
-18.23585
-19.79539
-21.62214
-24.12175
-27.56127
-31.89548
-36.80029
-41.74966
-46.25539
-50.05343
-53.16351
-55.89862
-58.72924
-62.09565
-66.34584
-71.60823
-77.6535
-83.72992
-88.49531
-90.101
-86.68064
-76.96516
-60.84949
-39.64146
-15.77442
7.868093
28.784
45.39151
57.16742
64.34985
67.5356
67.29705
64.13383
58.63689
51.60994
44.1085
37.29227
32.14674
29.24199
28.64283
29.95422
32.4981
35.61408
38.78416
41.66999
44.05314
45.75951
46.55826
46.18481
44.39748
41.10303
36.48314
30.96291
25.15853
19.64048
14.78189
10.61283
6.885042
3.203665
-0.7468539
-5.035991
-9.42048
-13.49754
-16.87376
-19.39437
-21.23486
-22.8318
-24.68417
-27.16533
-30.33634
-33.92494
-37.50615
-40.68511
-43.31933
-45.54345
-47.66535
-50.053
-53.06541
-56.96757
-61.85414
-67.45734
-72.958
-76.91789
-77.51292
-73.05853
-62.65846
-46.68654
-26.77613
-5.358877
15.0748
32.61288
46.25453
55.74876
61.30977
63.23931
61.81829
57.41277
50.64972
42.54689
34.3912
27.53824
22.99241
21.20883
22.00983
24.70965
28.42887
32.35113
35.94282
38.92054
41.20915
42.69971
43.23064
42.56905
40.49577
37.00973
32.32211
26.90515
21.27975
15.92549
11.1094
6.855864
2.988197
-0.7619267
-4.58268
-8.562328
-12.58243
-16.39945
-19.71601
-22.33624
-24.26229
-25.73985
-27.24425
-29.25906
-32.14441
-35.93538
-40.35882
-44.90086
-49.06173
-52.56199
-55.38817
-57.88015
-60.53305
-63.88513
-68.34277
-73.96208
-80.23561
-85.98447
-89.45056
-88.66888
-82.09741
-69.18677
-50.70707
-28.60866
-5.475056
16.1896
34.53649
48.6054
58.26274
63.8604
65.94611
65.09359
61.89556
57.00178
51.18639
45.33064
40.27873
36.74541
35.11071
35.37306
37.18725
39.98393
43.18171
46.26565
48.86165
50.69436
51.55373
51.27137
49.73828
46.96105
43.06924
38.33555
33.08195
27.67992
22.41188
17.47012
12.8739
8.543476
4.372482
0.3332634
-3.461393
-6.848612
-9.676424
-11.96055
-13.87993
-15.70404
-17.64797
-19.78151
-22.04791
-24.3532
-26.74539
-29.4393
-32.74546
-36.87346
-41.77164
-47.10727
-52.38738
-57.15135
-61.16939
-64.54034
-67.6192
-70.92696
-74.9649
-80.01625
-85.88394
-91.71096
-95.91349
-96.49819
-91.58765
-80.11371
-62.28717
-39.71523
-14.96756
9.140285
30.26462
46.99482
58.89325
66.22407
69.60509
69.74412
67.28189
62.90715
57.3764
51.52788
46.22071
42.17553
39.85447
39.38486
40.56798
42.9455
46.00709
49.27866
52.39354
55.08023
57.09101
58.13592
57.91027
56.17231
52.87173
48.23219
42.74962
37.01287
31.52655
26.53798
21.98985
17.66267
13.363
9.057953
4.939595
1.329486
-1.520779
-3.51898
-4.838244
-5.868446
-7.071216
-8.810473
-11.20972
-14.07045
-17.01422
-19.69704
-22.00216
-24.17781
-26.7398
-30.21251
-34.87364
-40.51141
-46.50823
-52.10223
-56.73692
-60.27061
-63.00368
-65.56474
-68.63468
-72.76351
-78.10857
-84.26046
-90.17605
-94.1935
-94.32158
-88.78428
-76.66316
-58.33805
-35.5629
-10.97511
12.63432
33.01805
48.93172
60.07168
66.7701
69.59663
69.10798
65.7946
60.23084
53.2495
45.88997
39.338
34.54834
32.09592
32.04757
34.01247
37.36348
41.39684
45.51916
49.26182
52.26958
54.23518
54.89829
54.1104
51.84787
48.25487
43.58831
38.22017
32.51615
26.83961
21.48593
16.61715
12.27367
8.371617
4.804826
1.499286
-1.553488
-4.388492
-7.018044
-9.492431
-11.86547
-14.12199
-16.18388
-17.95751
-19.44413
-20.83036
-22.46072
-24.67385
-27.62704
-31.23915
-35.18124
-39.04058
-42.52043
-45.52298
-48.20989
-50.85957
-53.8163
-57.41262
-61.91795
-67.37663
-73.36879
-78.88272
-82.26974
-81.60541
-75.28978
-62.69249
-44.53703
-22.82939
-0.2271481
20.71041
38.17365
51.34463
60.22425
65.19309
66.67427
65.00552
60.54978
53.93854
46.13536
38.33815
31.74253
27.23283
25.18088
25.47367
27.61538
30.9793
34.95463
39.01035
42.71452
45.70573
47.6711
48.31963
47.46627
45.08001
41.2813
36.38064
30.81165
25.04558
19.47496
14.35957
9.781435
5.668137
1.891706
-1.68008
-5.111546
-8.401768
-11.52263
-14.43097
-17.07122
-19.38617
-21.35808
-23.00885
-24.46472
-25.95543
-27.78635
-30.2003
-33.30822
-37.02914
-41.13286
-45.29387
-49.22437
-52.79424
-56.02758
-59.10432
-62.33707
-66.11969
-70.73824
-76.21627
-81.99901
-86.77489
-88.65888
-85.68
-76.44357
-60.80839
-40.08337
-16.65907
6.661163
27.47829
44.27361
56.47552
64.20581
67.92813
68.20769
65.63817
60.91743
54.84319
48.30716
42.20386
37.26921
33.98681
32.51135
32.6981
34.16513
36.46734
39.16328
41.94033
44.58192
46.82162
48.3359
48.727
47.64888
44.97115
40.86452
35.71485
30.06003
24.38924
19.0491
14.20745
9.883949
5.988716
2.380438
-1.069313
-4.447788
-7.765713
-10.95269
-13.87754
-16.40858
-18.5146
-20.30249
-22.00997
-23.95607
-26.42839
-29.61048
-33.49363
-37.91062
-42.53647
-47.02409
-51.083
-54.56421
-57.5785
-60.44143
-63.6825
-67.82536
-73.12894
-79.24782
-85.03267
-88.59856
-87.787
-80.87765
-67.30161
-47.97946
-25.1202
-1.55957
20.09869
38.09353
51.67131
60.86602
66.04903
67.62098
65.96828
61.58977
55.24185
47.9722
40.9592
35.22324
31.43992
29.81155
30.16237
32.02773
34.86016
38.13888
41.42339
44.39536
46.76172
48.24078
48.54462
47.43715
44.81603
40.79521
35.72798
30.12249
24.49258
19.22315
14.44765
10.05214
5.767693
1.319006
-3.438023
-8.415115
-13.30695
-17.72374
-21.3006
-23.90568
-25.72714
-27.21916
-28.94868
-31.35482
-34.57455
-38.38369
-42.31857
-45.88283
-48.79259
-51.07726
-53.10519
-55.42543
-58.61591
-63.07771
-68.81152
-75.22194
-81.047
-84.43657
-83.42944
-76.52821
-63.32951
-44.77804
-22.96562
-0.5619354
19.9974
37.03612
49.84437
58.39667
63.02199
64.07475
61.92298
57.05013
50.19469
42.44221
34.98729
28.93123
24.94182
23.21162
23.52415
25.44018
28.4678
32.16564
36.13093
39.91713
43.02483
44.95263
45.29449
43.90411
40.90245
36.68918
31.77017
26.59876
21.46607
16.45804
11.52579
6.570672
1.587088
-3.324467
-7.972657
-12.2001
-15.99334
-19.48439
-22.86566
-26.26029
-29.69788
-33.04543
-36.16915
-38.94208
-41.33109
-43.42038
-45.34882
-47.28477
-49.46539
-52.23087
-55.88055
-60.53958
-65.80408
-70.58384
-73.18577
-71.70936
-64.69122
-51.72313
-33.76168
-12.9161
8.188877
27.18237
42.49944
53.55162
60.43565
63.56953
63.32014
60.00151
54.01497
46.0967
37.37186
29.22089
22.9537
19.4198
18.81261
20.66119
24.10548
28.19351
32.17958
35.62304
38.33641
40.22473
41.11893
40.74844
38.83814
35.31483
30.34821
24.37701
17.95924
11.60392
5.662327
0.2960701
-4.520729
-8.938896
-13.19831
-17.57312
-22.2646
-27.29887
-32.48722
-37.42287
-41.64912
-44.84159
-46.98645
-48.39031
-49.60606
-51.25576
-53.86171
-57.69613
-62.59814
-67.82474
-72.03113
-73.43282
-70.26237
-61.37685
-46.7713
-27.71616
-6.447048
14.52027
33.03667
47.76318
58.20137
64.42737
66.79405
65.73557
61.74523
55.51357
47.94117
40.09059
33.0462
27.68799
24.56948
23.80849
25.11325
27.90217
31.4822
35.19165
38.47422
40.92353
42.27608
42.35941
41.09852
38.48771
34.64497
29.74646
24.02729
17.74089
11.16343
4.594238
-1.646713
-7.309616
-12.31105
-16.776
-21.01797
-25.35529
-29.9407
-34.6757
-39.27936
-43.42874
-46.92741
-49.77908
-52.13383
-54.27509
-56.53699
-59.2812
-62.89397
-67.59408
-73.2031
-78.78752
-82.66843
-82.76328
-77.24652
-65.29819
-47.46342
-25.62402
-2.386803
19.63831
38.45208
52.97443
62.9423
68.64298
70.58372
69.34725
65.55047
59.93164
53.37671
46.86966
41.36988
37.60828
35.93262
36.24803
38.14487
41.03497
44.3605
47.67532
50.63219
52.90656
54.11917
53.93562
52.11825
48.67164
43.92979
38.4142
32.73409
27.38525
22.60355
18.34969
14.39768
10.50609
6.560249
2.665024
-0.9367027
-3.966064
-6.265114
-7.919312
-9.216969
-10.52854
-12.13293
-14.16489
-16.524
-19.03537
-21.54092
-24.05948
-26.79722
-30.09347
-34.24173
-39.2743
-44.94254
-50.70084
-55.99541
-60.41127
-63.89108
-66.76145
-69.55409
-72.90932
-77.32378
-83.01094
-89.64207
-96.20583
-100.9681
-101.7463
-96.51537
-84.14021
-64.94371
-40.78813
-14.59612
10.54014
32.12661
48.78495
60.25794
67.02553
69.89905
69.68764
67.12095
62.92738
57.91941
52.92122
48.7174
45.85787
44.58407
44.80182
46.14838
48.1635
50.45491
52.76017
54.92955
56.82761
58.21922
58.74722
58.02579
55.79728
52.07121
47.1561
41.589
35.9739
30.78804
26.28749
22.42553
18.96033
15.60841
12.15911
8.583195
5.103271
2.064186
-0.2533226
-1.781738
-2.775719
-3.718102
-5.139709
-7.376614
-10.4604
-14.09464
-17.82529
-21.26707
-24.21741
-26.74074
-29.09788
-31.66443
-34.77831
-38.65343
-43.27785
-48.42263
-53.7032
-58.6414
-62.91248
-66.40369
-69.34656
-72.22778
-75.64308
-80.0331
-85.37416
-90.9456
-95.22295
-96.21942
-91.95697
-81.18912
-63.95889
-41.7346
-17.07174
7.128593
28.41871
45.30317
57.29664
64.63953
67.9181
67.812
65.01266
60.31695
54.68889
49.14832
44.58698
41.56294
40.21631
40.31979
41.49741
43.36403
45.65355
48.20422
50.83501
53.27915
55.15224
56.02111
55.55655
53.61821
50.33945
46.05355
41.18153
36.11392
31.14926
26.47943
22.2023
18.33303
14.84742
11.64191
8.619927
5.730939
2.991819
0.55775
-1.408947
-2.842975
-3.87055
-4.825322
-6.136877
-8.131886
-10.85657
-14.06033
-17.2944
-20.15822
-22.52965
-24.64339
-26.98773
-30.11486
-34.31781
-39.52014
-45.27547
-50.94802
-55.95494
-59.94437
-62.93772
-65.25353
-67.51069
-70.37753
-74.41103
-79.74269
-85.79428
-91.18834
-93.88576
-91.76503
-83.31319
-68.30475
-47.96983
-24.70386
-1.31461
19.75207
36.9379
49.6585
58.00504
62.39872
63.2795
61.16178
56.69389
50.75634
44.4259
38.74733
34.53672
32.22076
31.83118
33.08366
35.52833
38.69898
42.10942
45.37328
48.1175
50.06587
50.99076
50.75072
49.27637
46.55615
42.70789
37.94024
32.59314
27.07022
21.75142
16.88647
12.59751
8.868242
5.606617
2.7029
0.04153824
-2.460476
-4.883614
-7.265118
-9.615891
-11.89591
-14.06368
-16.07562
-17.98253
-19.91046
-22.04335
-24.58064
-27.65518
-31.27407
-35.27019
-39.36624
-43.21593
-46.54322
-49.22858
-51.39197
-53.40328
-55.79635
-59.10173
-63.62795
-69.23061
-75.10764
-79.79716
-81.42094
-78.2028
-69.08698
-54.18671
-34.87394
-13.43944
7.566193
26.03046
40.71086
51.23044
57.82308
60.91156
60.88423
58.07837
52.93797
46.20949
38.93127
32.25521
27.1547
24.19705
23.42741
24.44867
26.66404
29.5057
32.61636
35.80508
38.91934
41.70926
43.73206
44.44942
43.44776
40.61434
36.23048
30.91116
25.36113
20.15067
15.56013
11.49896
7.643288
3.62579
-0.7624626
-5.451511
-10.13869
-14.41668
-17.99549
-20.78735
-23.02011
-25.09299
-27.42415
-30.26496
-33.648
-37.39915
-41.22625
-44.87447
-48.11572
-50.91961
-53.43479
-56.00113
-59.1171
-63.27676
-68.64217
-74.73553
-80.31328
-83.47128
-82.20445
-75.03674
-61.65215
-43.11074
-21.56968
0.3875122
20.4612
37.13858
49.80144
58.47416
63.45322
65.0705
63.61566
59.49469
53.37605
46.26733
39.29682
33.50276
29.55769
27.64756
27.55877
28.79099
30.86309
33.41143
36.21945
39.12184
41.87869
44.07916
45.17625
44.70294
42.43583
38.53267
33.491
27.9704
22.57089
17.64797
13.24738
9.171902
5.155708
0.9938545
-3.352245
-7.76915
-12.02458
-15.87283
-19.12518
-21.7239
-23.82821
-25.75377
-27.95989
-30.84554
-34.61607
-39.17875
-44.12413
-48.89605
-53.04461
-56.38522
-59.09703
-61.67732
-64.76756
-68.92914
-74.43993
-81.03339
-87.75483
-92.94807
-94.48897
-90.38257
-79.42851
-61.80737
-39.15656
-14.18028
10.13753
31.37695
48.15829
60.14437
67.71114
71.44772
71.8765
69.44563
64.6736
58.33831
51.46037
45.1427
40.35098
37.62197
37.02971
38.23901
40.65844
43.69122
46.83927
49.77276
52.25097
54.0484
54.8655
54.39621
52.40182
48.83366
43.91376
38.06575
31.85928
25.80105
20.29492
15.49441
11.32495
7.529275
3.77939
-0.1785268
-4.417744
-8.793547
-13.00858
-16.72926
-19.76481
-22.14808
-24.15744
-26.24106
-28.80943
-32.12343
-36.18258
-40.71765
-45.34335
-49.67508
-53.48018
-56.73244
-59.63314
-62.5668
-66.03204
-70.49767
-76.17738
-82.75453
-89.1039
-93.33273
-93.17304
-86.72251
-73.21541
-53.39903
-29.43922
-4.245933
19.3656
39.33532
54.65566
65.18696
71.3052
73.55689
72.49988
68.71674
62.90074
55.93623
48.84731
42.65717
38.15856
35.7762
35.49452
36.91909
39.4827
42.61964
45.91035
49.05049
51.76683
53.73378
54.59246
54.03588
51.91901
48.33916
43.57358
38.05291
32.19406
26.37567
20.86843
15.83053
11.28626
7.130148
3.183987
-0.7640076
-4.810297
-8.893093
-12.7791
-16.1482
-18.77096
-20.56423
-21.75156
-22.76756
-24.17755
-26.43605
-29.7469
-34.00996
-38.79076
-43.56343
-47.8279
-51.32365
-54.08995
-56.46033
-58.94938
-62.06643
-66.19736
-71.39697
-77.23385
-82.63057
-85.93923
-85.25266
-78.94587
-66.29808
-47.8624
-25.47213
-1.716251
20.74315
39.83598
54.4345
64.24973
69.5673
70.84643
68.64146
63.57878
56.47078
48.38983
40.49143
33.83391
29.14949
26.72907
26.4473
27.9169
30.66077
34.204
38.12141
42.00238
45.41961
47.93217
49.15163
48.77348
46.66864
42.93587
37.89375
32.04822
25.99149
20.24862
15.12278
10.64884
6.604764
2.63465
-1.503405
-5.89183
-10.36917
-14.61885
-18.34709
-21.38138
-23.76962
-25.77201
-27.79689
-30.24991
-33.41595
-37.32773
-41.72647
-46.17299
-50.18548
-53.45411
-55.95494
-57.96255
-59.97189
-62.57869
-66.31114
-71.44084
-77.77918
-84.43868
-89.81797
-91.83158
-88.49158
-78.55872
-62.11202
-40.59058
-16.47211
7.504145
29.02626
46.65187
59.79876
68.54389
73.24352
74.32274
72.26018
67.62021
61.1488
53.73761
46.39005
40.04227
35.47007
33.13024
33.09681
35.05555
38.42631
42.51078
46.62058
50.21165
52.84011
54.19918
54.07478
52.38188
49.20451
44.84148
39.71539
34.2806
28.8651
23.63236
18.5872
13.69666
8.97
4.494538
0.3584242
-3.377334
-6.738721
-9.823413
-12.72432
-15.497
-18.10054
-20.50081
-22.71398
-24.90205
-27.33281
-30.29617
-33.95358
-38.26097
-42.96623
-47.65186
-51.9538
-55.61294
-58.66467
-61.36852
-64.16866
-67.59323
-72.10254
-77.88271
-84.52798
-90.88102
-95.00327
-94.65668
-87.94643
-74.13106
-54.02664
-29.86214
-4.651955
18.73397
38.2709
53.09277
63.19741
69.0623
71.21782
70.1524
66.37093
60.58938
53.76291
46.97212
41.21199
37.16609
35.113
34.97363
36.42169
39.03733
42.39104
46.07553
49.69813
52.84281
55.0705
55.96931
55.24438
52.80077
48.83495
43.79467
38.29111
32.8989
27.96187
23.54239
19.43453
15.35416
11.09669
6.665652
2.28364
-1.800632
-5.377771
-8.428083
-11.06391
-13.48953
-15.87055
-18.26365
-20.65115
-22.92754
-25.06944
-27.1691
-29.46372
-32.22461
-35.65195
-39.73856
-44.21228
-48.67896
-52.71706
-56.11486
-58.92923
-61.49684
-64.30998
-67.89502
-72.64732
-78.60011
-85.26488
-91.43468
-95.26253
-94.66649
-87.91444
-74.33789
-54.6796
-30.99446
-6.069849
17.3356
37.17296
52.37191
62.70753
68.51459
70.34164
68.82399
64.6694
58.72761
51.94006
45.26194
39.52272
35.30387
32.89997
32.33193
33.4068
35.77824
39.02551
42.66437
46.21033
49.21695
51.30662
52.19876
51.73551
49.90814
46.87652
42.8857
38.22955
33.16727
27.89555
22.57012
17.32393
12.328
7.743491
3.709438
0.2698469
-2.645779
-5.195918
-7.55002
-9.837378
-12.11675
-14.37395
-16.57701
-18.66482
-20.64233
-22.58339
-24.63645
-27.02689
-29.98058
-33.60677
-37.83364
-42.35997
-46.72402
-50.49728
-53.46857
-55.78352
-57.92149
-60.56201
-64.29828
-69.34267
-75.26921
-80.90287
-84.44467
-83.90038
-77.69905
-65.2708
-47.36728
-25.90011
-3.419638
17.55976
35.19287
48.53017
57.42919
62.19331
63.28039
61.16054
56.38062
49.66186
41.96104
34.37401
27.95373
23.49393
21.36682
21.47785
23.40453
26.5515
30.34205
34.29597
38.10366
41.47573
44.09994
45.62186
45.6838
44.05605
40.73996
36.06241
30.55898
24.88095
19.5182
14.6817
10.26219
5.942601
1.41534
-3.433889
-8.38892
-13.02728
-16.89159
-19.77549
-21.82684
-23.51469
-25.40345
-27.89812
-31.08619
-34.69377
-38.27827
-41.4129
-43.91349
-45.89043
-47.67651
-49.79319
-52.73591
-56.85637
-62.16085
-68.10007
-73.42658
-76.36806
-75.04659
-68.08395
-55.17604
-37.27777
-16.41344
4.952619
24.5518
40.81734
52.99948
60.97976
64.97213
65.28882
62.35545
56.74368
49.28031
41.0154
33.07258
26.46987
21.9223
19.76556
19.9268
22.05323
25.60434
29.95148
34.47223
38.5768
41.74052
43.55748
43.73365
42.14294
38.87214
34.22633
28.65873
22.68501
16.70368
10.91281
5.301416
-0.246212
-5.783593
-11.16193
-16.08437
-20.22012
-23.44278
-25.91061
-28.07537
-30.43432
-33.33599
-36.81506
-40.63213
-44.40975
-47.86664
-50.91101
-53.64036
-56.31842
-59.29998
-62.98586
-67.67648
-73.34344
-79.3357
-84.20747
-85.9476
-82.53383
-72.67747
-56.42871
-35.30511
-11.86018
11.10449
31.31319
47.47581
59.23676
66.84668
70.77641
71.43886
69.23637
64.64203
58.38958
51.45103
44.88573
39.64268
36.32382
35.08068
35.62396
37.46041
40.02424
42.91358
45.85351
48.60143
50.8204
52.02155
51.67991
49.38397
45.13021
39.33094
32.73997
26.16827
20.20834
15.05674
10.48889
6.045147
1.317158
-3.85511
-9.314499
-14.64882
-19.39597
-23.304
-26.42829
-29.12306
-31.89329
-35.10706
-38.86967
-42.97302
-47.05887
-50.78028
-54.03831
-56.96638
-59.92354
-63.32895
-67.55479
-72.8493
-79.20888
-86.22098
-92.8292
-97.34476
-97.68982
-92.00894
-79.36561
-60.23799
-36.52711
-11.00702
13.4468
34.59134
51.19553
62.99046
70.32085
73.81415
74.14427
71.96223
67.96118
62.88889
57.53433
52.65416
48.87482
46.55404
45.77288
46.34679
47.89841
50.02181
52.37011
54.67549
56.69634
58.16919
58.72545
57.98849
55.72803
51.90757
46.79047
40.8395
34.60651
28.54827
22.95554
17.88805
13.27937
9.016918
5.014912
1.319153
-2.006615
-4.904263
-7.412922
-9.708199
-11.99962
-14.39118
-16.85794
-19.27011
-21.46674
-23.48387
-25.57343
-28.17627
-31.70077
-36.34133
-41.91136
-47.88121
-53.62951
-58.61168
-62.6472
-65.95959
-69.07915
-72.67873
-77.37054
-83.38167
-90.25581
-96.74174
-100.8078
-100.1676
-92.97266
-78.55854
-57.84245
-33.17282
-7.605873
16.05158
35.88716
51.11292
61.77629
68.31444
71.18074
70.78195
67.58919
62.30522
55.93686
49.60554
44.31706
40.77597
39.2257
39.52192
41.23063
43.78255
46.68734
49.5973
52.2977
54.58714
56.19614
56.76115
55.90192
53.44433
49.51464
44.54277
39.13892
33.86605
29.06328
24.80026
20.93561
17.25327
13.6066
9.978962
6.467949
3.207912
0.3138046
-2.19849
-4.360485
-6.339403
-8.335012
-10.50588
-12.9563
-15.64403
-18.43814
-21.16466
-23.73869
-26.21416
-28.85462
-32.01626
-35.93045
-40.63356
-45.85547
-51.05849
-55.71975
-59.52906
-62.5014
-65.0208
-67.67679
-71.05555
-75.5863
-81.31849
-87.69244
-93.46491
-96.78907
-95.57871
-88.14197
-73.84499
-53.48034
-29.1945
-3.878906
19.655
39.35243
54.2306
64.22562
69.79502
71.53647
70.03318
65.82632
59.59679
52.28719
44.99252
38.8226
34.6524
32.88727
33.39848
35.67913
38.98441
42.63229
46.1209
49.14992
51.51635
53.0453
53.48364
52.57729
50.22863
46.55017
41.87191
36.62212
31.17614
25.7758
20.54045
15.51441
10.76318
6.34726
2.286586
-1.41816
-4.860032
-8.11117
-11.19058
-13.98378
-16.36958
-18.2445
-19.66018
-20.8918
-22.33112
-24.38298
-27.2906
-31.04757
-35.35763
-39.78328
-43.86741
-47.26357
-49.88945
-51.92479
-53.76439
-55.95008
-59.04479
-63.3714
-68.7955
-74.46577
-78.7646
-79.67495
-75.37244
-64.91557
-48.70353
-28.42303
-6.561822
14.3499
32.36769
46.4279
56.21481
61.85661
63.64286
61.96273
57.3451
50.59081
42.8023
35.18914
28.87125
24.6256
22.72615
22.97318
24.82082
27.6003
30.75294
33.91211
36.85357
39.38605
41.21469
41.96031
41.24368
38.87991
35.02478
30.16578
24.97339
20.06006
15.75494
12.01612
8.51544
4.803129
0.561758
-4.227074
-9.27742
-14.07168
-18.15527
-21.29364
-23.65505
-25.71867
-28.03745
-30.9767
-34.55265
-38.46114
-42.25011
-45.58829
-48.35778
-50.70184
-52.9552
-55.49079
-58.67863
-62.77085
-67.76723
-73.17519
-77.90594
-80.27569
-78.3952
-70.84497
-57.25691
-38.64793
-17.17997
4.516867
24.12962
40.15855
52.06485
59.97573
64.23132
65.116
62.81665
57.63176
50.2459
41.75042
33.49986
26.76301
22.41175
20.74007
21.52117
24.14022
27.85958
32.03696
36.15675
39.86069
42.8135
44.67113
45.07968
43.79877
40.75685
36.17788
30.56376
24.54741
18.71833
13.37597
8.458332
3.617903
-1.507793
-7.068808
-12.84026
-18.25597
-22.70646
-25.821
-27.7023
-28.93768
-30.34633
-32.62108
-36.05587
-40.4366
-45.16741
-49.58997
-53.24096
-56.04549
-58.31659
-60.63379
-63.65966
-67.93213
-73.65669
-80.4736
-87.30363
-92.36924
-93.53889
-88.90308
-77.46084
-59.56522
-36.95448
-12.29229
11.57765
32.31877
48.56038
59.90625
66.64514
69.44154
69.02702
66.09808
61.33436
55.47416
49.31886
43.69906
39.39221
36.95433
36.59835
38.17292
41.17736
44.94668
48.83439
52.33386
55.07561
56.82068
57.34129
56.41911
53.89098
49.73666
44.13795
37.53501
30.52636
23.73359
17.67734
12.57845
8.359898
4.692743
1.117161
-2.72756
-6.95418
-11.38734
-15.61088
-19.20428
-21.93653
-23.92498
-25.60362
-27.5822
-30.40608
-34.33004
-39.24359
-44.68466
-50.07545
-54.91896
-58.98326
-62.30062
-65.22223
-68.27602
-72.05056
-77.01109
-83.20362
-90.00465
-95.98043
-99.03683
-96.90752
-87.98196
-71.91028
-49.92933
-24.54994
1.215279
24.66949
44.05643
58.69074
68.65335
74.40044
76.42076
75.20903
71.35413
65.69014
59.28968
53.27812
48.57793
45.71437
44.72771
45.29729
46.95123
49.1986
51.69435
54.19408
56.50524
58.37248
59.44896
59.3394
57.71483
54.45671
49.69336
43.85229
37.50411
31.24999
25.51225
20.47125
16.07844
12.13991
8.511086
5.125706
2.037464
-0.7136002
-3.146595
-5.412109
-7.742779
-10.3205
-13.18826
-16.21688
-19.17151
-21.84695
-24.24806
-26.59253
-29.25185
-32.59843
-36.7924
-41.73654
-47.05733
-52.26039
-56.90483
-60.75533
-63.90765
-66.77913
-70.01308
-74.28537
-79.99441
-86.8416
-93.65355
-98.43665
-98.81327
-92.78519
-79.46957
-59.56308
-35.13058
-9.12817
15.58418
36.82072
53.42186
65.12975
72.22694
75.17025
74.45206
70.71168
64.79614
57.8476
51.11816
45.6905
42.24607
40.95912
41.53776
43.44812
46.13097
49.14208
52.18361
54.99788
57.27648
58.62904
58.65442
57.08009
53.8912
49.40152
44.14793
38.7492
33.68026
29.12164
24.96942
20.91133
16.66557
12.12637
7.4737
3.040684
-0.7619915
-3.693226
-5.819191
-7.407717
-8.887934
-10.61509
-12.74576
-15.19971
-17.79777
-20.32097
-22.66658
-24.90073
-27.19915
-29.83699
-33.06259
-36.98256
-41.52245
-46.41175
-51.23311
-55.54344
-59.07903
-61.87042
-64.33371
-67.15446
-71.08231
-76.55025
-83.32922
-90.28
-95.43889
-96.48122
-91.40316
-79.27164
-60.61176
-37.3837
-12.36924
11.58349
32.25902
48.40726
59.68967
66.35169
68.90028
67.91212
64.03397
58.06872
50.96943
43.78147
37.48193
32.84266
30.29514
29.91433
31.43389
34.33154
38.00628
41.83893
45.34499
48.20865
50.23813
51.29582
51.19561
49.75881
46.8269
42.46256
36.96387
30.85674
24.7163
19.02594
14.00936
9.667604
5.885481
2.505285
-0.5591879
-3.358995
-5.926358
-8.349779
-10.7053
-13.02259
-15.24116
-17.25899
-19.04983
-20.72062
-22.53629
-24.78796
-27.69495
-31.26329
-35.26478
-39.38416
-43.29251
-46.81853
-49.94373
-52.83181
-55.73547
-59.00187
-62.92901
-67.68327
-73.02033
-78.07542
-81.37944
-81.085
-75.55205
-63.97887
-46.83422
-25.79837
-3.345989
17.98751
36.24441
50.3026
59.84547
65.10046
66.50353
64.51725
59.67624
52.67646
44.43785
36.13937
28.97441
23.916
21.50838
21.7219
24.03095
27.65375
31.81964
35.92205
39.60899
42.633
44.76664
45.74614
45.31581
43.33789
39.91562
35.36599
30.13775
24.73283
19.50389
14.69045
10.41599
6.689728
3.456753
0.5950966
-2.11393
-4.869732
-7.796032
-10.91921
-14.09723
-17.11289
-19.75914
-21.95704
-23.7909
-25.52809
-27.53579
-30.13189
-33.52811
-37.70997
-42.48461
-47.47006
-52.24858
-56.45533
-59.91876
-62.75931
-65.37732
-68.41422
-72.50111
-77.96761
-84.48595
-90.86292
-95.14697
-95.11137
-88.9361
-75.87352
-56.66653
-33.34029
-8.639336
14.76071
34.87118
50.61584
61.72711
68.40279
71.04114
70.1226
66.27504
60.35752
53.43569
46.64258
40.92942
36.92233
34.82277
34.51992
35.70599
38.01563
41.12007
44.68504
48.35249
51.68959
54.18388
55.371
54.93639
52.81001
49.24001
44.71401
39.73353
34.72353
29.85049
25.06315
20.21539
15.24825
10.30758
5.689655
1.720621
-1.460173
-3.968708
-6.137281
-8.344051
-10.81459
-13.56179
-16.40248
-19.11428
-21.57644
-23.89363
-26.32478
-29.19313
-32.7368
-37.01976
-41.8984
-47.09653
-52.22207
-56.95547
-61.11799
-64.74488
-68.12638
-71.74745
-76.14365
-81.7168
-88.35458
-95.15476
-100.3817
-101.7599
-97.14123
-85.28522
-66.42317
-42.32157
-15.8102
10.05009
32.77438
50.87609
63.85274
71.89053
75.47946
75.19917
71.73244
65.90946
58.76504
51.42867
44.9599
40.14742
37.3916
36.66535
37.68271
40.00374
43.2129
46.9665
50.93763
54.78713
58.10688
60.4094
61.21536
60.23476
57.43495
53.09256
47.69643
41.79037
35.86278
30.19535
24.86989
19.80673
14.89007
10.12201
5.650408
1.70984
-1.5129
-4.015038
-6.014004
