5.101807
11.48689
15.90715
18.46219
19.41225
19.09059
17.80389
15.84624
13.44974
10.8204
8.166046
5.735123
3.830063
2.776215
2.873215
4.279037
6.971527
10.72592
15.14766
19.67313
23.64902
26.46049
27.65813
27.13324
25.12184
22.18886
18.99974
16.08702
13.70018
11.78644
10.13235
8.520645
6.878952
5.276245
3.879608
2.814987
2.118591
1.745117
1.579117
1.51915
1.476318
1.36496
1.083069
0.5228882
-0.4112549
-1.772903
-3.516296
-5.488708
-7.434647
-9.102966
-10.33105
-11.12621
-11.66985
-12.21965
-13.02438
-14.20305
-15.75864
-17.64285
-19.77968
-22.16319
-24.78212
-27.58282
-30.4072
-32.99808
-34.97775
-35.95552
-35.58664
-33.60437
-29.91316
-24.60393
-18.03287
-10.77644
-3.57753
2.837494
7.899811
11.37022
13.36014
14.27008
14.65376
14.96658
15.47781
16.18948
16.91844
17.42282
17.5381
17.24826
16.6745
16.00212
15.42267
15.07286
15.05421
15.43384
16.2498
17.47218
18.95091
20.36412
21.31055
21.43037
20.55331
18.77885
16.42979
13.89023
11.46294
9.287048
7.349899
5.599121
4.018143
2.656586
1.56868
0.7480469
0.1040344
-0.4827576
-1.100098
-1.728638
-2.267456
-2.630188
-2.828522
-3.004745
-3.390503
-4.186646
-5.456543
-7.094009
-8.879761
-10.60242
-12.12852
-13.48578
-14.7415
-15.99411
-17.27426
-18.61214
-20.08595
-21.86888
-24.13869
-26.95197
-30.04858
-32.78391
-34.25859
-33.58296
-30.23883
-24.31956
-16.5571
-8.112289
-0.1941376
6.279282
10.89851
13.72729
15.14258
15.55569
15.24129
14.33142
12.88484
11.0378
9.041519
7.250946
5.98465
5.397232
5.446243
5.907196
6.544373
7.198532
7.849319
8.56424
9.416504
10.36772
11.28412
11.95044
12.17096
11.84695
11.0076
9.804565
8.448792
7.135269
5.987091
5.00737
4.075119
3.015915
1.669983
0.0004272461
-1.883453
-3.721115
-5.258835
-6.328522
-6.924667
-7.219467
-7.460663
-7.921936
-8.777435
-10.08495
-11.78354
-13.73489
-15.7719
-17.73326
-19.54395
-21.23967
-22.98961
-25.0549
-27.68544
-31.00095
-34.85619
-38.78615
-42.03029
-43.73257
-43.14546
-39.89903
-34.11964
-26.43085
-17.7661
-9.120911
-1.31871
5.12532
10.00351
13.33205
15.23685
15.90759
15.60681
14.63898
13.35597
12.08617
11.08578
10.51254
10.43146
10.81287
11.58817
12.69034
14.02141
15.4917
16.99692
18.37386
19.44972
20.04771
20.06206
19.48315
18.42366
17.04866
15.54164
14.00198
12.45078
10.88785
9.337402
7.875793
6.589699
5.499245
4.518929
3.54187
2.463631
1.278633
0.09741974
-0.9692154
-1.874443
-2.68766
-3.559013
-4.645943
-6.014023
-7.686516
-9.663445
-11.94386
-14.54304
-17.42971
-20.4819
-23.50439
-26.30014
-28.76071
-30.97305
-33.16547
-35.66018
-38.72041
-42.42401
-46.52225
-50.38699
-53.1086
-53.65168
-51.21159
-45.49365
-36.89808
-26.40961
-15.32473
-4.866642
4.087418
11.1271
16.20218
19.46222
21.15219
21.55804
21.03079
19.97725
18.8027
17.83409
17.26434
17.16757
17.51579
18.27199
19.3826
20.7738
22.34652
23.98342
25.57959
27.04935
28.34218
29.38678
30.09418
30.37553
30.1521
29.42099
28.24794
26.79652
25.20714
23.57603
21.93401
20.27259
18.63105
17.07321
15.70024
14.56179
13.62764
12.7694
11.82226
10.6786
9.373924
8.029922
6.748718
5.557182
4.329742
2.894627
1.155224
-0.8338585
-2.91576
-4.911118
-6.765129
-8.582954
-10.56511
-12.92409
-15.76775
-19.0587
-22.63358
-26.26861
-29.76077
-32.93942
-35.73022
-38.17022
-40.44792
-42.91658
-45.9862
-50.00508
-55.0441
-60.70451
-66.02953
-69.65359
-70.12845
-66.41828
-58.30876
-46.50864
-32.48244
-17.94509
-4.429276
7.052643
16.04486
22.52066
26.68193
28.86714
29.49895
29.08362
28.16483
27.18573
26.44553
26.04716
26.01212
26.34648
27.08141
28.2769
29.91582
31.91315
34.08849
36.24464
38.19937
39.81021
40.93985
41.47327
41.33035
40.47932
38.99541
37.04436
34.80559
32.46129
30.12274
27.83961
25.64603
23.57118
21.68872
20.09427
18.84578
17.94499
17.30847
16.78822
16.21732
15.47365
14.48663
13.26852
11.88165
10.41685
8.922745
7.403244
5.779724
3.932632
1.801208
-0.5989838
-3.136505
-5.649307
-8.027817
-10.29706
-12.62903
-15.24188
-18.30174
-21.78844
-25.58073
-29.45444
-33.22578
-36.76663
-40.07771
-43.24539
-46.49066
-50.11209
-54.41727
-59.60349
-65.49646
-71.41107
-76.15094
-78.22845
-76.32303
-69.68152
-58.43738
-43.59753
-26.79782
-9.884583
5.519287
18.29468
27.92435
34.41501
38.12619
39.5593
39.28104
37.82159
35.72131
33.42648
31.30939
29.63275
28.49969
27.94168
27.96457
28.6626
30.151
32.50977
35.61914
39.11685
42.47009
45.11871
46.70599
47.14362
46.59857
45.34827
43.61487
41.49692
39.01605
36.21262
33.20782
30.22812
27.50598
25.17105
23.19818
21.42154
19.6434
17.7345
15.69818
13.6467
11.74799
10.12091
8.7836
7.674927
6.685242
5.711121
4.681396
3.52356
2.183868
0.6421509
-1.094421
-2.982483
-4.999146
-7.207001
-9.799957
-12.97534
-16.86368
-21.36057
-26.10889
-30.63861
-34.54272
-37.67953
-40.22351
-42.63925
-45.48883
-49.27664
-54.22794
-60.1535
-66.30951
-71.41071
-73.8801
-72.2731
-65.7645
-54.50116
-39.62247
-22.94748
-6.447388
8.25412
20.19397
29.06473
35.03448
38.49866
39.88647
39.57556
37.93146
35.3342
32.24722
29.17624
26.6488
25.08688
24.70581
25.5043
27.25043
29.64743
32.39853
35.2644
38.02997
40.46393
42.31351
43.2916
43.2085
42.04282
39.99091
37.38107
34.57605
31.84268
29.29025
26.90509
24.6098
22.36694
20.16779
18.00946
15.87665
13.70316
11.42627
9.07843
6.805817
4.812744
3.287628
2.191925
1.2854
0.2263794
-1.301178
-3.392517
-5.898651
-8.534729
-11.03296
-13.28915
-15.41159
-17.63858
-20.16711
-23.09061
-26.36044
-29.85336
-33.41284
-36.93033
-40.33069
-43.59259
-46.73529
-49.86459
-53.2092
-57.0954
-61.78195
-67.21893
-72.79117
-77.29443
-79.15466
-76.91608
-69.77963
-57.98654
-42.76093
-25.97949
-9.54306
5.098846
17.1926
26.55435
33.32471
37.73605
39.98538
40.33948
39.20319
37.13513
34.72894
32.50104
30.77365
29.63663
29.10321
29.14908
29.77322
31.00037
32.79385
35.00635
37.38046
39.60413
41.33679
42.3082
42.383
41.56369
40.00607
37.94748
35.6282
33.21844
30.7803
28.31747
25.81915
23.30957
20.87323
18.60489
16.54117
14.65067
12.84836
11.06119
9.302032
7.638733
6.170135
4.927338
3.826447
2.682953
1.305481
-0.4367065
-2.527557
-4.809692
-7.113617
-9.302948
-11.3548
-13.35391
-15.44424
-17.75366
-20.39145
-23.40967
-26.78558
-30.44916
-34.22665
-37.89542
-41.23526
-44.11252
-46.57587
-48.89133
-51.50873
-54.91217
-59.4187
-64.90009
-70.62921
-75.3262
-77.38843
-75.41241
-68.60263
-57.14667
-42.16513
-25.42703
-8.828217
6.048309
18.19531
27.24261
33.25882
36.59119
37.70319
37.13904
35.44308
33.18811
30.86945
28.87708
27.4527
26.68179
26.5148
26.83337
27.52768
28.55908
29.98486
31.88742
34.24591
36.83456
39.20554
40.83221
41.2908
40.48163
38.63535
36.22479
33.69992
31.29504
29.00684
26.69226
24.25119
21.73093
19.32266
17.19403
15.41672
13.87866
12.38879
10.81012
9.144318
7.525696
6.11261
4.957947
3.933319
2.793915
1.294067
-0.6509399
-2.972992
-5.46875
-7.941833
-10.25546
-12.40698
-14.48047
-16.60355
-18.88812
-21.43964
-24.31708
-27.52768
-30.99112
-34.5325
-37.95505
-41.12674
-44.05521
-46.92749
-50.07782
-53.84128
-58.43106
-63.74374
-69.22839
-73.88373
-76.36356
-75.34775
-69.90674
-59.89896
-46.08368
-29.96066
-13.36609
2.042603
15.12857
25.34625
32.6463
37.23096
39.41223
39.56039
38.12497
35.63889
32.67386
29.7644
27.31543
25.5686
24.62402
24.49811
25.12787
26.4379
28.30786
30.58243
33.04324
35.41129
37.42188
38.84467
39.53351
39.46149
38.68533
37.2886
35.36975
32.99918
30.26523
27.32376
24.34213
21.51221
18.96353
16.72815
14.72696
12.86374
11.07758
9.351929
7.738647
6.289734
5.017365
3.861481
2.683807
1.332977
-0.33078
-2.357666
-4.679718
-7.125671
-9.472992
-11.55197
-13.34183
-14.98413
-16.75525
-18.94272
-21.72626
-25.11386
-28.91428
-32.83597
-36.57999
-39.95474
-42.91913
-45.61426
-48.36081
-51.56912
-55.62573
-60.68622
-66.42325
-71.94653
-75.83353
-76.49753
-72.68262
-63.89087
-50.62491
-34.26654
-16.70923
0.1520996
14.82306
26.41742
34.67429
39.77158
42.15808
42.36557
40.93616
38.33002
34.98624
31.29919
27.66956
24.50876
22.15112
20.81799
20.57806
21.34082
22.92743
25.14987
27.82285
30.7449
33.66373
36.25534
38.13559
39.0061
38.66724
37.1796
34.80899
31.96783
29.03955
26.30383
23.83478
21.53558
19.25266
16.85876
14.32864
11.76846
9.332794
7.16098
5.333496
3.820221
2.488342
1.192169
-0.213562
-1.852295
-3.721252
-5.742523
-7.762573
-9.622559
-11.24466
-12.7222
-14.28125
-16.23621
-18.8342
-22.13855
-25.96143
-29.95486
-33.71036
-36.93161
-39.55838
-41.74872
-43.89374
-46.47888
-49.94135
-54.50443
-59.96149
-65.5275
-69.88614
-71.43399
-68.77744
-61.19522
-49.00076
-33.47375
-16.52322
-0.1312256
14.1503
25.41907
33.39044
38.22668
40.28873
40.03491
37.95697
34.60764
30.57089
26.4079
22.5925
19.49878
17.40915
16.49002
16.7916
18.23029
20.58914
23.5542
26.76523
29.85794
32.521
34.52255
35.66229
35.8378
35.02594
33.35663
31.1091
28.64767
26.32968
24.36655
22.78818
21.40598
19.9917
18.32303
16.32913
14.07779
11.7002
9.335388
6.985474
4.560913
1.892792
-1.10907
-4.376495
-7.69931
-10.76645
-13.36398
-15.46898
-17.30499
-19.21964
-21.54466
-24.42332
-27.71574
-31.14078
-34.37714
-37.25215
-39.82193
-42.40158
-45.42473
-49.33926
-54.40768
-60.49951
-66.96823
-72.59969
-75.87502
-75.30736
-69.95108
-59.71909
-45.47232
-28.8196
-11.6516
4.300095
17.80002
28.20355
35.39311
39.62856
41.36223
41.10881
39.41165
36.79709
33.76727
30.79715
28.28955
26.5314
25.66562
25.68069
26.4407
27.76563
29.48218
31.43616
33.50714
35.56396
37.43439
38.90634
39.75626
39.79294
38.9072
37.13245
34.63025
31.68906
28.65057
25.75955
23.14767
20.73401
18.33258
15.78725
13.06781
10.30914
7.739395
5.541794
3.748199
2.218628
0.7059937
-1.018082
-3.063416
-5.370789
-7.74205
-9.914246
-11.7067
-13.14377
-14.47859
-16.13849
-18.53268
-21.86772
-26.01456
-30.56902
-34.99446
-38.85941
-42.02214
-44.65143
-47.16507
-50.09833
-53.91879
-58.89667
-64.93477
-71.41261
-77.14961
-80.54253
-79.9549
-74.23978
-63.21515
-47.83081
-29.92111
-11.67381
4.952545
18.66258
28.89445
35.69165
39.42023
40.62122
39.92641
38.02425
35.61369
33.29601
31.44646
30.18076
29.39867
28.93826
28.73676
28.8517
29.39989
30.48668
32.08382
34.05217
36.12866
38.03055
39.47685
40.20784
40.03951
38.88536
36.82941
34.11624
31.13472
28.28709
25.86523
23.91086
22.23412
20.49486
18.36591
15.7872
12.93138
10.16682
7.852814
6.144302
4.922806
3.841064
2.542114
0.8004761
-1.347778
-3.710724
-6.039154
-8.177765
-10.1257
-12.03052
-14.12354
-16.64621
-19.77721
-23.56201
-27.87535
-32.399
-36.75423
-40.59253
-43.76056
-46.36086
-48.72197
-51.32388
-54.63148
-58.97195
-64.30849
-70.11806
-75.33017
-78.46602
-77.96002
-72.67055
-62.32468
-47.69777
-30.46486
-12.71754
3.605942
17.16684
27.38579
34.32178
38.42731
40.27148
40.40796
39.31148
37.39642
35.01587
32.51947
30.21776
28.38205
27.22806
26.85754
27.27954
28.39828
30.04236
32.02969
34.17032
36.25061
38.0367
39.28513
39.74263
39.26736
37.84419
35.63086
32.91325
30.01442
27.19727
24.61859
22.2739
20.05478
17.80693
15.41208
12.83095
10.14781
7.546616
5.236954
3.365128
1.945267
0.8339233
-0.1872406
-1.346222
-2.789734
-4.518234
-6.429398
-8.365234
-10.18181
-11.8499
-13.48946
-15.34785
-17.69788
-20.71349
-24.35631
-28.35797
-32.30515
-35.81161
-38.68065
-41.00227
-43.11443
-45.49992
-48.62238
-52.77756
-57.93758
-63.60968
-68.82603
-72.21603
-72.35062
-68.12126
-59.17754
-46.12407
-30.38837
-13.83635
1.729767
14.99452
25.28563
32.52542
36.99661
39.09819
39.23569
37.7571
35.04037
31.51881
27.73914
24.26343
21.62601
20.18768
20.06427
21.13997
23.12015
25.65967
28.46278
31.29939
33.96313
36.25632
37.93124
38.74084
38.51427
37.22687
35.04362
32.27596
29.28416
26.33481
23.55569
20.94495
18.41756
15.95207
13.56055
11.33578
9.33963
7.606079
6.062973
4.619003
3.20787
1.785995
0.3537445
-1.126984
-2.718445
-4.513367
-6.549301
-8.792297
-11.17114
-13.60379
-16.10652
-18.75316
-21.68867
-24.96033
-28.47386
-32.01685
-35.34111
-38.29269
-40.92857
-43.46762
-46.28317
-49.7598
-54.19075
-59.6002
-65.58806
-71.22726
-75.14613
-75.81157
-71.9922
-63.21004
-50.01016
-33.87732
-16.78487
-0.6819458
13.00024
23.55287
30.90341
35.4212
37.65765
38.18498
37.50792
36.06912
34.26585
32.4348
30.86124
29.73767
29.18356
29.21213
29.7813
30.827
32.27339
34.03445
35.98267
37.91284
39.53928
40.58476
40.84947
40.26913
38.91843
36.96426
34.59695
31.99609
29.31662
26.69942
24.23677
21.97675
19.88002
17.88928
15.93199
13.98302
12.07872
10.30179
8.761703
7.531616
6.641663
6.046753
5.618149
5.16037
4.482132
3.435028
1.998947
0.2585297
-1.692886
-3.77327
-5.930542
-8.134308
-10.33498
-12.45498
-14.41158
-16.18151
-17.85554
-19.61796
-21.70325
-24.25167
-27.30689
-30.73458
-34.30608
-37.77486
-40.96087
-43.82519
-46.50229
-49.30437
-52.6171
-56.77596
-61.76058
-67.00061
-71.35598
-73.31123
-71.42303
-64.882
-53.84018
-39.44796
-23.51621
-7.937309
5.803169
16.85001
24.95985
30.30437
33.21336
34.11689
33.51955
31.99786
30.13473
28.40586
27.08962
26.2753
25.92757
25.99099
26.44115
27.27357
28.44546
29.88398
31.48177
33.1022
34.64686
35.97676
36.90179
37.19968
36.66355
35.2065
32.95381
30.21522
27.36777
24.73444
22.45328
20.48772
18.68405
16.90307
15.05518
13.18831
11.39957
9.784317
8.398293
7.224129
6.18679
5.188797
4.156258
3.051498
1.897148
0.7547836
-0.342453
-1.374001
-2.403885
-3.538445
-4.893105
-6.535942
-8.465393
-10.56677
-12.66377
-14.61388
-16.39278
-18.13253
-20.12181
-22.64118
-25.83609
-29.61393
-33.6314
-37.47076
-40.74916
-43.34534
-45.43687
-47.47926
-50.03461
-53.55582
-58.12101
-63.23524
-67.83086
-70.46068
-69.72249
-64.7032
-55.35217
-42.4996
-27.66051
-12.59098
1.172707
12.6022
21.2513
27.15353
30.61152
32.06345
31.96248
30.71895
28.72676
26.39983
24.16487
22.41211
21.44512
21.40363
22.25759
23.83171
25.9021
28.27502
30.77812
33.26316
35.55073
37.36804
38.44752
38.55764
37.62461
35.77118
33.29322
30.55816
27.88457
25.45551
23.31505
21.34232
19.37673
17.31686
15.15716
13.00241
10.98647
9.200356
7.662605
6.298206
5.003819
3.720985
2.463737
1.284649
0.1981888
-0.8482437
-1.992126
-3.357964
-4.97324
-6.748821
-8.524544
-10.18466
-11.72332
-13.31441
-15.20061
-17.59032
-20.54435
-23.91256
-27.42518
-30.76914
-33.73672
-36.29024
-38.56321
-40.8282
-43.40432
-46.6439
-50.79259
-55.8863
-61.56192
-66.9542
-70.77151
-71.5764
-68.22035
-60.25966
-48.24548
-33.54451
-18.0083
-3.404291
8.969572
18.46665
25.00786
28.87328
30.51762
30.40578
29.00718
26.76389
24.07896
21.3306
18.83215
16.84869
15.59281
15.23373
15.85219
17.4565
19.95095
23.11322
26.64094
30.15133
33.22963
35.49957
36.68531
36.7054
35.66602
33.83776
31.51681
28.99674
26.43592
23.85534
21.21786
18.46317
15.61698
12.78675
10.1223
7.741871
5.67601
3.842026
2.061966
0.1627731
-1.932465
-4.151581
-6.307957
-8.18314
-9.66087
-10.81303
-11.89943
-13.26852
-15.18478
-17.73474
-20.76674
-23.97031
-27.02076
-29.7272
-32.08737
-34.31465
-36.75134
-39.7633
-43.65079
-48.43078
-53.70481
-58.59684
-61.8531
-62.17025
-58.58594
-50.83055
-39.48543
-25.81192
-11.39434
2.318916
14.27562
23.90168
31.0074
35.60149
37.77122
37.67907
35.619
32.03737
27.56186
22.9027
18.74001
15.59946
13.78006
13.3565
14.23415
16.22224
19.06874
22.49123
26.12658
29.5959
32.4575
34.35194
35.0323
34.454
32.80026
30.38277
27.56797
24.65492
21.82345
19.09721
16.42637
13.70193
10.8558
7.865707
4.772469
1.679893
-1.281448
-3.975372
-6.276772
-8.14225
-9.660683
-11.03126
-12.50977
-14.35587
-16.70835
-19.59428
-22.91447
-26.52371
-30.19604
-33.75198
-37.04755
-40.04758
-42.925
-46.02858
-49.87525
-54.86279
-61.07713
-68.00025
-74.4898
-78.93436
-79.66284
-75.48584
-66.07598
-52.19161
-35.44692
-17.85844
-1.297356
12.91618
24.15241
32.35967
37.79324
40.82738
41.80277
41.08083
39.08705
36.35496
33.45818
30.92918
29.1788
28.37151
28.51471
29.4305
30.92758
32.81763
34.9622
37.25839
39.57964
41.72864
43.43202
44.3945
44.35542
43.22334
41.0885
38.2115
34.96312
31.69719
28.66368
25.92114
23.38011
20.85878
18.24455
15.52611
12.82462
10.33232
8.194901
6.483353
5.113525
3.963257
2.879181
1.714676
0.3269348
-1.429794
-3.653183
-6.327606
-9.266068
-12.19975
-14.85442
-17.14987
-19.28041
-21.66292
-24.70561
-28.59117
-33.21118
-38.15868
-42.96088
-47.26868
-51.0407
-54.53619
-58.24121
-62.69083
-68.27165
-74.98723
-82.21089
-88.66797
-92.59793
-92.24675
-86.47334
-75.11336
-59.10432
-40.16496
-20.32603
-1.440475
15.09087
28.38217
38.02174
44.0284
46.8159
47.0932
45.75323
43.61916
41.31113
39.15541
37.29556
35.83984
34.96117
34.86464
35.69188
37.44437
39.93686
42.88129
45.92459
48.728
50.979
52.39528
52.76917
52.02554
50.27208
47.78961
44.93143
41.99121
39.13777
36.39197
33.69185
31.01158
28.38316
25.85384
23.45134
21.11554
18.76881
16.34552
13.90239
11.57385
9.565765
7.975815
6.71962
5.574112
4.23761
2.49086
0.2214661
-2.507141
-5.520554
-8.596115
-11.54213
-14.24452
-16.70667
-19.04761
-21.46809
-24.19345
-27.39555
-31.12849
-35.31061
-39.71233
-44.03598
-48.00963
-51.50417
-54.64549
-57.80829
-61.56894
-66.43327
-72.59067
-79.54451
-85.99095
-90.06425
-89.81209
-83.86632
-71.92711
-55.00078
-35.07129
-14.57805
4.248581
19.84836
31.50938
39.25926
43.62912
45.41631
45.39946
44.26811
42.5121
40.45378
38.34402
36.40138
34.91518
34.10643
34.13333
34.95888
36.42259
38.31474
40.47664
42.78912
45.09256
47.1357
48.51935
48.88799
48.0596
46.14952
43.5136
40.58807
37.69765
34.93259
32.20396
29.33003
26.23997
22.99542
19.81412
16.95538
14.60826
12.80519
11.40128
10.17989
8.910843
7.501602
5.978165
4.479858
3.108368
1.843307
0.5078735
-1.1548
-3.333923
-6.049683
-9.089478
-12.09808
-14.72266
-16.84294
-18.61433
-20.43111
-22.74989
-25.89351
-29.89316
-34.48933
-39.19795
-43.57697
-47.34979
-50.49309
-53.2384
-55.98663
-59.23254
-63.40421
-68.67993
-74.74745
-80.62939
-84.72903
-85.20831
-80.56064
-70.24341
-54.94078
-36.41704
-16.98799
1.15303
16.45041
28.13133
36.11632
40.73164
42.5222
42.12665
40.23528
37.53288
34.65913
32.12845
30.20959
28.99066
28.37952
28.26151
28.57069
29.34901
30.74158
32.87547
35.75375
39.09019
42.3759
44.95898
46.30177
46.18272
44.72006
42.32848
39.45605
36.46254
33.47331
30.50768
27.52547
24.53189
21.61258
18.87022
16.35709
14.05434
11.90054
9.868057
8.00354
6.401947
5.168289
4.306274
3.654816
2.933289
1.81282
0.0941925
-2.238281
-5.003464
-7.914627
-10.68997
-13.16289
-15.35196
-17.44846
-19.73691
-22.50099
-25.89778
-29.91006
-34.2722
-38.58261
-42.44522
-45.65131
-48.28494
-50.71796
-53.4906
-57.16275
-62.13161
-68.44987
-75.62279
-82.53453
-87.50523
-88.67072
-84.55875
-74.64969
-59.65508
-41.36484
-22.06099
-3.867416
11.72786
24.00343
32.81868
38.35303
40.93857
40.97871
39.01849
35.68477
31.66957
27.6136
24.05632
21.37781
19.84805
19.5845
20.56096
22.61412
25.4978
28.93405
32.65584
36.3864
39.78909
42.44818
43.95139
43.99893
42.60571
40.08653
36.94652
33.66946
30.54512
27.55519
24.49763
21.17844
17.55959
13.87784
10.50195
7.757462
5.767731
4.359375
3.142868
1.683853
-0.3065643
-2.88829
-5.860962
-8.890198
-11.63753
-13.87245
-15.59238
-17.02614
-18.55269
-20.58827
-23.44601
-27.15508
-31.44261
-35.80995
-39.75482
-43.01872
-45.7608
-48.52446
-52.0401
-56.95357
-63.43974
-71.04979
-78.60684
-84.4052
-86.59239
-83.64236
-74.83237
-60.54765
-42.22559
-22.006
-2.184509
15.32594
29.32791
39.38618
45.66289
48.67007
49.01582
47.30492
44.11195
39.97777
35.45622
31.10593
27.4588
24.97934
23.95497
24.44867
26.30312
29.19319
32.69359
36.40605
40.00829
43.20403
45.7373
47.33636
47.76958
46.92493
44.87283
41.84288
38.17534
34.21162
30.16884
26.17867
22.24101
18.38359
14.67101
11.20988
8.110031
5.383881
2.942688
0.6119232
-1.784164
-4.331161
-6.986572
-9.637939
-12.1595
-14.50381
-16.77065
-19.15425
-21.9008
-25.18117
-29.0638
-33.41516
-37.94609
-42.3374
-46.31194
-49.81697
-53.09721
-56.64363
-61.04196
-66.70604
-73.57794
-80.90819
-87.25398
-90.70383
-89.42073
-82.22166
-69.02965
-50.99646
-30.20004
-9.067978
10.24588
26.28979
38.42317
46.65947
51.39153
53.14793
52.50969
50.10323
46.58569
42.63914
38.87006
35.74199
33.53442
32.38663
32.31451
33.26361
35.13086
37.77765
41.01071
44.52057
47.91449
50.73663
52.55502
53.07242
52.22076
50.19522
47.35971
44.14337
40.86102
37.673
34.54523
31.36066
28.00397
24.42337
20.71478
17.03201
13.59659
10.57474
8.040527
5.91806
3.987976
1.993378
-0.2901764
-2.923813
-5.81311
-8.715912
-11.44897
-13.94681
-16.34526
-18.92781
-21.94899
-25.54666
-29.67239
-34.14919
-38.72893
-43.19453
-47.39331
-51.29205
-55.02982
-58.90562
-63.38609
-68.90596
-75.60608
-82.95828
-89.62901
-93.64049
-92.95781
-86.16451
-73.05766
-54.79688
-33.55353
-11.86296
8.0513
24.7151
37.45361
46.22173
51.33699
53.29239
52.70865
50.34784
47.05179
43.6608
40.81631
38.89294
37.97238
37.91681
38.50571
39.55438
40.96484
42.68964
44.67468
46.7681
48.72568
50.25522
51.11234
51.12076
50.24179
48.54721
46.16861
43.29208
40.09122
36.69757
33.19617
29.6367
26.06841
22.60341
19.37808
16.52887
14.14635
12.21429
10.59601
9.161148
7.831497
6.611862
5.57283
4.687103
3.840714
2.777283
1.239868
-0.9136047
-3.638672
-6.719345
-9.855865
-12.7795
-15.39154
-17.77969
-20.20734
-23.01253
-26.45551
-30.56216
-35.08487
-39.58548
-43.5981
-46.85362
-49.40324
-51.6564
-54.22417
-57.70981
-62.49678
-68.55959
-75.34483
-81.73618
-86.17627
-86.9716
-82.76144
-72.92497
-57.9254
-39.28854
-19.2043
0.02003479
16.54582
29.31075
38.05502
43.11945
45.174
44.95206
43.16142
40.43971
37.33293
34.31799
31.75768
29.91389
28.93181
28.85793
29.63992
31.16721
33.26534
35.7415
38.36909
40.89946
43.06442
44.5732
45.15103
44.60373
42.90007
40.21268
36.90848
33.43666
30.17859
27.31665
24.81953
22.5065
20.17441
17.73654
15.24042
12.85687
10.75362
9.002228
7.55246
6.260773
4.98912
3.684235
2.356567
1.060089
-0.2249603
-1.602028
-3.233963
-5.241257
-7.643509
-10.31182
-13.01917
-15.57748
-17.88258
-20.00746
-22.12453
-24.44181
-27.08247
-30.09136
-33.40311
-36.88261
-40.38004
-43.77388
-46.97573
-49.98411
-52.94719
-56.1628
-60.06032
-64.97658
-70.89175
-77.13271
-82.33002
-84.6887
-82.50891
-74.83152
-61.84183
-44.85316
-25.93202
-7.287033
9.312012
22.78381
32.73975
39.27946
42.78109
43.7345
42.71806
40.33961
37.22733
33.93649
30.91315
28.4677
26.79376
26.00552
26.12582
27.10329
28.81286
31.03535
33.49858
35.89602
37.93798
39.40374
40.12725
40.01428
39.01074
37.17873
34.66505
31.75774
28.7664
25.95601
23.44968
21.16294
18.88129
16.36868
13.53459
10.4674
7.455521
4.799446
2.718033
1.224144
0.144001
-0.8140755
-1.941784
-3.436523
-5.364235
-7.605442
-9.953217
-12.17509
-14.1218
-15.82642
-17.48294
-19.40465
-21.85958
-24.98676
-28.66581
-32.58364
-36.39772
-39.82208
-42.80913
-45.48243
-48.10358
-51.01199
-54.58691
-59.10448
-64.63632
-70.81062
-76.62791
-80.56035
-80.84161
-76.10278
-65.87012
-50.87913
-32.85189
-14.02616
3.512821
18.30825
29.63351
37.38741
41.82441
43.35617
42.45014
39.66657
35.65568
31.10463
26.67257
22.90062
20.13536
18.54535
18.13845
18.85467
20.59027
23.22612
26.59477
30.41217
34.27692
37.68319
40.13813
41.27824
40.97786
39.36405
36.77907
33.63804
30.34159
27.14242
24.12672
21.24619
18.37474
15.42456
12.39952
9.413639
6.62973
4.195553
2.146595
0.3483658
-1.429878
-3.435394
-5.796375
-8.462315
-11.18967
-13.65984
-15.67272
-17.23819
-18.64713
-20.35531
-22.78606
-26.14182
-30.31456
-34.90237
-39.40936
-43.42924
-46.76762
-49.56049
-52.18662
-55.20529
-59.18506
-64.50005
-71.09402
-78.24991
-84.5896
-88.28295
-87.5124
-81.09263
-68.92142
-52.10326
-32.61914
-12.79937
5.296398
20.27916
31.52758
39.02735
43.14248
44.40158
43.3838
40.765
37.22411
33.44394
30.00567
27.34561
25.66768
25.0476
25.45701
26.81077
29.02211
31.94062
35.34568
38.91023
42.2352
44.87693
46.46791
46.79194
45.82693
43.76084
40.9019
37.62474
34.2692
31.03181
27.992
25.09657
22.23981
19.31548
16.34176
13.41093
10.71513
8.429359
6.582901
5.0644
3.623505
1.961639
-0.115097
-2.610382
-5.395828
-8.216248
-10.88883
-13.3759
-15.83516
-18.51347
-21.6608
-25.37523
-29.56781
-34.01097
-38.41505
-42.5709
-46.42981
-50.11225
-53.91677
-58.26268
-63.5459
-69.99677
-77.42397
-85.02592
-91.33764
-94.47902
-92.63741
-84.7037
-70.75354
-52.11447
-31.05051
-10.09148
8.614044
23.7119
34.72578
41.86178
45.68553
46.85802
46.04285
43.87392
40.97246
37.95786
35.35303
33.5293
32.68007
32.83191
33.86163
35.61736
37.89336
40.49982
43.26094
45.97774
48.43024
50.35957
51.53273
51.73044
50.8587
48.94737
46.18965
42.85017
39.22176
35.56113
31.99753
28.55362
25.18658
21.8465
18.54329
15.34975
12.40358
9.848755
7.77475
6.154282
4.828949
3.547028
2.026886
0.07441711
-2.32309
-4.995361
-7.687546
-10.20241
-12.53191
-14.89436
-17.64142
-21.06999
-25.27231
-30.06711
-35.09938
-39.94283
-44.29147
-48.05681
-51.4019
-54.69955
-58.45119
-63.15546
-69.10651
-76.13562
-83.38603
-89.29642
-91.90573
-89.39934
-80.7292
-66.07617
-46.85283
-25.3528
-4.063293
14.9254
30.31866
41.63876
49.04749
53.06746
54.33008
53.48349
51.1765
48.02794
44.64462
41.57591
39.24225
37.91919
37.67818
38.43109
39.98474
42.11774
44.62109
47.31046
49.99629
52.41833
54.26714
55.19205
54.90494
53.30843
50.52625
46.89934
42.89828
38.95274
35.32381
32.07095
29.04709
26.08208
23.0607
20.02103
17.13586
14.60751
12.5694
11.02164
9.856049
8.90062
7.963425
6.863678
5.445938
3.623901
1.366653
-1.228546
-4.005219
-6.763321
-9.407623
-11.9458
-14.53143
-17.37946
-20.65912
-24.42476
-28.58626
-32.88739
-37.01532
-40.7104
-43.81796
-46.40776
-48.78108
-51.42944
-54.90274
-59.53578
-65.18428
-71.03552
-75.67273
-77.39101
-74.70973
-66.89957
-54.27007
-38.14589
-20.43739
-3.172226
12.01733
24.1317
32.80107
38.16557
40.67728
40.95764
39.655
37.4129
34.78426
32.21828
30.05972
28.58615
27.93777
28.1603
29.14546
30.66782
32.50101
34.46541
36.49013
38.52532
40.46915
42.05682
42.8987
42.59758
40.94723
38.05212
34.29054
30.21287
26.28916
22.82904
19.9183
17.47143
15.34555
13.40965
11.57465
9.804253
8.120415
6.570732
5.245262
4.227158
3.543556
3.127121
2.80954
2.361084
1.52903
0.1609879
-1.737411
-4.039749
-6.54435
-9.073696
-11.58347
-14.11783
-16.81833
-19.79236
-23.02166
-26.39841
-29.68244
-32.65986
-35.20282
-37.35188
-39.29749
-41.33714
-43.80525
-46.98898
-51.01141
-55.69775
-60.50809
-64.47705
-66.3662
-64.95822
-59.41991
-49.66958
-36.47668
-21.32721
-6.026879
7.74301
18.83312
26.70539
31.41442
33.41079
33.28315
31.65462
29.07488
26.04681
23.02282
20.39529
18.48969
17.5255
17.57141
18.54189
20.2373
22.37991
24.71851
27.0553
29.24055
31.14917
32.58419
33.30479
33.08341
31.78603
29.50314
26.52726
23.32442
20.3186
17.81497
15.86798
14.34554
12.99866
11.63188
10.16551
8.645981
7.210464
5.960144
4.939884
4.102821
3.3517
2.606258
1.82666
0.9980392
0.1104736
-0.8473015
-1.905441
-3.089775
-4.432648
-5.940926
-7.606812
-9.404991
-11.27988
-13.16064
-14.96465
-16.64647
-18.28171
-20.03799
-22.15704
-24.82001
-28.03558
-31.59953
-35.18275
-38.45092
-41.19426
-43.38576
-45.20013
-46.95591
-49.03972
-51.8698
-55.71069
-60.48714
-65.60707
-69.95516
-72.07106
-70.59993
-64.77097
-54.74058
-41.54903
-26.80484
-12.20908
0.8556366
11.54251
19.50829
24.78953
27.6673
28.55048
27.95411
26.43792
24.58073
22.87283
21.67054
21.15948
21.35464
22.14651
23.33955
24.74459
26.25981
27.87212
29.62939
31.54416
33.50286
35.23171
36.39257
36.67405
35.95262
34.29495
31.96204
29.27634
26.5369
23.93106
21.55157
19.43045
17.54452
15.87254
14.37504
13.01151
11.74955
10.57713
9.503738
8.51844
7.608246
6.73774
5.856712
4.926102
3.91497
2.809402
1.610718
0.3433685
-0.9666748
-2.297806
-3.675003
-5.185593
-6.935547
-9.031342
-11.47957
-14.16043
-16.85704
-19.37837
-21.66168
-23.82805
-26.13771
-28.82974
-32.00229
-35.52252
-39.10544
-42.42427
-45.2684
-47.63422
-49.71233
-51.86092
-54.47112
-57.91902
-62.41399
-67.80186
-73.46124
-78.25052
-80.72298
-79.5144
-73.8161
-63.68007
-50.07701
-34.63405
-19.13885
-5.139954
6.377411
15.00757
20.81581
24.17216
25.61453
25.72827
25.08788
24.1937
23.40231
22.92664
22.82538
23.087
23.68333
24.61065
25.9355
27.72574
30.00026
32.65063
35.41144
37.92332
39.82625
40.86893
40.97651
40.21181
38.74451
36.75446
34.43172
31.95457
29.51347
27.27251
25.3371
23.69578
22.229
20.7836
19.25262
17.62681
16.00114
14.50884
13.18496
11.98106
10.76411
9.423027
7.949303
6.435936
5.013008
3.742622
2.517357
1.116043
-0.7118301
-3.094254
-5.935715
-8.970314
-11.87749
-14.44888
-16.67567
-18.78983
-21.08708
-23.84491
-27.16832
-30.97923
-35.07124
-39.18453
-43.09142
-46.65945
-49.90654
-53.01663
-56.35764
-60.38081
-65.47356
-71.64175
-78.32578
-84.3337
-88.02527
-87.81801
-82.63076
-72.34421
-57.81798
-40.65814
-22.77682
-5.906479
8.66547
20.24216
28.6261
34.0062
36.79183
37.54484
36.89208
35.45398
33.79976
32.35486
31.40786
31.06183
31.31345
32.07355
33.28719
34.92769
37.04575
39.66035
42.66798
45.78402
48.56856
50.55312
51.34344
50.77403
48.91123
46.02383
42.50853
38.74077
35.02184
31.50384
28.22358
25.08477
21.99385
18.88268
15.82934
12.99524
10.59306
8.767448
7.463802
6.483807
5.532269
4.379795
2.922329
1.217033
-0.6179314
-2.486855
-4.359634
-6.326992
-8.508602
-11.0582
-14.08007
-17.64005
-21.68792
-26.07987
-30.5409
-34.78504
-38.57198
-41.86024
-44.86588
-48.04156
-51.93861
-56.97586
-63.15563
-69.88322
-75.91321
-79.59247
-79.33154
-74.09261
-63.76259
-49.20623
-32.0465
-14.21261
2.531715
16.90213
28.15765
36.08435
40.83641
42.79665
42.50916
40.52072
37.39922
33.6552
29.79813
26.34781
23.7931
22.53421
22.74825
24.32843
26.93414
30.11921
33.47328
36.75775
39.82739
42.53624
44.67003
45.87274
45.79662
44.24458
41.31052
37.36665
32.96602
28.63074
24.66165
21.08524
17.66762
14.12155
10.26108
6.123108
1.983505
-1.787506
-4.862015
-7.15239
-8.818207
-10.25673
-11.92278
-14.19247
-17.26994
-21.08806
-25.37231
-29.73676
-33.81477
-37.39645
-40.5316
-43.53987
-46.98346
-51.45827
-57.36858
-64.60944
-72.3768
-79.16331
-83.03961
-82.19955
-75.539
-63.11688
-46.18999
-26.85846
-7.453842
10.10464
24.61591
35.64838
43.25471
47.75253
49.53267
49.0217
46.74901
43.35403
39.56416
36.07214
33.42682
31.92671
31.64363
32.46678
34.18001
36.54681
39.31891
42.26445
45.10886
47.54051
49.20039
49.78462
49.13962
47.28549
44.44472
40.94763
37.11784
33.23083
29.47539
25.93416
22.64861
19.61082
16.77704
14.10873
11.56783
9.120605
6.71286
4.257095
1.654907
-1.172195
-4.173691
-7.186813
-9.937973
-12.2383
-14.09019
-15.7832
-17.80278
-20.61749
-24.43135
-29.07639
-34.0652
-38.81665
-42.94768
-46.42851
-49.59451
-53.01381
-57.27205
-62.80072
-69.68007
-77.43428
-84.95557
-90.52174
-92.16476
-88.21181
-77.93372
-61.89912
-41.92616
-20.56438
-0.343338
16.84824
30.04259
39.11775
44.52397
46.94426
47.14755
45.87973
43.85266
41.72672
40.00034
38.9744
38.72708
39.18835
40.19742
41.58463
43.2616
45.20529
47.42981
49.89795
52.43942
54.72104
56.32462
56.85504
56.09717
54.11566
51.20621
47.78815
44.24203
40.77454
37.45041
34.18964
30.94165
27.72107
24.63672
21.841
19.46176
17.54556
16.05225
14.88989
13.92334
13.03058
12.07973
10.99939
9.747208
8.361847
6.93483
5.548508
4.224808
2.845901
1.203079
-0.9521332
-3.773788
-7.201126
-10.95856
-14.65851
-17.9922
-20.84366
-23.38089
-25.9391
-28.9034
-32.52409
-36.81332
-41.55783
-46.42587
-51.06512
-55.24986
-58.94736
-62.33698
-65.84167
-69.96451
-75.12094
-81.33957
-88.00064
-93.7915
-96.91685
-95.59016
-88.62317
-75.8947
-58.44984
-38.27376
-17.71039
1.122238
16.77159
28.6051
36.63983
41.35527
43.43979
43.62585
42.6228
41.11383
39.67218
38.71921
38.48666
38.96619
39.99748
41.33942
42.83685
44.42351
46.13835
48.00986
49.91374
51.60158
52.70837
52.93161
52.12697
50.36888
47.86389
44.88702
41.66541
38.34311
35.05161
31.87401
28.94557
26.35727
24.13869
22.23615
20.52782
18.88322
17.2314
15.58418
14.0304
12.67853
11.60555
10.76947
10.02911
9.189529
8.065338
6.560425
4.740692
2.774017
0.8492584
-0.9039612
-2.498413
-4.069901
-5.80481
-7.852112
-10.2531
-12.93059
-15.75838
-18.61633
-21.42152
-24.17635
-26.9111
-29.7093
-32.67453
-35.88081
-39.34286
-42.95513
-46.54198
-49.84404
-52.6916
-55.04234
-57.08987
-59.27067
-62.13827
-66.21257
-71.65518
-78.06406
-84.28963
-88.64362
-89.26974
-84.77412
-74.72044
-59.83995
-41.82668
-22.8565
-4.981186
10.28828
22.11515
30.31026
35.13718
37.14161
37.08737
35.80901
34.1046
32.61944
31.73933
31.60403
32.15527
33.26468
34.76807
36.54671
38.48925
40.48383
42.44143
44.27469
45.89798
47.18514
47.96642
48.01276
47.15717
45.36044
42.76253
39.67735
36.47483
33.40427
30.51955
27.72171
24.83876
21.8033
18.72848
15.83086
13.36382
11.45126
10.0608
9.057434
8.268677
7.554573
6.796089
5.900581
4.78421
3.423897
1.845901
0.142601
-1.606255
-3.392242
-5.270744
-7.356346
-9.691681
-12.23473
-14.8175
-17.28098
-19.51096
-21.5615
-23.63342
-26.01039
-28.89665
-32.36633
-36.2799
-40.3438
-44.2065
-47.58233
-50.36724
-52.71689
-55.00462
-57.75048
-61.4486
-66.31728
-72.07376
-77.77058
-81.8755
-82.62141
-78.58897
-69.19858
-55.05146
-37.74185
-19.41764
-2.139496
12.59447
24.02732
32.03704
36.88156
39.04008
39.02916
37.47571
35.06367
32.48526
30.27043
28.75504
28.03176
28.05663
28.73964
30.00459
31.80473
34.07611
36.68044
39.38435
41.89085
43.87027
45.03289
45.18666
44.27869
42.39677
39.75092
36.63676
33.35752
30.13665
27.07776
24.15847
21.30793
18.4797
15.71399
13.14022
10.89553
9.073387
7.660137
6.543816
5.563263
4.610722
3.621655
2.592537
1.531799
0.3936348
-0.9195786
-2.539318
-4.566177
-7.008083
-9.770458
-12.65894
-15.46844
-18.05927
-20.4421
-22.77932
-25.3282
-28.34668
-31.97577
-36.1337
-40.54118
-44.80938
-48.57508
-51.71233
-54.38159
-57.02097
-60.22161
-64.50842
-70.07916
-76.62007
-83.17108
-88.25312
-90.15324
-87.41933
-79.2963
-66.04286
-48.90967
-29.81288
-10.86446
6.111633
19.90641
30.01231
36.52714
39.99668
41.18346
40.86287
39.71469
38.22215
36.70044
35.34496
34.30406
33.75415
33.86175
34.73182
36.36366
38.66517
41.43129
44.40133
47.26646
49.68481
51.3283
51.91345
51.29099
49.46847
46.67168
43.2404
39.56792
36.00787
32.76475
29.86829
27.19993
24.57754
21.87492
19.12862
16.48691
14.18027
12.37875
11.0948
10.18357
9.418587
8.570751
7.50914
6.221569
4.780033
3.285992
1.814518
0.3656273
-1.148159
-2.871582
-4.934116
-7.376015
-10.11922
-12.97802
-15.75152
-18.34192
-20.86715
-23.5864
-26.80488
-30.70297
-35.19412
-39.95031
-44.52167
-48.53175
-51.85344
-54.65144
-57.33388
-60.40661
-64.35387
-69.43736
-75.55666
-82.08504
-87.80703
-91.06373
-90.11591
-83.70621
-71.53575
-54.52067
-34.6291
-14.30365
4.183662
19.30492
30.41542
37.68105
41.70494
43.23288
42.9916
41.59855
39.57281
37.34653
35.27459
33.60062
32.55073
32.26862
32.85898
34.34504
36.62357
39.45668
42.52545
45.49143
48.07338
50.06467
51.32322
51.70789
51.13453
49.5696
47.10742
43.94622
40.36488
36.66061
33.04403
29.62354
26.40283
23.35149
20.43533
17.64016
14.97369
12.44817
10.1
7.990555
6.170174
4.667511
3.430717
2.30489
1.084274
-0.444088
-2.40461
-4.775726
-7.389801
-10.00032
-12.39201
-14.50798
-16.49254
-18.66224
-21.34356
-24.74392
-28.85724
-33.41045
-38.00416
-42.21981
-45.81562
-48.7976
-51.40613
-54.0904
-57.36214
-61.68282
-67.20552
-73.56535
-79.73193
-84.07982
-84.74895
-80.25061
-70.04953
-54.83069
-36.37086
-16.97746
1.173248
16.54685
28.4301
36.77507
41.8966
44.21832
44.18734
42.31838
39.17326
35.37219
31.51967
28.12634
25.55841
24.06161
23.76186
24.67534
26.6949
29.5886
33.00798
36.53407
39.72892
42.19699
43.66901
44.0414
43.35571
41.79438
39.58521
36.92686
33.94269
30.67686
27.14265
23.40879
19.60138
15.9278
12.59429
9.751602
7.44519
5.573471
3.94117
2.306709
0.4758453
-1.634094
-3.974709
-6.359623
-8.598251
-10.57598
-12.3699
-14.21313
-16.43112
-19.26015
-22.7692
-26.80728
-31.08856
-35.3099
-39.30537
-43.08142
-46.81703
-50.82915
-55.45462
-60.94674
-67.28442
-73.95517
-79.87897
-83.51897
-83.25401
-77.90218
-67.18489
-51.90058
-33.72091
-14.73095
3.104061
18.33551
30.17059
38.3922
43.18674
45.0014
44.42981
42.16144
38.89152
35.26591
31.81298
28.94671
26.9458
25.96178
26.03514
27.11811
29.08517
31.77422
34.98608
38.4342
41.76983
44.53625
46.27362
46.6391
45.51438
43.05598
39.65067
35.74847
31.70798
27.76926
23.99411
20.39353
16.96416
13.7346
10.7597
8.109825
5.840981
3.944664
2.372208
0.9680023
-0.4661026
-2.170387
-4.288292
-6.840233
-9.673332
-12.55139
-15.3092
-17.9359
-20.61314
-23.62952
-27.23201
-31.47619
-36.17943
-41.0011
-45.57796
-49.68311
-53.33909
-56.82249
-60.59382
-65.1999
-71.04039
-78.09608
-85.69926
-92.43016
-96.34444
-95.51337
-88.6788
-75.79236
-58.08852
-37.71
-17.07313
1.785286
17.54104
29.60555
37.90352
42.70481
44.47201
43.86905
41.70457
38.84753
36.02458
33.71577
32.15228
31.37643
31.37809
32.13628
33.59228
35.62189
38.00935
40.50673
42.90084
45.01031
46.70055
47.8221
48.17619
47.54663
45.76158
42.79616
38.80107
34.09933
29.10387
24.26231
19.89803
16.19859
13.12317
10.50882
8.098923
5.684341
3.185562
0.6263428
-1.895691
-4.313583
-6.616165
-8.883118
-11.20779
-13.71181
-16.51642
-19.74524
-23.51883
-27.88643
-32.80496
-38.07253
-43.44713
-48.69154
-53.75061
-58.79388
-64.21619
-70.49611
-77.95888
-86.50998
-95.36388
-103.0476
-107.5936
-107.0793
-100.2408
-86.95657
-68.43335
-46.85469
-24.78055
-4.443146
12.69305
26.05388
35.70203
42.02713
45.51494
46.59555
45.79555
43.74648
41.25865
39.13869
38.04076
38.28781
39.82224
42.3373
45.42339
48.73602
52.03691
55.16818
57.96182
60.20062
61.60178
61.87468
60.83498
58.42967
54.79965
50.25305
45.18649
40.02344
35.09726
30.55972
26.36279
22.31915
18.16028
13.74298
9.091248
4.425354
0.07958984
-3.641022
-6.599304
-8.920685
-10.98309
-13.36368
-16.6163
-21.07858
-26.72235
-33.13394
-39.65793
-45.64825
-50.71375
-54.86932
-58.53821
-62.40817
-67.24966
-73.61133
-81.57355
-90.49774
-98.91937
-104.7091
-105.547
-99.63916
-86.34253
-66.59048
-42.65729
-17.55563
5.842163
25.50275
40.53662
51.0527
57.7608
61.53854
63.16055
63.28268
62.44803
61.22433
60.14114
59.65689
60.04123
61.31573
63.28513
65.59399
67.84839
69.73605
71.06427
71.76993
71.82254
71.14392
69.57867
66.90756
62.97296
57.80789
51.70963
45.19839
38.94482
33.52094
29.28253
26.24771
24.12988
22.45404
20.72446
18.60977
16.03995
13.19449
10.41867
8.058319
6.313049
5.15448
4.354401
3.545807
2.39447
0.7006836
-1.523071
-4.098267
-6.820618
-9.572235
-12.38763
-15.44867
-18.9003
-22.72574
-26.68246
-30.3627
-33.41367
-35.7005
-37.44937
-39.15518
-41.43106
-44.8009
-49.54071
-55.53818
-62.22531
-68.51794
-72.92358
-73.78775
-69.73196
-60.14484
-45.48779
-27.31683
-7.875031
10.51544
26.01767
37.61667
45.12814
48.95209
49.76172
48.32837
45.38702
41.65869
37.81329
34.40198
31.75275
29.97818
28.98099
28.58899
28.67392
29.18567
30.16876
31.68697
33.7213
36.14381
38.65393
40.81757
42.13016
42.14738
40.64262
37.67685
33.61621
28.99097
24.34824
20.07108
16.27411
12.84338
9.518234
6.087982
2.486328
-1.153168
-4.548691
-7.41864
-9.609222
-11.21495
-12.54593
-14.04121
-16.07199
-18.79366
-22.06978
-25.57045
-28.91113
-31.82944
-34.30815
-36.51552
-38.78214
-41.48393
-44.94214
-49.34547
-54.62032
-60.29959
-65.42097
-68.63301
-68.48317
-63.90318
-54.67354
-41.54907
-26.12057
-10.31947
4.115402
16.034
24.94968
30.87086
34.02612
34.63349
32.92873
29.24108
24.13253
18.389
12.93972
8.620583
5.988144
5.2052
6.075302
8.180176
11.01844
14.13831
17.13791
19.66753
21.35881
21.89784
21.06876
18.8452
15.42654
11.17088
6.445084
1.5196
-3.501404
-8.649567
-13.97218
-19.43082
-24.82452
-29.86037
-34.26157
-37.89572
-40.85867
-43.51304
-46.36949
-49.96654
-54.68417
-60.49331
-66.8032
-72.4151
-75.69642
-74.98869
-69.20007
-58.19176
-42.97281
-25.42915
-7.806938
7.912849
20.43935
29.33904
34.87328
37.67379
38.48998
38.00523
36.74876
35.14276
33.528
32.16621
31.24821
30.88454
31.06442
31.70755
32.65634
33.74225
34.85929
35.94658
36.95718
37.78751
38.19637
37.79054
36.21864
33.26384
28.99688
23.78755
18.14635
12.57052
7.345833
2.507874
-2.154091
-6.896027
-11.88924
-17.10566
-22.28853
-27.04425
-31.01425
-34.00325
-36.11617
-37.77799
-39.64187
-42.41857
-46.64056
-52.35589
-58.99474
-65.29705
-69.56986
-70.06793
-65.53657
-55.67973
-41.3095
-24.21394
-6.601692
9.488808
22.68391
32.48061
39.09391
43.1467
45.29369
46.07664
45.85479
44.94807
43.67345
42.37641
41.34356
40.71667
40.48571
40.51991
40.71139
41.03025
41.56374
42.35166
43.34435
44.34807
45.04663
45.13947
44.43078
42.88735
40.60526
37.75679
34.52651
31.10157
27.66453
24.34402
21.22539
18.29031
15.47766
12.71863
10.01187
7.454426
5.193573
3.347309
1.948088
0.9154758
0.07748222
-0.7527008
-1.725286
-2.97686
-4.598948
-6.641403
-9.090656
-11.84237
-14.6851
-17.36884
-19.71631
-21.71089
-23.55305
-25.61455
-28.25993
-31.70413
-35.85148
-40.32883
-44.61421
-48.2781
-51.1294
-53.34003
-55.37299
-57.83976
-61.35273
-66.25576
-72.45743
-79.24513
-85.24481
-88.65627
-87.70034
-81.17467
-68.94712
-52.15406
-32.86385
-13.5773
3.509491
16.99027
26.41728
32.13217
34.90257
35.53983
34.69953
32.84155
30.33452
27.55436
24.98034
23.09055
22.2604
22.60192
23.9562
25.98548
28.32219
30.74618
33.14112
35.48613
37.66125
39.44687
40.52136
40.56599
39.44845
37.22892
34.14383
30.49527
26.61316
22.72627
19.02015
15.60379
12.52731
9.761948
7.195038
4.662926
2.025101
-0.753109
-3.596088
-6.300648
-8.657715
-10.56647
-12.08879
-13.50528
-15.17649
-17.4196
-20.37841
-23.94229
-27.83483
-31.68645
-35.22367
-38.33721
-41.11907
-43.83614
-46.8626
-50.61948
-55.43186
-61.3048
-67.74106
-73.61253
-77.2636
-76.96053
-71.46686
-60.57519
-45.27134
-27.46964
-9.413551
6.9412
20.35249
30.35751
37.0536
40.84411
42.1637
41.45737
39.16976
35.80901
31.98709
28.34801
25.49313
23.87989
23.67762
24.78186
26.8263
29.31961
31.81627
34.0593
35.97521
37.57337
38.7861
39.38035
38.97364
37.24601
34.11777
29.8459
25.01974
20.31647
16.26032
13.04195
10.49308
8.164063
5.62957
2.622757
-0.8206215
-4.436363
-7.855698
-10.7905
-13.11649
-14.95538
-16.58477
-18.35752
-20.61823
-23.54333
-27.12289
-31.15479
-35.32169
-39.28342
-42.87878
-46.15205
-49.38125
-53.03848
-57.60309
-63.36864
-70.1937
-77.33964
-83.42758
-86.71725
-85.51009
-78.74728
-66.39696
-49.58321
-30.32006
-10.97219
6.40023
20.45132
30.66724
37.23116
40.69212
41.71828
40.95539
38.96069
36.26032
33.34043
30.65759
28.59757
27.43941
27.3098
28.16261
29.8
31.90886
34.17041
36.31954
38.13775
39.49168
40.23053
40.14983
39.00096
36.63004
33.08933
28.74619
24.19626
20.0857
16.89783
14.76757
13.49278
12.6474
11.8212
10.75371
9.467027
8.152254
7.03785
6.242693
5.689605
5.115146
4.228642
2.807368
0.8058367
-1.622287
-4.21272
-6.701567
-8.943021
-10.97555
-13.02875
-15.40603
-18.41547
-22.20446
-26.6942
-31.6101
-36.58033
-41.26465
-45.52162
-49.45535
-53.38784
-57.81411
-63.19852
-69.82809
-77.5446
-85.59285
-92.54121
-96.52014
-95.66394
-88.72724
-75.59865
-57.44317
-36.41499
-15.05472
4.373505
20.32759
32.12102
39.7847
43.80459
44.93977
44.05163
42.02652
39.65475
37.5522
36.0862
35.38767
35.39043
35.94675
36.88368
38.06305
39.37971
40.7721
42.15762
43.44173
44.43848
44.90977
44.61578
43.42062
41.37614
38.72533
35.8382
33.10783
30.81241
29.08137
27.85818
27.0069
26.33905
25.70009
24.94278
23.94392
22.57321
20.68261
18.19312
15.1302
11.72829
8.334579
5.333641
2.923851
1.019379
-0.776474
-3.009239
-6.144264
-10.36167
-15.47295
-21.05602
-26.59906
-31.71541
-36.26421
-40.37189
-44.42265
-48.96126
-54.56184
-61.58531
-69.8576
-78.4415
-85.60628
-89.19769
-87.22316
-78.64157
-63.75966
-44.29405
-22.84911
-2.161652
15.59135
29.24214
38.56883
44.03697
46.38835
46.40947
44.81152
42.27126
39.45207
36.98453
35.36774
34.87762
35.50208
36.9679
38.8681
40.8362
42.65813
44.34033
46.00839
47.72519
49.34427
50.46962
50.57762
49.20619
46.24968
42.01019
37.10155
32.20979
27.78473
23.88977
20.25653
16.51288
12.37004
7.851898
3.230453
-1.086349
-4.773987
-7.750885
-10.19582
-12.46211
-14.94215
-17.9041
-21.38182
-25.21674
-29.09978
-32.75224
-36.01772
-38.95866
-41.81589
-44.95645
-48.81903
-53.74626
-59.87837
-66.87413
-73.74348
-78.84749
-80.2437
-76.26295
-66.1886
-50.65805
-31.58347
-11.57158
6.87207
22.02132
33.21127
40.63988
44.93825
46.73679
46.47922
44.48727
41.09738
36.85844
32.4857
28.7637
26.315
25.4635
26.15736
28.02663
30.56012
33.28889
35.88297
38.16463
40.03711
41.35265
41.86906
41.29942
39.39726
36.11189
31.61681
26.35541
20.86919
15.70662
11.19226
7.364578
3.969055
0.5755463
-3.205612
-7.555725
-12.33034
-17.11372
-21.3913
-24.79921
-27.29184
-29.18878
-31.08931
-33.6548
-37.43961
-42.71361
-49.33234
-56.64935
-63.50818
-68.30908
-69.38919
-65.47478
-56.13477
-42.04001
-24.82304
-6.678101
10.28966
24.50447
35.16277
42.1626
45.84468
46.71841
45.29152
42.06812
37.55058
32.35249
27.15604
22.65999
19.45564
17.84121
17.81005
19.01876
20.98048
23.23486
25.46194
27.47326
29.09585
30.08453
30.08078
28.76784
26.00127
21.97861
17.16979
12.12628
7.25013
2.623161
-1.950981
-6.757957
-11.93311
-17.34774
-22.60308
-27.25453
-31.0266
-34.00477
-36.61133
-39.47147
-43.18558
-48.07059
-53.97463
-60.19415
-65.49715
-68.37436
-67.36634
-61.54892
-50.83671
-36.13937
-19.13213
-1.864899
13.75082
26.34022
35.24033
40.45622
42.43533
41.84562
39.37214
35.62769
31.13139
26.37289
21.8297
17.99139
15.34042
14.19826
14.69646
16.6339
19.57603
22.89017
25.9166
28.11343
29.13046
28.8472
27.33131
24.79406
21.46629
17.58797
13.29588
8.679985
3.767357
-1.39106
-6.676201
-11.90614
-16.84576
-21.311
-25.17953
-28.50207
-31.45509
-34.35875
-37.6046
-41.55959
-46.3998
-51.91731
-57.37167
-61.50497
-62.78904
-59.86559
-52.03478
-39.56504
-23.71472
-6.394043
10.33524
24.76331
35.82976
43.17606
47.01286
47.868
46.40382
43.29056
39.12108
34.45384
29.79372
25.62272
22.38822
20.45145
19.9902
20.93162
22.93858
25.46865
27.91575
29.76959
30.68641
30.51969
29.26212
26.96804
23.71195
19.59131
14.74036
9.344986
3.606926
-2.270164
-8.122925
-13.82567
-19.29642
-24.44254
-29.14564
-33.29453
-36.84148
-39.90243
-42.80264
-46.0401
-50.0685
-55.02032
-60.36748
-64.89262
-66.89424
-64.74689
-57.50288
-45.33598
-29.54982
-12.15623
4.692394
19.30009
30.73254
38.75891
43.62329
45.7457
45.5282
43.34075
39.61109
34.89654
29.92905
25.47376
22.18878
20.46734
20.31286
21.3949
23.19117
25.18694
27.04295
28.64342
29.98009
30.99675
31.50681
31.13408
29.49821
26.38947
21.93534
16.5831
11.00568
5.791588
1.25071
-2.681789
-6.391827
-10.36928
-14.93097
-20.06649
-25.41735
-30.41334
-34.57029
-37.68787
-39.9572
-41.92139
-44.27271
-47.65314
-52.47456
-58.68637
-65.66262
-72.16455
-76.4567
-76.73132
-71.6398
-60.79495
-45.03609
-26.28531
-6.988846
10.53847
24.70846
34.88464
41.25216
44.48503
45.3647
44.52532
42.42884
39.43953
35.9715
32.54868
29.78845
28.22059
28.11167
29.3565
31.5401
34.11878
36.64355
38.86731
40.72812
42.19278
43.12611
43.25061
42.27221
40.01434
36.5507
32.21493
27.48318
22.8065
18.50723
14.7067
11.37366
8.383347
5.574173
2.776089
-0.1210006
-3.161921
-6.269175
-9.257555
-11.88658
-13.99309
-15.57454
-16.89076
-18.41463
-20.62189
-23.8362
-28.05128
-32.9288
-37.92335
-42.49435
-46.30314
-49.31163
-51.81471
-54.30474
-57.43513
-61.78916
-67.69697
-74.94
-82.54451
-88.77634
-91.5165
-88.88491
-79.90204
-64.95151
-45.68807
-24.58077
-4.168404
13.57795
27.57887
37.57737
43.86499
47.00922
47.59767
46.23889
43.54141
40.16005
36.74831
33.87502
31.97029
31.23108
31.64254
33.00118
35.05013
37.54222
40.25908
43.03043
45.62244
47.71686
48.93084
48.92084
47.50182
44.76907
41.07803
36.93324
32.8078
28.99934
25.58419
22.46679
19.47128
16.45806
13.41062
10.44301
7.729422
5.46509
3.719992
2.417482
1.295315
0.02501678
-1.663315
-3.872192
-6.48455
-9.243622
-11.86184
-14.20411
-16.32869
-18.48312
-20.99349
-24.11021
-27.91322
-32.26088
-36.87771
-41.41007
-45.58159
-49.24716
-52.49736
-55.63085
-59.14624
-63.63023
-69.4382
-76.44524
-83.73077
-89.6352
-92.04968
-89.10696
-79.87906
-64.7877
-45.54766
-24.61625
-4.434666
13.18904
27.30698
37.6596
44.3989
47.80007
48.23567
46.2242
42.55612
38.19034
34.09343
31.0078
29.28411
28.90321
29.58387
31.01606
32.9501
35.28854
37.97096
40.85922
43.71659
46.1427
47.7128
48.11671
47.27164
45.31352
42.57568
39.39807
36.02344
32.56745
29.03047
25.39071
21.6493
17.88124
14.21812
10.85696
7.965012
5.644005
3.89996
2.570995
1.400894
0.1023903
-1.56982
-3.744915
-6.388088
-9.321453
-12.34141
-15.25937
-18.03081
-20.78229
-23.71264
-27.07128
-30.99261
-35.42415
-40.10126
-44.65053
-48.73981
-52.2801
-55.47136
-58.75045
-62.68641
-67.73581
-74.06535
-81.29907
-88.39783
-93.74813
-95.46112
-91.89486
-82.24719
-66.91357
-47.48969
-26.35474
-5.996933
11.6035
25.32688
34.94209
40.83633
43.68954
44.2183
43.07244
40.80985
37.95773
35.04298
32.55132
30.86615
30.18045
30.48631
31.6372
33.54844
36.29001
40.09532
45.18518
51.466
58.30057
64.5341
68.79601
70.00414
67.76558
62.50243
55.25505
47.26429
39.56542
32.73814
26.91605
21.96769
17.68704
13.95994
10.74657
8.056498
5.832014
3.988098
2.369253
0.8264561
-0.7757664
-2.527042
-4.46244
-6.555546
-8.719841
-10.83257
-12.81556
-14.67747
-16.56584
-18.73238
-21.45077
-24.89249
-29.03861
-33.65867
-38.39319
-42.86697
-46.81598
-50.16401
-53.04617
-55.79151
-58.87493
-62.85531
-68.16335
-74.86754
-82.38879
-89.36122
-93.82223
-93.69946
-87.51787
-74.97112
-57.11337
-36.07362
-14.3899
5.65674
22.50663
35.4076
44.24363
49.29758
51.07167
50.22981
47.52679
43.76572
39.68258
35.86875
32.73692
30.60849
29.70167
30.12373
31.83498
34.62532
38.14627
42.02546
45.90555
49.46721
52.40728
54.37455
55.02931
54.15726
51.74679
48.05161
43.54529
38.73883
34.0609
29.73466
25.77383
22.06905
18.49759
14.99155
11.5984
8.44735
5.694242
3.424163
1.581505
-0.03905773
-1.729085
-3.744122
-6.215744
-9.06068
-12.03835
-14.85785
-17.35227
-19.57509
-21.78026
-24.3437
-27.57049
-31.56932
-36.18511
-41.05949
-45.77457
-49.99916
-53.62698
-56.82108
-60.00305
-63.71625
-68.46485
-74.4229
-81.17442
-87.60267
-91.94127
-92.25153
-86.98345
-75.56503
-58.65065
-38.03578
-16.12387
4.708309
22.63411
36.65678
46.54729
52.57729
55.26943
55.19293
52.88436
48.88803
43.83264
38.40896
33.373
29.41576
27.03808
26.49939
27.73203
30.39614
33.95584
37.85892
41.59295
44.79607
47.2066
48.64104
48.98405
48.1743
46.25821
43.37993
39.80512
35.80121
31.63362
27.46134
23.3738
19.40548
15.58246
11.95115
8.56633
5.427461
2.457597
-0.4320402
-3.32392
-6.232233
-9.092278
-11.80104
-14.27751
-16.55562
-18.78462
-21.24492
-24.19006
-27.7643
-31.89399
-36.35387
-40.81626
-44.98981
-48.74503
-52.1382
-55.41315
-58.91264
-63.05454
-68.17198
-74.34209
-81.14826
-87.50285
-91.69085
-91.74016
-86.03252
-73.95442
-56.24178
-34.86956
-12.47282
8.434824
26.09278
39.68275
49.19122
54.96577
57.45407
57.05571
54.26627
49.79029
44.55006
39.52472
35.47487
32.84837
31.69203
31.85907
33.11666
35.31603
38.31292
41.93677
45.89259
49.72244
52.8931
54.86787
55.29372
54.06096
51.35715
47.59003
43.23627
38.72742
34.32106
30.11826
26.07047
22.14907
18.34861
14.74374
11.44193
8.478996
5.812847
3.298592
0.7897072
-1.828651
-4.544865
-7.27552
-9.888885
-12.27733
-14.46336
-16.6026
-18.99381
-21.94423
-25.67506
-30.15156
-35.09577
-40.04589
-44.54823
-48.34868
-51.5193
-54.47691
-57.85643
-62.31659
-68.28475
-75.72275
-83.9059
-91.38241
-96.18039
-96.23418
-90.03653
-77.17459
-58.59951
-36.41071
-13.28457
8.226707
26.28842
40.00521
49.30003
54.64708
56.71017
56.14662
53.53646
49.44733
44.48531
39.34422
34.75191
31.35358
29.56583
29.4715
30.86353
33.33779
36.47502
39.9064
43.34274
46.49008
49.00903
50.53159
50.74375
49.53519
47.00926
43.51643
39.47906
35.31452
31.29027
27.50837
23.90833
20.36345
16.76974
13.13089
9.552025
6.19809
3.231422
0.6971207
-1.4776
-3.458977
-5.427826
-7.490189
-9.621109
-11.73461
-13.73582
-15.63946
-17.61741
-19.96256
-22.94231
-26.64364
-30.89262
-35.2871
-39.37082
-42.8877
-45.90792
-48.83884
-52.30583
-56.88696
-62.88283
-70.06557
-77.55713
-83.84009
-87.03247
-85.35369
-77.6865
-64.04822
-45.69963
-24.84524
-4.006836
14.65511
29.77037
40.83881
47.9957
51.64969
52.26589
50.29818
46.27745
40.86882
34.90189
29.22968
24.63204
21.66281
20.58682
21.37463
23.7709
27.34467
31.55814
35.92026
39.9593
43.33909
45.80031
47.13925
47.22726
45.99319
43.4858
39.87534
35.50919
30.82758
26.27496
22.17119
18.60443
15.4299
12.32195
8.944435
5.105743
0.8806839
-3.403427
-7.309814
-10.49494
-12.92564
-14.87983
-16.85522
-19.33877
-22.61392
-26.62377
-31.0527
-35.4891
-39.53421
-43.02697
-45.99878
-48.71319
-51.5827
-55.14138
-59.90804
-66.16641
-73.69897
-81.55345
-88.03133
-91.02553
-88.61889
-79.78223
-64.78569
-45.24057
-23.60202
-2.446571
16.1871
31.14651
42.12723
49.37984
53.3595
54.53121
53.29797
50.12292
45.61017
40.51289
35.64105
31.74702
29.38523
28.78388
29.89553
32.37299
35.72432
39.39819
42.91315
45.90996
48.14642
49.48363
49.80099
49.01156
47.05094
43.954
39.89716
35.20375
30.29724
25.59335
21.34541
17.62971
14.33244
11.22514
8.067024
4.707611
1.098358
-2.633972
-6.281998
-9.610313
-12.45711
-14.80719
-16.87622
-19.02906
-21.66988
-25.10355
-29.35355
-34.1498
-39.01016
-43.45115
-47.18357
-50.23836
-52.96197
-55.90961
-59.72332
-64.94907
-71.80336
-79.94856
-88.26871
-94.91377
-97.64907
-94.46716
-84.33455
-67.65546
-46.25452
-22.84418
-0.2611237
19.30434
34.66221
45.5499
52.33399
55.6255
56.103
54.44272
51.32314
47.44373
43.44822
39.88842
37.17796
35.57591
35.19514
36.02573
37.90781
40.59216
43.74868
47.03661
50.12048
52.65018
54.29786
54.76157
53.84081
51.51241
47.96969
43.57818
38.75562
33.85605
29.06164
24.41882
19.91497
15.56139
11.46526
7.763931
4.556076
1.820877
-0.6041641
-2.971725
-5.505783
-8.301117
-11.26382
-14.172
-16.76767
-18.90942
-20.68755
-22.41448
-24.57347
-27.59257
-31.69382
-36.77814
-42.45172
-48.13868
-53.3178
-57.67965
-61.21259
-64.25385
-67.37434
-71.25865
-76.44318
-82.97535
-90.10253
-96.19141
-98.98859
-96.27863
-86.6519
-70.13166
-48.30923
-23.88114
0.1478043
21.28831
38.07458
50.08924
57.68286
61.54149
62.37478
60.82902
57.53782
53.23339
48.73494
44.84167
42.18678
41.05195
41.32397
42.6062
44.40033
46.33286
48.2514
50.16106
52.08924
53.90362
55.2492
55.67031
54.76276
52.37724
48.73841
44.31642
39.70873
35.38918
31.55824
28.14815
24.8711
21.42754
17.6818
13.73707
9.885002
6.516762
3.913292
2.110611
0.8480606
-0.303833
-1.821663
-4.025032
-6.992752
-10.54968
-14.32955
-17.9056
-21.00008
-23.58217
-25.89285
-28.40069
-31.56175
-35.59911
-40.38695
-45.46492
-50.25195
-54.33342
-57.61279
-60.39462
-63.27964
-66.96407
-72.02271
-78.66485
-86.47312
-94.28891
-100.2369
-102.1174
-98.01633
-87.01076
-69.61106
-47.70706
-24.05709
-1.459229
17.95738
33.07664
43.73202
50.35509
53.58871
54.11259
52.54739
49.53802
45.8003
42.06544
38.94904
36.85192
35.90055
36.01994
37.03632
38.75407
41.04079
43.77237
46.75764
49.71558
52.22643
53.81343
54.03148
52.6096
49.58145
45.26239
40.17954
34.89606
29.85535
25.29278
21.22297
17.52927
14.04417
10.65231
7.262444
3.881775
0.5830231
-2.478874
-5.12323
-7.239708
-8.883278
-10.28732
-11.78877
-13.64679
-15.89066
-18.28998
-20.45395
-22.08669
-23.10791
-23.7646
-24.49545
-25.76171
-27.8858
-30.9374
-34.74065
-38.94991
-43.19551
-47.1836
-50.82305
-54.23508
-57.77651
-61.96577
-67.32455
-74.15488
-82.19862
-90.4118
-97.00249
-99.78018
-96.76608
-86.891
-70.40264
-48.84866
-24.6625
-0.4623795
21.51013
39.68938
53.21725
61.80177
65.57336
64.99611
60.93091
54.58914
47.43686
40.99063
36.59424
35.13438
36.87151
41.36755
47.58521
54.14914
59.73228
63.42262
64.8759
64.3277
62.32787
59.44791
56.10048
52.52895
48.93355
45.59222
42.83319
40.8748
39.67998
38.80878
37.56917
35.28119
31.54007
26.38731
20.22879
13.66447
7.302887
1.575226
-3.298462
-7.298569
-10.59189
-13.46968
-16.28636
-19.3432
-22.76729
-26.43898
-30.03067
-33.21942
-35.85857
-38.10544
-40.4481
-43.53833
-47.97752
-54.08669
-61.67537
-69.89517
-77.27347
-81.91795
-81.96401
-76.16829
-64.34811
-47.57666
-27.92881
-7.873512
10.37829
25.33526
36.37345
43.54404
47.24699
48.00676
46.36975
42.89378
38.24594
33.13934
28.28938
24.29485
21.59058
20.37046
20.66029
22.29883
24.99432
28.36204
31.95564
35.28594
37.8906
39.39185
39.53214
38.25648
35.72457
32.25777
28.26372
24.10799
20.0212
16.0457
12.10534
8.064819
3.87545
-0.4048309
-4.620361
-8.579994
-12.18526
-15.46831
-18.59801
-21.81863
-25.34314
-29.23136
-33.35107
-37.4323
-41.16297
-44.35976
-47.08768
-49.69105
-52.72482
-56.76479
-62.13454
-68.63912
-75.38869
-80.81798
-83.04349
-80.36667
-71.87998
-57.87759
-39.83648
-20.01752
-0.8067703
15.89752
29.04686
38.39771
44.26318
47.1798
47.68439
46.26421
43.42028
39.70386
35.72697
32.11404
29.40509
27.95882
27.91396
29.13953
31.29604
33.93693
36.59205
38.90841
40.67133
41.77246
42.15504
41.71394
40.31526
37.86943
34.40426
30.11432
25.32436
20.35895
15.47465
10.78349
6.307693
2.063744
-1.920631
-5.592514
-9.013512
-12.36225
-15.93643
-19.99838
-24.60938
-29.5776
-34.51056
-39.03005
-42.93874
-46.33677
-49.53127
-52.96215
-57.05245
-62.06538
-68.00903
-74.39969
-80.1749
-83.71636
-83.21705
-77.2637
-65.4481
-48.64899
-28.84603
-8.542847
10.0169
25.35251
36.89017
44.74029
49.34717
51.22042
50.82766
48.66794
45.32346
41.47562
37.79961
34.83289
32.88251
32.03843
32.16775
33.05536
34.48431
36.2821
38.35392
40.56867
42.71111
44.42277
45.24489
44.77628
42.81525
39.48602
35.19106
30.50024
25.92655
21.80296
18.17174
14.8576
11.56792
8.041924
4.199783
0.1730499
-3.704308
-7.090355
-9.765045
-11.81254
-13.60648
-15.69936
-18.57409
-22.42853
-27.0858
-32.0688
-36.8644
-41.10556
-44.75142
-48.08002
-51.59146
-55.84706
-61.28938
-68.0225
-75.60397
-82.91611
-88.23285
-89.61148
-85.4595
-75.13115
-59.26781
-39.65669
-18.75396
1.049892
17.99207
31.18161
40.51886
46.38517
49.38717
50.15093
49.29786
47.43482
45.17105
43.03902
41.45928
40.65205
40.64365
41.30956
42.45732
43.92727
45.58615
47.36468
49.1625
50.8068
52.04192
52.56866
52.12375
50.55436
47.88855
44.3311
40.22115
35.97775
31.99293
28.54644
25.7244
23.42096
21.40467
19.43668
17.41629
15.38036
13.48461
11.8921
10.67279
9.773848
9.083887
8.454945
7.785812
7.001307
6.061596
4.917804
3.537678
1.896099
0.03626347
-1.935947
-3.898333
-5.722498
-7.387262
-8.965857
-10.62943
-12.58233
-14.95474
-17.72603
-20.70248
-23.60138
-26.18406
-28.37692
-30.31655
-32.28855
-34.61211
-37.50652
-40.99211
-44.88554
-48.883
-52.62569
-55.85416
-58.51552
-60.76842
-62.9905
-65.70919
-69.49256
-74.69205
-81.25156
-88.3849
-94.56879
-97.80132
-96.13988
-88.34932
-74.43593
-55.77361
-34.67993
-13.76167
4.842758
19.86915
30.94296
38.32119
42.50578
44.04446
43.50781
41.53722
38.88084
36.29314
34.39361
33.48885
33.58749
34.46637
35.85239
37.55017
39.48222
41.62107
43.89375
46.12016
47.98624
49.17846
49.43988
48.6454
46.8291
44.16258
40.87841
37.28164
33.66071
30.24199
27.15948
24.43153
21.95864
19.6046
17.29047
15.04549
13.00044
11.32492
10.12609
9.361847
8.850632
8.330811
7.5756
6.462952
5.011475
3.374146
1.761162
0.340538
-0.8411331
-1.910767
-3.134262
-4.797485
-7.118668
-10.09499
-13.51719
-17.03762
-20.32938
-23.21936
-25.77917
-28.28384
-31.0862
-34.44369
-38.41073
-42.78828
-47.24031
-51.40396
-55.05412
-58.17033
-60.97723
-63.89838
-67.4503
-72.08671
-77.98069
-84.73987
-91.26151
-95.84424
-96.56198
-91.90283
-81.34544
-65.61973
-46.51653
-26.35735
-7.319374
9.021248
21.83431
30.93908
36.56184
39.1666
39.34528
37.80752
35.32285
32.62453
30.31474
28.78256
28.1909
28.52795
29.6951
31.53534
33.90508
36.6861
39.73981
42.87257
45.80025
48.18191
49.65312
49.97028
49.08388
47.11121
44.29688
40.92101
37.25281
33.52393
29.93125
26.64304
23.77711
21.34982
19.26719
17.34728
15.41
13.3704
11.29142
9.365639
7.79567
6.664948
5.861771
5.103172
4.015121
2.305939
-0.1020203
-3.062897
-6.240112
-9.303467
-12.04349
-14.48656
-16.85233
-19.44534
-22.49411
-26.07824
-30.06602
-34.23473
-38.32066
-42.12988
-45.58625
-48.7296
-51.72517
-54.82496
-58.39063
-62.81443
-68.36763
-74.91181
-81.66739
-87.15515
-89.48734
-86.92279
-78.49245
-64.4371
-46.18403
-25.93245
-6.006443
11.70973
26.05132
36.57763
43.36541
46.78227
47.34975
45.69416
42.50385
38.47226
34.25889
30.42566
27.42795
25.60924
25.18443
26.2242
28.62272
32.09404
36.19751
40.45343
44.37943
47.60454
49.85574
50.97912
50.87528
49.54244
47.09625
43.77098
39.95651
36.05109
32.36975
28.98873
25.79729
22.54789
19.07816
15.46288
11.99238
9.054056
6.874625
5.39943
4.268172
3.002895
1.253922
-1.034099
-3.627038
-6.181695
-8.445785
-10.43155
-12.43578
-14.89677
-18.18381
-22.45836
-27.53465
-32.98035
-38.2781
-43.01355
-47.01316
-50.40568
-53.5691
-57.02306
-61.27506
-66.69587
-73.31283
-80.65863
-87.62363
-92.5164
-93.42267
-88.74521
-77.7751
-61.09989
-40.543
-18.62957
2.103492
19.79314
33.51107
43.17893
49.20134
52.14788
52.551
50.93192
47.87669
44.04498
40.15904
36.83341
34.53176
33.49428
33.76981
35.27295
37.8174
41.17252
45.03159
49.04185
52.79292
55.80798
57.61494
57.83814
56.33108
53.26759
49.12836
44.53836
40.06874
36.04116
32.46591
29.1782
25.96847
22.73088
19.49389
16.36396
13.47475
10.92685
8.817612
7.185719
6.021786
5.211143
4.540882
3.720413
2.486187
0.6852417
-1.710758
-4.560993
-7.643795
-10.75663
-13.76711
-16.69608
-19.72404
-23.14522
-27.23905
-32.15469
-37.71657
-43.47658
-48.84759
-53.36327
-56.89255
-59.7297
-62.49062
-65.90139
-70.58916
-76.77231
-84.06351
-91.39186
-97.07126
-99.13913
-95.88165
-86.43338
-71.14574
-51.61096
-30.18841
-9.325756
9.081032
24.01211
35.21739
42.93182
47.56689
49.54936
49.33086
47.47604
44.63333
41.4578
38.49401
36.10268
34.47614
33.73004
33.95331
35.21262
37.5147
40.72936
44.59444
48.72327
52.6283
55.79856
57.76001
58.18313
57.02027
54.50377
51.09236
47.27486
43.41633
39.65465
35.93273
32.14748
28.27724
24.46251
20.92706
17.88586
15.41943
13.4581
11.81628
10.29786
8.772423
7.211296
5.672405
4.220726
2.886372
1.608772
0.2255974
-1.480312
-3.672535
-6.412075
-9.594582
-12.9902
-16.32854
-19.43354
-22.31877
-25.18027
-28.35386
-32.12949
-36.60872
-41.66149
-46.95263
-52.08774
-56.75225
-60.83448
-64.45597
-67.98775
-71.98201
-77.02608
-83.47161
-91.09949
-98.87897
-104.9574
-107.0854
-103.2819
-92.54019
-75.28302
-53.30993
-29.27871
-5.967892
14.40662
30.5211
41.99732
49.10831
52.5722
53.24133
51.99676
49.66909
46.93543
44.31007
42.12201
40.56314
39.74101
39.72749
40.55428
42.17175
44.4251
47.08232
49.84943
52.4436
54.58404
56.06427
56.69119
56.29232
54.76323
52.12401
48.56776
44.41228
40.04207
35.77749
31.83369
28.25751
24.99398
21.90166
18.85277
15.76127
12.66103
9.711975
7.143471
5.151833
3.756065
2.760574
1.756287
0.3041916
-1.878281
-4.806435
-8.186607
-11.62424
-14.77493
-17.52742
-19.99868
-22.48186
-25.31673
-28.73812
-32.80225
-37.38023
-42.21762
-46.97995
-51.3764
-55.22466
-58.56224
-61.67935
-65.12895
-69.56144
-75.4996
-82.97559
-91.21082
-98.52251
-102.6275
-101.2667
-93.01833
-77.88621
-57.41759
-34.26193
-11.33086
8.976555
25.28882
37.25687
45.23326
49.82047
51.61397
51.13257
48.91375
45.63185
42.04461
38.9096
36.79899
36.00287
36.51419
38.10572
40.46758
43.30492
46.4104
49.59781
52.68246
55.38588
57.33757
58.16187
57.5564
55.45316
52.04314
47.72523
43.00198
38.34859
34.08926
30.35934
27.1355
24.27218
21.59907
18.99181
16.40012
13.84761
11.43449
9.25676
7.332886
5.59333
3.852005
1.909683
-0.359024
-2.954247
-5.737114
-8.506981
-11.08038
-13.4243
-15.63893
-17.97685
-20.73564
-24.16877
-28.39371
-33.32779
-38.7049
-44.14878
-49.30331
-53.92657
-57.9978
-61.73655
-65.56143
-70.01314
-75.57962
-82.37458
-89.8739
-96.72693
-100.8821
-100.1354
-92.89684
-78.86035
-59.26609
-36.55785
-13.61309
7.104721
24.09328
36.87876
45.71488
51.1385
53.73121
53.995
52.45159
49.69772
46.37483
43.10933
40.43169
38.69215
38.10725
38.74213
40.51618
43.22043
46.52465
50.00507
53.20461
55.71967
57.20638
57.45148
56.38372
54.06083
50.67206
46.52451
41.97229
37.38906
33.06966
29.19193
25.79839
22.8123
20.09921
17.54897
15.10379
12.78529
10.65691
8.787376
7.211197
5.905136
4.773903
3.68335
2.475334
0.9775162
-0.9388657
-3.321121
-6.106308
-9.113892
-12.09652
-14.86805
-17.39815
-19.86846
-22.66364
-26.17263
-30.61197
-35.88451
-41.53286
-46.93299
-51.53345
-55.09884
-57.86117
-60.42825
-63.59518
-68.10534
-74.34917
-82.09388
-90.3581
-97.42028
-101.162
-99.5994
-91.56112
-77.08868
-57.57582
-35.35849
-13.07194
7.040154
23.52593
35.85463
44.16171
48.94454
50.84509
50.50294
48.55356
45.65347
42.43538
39.47957
37.25255
36.04147
35.93232
36.84609
38.5787
40.88388
43.54433
46.3554
49.12667
51.59851
53.42743
54.2252
53.69612
51.73078
48.50783
44.44048
40.03603
35.75285
31.85792
28.40121
25.22838
22.1397
18.93877
15.58363
12.18447
9.011101
6.360634
4.470909
3.3591
2.812111
2.424889
1.704918
0.2925262
-1.95018
-4.832024
-7.974266
-10.95642
-13.52789
-15.70826
-17.8006
-20.25875
-23.47929
-27.64736
-32.60206
-37.89578
-42.97526
-47.35655
-50.82811
-53.52734
-55.93699
-58.72425
-62.59032
-67.94253
-74.64792
-81.79951
-87.74953
-90.44257
-88.02537
-79.46214
-64.96774
-46.02423
-24.94199
-4.214935
14.07457
28.66164
39.12196
45.62064
48.69318
48.97127
47.08415
43.6694
39.37337
34.85258
30.78024
27.76928
26.26693
26.4756
28.28268
31.3045
34.99342
38.82098
42.35801
45.32592
47.53632
48.81338
48.98804
47.92657
45.60973
42.21167
38.11848
33.80782
29.72079
26.10385
22.93415
20.02547
17.12392
14.10602
11.02309
8.071419
5.446693
3.228889
1.293533
-0.6222534
-2.761681
-5.235695
-7.960823
-10.72039
-13.31163
-15.681
-17.97316
-20.46312
-23.45711
-27.12963
-31.44545
-36.15501
-40.90432
-45.37298
-49.41859
-53.12866
-56.81462
-60.95932
-66.07478
-72.50205
-80.11032
-88.07096
-94.82269
-98.30142
-96.52183
-88.23939
-73.48053
-53.69379
-31.34954
-9.20702
10.40441
26.0967
37.4754
44.88384
49.00177
50.55858
50.18616
48.43198
45.8623
43.02966
40.48994
38.62814
37.64102
37.51003
38.06773
39.13306
40.5807
42.36901
44.47685
46.8232
49.18363
51.1647
52.32649
52.3077
50.92953
48.26121
44.59605
40.32467
35.88744
31.64474
27.80458
24.41346
21.37221
18.53832
15.81296
13.22005
10.88418
8.968956
7.559334
6.56646
5.772789
4.890533
3.711349
2.143993
0.2002831
-2.077003
-4.688858
-7.642372
-10.89152
-14.26979
-17.54943
-20.55576
-23.29501
-26.03638
-29.19272
-33.08391
-37.77749
-42.99857
-48.22961
-52.94399
-56.83213
-59.92471
-62.61569
-65.55904
-69.48346
-74.92943
-82.01028
-90.13948
-97.93152
-103.3458
-104.1703
-98.70399
-86.39969
-68.13339
-46.00877
-22.77368
-1.036106
17.32406
31.38717
41.12073
47.01602
49.80502
50.24805
49.10106
47.06335
44.83633
43.0088
41.99338
41.93644
42.7281
44.11906
45.82032
47.61281
49.35831
51.01991
52.56036
53.90629
54.94035
55.50116
55.40831
54.48698
52.62556
49.79707
46.16844
42.05135
37.85573
33.97903
30.63035
27.82561
25.44512
23.33004
21.4091
19.71099
18.31409
17.25131
16.49193
15.91547
15.40211
14.79574
13.97648
12.86057
11.39123
9.606903
7.625751
5.635738
3.784672
2.075645
0.3207283
-1.775093
-4.463211
-7.799965
-11.61254
-15.56198
-19.31475
-22.67361
-25.66103
-28.51272
-31.54174
-35.03304
-39.1535
-43.89195
-49.03358
-54.27579
-59.24332
-63.62995
-67.30637
-70.39436
-73.3148
-76.71275
-81.18242
-87.00166
-93.79283
-100.3228
-104.6868
-104.7377
-98.7878
-86.24733
-67.92556
-45.86395
-22.73317
-1.114637
17.13558
31.08713
40.63713
46.25974
48.68143
48.72223
47.19873
44.86629
42.36897
40.19171
38.63987
37.86645
37.97803
38.99827
40.89794
43.54389
46.67426
49.92742
52.90004
55.26105
56.77896
57.3282
56.81011
55.18386
52.48698
48.86097
44.58485
40.02954
35.58667
31.53541
27.9976
24.90129
22.07911
19.35323
16.63733
13.95922
11.44774
9.251606
7.461433
6.110249
5.07534
4.143311
3.045078
1.484009
-0.7254791
-3.605663
-6.98978
-10.57936
-14.02369
-17.09145
-19.77236
-22.29315
-25.04726
-28.42885
-32.6221
-37.55757
-42.90198
-48.17837
-52.95609
-56.98957
-60.32173
-63.27529
-66.37578
-70.19856
-75.24261
-81.6881
-89.19356
-96.71071
-102.4923
-104.4137
-100.5793
-89.99817
-73.03461
-51.43807
-27.86084
-5.098469
14.61061
30.02954
40.88964
47.62124
50.96808
51.74728
50.74178
48.66386
46.19782
43.88538
42.14599
41.22564
41.22878
42.14971
43.88898
46.24268
48.94662
51.72973
54.36172
56.6389
58.40472
59.46154
59.59075
58.59114
56.37401
53.05174
48.97919
44.65327
40.55377
36.98746
34.00399
31.38921
28.82955
26.02872
22.86494
19.44266
16.00932
12.89314
10.34388
8.422607
6.958344
5.624641
4.030251
1.877693
-0.9003754
-4.139969
-7.513458
-10.6978
-13.57088
-16.28242
-19.20129
-22.73159
-27.11936
-32.30399
-37.94537
-43.55005
-48.64016
-52.95802
-56.54327
-59.72964
-63.10566
-67.3324
-72.93646
-80.03114
-88.05526
-95.65128
-100.8482
-101.5069
-95.99557
-83.75358
-65.56729
-43.43574
-19.98357
2.188416
21.1072
35.68248
45.68802
51.49429
53.78108
53.35647
51.02806
47.56782
43.68027
39.98069
36.92574
34.81126
33.80647
33.93547
35.12177
37.21712
39.97449
43.09312
46.22086
48.98716
51.06403
52.20003
52.24136
51.10418
48.84924
45.60611
41.617
37.15503
32.48351
27.81136
23.28574
19.01438
15.05729
11.48878
8.312309
5.484924
2.88459
0.3593216
-2.221718
-4.869789
-7.498337
-9.969673
-12.14985
-14.05763
-15.84942
-17.81042
-20.24873
-23.37314
-27.17366
-31.42957
-35.76851
-39.81127
-43.33529
-46.3782
-49.22346
-52.36986
-56.36958
-61.65435
-68.29626
-75.73244
-82.66599
-87.20447
-87.30427
-81.40249
-69.07378
-51.26342
-30.12934
-8.429844
11.2808
27.25043
38.78539
46.1125
49.99291
51.29865
50.78633
48.99306
46.32383
43.12691
39.81741
36.83742
34.57716
33.31025
33.06616
33.70182
34.98362
36.68147
38.62195
40.66679
42.61822
44.20106
45.08317
44.96358
43.69852
41.33978
38.10416
34.28568
30.16787
25.93909
21.75534
17.77783
14.15513
11.01736
8.347149
5.935257
3.434219
0.557869
-2.774311
-6.340591
-9.684444
-12.3814
-14.24809
-15.49888
-16.7165
-18.5719
-21.5422
-25.69184
-30.65889
-35.80177
-40.51618
-44.4245
-47.54972
-50.25533
-53.12815
-56.81713
-61.83312
-68.2951
-75.75156
-83.03728
-88.36565
-89.72136
-85.40746
-74.6687
-58.04534
-37.33316
-15.08475
6.066463
24.03811
37.6913
46.79694
51.78941
53.41743
52.47881
49.72958
45.87646
41.60872
37.60588
34.47977
32.64616
32.2504
33.15387
34.9832
37.31068
39.78511
42.22926
44.58886
46.8297
48.77932
50.09505
50.34585
49.16978
46.51782
42.65241
38.1116
33.4549
29.0797
25.09907
21.40428
17.84585
14.34998
11.04768
8.180014
5.979891
4.506224
3.604576
2.904461
1.993731
0.5522537
-1.520315
-4.098031
-6.882362
-9.596519
-12.10528
-14.49318
-17.02328
-19.98243
-23.53364
-27.6311
-32.05468
-36.47033
-40.57423
-44.194
-47.3255
-50.15425
-53.02362
-56.39796
-60.75867
-66.44548
-73.37398
-80.79995
-87.24101
-90.69614
-89.21474
-81.53861
-67.65766
-48.93642
-27.72235
-6.668124
11.97026
26.83589
37.52604
44.33498
47.92275
48.99571
48.19368
46.06936
43.18159
40.07274
37.26052
35.18987
34.12363
34.14864
35.14475
36.85999
38.9752
41.20858
43.3468
45.25871
46.8426
47.93496
48.35309
47.87356
46.36141
43.82903
40.46977
36.63239
32.72112
29.05111
25.76657
22.84129
20.15331
17.58446
15.10366
12.76642
10.682
8.886227
7.341358
5.917351
4.502411
3.039169
1.55521
0.1235886
-1.269192
-2.737293
-4.485546
-6.691704
-9.412018
-12.48756
-15.64293
-18.61411
-21.25342
-23.63701
-26.02037
-28.70081
-31.85935
-35.48016
-39.34213
-43.14941
-46.62613
-49.64014
-52.25838
-54.74574
-57.52988
-61.0957
-65.87141
-71.92613
-78.72224
-84.99826
-88.90704
-88.52585
-82.47798
-70.52409
-53.7026
-34.11815
-14.2702
3.619537
18.0975
28.63068
35.42059
39.09491
40.42063
40.10461
38.75192
36.8523
34.8116
32.96723
31.5962
30.88831
30.94183
31.73767
33.15105
34.99445
37.06348
39.15501
41.08022
42.70175
43.84692
44.33659
44.00668
42.76957
40.65323
37.86256
34.67265
31.35724
28.13222
25.05508
22.07564
19.10722
16.10757
13.133
10.33248
7.843918
5.765778
4.095535
2.786659
1.774254
1.025063
0.4684067
-0.02384949
-0.6692657
-1.721313
-3.364868
-5.632019
-8.333618
-11.17744
-13.85716
-16.23103
-18.39241
-20.6071
-23.2189
-26.4603
-30.38541
-34.7901
-39.30444
-43.50584
-47.06828
-49.88004
-52.09486
-54.12097
-56.53075
-59.90038
-64.52718
-70.25098
-76.22453
-81.00677
-82.85294
-80.22415
-72.32423
-59.43138
-42.88757
-24.70448
-7.027802
8.426056
20.61774
29.18982
34.35254
36.56601
36.4447
34.60056
31.64906
28.18396
24.75816
21.85771
19.85725
19.01576
19.45569
21.10825
23.752
27.05458
30.62968
34.12231
37.20376
39.599
41.0766
41.46163
40.66589
38.71001
35.77203
32.09868
28.01868
23.84153
19.83306
16.17817
13.0034
10.34306
8.142715
6.245285
4.408859
2.442627
0.2569199
-2.072929
-4.38102
-6.448151
-8.191551
-9.662483
-11.09348
-12.82873
-15.17934
-18.3647
-22.41092
-27.13744
-32.17635
-37.08243
-41.4906
-45.2414
-48.46574
-51.57661
-55.16211
-59.77695
-65.7026
-72.71307
-79.90802
-85.76644
-88.4442
-86.2622
-78.2958
-64.73858
-46.92201
-26.96104
-7.167213
10.51885
24.8885
35.45194
42.28094
45.77125
46.4545
44.97904
42.08019
38.5225
35.03115
32.18597
30.34464
29.65567
30.08852
31.48957
33.66101
36.36663
39.37369
42.45374
45.35765
47.81643
49.51775
50.14767
49.46246
47.37161
44.04541
39.88714
35.43474
31.18326
27.43487
24.22873
21.38202
18.62467
15.77405
12.79853
9.838676
7.123863
4.891102
3.262054
2.176476
1.401066
0.5331612
-0.821125
-2.890366
-5.643772
-8.777771
-11.83215
-14.4523
-16.56372
-18.4098
-20.48841
-23.29928
-27.11117
-31.85434
-37.15109
-42.44966
-47.28907
-51.43614
-54.97522
-58.28139
-61.92271
-66.52831
-72.56345
-80.04291
-88.28392
-95.79652
-100.5107
-100.2885
-93.66292
-80.41822
-61.75398
-39.95175
-17.67123
2.79803
19.95744
33.16705
42.43919
48.11361
50.71761
50.91826
49.51109
47.34785
45.20876
43.63167
42.88161
42.99813
43.88343
45.43719
47.56
50.13423
52.96779
55.8227
58.42668
60.55656
62.0201
62.64325
62.29443
60.85127
58.30496
54.80389
50.70441
46.46518
42.53706
39.16361
36.31282
33.76681
31.26711
28.66629
26.01117
23.5004
21.32051
19.54707
18.11046
16.82132
15.50008
14.0639
12.47881
10.74236
8.820141
6.630863
4.119183
1.286671
-1.778372
-4.948305
-8.120993
-11.25225
-14.41424
-17.7299
-21.35591
-25.3845
-29.80433
-34.49909
-39.2374
-43.75357
-47.80635
-51.25609
-54.17002
-56.82867
-59.66726
-63.23087
-67.97278
-74.04567
-81.04709
-87.86984
-92.74516
-93.63503
-88.85791
-77.70627
-60.85328
-40.21329
-18.42358
1.95026
19.03681
31.924
40.57613
45.47407
47.32405
46.85477
44.80454
41.929
38.93862
36.41813
34.75318
34.09998
34.41803
35.57951
37.38715
39.67412
42.27617
45.03154
47.77211
50.2608
52.2271
53.37742
53.47464
52.42338
50.29091
47.3118
43.81556
40.13236
36.53632
33.18902
30.1204
27.25705
24.45116
21.56763
18.55672
15.4817
12.5269
9.890719
7.686919
5.89712
4.365279
2.877142
1.230504
-0.7142265
-3.006616
-5.587713
-8.347029
-11.13146
-13.79867
-16.30875
-18.73296
-21.296
-24.26188
-27.79872
-31.88276
-36.2644
-40.56279
-44.43401
-47.72913
-50.55147
-53.26012
-56.35661
-60.35101
-65.55852
-71.84061
-78.43439
-83.90434
-86.42911
-84.27519
-76.44361
-63.09376
-45.61819
-26.24968
-7.378323
9.09145
22.09892
31.40279
37.33085
40.40234
41.16643
40.13563
37.80248
34.72362
31.4656
28.55774
26.39437
25.21833
25.06843
25.8685
27.42139
29.52835
31.98209
34.58783
37.12548
39.29978
40.72815
41.00878
39.86534
37.25519
33.4329
28.89238
24.2114
19.87488
16.13775
12.9976
10.20972
7.461002
4.488617
1.225574
-2.213562
-5.552914
-8.504208
-10.93097
-12.90557
-14.727
-16.74805
-19.24895
-22.28375
-25.67773
-29.10765
-32.2465
-34.97058
-37.37859
-39.83086
-42.80582
-46.75573
-51.89658
-58.03633
-64.43281
-69.81352
-72.61842
-71.41905
-65.36339
-54.51117
-39.89081
-23.24456
-6.491787
8.682354
21.18372
30.52061
36.66372
39.81747
40.2784
38.42737
34.7577
29.96204
24.86632
20.31638
17.02423
15.41401
15.51991
17.05054
19.53632
22.46413
25.45972
28.28
30.7531
32.70032
33.87691
33.94984
32.61029
29.70853
25.3821
20.06774
14.37726
8.907637
4.050785
-0.1156845
-3.819183
-7.398182
-11.13288
-15.09402
-19.11901
-22.90465
-26.19962
-28.88494
-31.06619
-33.07637
-35.36076
-38.42393
-42.65786
-48.15813
-54.52153
-60.76213
-65.39787
-66.77583
-63.6284
-55.48955
-42.92681
-27.41525
-10.84392
4.949248
18.60392
29.38082
37.07469
41.83026
43.96733
43.89576
42.0779
39.06294
35.44851
31.84913
28.84155
26.86847
26.18325
26.82146
28.60014
31.19533
34.23845
37.36809
40.26012
42.61554
44.13713
44.5671
43.77493
41.79268
38.84868
35.29811
31.51946
27.78679
24.2402
20.90697
17.7476
14.72559
11.86252
9.235627
6.967237
5.120638
3.608847
2.211012
0.6001759
-1.497747
-4.157293
-7.229445
-10.38447
-13.30375
-15.88005
-18.29299
-20.91588
-24.12925
-28.09393
-32.67975
-37.51604
-42.18398
-46.40452
-50.11906
-53.48944
-56.84766
-60.58879
-65.12465
-70.75764
-77.45171
-84.5752
-90.77948
-94.17612
-92.84066
-85.4957
-72.10347
-54.00118
-33.52287
-13.29735
4.54434
18.78561
29.17581
36.12478
40.32822
42.49418
43.28543
43.28383
43.02266
42.93489
43.26445
44.04321
45.14322
46.34684
47.49904
48.50934
49.38557
50.19235
50.98698
51.77822
52.49895
52.9986
52.99756
52.23721
50.50787
47.78277
44.27522
40.36892
36.48412
32.91961
29.78315
27.00468
24.4767
22.12111
19.95858
18.05473
16.47039
15.17937
14.10662
13.15203
12.24058
11.34526
10.45055
9.551768
8.593193
7.512278
6.26446
4.859308
3.350136
1.806421
0.2761841
-1.234596
-2.775684
-4.442806
-6.324608
-8.479191
-10.90052
-13.54276
-16.32496
-19.15424
-21.92506
-24.54966
-26.98816
-29.30111
-31.65748
-34.26913
-37.32514
-40.89945
-44.86134
-48.95772
-52.86504
-56.35138
-59.38639
-62.19399
-65.22403
-69.03688
-74.02808
-80.17422
-86.76137
-92.32246
-94.93448
-92.76241
-84.74155
-71.05401
-53.1569
-33.33539
-14.01143
2.909218
16.38292
26.19365
32.70117
36.50639
38.25259
38.54876
37.96681
37.05161
36.23227
35.82034
35.94402
36.60652
37.75079
39.28767
41.12087
43.14988
45.23131
47.23216
48.99944
50.38018
51.2224
51.355
50.63098
48.9785
46.48026
43.36703
40.00687
36.7616
33.83813
31.25344
28.84993
26.43298
23.90509
21.34108
18.93892
16.93101
15.45117
14.47235
13.83459
13.30766
12.66325
11.7312
10.41399
8.727161
6.76889
4.704666
2.69558
0.8228455
-0.9988518
-2.969521
-5.333336
-8.209312
-11.50125
-14.90016
-18.04146
-20.6934
-22.87363
-24.90393
-27.23252
-30.26798
-34.19084
-38.85064
-43.83015
-48.53546
-52.41049
-55.10165
-56.63673
-57.45385
-58.38588
-60.42828
-64.40589
-70.54493
-78.1884
-85.74101
-91.01657
-91.87495
-86.88797
-75.86348
-59.91339
-41.10612
-21.82936
-4.146904
10.60966
21.89873
29.78214
34.64001
36.94091
37.18582
35.91832
33.75042
31.35186
29.33118
28.12455
27.91867
28.67532
30.20336
32.30773
34.81006
37.56855
40.42545
43.14775
45.41161
46.87973
47.28568
46.5407
44.77062
42.25671
39.3322
36.28925
33.30111
30.45505
27.78431
25.33055
23.11211
21.10669
19.22868
17.35119
15.38351
13.30819
11.26729
9.440599
7.981461
6.862862
5.886337
4.725395
3.091682
0.8622017
-1.877556
-4.859493
-7.774548
-10.39297
-12.71623
-14.96249
-17.49551
-20.66096
-24.606
-29.22787
-34.18496
-39.03292
-43.40389
-47.13586
-50.34126
-53.35728
-56.70344
-60.87544
-66.18011
-72.50441
-79.17438
-84.93418
-88.12787
-87.14653
-80.89137
-69.19346
-52.94557
-33.9222
-14.30735
3.837046
19.00551
30.46747
38.15501
42.50034
44.10103
43.59753
41.58879
38.6602
35.43733
32.51693
30.44384
29.54856
29.9449
31.52827
34.04348
37.18717
40.64392
44.08998
47.20407
49.68407
51.28767
51.86815
51.37697
49.85004
47.42068
44.26414
40.60952
36.70033
32.79793
29.08834
25.69832
22.66895
19.95472
17.52119
15.33107
13.38948
11.71398
10.3607
9.355355
8.688717
8.241179
7.743169
6.814246
5.079228
2.336203
-1.330812
-5.527953
-9.706438
-13.37244
-16.30517
-18.67716
-20.95655
-23.70872
-27.34694
-31.95432
-37.28531
-42.90769
-48.34667
-53.26302
-57.56395
-61.3663
-65.01547
-68.99567
-73.78909
-79.75418
-86.85521
-94.42636
-101.0996
-104.9535
-103.9901
-96.81335
-83.1526
-64.11801
-41.91293
-19.25612
1.383791
18.31556
30.82501
39.05211
43.65631
45.48548
45.36424
43.98997
41.91253
39.58338
37.34493
35.49221
34.29649
33.94574
34.58702
36.26587
38.93712
42.39131
46.35183
50.43301
54.22371
57.31626
59.31239
59.90923
58.9419
56.44057
52.67586
48.13961
43.42668
39.06342
35.37316
32.34344
29.7215
27.10881
24.25539
21.13831
18.02157
15.29421
13.24303
11.89368
10.96675
10.01194
8.576653
6.436951
3.641449
0.5065308
-2.582726
-5.345535
-7.80452
-10.27109
-13.22838
-17.06826
-21.87924
-27.38803
-33.04916
-38.27001
-42.66454
-46.19465
-49.18482
-52.17611
-55.80817
-60.65634
-67.03019
-74.76482
-82.98399
-90.06126
-93.85279
-92.32751
-84.22572
-69.58825
-49.87585
-27.53593
-5.323677
14.42896
30.24317
41.61089
48.73089
52.27271
53.04511
51.85664
49.42041
46.33511
43.07882
40.06769
37.66714
36.1864
35.81837
36.60455
38.39315
40.90304
43.75848
46.60268
49.12945
51.09318
52.29539
52.54436
51.69333
49.66502
46.54343
42.55157
38.04065
33.4056
28.96278
24.8834
21.18721
17.76347
14.48962
11.2823
8.101418
4.925652
1.743256
-1.42923
-4.503441
-7.332512
-9.744438
-11.6511
-13.1961
-14.71445
-16.67928
-19.49137
-23.29185
-27.88918
-32.83812
-37.61846
-41.80506
-45.2451
-48.10048
-50.79472
-53.9547
-58.24538
-64.10154
-71.47658
-79.56731
-86.77325
-90.98431
-90.15273
-82.95704
-69.34676
-50.61445
-29.04504
-7.246559
12.52225
28.74966
40.74896
48.50215
52.38186
52.97216
50.95734
47.10713
42.23279
37.13316
32.50632
28.87307
26.56023
25.65288
26.06329
27.58847
29.9875
33.02377
36.45403
39.9595
43.09193
45.34305
46.20316
45.37744
42.89458
39.1354
34.69623
30.16996
25.93468
22.05449
18.32932
14.41914
10.09304
5.323456
0.332283
-4.473709
-8.716003
-12.18455
-14.94628
-17.34859
-19.82339
-22.73436
-26.21362
-30.13715
-34.21577
-38.14799
-41.74395
-44.99845
-48.14986
-51.58102
-55.80475
-61.20296
-67.84692
-75.1254
-81.66072
-85.47084
-84.49358
-77.33263
-63.84814
-45.32468
-24.11071
-2.928284
15.91678
31.01466
41.89349
48.78596
52.22958
52.83114
51.13764
47.7156
43.19579
38.31219
33.83204
30.41904
28.52334
28.25395
29.44352
31.67368
34.49947
37.53951
40.51064
43.23073
45.48693
47.03049
47.59264
46.956
45.03226
41.93069
37.90368
33.30499
28.48394
23.73185
19.24231
15.10388
11.29155
7.691093
4.174919
0.6435928
-2.938873
-6.486931
-9.840858
-12.82096
-15.35433
-17.52914
-19.63046
-22.03962
-25.10576
-29.00388
-33.64796
-38.73283
-43.8214
-48.52145
-52.62963
-56.18398
-59.44817
-62.86144
-66.95812
-72.24004
-78.97082
-86.88171
-94.90646
-101.2154
-103.5217
-99.80881
-89.06484
-71.77448
-49.86111
-26.16076
-3.53421
15.87588
30.99766
41.73018
48.54601
52.06109
52.85327
51.44549
48.43151
44.53657
40.5779
37.31168
35.28999
34.76608
35.66528
37.71062
40.52499
43.73282
47.04285
50.23773
53.08941
55.34361
56.72565
56.9426
55.81669
53.35411
49.77589
45.4284
40.69398
35.84109
31.02419
26.30242
21.71536
17.37614
13.45384
10.09074
7.320435
4.98304
2.787727
0.4302292
-2.259789
-5.269012
-8.403999
-11.44067
-14.31454
-17.14916
-20.26408
-23.99534
-28.50766
-33.70026
-39.22817
-44.64747
-49.60359
-53.99406
-57.97718
-61.94603
-66.42664
-71.96041
-78.91788
-87.21682
-96.06478
-103.8581
-108.3549
-107.2535
-98.94507
-83.18549
-61.31732
-35.9641
-10.24467
13.08049
32.18112
46.33678
55.69846
60.87039
62.548
61.41257
58.11751
53.41055
48.14545
43.1955
39.30624
36.9657
36.34337
37.30888
39.56268
42.71548
46.35924
50.06966
53.41063
55.99817
57.51637
57.77835
56.75204
54.53737
51.30698
47.2766
42.65681
37.69279
32.66031
27.85394
23.48376
19.63171
16.17809
12.85168
9.349258
5.492233
1.337158
-2.843307
-6.651291
-9.760651
-12.08557
-13.87085
-15.60173
-17.84953
-21.02713
-25.21646
-30.14606
-35.28246
-40.05576
-44.09531
-47.38043
-50.23987
-53.26089
-57.13342
-62.4402
-69.44299
-77.84093
-86.57513
-93.81439
-97.2845
-94.82231
-85.14766
-68.39639
-46.23624
-21.43274
2.97731
24.44057
41.42349
53.43697
60.7509
63.97614
63.8029
60.87215
55.88142
49.65913
43.16576
37.43404
33.32114
31.3434
31.5576
33.59375
36.81795
40.58253
44.39455
47.97081
51.17447
53.832
55.64803
56.24419
55.30614
52.75542
48.84471
44.07559
38.98482
33.97722
29.22649
24.69498
20.31088
16.06248
12.06187
8.497437
5.524246
3.119324
1.059937
-0.9975128
-3.40715
-6.293579
-9.565384
-12.89101
-15.93306
-18.53226
-20.84454
-23.31642
-26.45723
-30.57744
-35.58873
-41.06273
-46.41746
-51.19633
-55.27303
-58.87684
-62.46491
-66.58024
-71.75613
-78.34386
-86.37054
-95.27774
-103.6958
-109.5487
-110.4679
-104.518
-90.97944
-70.77969
-46.26463
-20.53835
3.458969
23.68166
39.21475
50.05956
56.73679
59.90468
60.19159
58.25528
54.81401
50.63533
46.47684
42.92953
40.40154
39.10416
39.11615
40.38759
42.77002
45.99397
49.69919
53.48056
56.88922
59.50244
60.90694
60.78642
58.96207
55.52531
50.88693
45.66191
40.52699
35.93083
31.98169
28.46904
25.00899
21.27145
17.15897
12.86424
8.749893
5.177879
2.337532
0.1776886
-1.581726
-3.320374
-5.351044
-7.787071
-10.54845
-13.4156
-16.16885
-18.70894
-21.13742
-23.68842
-26.65144
-30.24477
-34.50179
-39.27303
-44.256
-49.11787
-53.56452
-57.52992
-61.19749
-65.04456
-69.72672
-75.83975
-83.58061
-92.37598
-100.699
-106.2743
-106.6431
-99.97517
-85.79855
-65.28823
-40.97437
-15.95457
6.988922
26.01407
40.40995
50.30276
56.2647
58.91514
58.8128
56.50022
52.63833
48.03459
43.5327
39.84452
37.38425
36.24475
36.31789
37.38146
39.25754
41.80244
44.87123
48.24355
51.53362
54.25014
55.89653
56.1179
54.83157
52.21362
48.6375
44.55289
40.33052
36.22579
32.32906
28.6133
24.9919
21.3674
17.68654
13.99542
10.45242
7.268234
4.714714
2.89653
1.715416
0.802597
-0.3717422
-2.298599
-5.206215
-8.990692
-13.23981
-17.46148
-21.362
-24.9821
-28.65106
-32.79258
-37.63235
-43.05869
-48.63663
-53.81647
-58.14277
-61.51513
-64.20155
-66.81955
-70.14873
-74.89379
-81.3488
-89.09695
-96.85424
-102.5696
-103.94
-99.0551
-87.09616
-68.72276
-45.94748
-21.56405
1.611671
21.41285
36.67187
47.15514
53.28793
55.77136
55.35035
52.69799
48.4986
43.49461
38.50668
34.33919
31.61143
30.6522
31.44106
33.67795
36.94283
40.80121
44.89959
48.93343
52.5951
55.48722
57.18713
57.32546
55.72839
52.53127
48.14313
43.13345
38.03973
33.2523
28.87695
24.82305
20.92082
17.02627
13.15019
9.418419
5.992805
2.975609
0.3466568
-2.049156
-4.431419
-6.930222
-9.55954
-12.15456
-14.51001
-16.50995
-18.24917
-20.05095
-22.33727
-25.44529
-29.43757
-34.08017
-38.91155
-43.4475
-47.41301
-50.83221
-54.08524
-57.7622
-62.54121
-68.8546
-76.63256
-85.01669
-92.30476
-96.28629
-94.78944
-86.46725
-71.29657
-50.76898
-27.4393
-4.213921
16.42768
32.94458
44.7903
52.22274
55.89117
56.52322
54.8151
51.40454
46.95541
42.18922
37.84323
34.53804
32.68998
32.39846
33.50246
35.66864
38.52622
41.77606
45.19463
48.58569
51.67025
54.07671
55.35228
55.10468
53.1712
49.68611
45.06995
39.90268
34.7373
29.95825
25.67433
21.77416
18.0512
14.38254
10.81056
7.497471
4.67696
2.427883
0.6848679
-0.8208847
-2.408192
-4.352959
-6.758213
-9.55201
-12.48139
-15.28987
-17.83218
-20.18401
-22.61929
-25.52001
-29.19103
-33.6944
-38.80753
-44.05934
-48.94312
-53.13177
-56.62358
-59.76266
-63.16571
-67.51205
-73.32863
-80.66273
-88.81524
-96.24174
-100.7747
-100.1605
-92.82186
-78.48186
-58.37084
-34.95548
-11.15741
10.39628
27.95821
40.85091
49.23457
53.74026
55.13933
54.17228
51.53445
47.88394
43.8792
40.11591
37.07902
35.12028
34.3967
34.86494
36.34399
38.56887
41.27483
44.24438
47.25977
50.0668
52.30793
53.57762
53.5042
51.92113
48.92005
44.86095
40.26968
35.65445
31.41286
27.68814
24.4243
21.41932
18.41484
15.22363
11.82941
8.45059
5.437378
3.139256
1.701035
0.9239705
0.318655
-0.7048693
-2.554973
-5.254946
-8.421509
-11.48754
-13.99005
-15.81191
-17.27661
-18.94666
-21.38783
-24.91361
-29.45863
-34.63715
-39.96593
-44.98995
-49.43915
-53.28706
-56.69942
-60.02237
-63.7224
-68.31088
-74.1347
-81.07932
-88.3158
-94.25676
-96.87206
-94.22453
-85.17377
-69.84818
-49.71
-27.19902
-5.006077
14.53335
29.95383
40.71535
47.07985
49.76071
49.62703
47.49268
44.03514
39.83057
35.41053
31.34121
28.15639
26.31459
26.04521
27.27865
29.73641
33.0134
36.7275
40.55887
44.2275
47.42793
49.78938
50.92449
50.55647
48.65952
45.46223
41.43392
37.09085
32.84858
28.92743
25.31665
21.8813
18.46492
15.02057
11.58055
8.290701
5.319733
2.752554
0.5685387
-1.353949
-3.15033
-4.980942
-6.877245
-8.827625
-10.74364
-12.58929
-14.43825
-16.49087
-19.05513
-22.3972
-26.64077
-31.61603
-36.91768
-41.99703
-46.4066
-49.9766
-52.92675
-55.82877
-59.43726
-64.44038
-71.14005
-79.16511
-87.31485
-93.64113
-95.86678
-92.07188
-81.41043
-64.46049
-43.15211
-20.20681
1.685059
20.49813
35.17886
45.55924
51.98363
54.99656
55.18081
53.1257
49.45217
44.86919
40.08026
35.7535
32.43135
30.48433
30.03585
30.9943
33.07837
35.89548
39.10858
42.42001
45.60273
48.38188
50.38927
51.20777
50.50577
48.19934
44.53406
40.05965
35.39042
31.04766
27.28432
24.04979
21.09202
18.11035
14.9227
11.51969
8.109632
4.992119
2.453548
0.6440849
-0.4907417
-1.221016
-1.910091
-2.930248
-4.539764
-6.762993
-9.443375
-12.2879
-15.00715
-17.4505
-19.68798
-22.02477
-24.86258
-28.53417
-33.12635
-38.40541
-43.89163
-49.01965
-53.40244
-56.96161
-60.00859
-63.15047
-67.12231
-72.51751
-79.50249
-87.55045
-95.30759
-100.8001
-101.8448
-96.71123
-84.74331
-66.68478
-44.5242
-20.99341
1.221176
20.12086
34.6402
44.67207
50.66652
53.33922
53.37105
51.3926
47.97305
43.75296
39.43661
35.72581
33.20422
32.15933
32.58446
34.19629
36.63123
39.53858
42.70151
45.97681
49.16464
51.94042
53.85837
54.48059
53.56123
51.1524
47.61973
43.51257
39.35086
35.49581
32.04793
28.87262
25.7212
22.39577
18.81962
15.12905
11.60043
8.530878
6.121294
4.346777
2.976006
1.631865
-0.02675247
-2.221056
-4.945019
-8.013664
-11.13082
-14.02287
-16.54589
-18.76966
-20.97925
-23.53034
-26.75342
-30.7629
-35.40413
-40.30539
-45.02591
-49.26532
-52.99458
-56.48684
-60.23808
-64.81655
-70.63823
-77.76599
-85.70536
-93.25735
-98.62286
-99.75021
-94.98155
-83.63705
-66.39902
-45.17745
-22.58316
-1.163244
17.22995
31.66796
42.02726
48.6058
51.83859
52.15005
50.01852
46.009
40.87148
35.41953
30.48199
26.74107
24.67214
24.48331
26.10699
29.22244
33.33842
37.91846
42.45358
46.52621
49.80048
51.96197
52.71624
51.86429
49.36994
45.4452
40.56652
35.33037
30.30148
25.85785
22.09283
18.83334
15.75576
12.53256
8.943734
4.971312
0.7983017
-3.260082
-6.859854
-9.763815
-11.93867
-13.61674
-15.19335
-17.1386
-19.78741
-23.22538
-27.27147
-31.54451
-35.64754
-39.31585
-42.54903
-45.61765
-48.98449
-53.17865
-58.66484
-65.61232
-73.70827
-81.95164
-88.6466
-91.70947
-89.23413
-80.13643
-64.64029
-44.34206
-21.78646
0.267849
19.58078
34.86496
45.78631
52.66191
56.0587
56.5365
54.59398
50.74934
45.65859
40.11765
34.97593
30.98093
28.62484
28.0708
29.17333
31.53533
34.6399
37.93891
40.94607
43.30013
44.76947
45.27348
44.78829
43.3013
40.76728
37.12317
32.39828
26.77231
20.64194
14.50208
8.791275
3.733681
-0.7741547
-5.086609
-9.648972
-14.76799
-20.46406
-26.44449
-32.23097
-37.36764
-41.57975
-44.89823
-47.60934
-50.19995
-53.23592
-57.28427
-62.72712
-69.56974
-77.21431
-84.28745
-88.81963
-88.67659
-82.25524
-69.14008
-50.36507
-28.16267
-5.30529
15.6923
33.12175
46.20403
54.92549
59.69785
61.10062
59.75677
56.36701
51.69118
46.53321
41.61537
37.48083
34.46047
32.67583
32.08787
32.57594
33.96431
36.03836
38.52982
41.07434
43.17715
44.30133
43.93982
41.80003
37.92148
32.679
26.65985
20.48816
14.60135
9.078705
3.687515
-1.970673
-8.226059
-15.09334
-22.20007
-28.89517
-34.52411
-38.7234
-41.63107
-43.85176
-46.27142
-49.78716
-55.00133
-61.98763
-70.05045
-77.69705
-82.81993
-83.20821
-77.1891
-64.28693
-45.53435
-23.2533
-0.3812714
20.3654
37.15755
49.26872
56.9198
60.8455
61.86392
60.67363
57.83977
53.87149
49.30138
44.71738
40.67006
37.58807
35.73605
35.18373
35.90878
37.83235
40.86626
44.83601
49.40024
53.9847
57.84828
60.25215
60.69002
59.04327
55.59192
50.87909
45.50107
39.97298
34.64908
29.71655
25.25824
21.29231
17.75925
14.53613
11.45766
8.384308
5.311768
2.386749
-0.1243439
-1.959541
-3.047592
-3.547813
-3.869576
-4.51297
-5.871117
-8.087563
-10.99608
-14.25988
-17.53571
-20.60835
-23.50849
-26.43081
-29.64402
-33.39991
-37.78345
-42.69417
-47.85418
-52.87396
-57.37881
-61.16237
-64.30746
-67.22095
-70.60374
-75.20956
-81.56226
-89.59004
-98.29202
-105.7261
-109.3794
-106.8971
-96.87119
-79.48522
-56.5247
-30.88023
-5.69368
16.47102
34.06647
46.54403
54.04594
57.04716
56.17258
52.22914
46.27721
39.57084
33.39302
28.74619
26.19952
25.84022
27.38362
30.37251
34.34518
38.91249
43.71103
48.34619
52.36986
55.35155
56.91029
56.85857
55.23108
52.25261
48.27455
43.69518
38.87836
34.09238
29.49934
25.16255
21.094
17.28215
13.75857
10.59781
7.883469
5.648026
3.778534
2.026779
0.07656097
-2.289116
-5.070374
-8.026421
-10.77919
-13.02338
-14.74243
-16.23521
-18.00286
-20.54313
-24.07433
-28.47378
-33.32988
-38.1122
-42.4146
-46.11518
-49.3581
-52.52072
-56.13232
-60.71584
-66.59508
-73.62611
-80.91159
-86.76466
-88.99957
-85.60304
-75.4752
-59.00989
-38.02925
-15.29158
6.398369
24.93049
39.23417
49.16893
55.12856
57.63494
57.14107
54.08881
49.02853
42.71447
36.10968
30.18201
25.78535
23.43812
23.26111
24.97944
28.09482
31.99252
36.12352
40.05528
43.43074
45.93343
47.29727
47.26818
45.73097
42.79
38.74185
34.02917
29.10129
24.30776
19.83603
15.73811
11.96675
8.435883
5.068348
1.780811
-1.448225
-4.596386
-7.608232
-10.37095
-12.81363
-14.93641
-16.84924
-18.8076
-21.1122
-24.02463
-27.6449
-31.86098
-36.36
-40.72223
-44.59763
-47.84043
-50.57394
-53.19404
-56.26037
-60.37651
-66.03693
-73.32446
-81.67014
-89.6968
-95.34171
-96.30624
-90.81975
-78.29255
-59.67202
-37.23161
-13.85283
7.786707
25.85665
39.56107
48.93917
54.44312
56.62963
56.03738
53.21835
48.86865
43.81881
38.95749
35.06681
32.69598
32.00895
32.85406
34.84646
37.51283
40.44821
43.37022
46.1016
48.50455
50.37803
51.43785
51.38932
50.03328
47.35248
43.58059
39.12699
34.47026
29.99234
25.88806
22.119
18.52214
14.95522
11.38699
7.998083
5.02932
2.697878
1.007133
-0.278842
-1.5691
-3.247466
-5.54509
-8.428187
-11.61938
-14.76788
-17.63064
-20.19584
-22.70297
-25.5529
-29.11535
-33.52656
-38.62791
-43.99727
-49.13687
-53.67813
-57.54804
-60.95685
-64.39196
-68.44993
-73.69416
-80.4138
-88.35474
-96.47591
-102.914
-105.325
-101.5829
-90.56287
-72.71778
-50.02524
-25.44125
-1.947536
18.21642
33.98619
45.27787
52.5854
56.50903
57.57353
56.23366
53.07344
48.84346
44.41053
40.56557
37.85648
36.48415
36.3434
37.17953
38.7256
40.83284
43.4706
46.59604
50.00924
53.27824
55.79013
56.93053
56.30536
53.90499
50.11467
45.55282
40.83857
36.42747
32.48603
28.95402
25.63465
22.31898
18.87648
15.30211
11.72066
8.372105
5.502945
3.231455
1.509944
0.02865028
-1.616373
-3.760913
-6.510514
-9.681298
-12.85364
-15.61688
-17.77838
-19.52842
-21.37025
-23.87916
-27.42113
-31.95917
-37.0785
-42.16485
-46.71614
-50.53957
-53.79324
-56.90887
-60.47151
-65.03344
-70.99267
-78.36773
-86.53956
-94.09928
-98.96539
-98.89161
-92.23074
-78.63074
-59.28749
-36.65136
-13.60302
7.382508
24.71943
37.83361
46.82749
52.09015
54.06142
53.19307
50.02021
45.23656
39.66547
34.15387
29.46902
26.21466
24.78282
25.25467
27.41335
30.75262
34.68416
38.68333
42.40192
45.67451
48.37598
50.29058
51.11427
50.56783
48.51933
45.11739
40.75595
35.9287
31.09323
26.5332
22.35788
18.51378
14.86734
11.23044
7.46764
3.538376
-0.4690895
-4.352289
-7.846272
-10.7834
-13.19018
-15.27743
-17.44033
-20.05956
-23.4011
-27.51463
-32.1692
-36.94347
-41.36326
-45.08445
-48.06268
-50.61814
-53.36232
-57.06312
-62.35901
-69.4437
-77.76968
-85.92711
-91.8125
-93.11452
-88.04593
-75.99471
-57.84118
-35.74825
-12.50821
9.256422
27.66691
41.83068
51.61894
57.3368
59.48598
58.64484
55.49981
50.88673
45.67347
40.6735
36.49698
33.54445
31.99728
31.87411
33.09009
35.42496
38.56156
42.09216
45.62415
48.78902
51.28021
52.83983
53.24613
52.36243
50.17785
46.86471
42.73449
38.16573
33.49212
28.90025
24.43557
20.06938
15.82129
11.76326
8.062523
4.817898
2.01442
-0.512886
-2.986805
-5.591822
-8.340691
-11.10377
-13.72617
-16.14605
-18.4917
-21.04292
-24.10872
-27.87201
-32.30117
-37.18188
-42.1905
-47.02071
-51.4567
-55.44736
-59.08173
-62.64451
-66.59399
-71.47671
-77.68086
-85.10474
-92.8326
-99.0903
-101.5899
-98.23701
-87.88125
-70.83285
-48.84441
-24.56843
-0.8130169
20.16024
36.9757
49.11995
56.70804
60.20495
60.30524
57.81596
53.68738
48.85256
44.17563
40.28096
37.55209
36.10538
35.87387
36.672
38.27783
40.51376
43.22522
46.27132
49.44177
52.40916
54.74237
55.96297
55.7174
53.87899
50.63975
46.42756
41.778
37.16595
32.83367
28.7837
24.83693
20.8036
16.63191
12.4925
8.701736
5.5541
3.176373
1.421068
-0.02209091
-1.497261
-3.263931
-5.389364
-7.79467
-10.3349
-12.8764
-15.35396
-17.81747
-20.40993
-23.35284
-26.85253
-31.01225
-35.77534
-40.8633
-45.88464
-50.44796
-54.36734
-57.74602
-61.02948
-64.88998
-70.00473
-76.73378
-84.74387
-92.80576
-98.85468
-100.5014
-95.79174
-83.95415
-65.79135
-43.49533
-19.96388
2.053634
20.6039
34.77684
44.52819
50.32827
52.80658
52.57372
50.22894
46.40284
41.78093
37.07838
32.94377
29.89297
28.25713
28.13254
29.41987
31.83221
34.9879
38.49384
41.95238
45.03389
47.42223
48.84694
49.10163
48.08167
45.83026
42.55035
38.56503
34.24382
29.94443
25.87522
22.11408
18.59886
15.21753
11.87396
8.517281
5.178537
1.912806
-1.189333
-4.041826
-6.539534
-8.633371
-10.35117
-11.85864
-13.46148
-15.5053
-18.29956
-21.94526
-26.3277
-31.11374
-35.9029
-40.36528
-44.33314
-47.87865
-51.26536
-54.92645
-59.36108
-64.99043
-71.88002
-79.4565
-86.36003
-90.58416
-90.00865
-83.11844
-69.642
-50.77855
-28.88208
-6.758954
13.15796
29.35532
41.32043
49.28687
53.82209
55.47488
54.7044
51.92242
47.66023
42.62398
37.65534
33.57645
30.96608
30.04785
30.68617
32.50838
35.12334
38.20037
41.51704
44.85625
47.91978
50.2863
51.50623
51.23003
49.38001
46.1837
42.1091
37.68812
33.37649
29.46126
26.05214
23.09991
20.47301
18.02598
15.62364
13.15821
10.61191
8.042417
5.587554
3.417963
1.641129
0.1975975
-1.133373
-2.678025
-4.732988
-7.414815
-10.5824
-13.90123
-16.95313
-19.48714
-21.51106
-23.3603
-25.51901
-28.49009
-32.49772
-37.43333
-42.86588
-48.19388
-52.90264
-56.7585
-59.92072
-62.8411
-66.16302
-70.52153
-76.38668
-83.81401
-92.23237
-100.2914
-105.9536
-106.9609
-101.5131
-88.98892
-70.2684
-47.55331
-23.73129
-1.54135
17.0749
31.20621
40.7754
46.27267
48.35449
47.71492
45.03682
41.01234
36.39737
31.92963
28.30918
26.05074
25.45087
26.48921
28.92631
32.35612
36.33833
40.51539
44.58591
48.32439
51.46822
53.75248
54.94021
54.89244
53.64259
51.36436
48.36318
44.99978
41.6296
38.52576
35.8411
33.56935
31.55614
29.57016
27.37902
24.85526
22.00821
18.95493
15.89726
13.04353
10.57077
8.558844
6.967571
5.60416
4.217524
2.55289
0.4378872
-2.151165
-5.083651
-8.169739
-11.25009
-14.27249
-17.35939
-20.71943
-24.59132
-29.11393
-34.2326
-39.6889
-45.08056
-50.03738
-54.33899
-58.05796
-61.54122
-65.32609
-69.97346
-75.91764
-83.16897
-91.14207
-98.51665
-103.3398
-103.4647
-97.20282
-83.95019
-64.59548
-41.33931
-17.11205
5.281763
23.84643
37.68587
46.83572
51.88266
53.57835
52.61501
49.65438
45.35447
40.4763
35.7872
31.97313
29.48901
28.51618
28.99221
30.69032
33.33343
36.59772
40.17132
43.70588
46.8321
49.17743
50.39144
50.25629
48.68515
45.82605
42.01885
37.7976
33.75051
30.38873
27.96321
26.366
25.19316
23.91233
22.11219
19.65244
16.738
13.7711
11.17463
9.197559
7.800083
6.710922
5.509747
3.817032
1.411266
-1.699776
-5.290394
-9.017609
-12.55233
-15.74508
-18.67087
-21.64018
-25.04509
-29.16278
-34.02429
-39.35483
-44.69429
-49.53325
-53.56071
-56.77576
-59.52705
-62.44311
-66.24808
-71.49005
-78.26256
-85.93674
-93.05934
-97.5789
-97.30051
-90.63501
-77.15234
-57.8688
-35.01425
-11.37146
10.47955
28.71468
42.45284
51.62202
56.63798
58.15927
56.95251
53.84571
49.73526
45.46756
41.75387
39.05961
37.60125
37.38505
38.3062
40.19615
42.89033
46.22276
50.0068
53.98914
57.81512
61.04005
63.16878
63.80326
62.73098
59.99112
55.88262
50.85802
45.42939
40.03352
34.94949
30.25864
25.91841
21.80331
17.84217
14.05976
10.60039
7.65152
5.366638
3.770458
2.698322
1.874702
0.9554939
-0.3515663
-2.239578
-4.729073
-7.674385
-10.79365
-13.78584
-16.46951
-18.86813
-21.27199
-24.07007
-27.61488
-31.99837
-37.00944
-42.18345
-47.03659
-51.2347
-54.72326
-57.7434
-60.75099
-64.32615
-69.00687
-75.10553
-82.42982
-90.04934
-96.25928
-98.87567
-95.8707
-86.10744
-69.8548
-48.82013
-25.63606
-3.093874
16.62022
32.27758
43.56837
50.76061
54.37626
54.9819
53.1586
49.5703
44.96755
40.15704
35.85316
32.58495
30.63071
30.05523
30.77533
32.6451
35.51041
39.17237
43.37223
47.70699
51.64104
54.54762
55.85722
55.23591
52.69883
48.64446
43.72237
38.63781
33.96542
29.97663
26.61287
23.59049
20.56078
17.2674
13.66466
9.899502
6.262255
3.088728
0.6387072
-0.9964819
-1.950058
-2.535154
-3.17544
-4.241282
-5.944002
-8.245095
-10.88821
-13.56151
-16.02872
-18.29779
-20.60842
-23.32076
-26.71273
-30.85269
-35.53241
-40.34917
-44.89438
-48.89524
-52.32943
-55.46653
-58.78004
-62.80223
-68.00519
-74.5341
-82.00877
-89.32528
-94.71421
-96.08978
-91.67821
-80.64706
-63.54897
-42.26146
-19.45338
2.179347
20.59626
34.76756
44.56096
50.39632
52.89098
52.6003
50.03194
45.7347
40.3752
34.75423
29.72651
26.01308
24.05437
23.97906
25.59005
28.51474
32.31262
36.56828
40.86524
44.80175
47.96618
49.94994
50.50419
49.53842
47.2072
43.79497
39.64937
35.07279
30.33588
25.63353
21.15322
17.04269
13.37426
10.10828
7.103872
4.147658
1.078896
-2.129958
-5.374747
-8.439497
-11.1129
-13.33335
-15.21091
-17.02781
-19.13096
-21.82241
-25.22264
-29.24174
-33.61652
-37.98851
-42.07513
-45.72867
-49.0359
-52.28337
-55.9234
-60.42886
-66.15084
-73.11179
-80.78734
-87.97823
-92.87061
-93.42498
-87.97128
-75.84007
-57.71464
-35.57066
-12.14576
9.827528
28.26874
42.08663
51.10948
55.81869
56.98436
55.45957
52.05862
47.53351
42.6051
37.89537
33.94908
31.16343
29.78347
29.87164
31.3309
33.91784
37.29679
41.0881
44.90082
48.33833
51.00939
52.55939
52.72881
51.44964
48.85917
45.26051
41.05465
36.56818
32.03703
27.57507
23.21622
18.99444
14.98331
11.31127
8.091519
5.382306
3.091209
0.9551229
-1.331697
-3.998277
-7.04916
-10.22631
-13.14602
-15.50297
-17.28565
-18.8409
-20.75194
-23.54871
-27.46851
-32.33633
-37.67152
-42.89799
-47.59567
-51.61428
-55.07121
-58.2831
-61.69464
-65.82862
-71.15218
-77.87478
-85.60308
-93.12228
-98.43432
-99.22662
-93.60749
-80.87022
-61.85038
-38.72811
-14.37627
8.468241
27.82238
42.70552
52.9615
58.96383
61.25196
60.44091
57.17187
52.20823
46.44075
40.82449
36.23601
33.29802
32.26429
33.00784
35.11772
38.05856
41.35844
44.67039
47.79307
50.57155
52.82441
54.29544
54.66689
53.68162
51.26655
47.58895
43.06684
38.2361
33.5915
29.41443
25.69111
22.18365
18.59426
14.78155
10.85885
7.166949
4.084516
1.834647
0.3283668
-0.792457
-1.994327
-3.66426
-5.91765
-8.60587
-11.41872
-14.04745
-16.35466
-18.44447
-20.59734
-23.18086
-26.47656
-30.58544
-35.41047
-40.61951
-45.79489
-50.55293
-54.65476
-58.13936
-61.34349
-64.84825
-69.31081
-75.15814
-82.25555
-89.62846
-95.46059
-97.48195
-93.65832
-82.93466
-65.71384
-43.88041
-20.20331
2.408507
21.73716
36.59805
46.8112
52.81816
55.28683
54.87144
52.12391
47.63039
42.09659
36.32112
31.14116
27.25189
25.06816
24.68617
25.94383
28.51011
32.02296
36.13117
40.48645
44.69595
48.27069
50.68915
51.49888
50.47221
47.70549
43.65509
38.94933
34.19232
29.75471
25.66139
21.69634
17.58568
13.19831
8.655101
4.30504
0.5268474
-2.464239
-4.721031
-6.585219
-8.520346
-10.91788
-13.93775
-17.42376
-21.0133
-24.32608
-27.13485
-29.46861
-31.61272
-33.9758
-37.01056
-41.16248
-46.73783
-53.78087
-61.70239
-69.06199
-73.70567
-73.46178
-67.11105
-55.18435
-40.02262
-24.92153
-12.77144
-4.938461
-0.8870616
1.203121
3.288877
6.514702
10.88383
15.5858
19.71178
22.75661
24.75097
25.96165
26.54436
26.32922
24.93024
22.00056
17.59473
12.38733
7.576683
4.539616
4.305691
7.14889
12.48854
19.16188
25.861
31.64073
36.08229
39.23555
41.35764
42.6284
43.06866
42.54243
40.97505
38.39613
35.03077
31.2128
27.26919
23.43495
19.81631
16.39363
13.1344
10.02853
7.179285
4.752256
2.90386
1.615203
0.7010965
-0.1660323
-1.347136
-3.097184
-5.454469
-8.25601
-11.2037
-14.00055
-16.52403
-18.8316
-21.21387
-24.0318
-27.60531
-32.07014
-37.27726
-42.82782
-48.20454
-52.9951
-57.02783
-60.52152
-64.03368
-68.30708
-74.02177
-81.45705
-90.16092
-98.77737
-105.1541
-106.8132
-101.7337
-89.05212
-69.46741
-45.15218
-19.11115
5.627066
26.74654
42.97414
54.06354
60.4634
62.94183
62.34933
59.47935
55.08598
49.90933
44.69049
40.12246
36.7621
34.98364
34.88088
36.33179
39.04907
42.69559
46.91373
51.36463
55.64079
59.25196
61.69636
62.55973
61.63754
59.03434
55.13027
50.42104
45.44292
40.59523
36.128
32.13528
28.58415
25.35739
22.27205
19.12116
15.77431
12.29498
8.908951
5.944229
3.666805
2.089127
0.928791
-0.2835007
-2.013988
-4.49194
-7.602894
-10.99432
-14.24522
-17.08929
-19.56682
-21.94489
-24.59578
-27.82088
-31.74499
-36.25331
-41.12255
-46.03581
-50.6949
-54.92081
-58.69878
-62.25389
-66.07332
-70.81798
-77.03882
-84.78705
-93.18536
-100.3694
-103.8701
-101.3689
-91.54647
-74.65874
-52.48918
-27.78562
-3.459427
18.17022
35.6975
48.58271
56.85557
60.86192
61.1332
58.34117
53.35817
47.14833
40.70865
34.89214
30.34482
27.4895
26.5314
27.47146
30.11971
34.10336
38.86606
43.7951
48.27295
51.84599
54.23782
55.3369
55.1271
53.59647
50.75179
46.63232
41.44835
35.5861
29.59145
24.01991
19.23096
15.27905
11.90757
8.699287
5.26194
1.481133
-2.476387
-6.223969
-9.355682
-11.69236
-13.34695
-14.71273
-16.31161
-18.59398
-21.75982
-25.72641
-30.20149
-34.78737
-39.17104
-43.15244
-46.73369
-50.09362
-53.59113
-57.74412
-63.09534
-69.9675
-78.12929
-86.5061
-93.1636
-95.71491
-92.03653
-81.0892
-63.4096
-41.03577
-16.87731
6.177193
25.96977
41.39801
52.25808
58.83212
61.5892
61.04895
57.79865
52.62811
46.50424
40.44862
35.36887
31.87962
30.25304
30.44392
32.18822
35.11318
38.80365
42.84326
46.82358
50.33624
52.99258
54.4621
54.52952
53.13035
50.42199
46.73423
42.55186
38.35581
34.49725
31.05867
27.87579
24.629
21.04523
17.09144
13.04712
9.373032
6.513794
4.648521
3.54377
2.625763
1.211235
-1.216488
-4.770138
-9.155136
-13.79459
-18.08953
-21.70152
-24.68255
-27.41645
-30.42575
-34.11533
-38.55255
-43.48343
-48.4542
-53.03254
-57.00806
-60.4416
-63.65675
-67.12813
-71.38666
-76.87223
-83.74661
-91.63922
-99.4031
-105.1431
-106.5563
-101.6161
-89.34854
-70.34305
-46.66644
-21.32304
2.661739
23.03288
38.64241
49.40405
55.83251
58.67047
58.63155
56.38075
52.59702
48.03137
43.46822
39.57755
36.86647
35.56586
35.70227
37.10421
39.51077
42.60574
46.04377
49.50102
52.65842
55.24202
56.97477
57.6075
56.94828
54.95816
51.75117
47.65787
43.09616
38.48096
34.11902
30.12001
26.45009
22.99716
19.64598
16.38444
13.27472
10.45938
8.051552
6.123661
4.657436
3.515312
2.464119
1.231934
-0.4221153
-2.64399
-5.38047
-8.455627
-11.60701
-14.61039
-17.43864
-20.266
-23.41707
-27.22887
-31.84126
-37.08076
-42.54166
-47.7151
-52.20644
-55.88713
-58.94868
-61.85142
-65.21226
-69.63923
-75.54784
-82.90502
-90.98171
-98.25737
-102.6231
-101.8577
-94.38684
-79.924
-59.68922
-36.13243
-12.21375
9.434357
27.09148
40.08687
48.58074
53.15751
54.49971
53.25001
50.00759
45.43121
40.27912
35.34038
31.33219
28.76626
27.8713
28.60923
30.74834
33.92785
37.78341
41.93619
46.02528
49.63347
52.34342
53.73986
53.57989
51.85228
48.80182
44.86503
40.53037
36.20565
32.11362
28.26114
24.53958
20.77928
16.94449
13.12144
9.53492
6.401043
3.810101
1.643475
-0.3520622
-2.47393
-4.893795
-7.590389
-10.36793
-13.019
-15.42068
-17.67503
-20.06071
-22.93563
-26.57174
-31.02925
-36.10102
-41.35174
-46.29284
-50.56406
-54.11187
-57.28375
-60.73552
-65.22298
-71.27271
-78.8616
-87.16495
-94.52957
-98.76308
-97.72882
-89.97795
-75.3447
-55.12079
-31.70586
-7.943188
13.64541
31.38029
44.55764
53.21296
57.7855
58.8716
57.13361
53.32587
48.35099
43.14237
38.53235
35.13387
33.24376
32.89806
33.93836
36.07273
38.92028
42.10208
45.26443
48.14166
50.56284
52.41876
53.59244
53.86935
53.00838
50.81748
47.31672
42.77628
37.71271
32.69305
28.20123
24.49686
21.55528
19.15788
16.97797
14.71986
12.19581
9.41785
6.599438
4.055687
2.078091
0.7585869
-0.08474731
-0.8709526
-2.048294
-3.904453
-6.433132
-9.367119
-12.36329
-15.21162
-17.93636
-20.77814
-24.0625
-28.02549
-32.7235
-38.02711
-43.66122
-49.25846
-54.47462
-59.01357
-62.77253
-65.95151
-69.05433
-72.81499
-77.96423
-84.85046
-93.06194
-101.2374
-107.2034
-108.5313
-103.2822
-90.73183
-71.67548
-48.2368
-23.24593
0.5498238
21.08071
37.21362
48.63012
55.5633
58.55257
58.30749
55.68215
51.62601
47.10588
42.94339
39.7341
37.79725
37.20379
37.88203
39.64561
42.28572
45.53812
49.1165
52.70467
55.96762
58.56419
60.18075
60.53213
59.44234
56.92264
53.18831
48.62837
43.7269
38.91824
34.46907
30.43854
26.74593
23.27799
19.94236
16.73568
13.71859
10.99931
8.640621
6.667191
5.047428
3.689308
2.430313
1.053619
-0.657547
-2.888008
-5.670513
-8.89743
-12.29356
-15.52449
-18.35686
-20.77387
-23.00463
-25.44087
-28.46777
-32.26002
-36.71808
-41.49174
-46.12725
-50.30664
-53.93715
-57.20304
-60.46682
-64.22185
-68.94426
-74.95025
-82.14758
-89.76893
-96.29504
-99.6078
-97.55624
-88.70601
-72.97428
-51.78889
-27.76945
-3.935888
17.14183
33.88231
45.82332
53.27211
56.90688
57.41727
55.40164
51.42315
46.12305
40.30215
34.82653
30.52044
27.98134
27.46766
28.8568
31.74569
35.57179
39.75716
43.8548
47.52153
50.52127
52.6215
53.5981
53.26411
51.57882
48.66539
44.80847
40.38492
35.71343
30.99936
26.32204
21.71905
17.22418
12.9947
9.229576
6.120083
3.746704
1.973675
0.4931526
-1.035343
-2.892754
-5.152164
-7.670471
-10.22187
-12.63271
-14.89515
-17.19862
-19.8049
-22.95151
-26.72395
-31.04711
-35.70164
-40.4277
-44.9931
-49.24273
-53.15301
-56.89378
-60.82601
-65.49525
-71.38393
-78.59573
-86.49203
-93.54852
-97.57755
-96.35262
-88.40218
-73.60635
-53.35146
-30.13067
-6.774252
14.30418
31.58518
44.47461
53.03671
57.65413
58.84885
57.18811
53.38035
48.25912
42.74562
37.69087
33.75792
31.35332
30.6297
31.52471
33.79524
37.09518
40.98322
44.9827
48.65244
51.64198
53.71314
54.69477
54.4753
52.98513
50.24787
46.44278
41.91835
37.14756
32.59072
28.52782
24.9714
21.72354
18.49165
15.09277
11.52174
7.978485
4.758392
2.124027
0.1871796
-1.147247
-2.143852
-3.163546
-4.552092
-6.512402
-9.028023
-11.86337
-14.68424
-17.20689
-19.357
-21.33816
-23.55018
-26.42947
-30.23235
-34.91806
-40.15672
-45.44643
-50.30945
-54.45911
-57.89684
-60.94102
-64.14609
-68.19097
-73.68939
-80.88276
-89.3703
-97.89217
-104.3939
-106.4694
-102.0605
-90.21084
-71.53772
-48.14663
-23.03185
0.7771816
21.00827
36.50582
47.14787
53.46375
56.20454
56.08938
53.77338
49.94054
45.38101
40.91735
37.29623
35.00716
34.22729
34.85489
36.64971
39.31524
42.59953
46.26748
50.03193
53.56886
56.481
58.36464
58.95356
58.1337
56.00665
52.8642
49.06736
44.97495
40.81504
36.71873
32.69187
28.72678
24.85762
21.17152
17.77461
14.74964
12.10839
9.823904
7.853113
6.188803
4.839739
3.765141
2.862291
1.942719
0.7832098
-0.8130674
-2.899694
-5.43573
-8.25672
-11.17265
-14.07871
-16.95009
-19.92681
-23.23241
-27.09988
-31.65705
-36.84869
-42.38583
-47.83023
-52.7228
-56.76941
-59.97867
-62.72137
-65.67855
-69.64716
-75.26408
-82.5943
-90.84691
-98.29105
-102.5653
-101.3534
-93.15675
-77.89742
-57.05647
-33.24849
-9.452872
11.83845
29.05287
41.65322
49.81455
54.07663
55.09087
53.5151
50.0523
45.47175
40.56771
36.04573
32.45595
30.13931
29.21759
29.67893
31.41411
34.23051
37.86977
42.02267
46.26257
50.12846
53.11588
54.76073
54.76095
53.05234
49.85995
45.63826
40.98069
36.40122
32.22952
28.50224
25.03096
21.56435
17.98032
14.34799
10.8882
7.852771
5.314003
3.156777
1.112214
-1.060194
-3.421832
-5.832257
-8.073213
-10.00114
-11.68485
-13.43667
-15.60578
-18.46479
-22.06295
-26.20913
-30.58756
-34.8595
-38.77086
-42.24109
-45.32766
-48.27517
-51.45933
-55.37146
-60.48547
-66.99126
-74.49246
-81.81325
-87.0459
-88.03188
-83.04877
-71.4753
-54.14909
-33.16093
-11.24055
9.031345
25.84961
38.39119
46.64861
51.07372
52.2135
50.60635
46.79059
41.41695
35.30016
29.35395
24.43723
21.17097
19.83097
20.34454
22.39433
25.53496
29.32679
33.37994
37.34113
40.88657
43.66284
45.35016
45.71277
44.67567
42.35803
39.04075
35.11929
30.9473
26.77866
22.70063
18.71162
14.78512
10.9614
7.34353
4.054016
1.171347
-1.368196
-3.70838
-6.005249
-8.338068
-10.68463
-12.93704
-15.0027
-16.90894
-18.82316
-21.03597
-23.81758
-27.31377
-31.47886
-36.07358
-40.74785
-45.18579
-49.21973
-52.87933
-56.43442
-60.30112
-64.95804
-70.78645
-77.79881
-85.40225
-92.2514
-96.41292
-95.82397
-89.01673
-75.69868
-56.99839
-35.18516
-12.97458
7.230042
23.84748
36.27683
44.6487
49.4669
51.33974
50.87476
48.6786
45.43565
41.86625
38.59101
36.07762
34.56273
34.09473
34.60986
36.0164
38.19093
40.96573
44.11689
47.3036
50.13854
52.21629
53.21478
52.96761
51.48312
48.91352
45.50907
41.59311
37.52562
33.61374
30.07701
26.99217
24.28803
21.8112
19.36476
16.85342
14.28527
11.81472
9.632195
7.885407
6.546479
5.454558
4.336067
2.905096
0.9886584
-1.455356
-4.300101
-7.333336
-10.30839
-13.0755
-15.59083
-18.00126
-20.59155
-23.68743
-27.54379
-32.21514
-37.51975
-43.05629
-48.36382
-53.07875
-57.03729
-60.36795
-63.4296
-66.78041
-71.03305
-76.63509
-83.59026
-91.21637
-97.9964
-101.8229
-100.5411
-92.68095
-78.06121
-57.98058
-34.86446
-11.58306
9.341072
26.27469
38.6007
46.53161
50.75999
52.10839
51.36729
49.26449
46.46883
43.57261
41.10633
39.431
38.72892
38.99949
40.08147
41.74762
43.80239
46.11565
48.58906
51.11809
53.47052
55.29795
56.2166
55.8905
54.20087
51.28793
47.52279
43.36056
39.23565
35.39446
31.89842
28.62951
25.4181
22.1876
19.01154
16.11045
13.76942
12.18944
11.34787
11.0267
10.84518
10.44779
9.616135
8.347157
6.777413
5.110207
3.450698
1.750905
-0.1284161
-2.363665
-5.060917
-8.17898
-11.56463
-14.99209
-18.24483
-21.20649
-23.90732
-26.50445
-29.25442
-32.401
-36.08147
-40.24006
-44.63748
-48.89854
-52.67837
-55.85112
-58.55984
-61.27314
-64.63988
-69.24008
-75.289
-82.34911
-89.19518
-93.99138
-94.72931
-89.81405
-78.67621
-62.00372
-41.61194
-19.95439
0.5635796
18.11011
31.69716
41.11996
46.72294
49.07077
48.78992
46.48215
42.76414
38.3075
33.8751
30.21801
27.94781
27.42155
28.63888
31.28683
34.8634
38.82841
42.73355
46.28371
49.2578
51.44265
52.6004
52.4953
50.99585
48.14577
44.2407
39.73537
35.16954
30.99692
27.46255
24.54879
22.04806
19.67135
17.19203
14.56265
11.87883
9.347435
7.180641
5.49692
4.285295
3.416193
2.6737
1.85503
0.7529716
-0.7797451
-2.812504
-5.320667
-8.164623
-11.14092
-14.07583
-16.90924
-19.73714
-22.81212
-26.41676
-30.73051
-35.70942
-41.04303
-46.26184
-50.90361
-54.69347
-57.70252
-60.33389
-63.26183
-67.20221
-72.6722
-79.69972
-87.59419
-94.90911
-99.66953
-99.86892
-94.08048
-81.96835
-64.45527
-43.50099
-21.52148
-0.8041058
16.97887
30.92008
40.78409
46.7995
49.46912
49.46886
47.5667
44.59354
41.336
38.47097
36.47345
35.59695
35.90393
37.29498
39.57751
42.50403
45.787
49.1438
52.28913
54.93187
56.79275
57.6468
57.34138
55.85144
53.29765
49.91113
46.03119
42.01287
38.17544
34.69932
31.5919
28.71721
25.90483
23.06375
20.25736
17.64169
15.38742
13.5652
12.08058
10.77372
9.469223
8.097677
6.68919
5.304995
4.000999
2.743065
1.451309
0.03395462
-1.592691
-3.500881
-5.802307
-8.585369
-11.89555
-15.61651
-19.49297
-23.20017
-26.53141
-29.49739
-32.37107
-35.57344
-39.43662
-44.01429
-49.05078
-54.08128
-58.62643
-62.41965
-65.51289
-68.29764
-71.43224
-75.61206
-81.35104
-88.6284
-96.65046
-103.7743
-107.769
-106.4497
-98.38425
-83.48438
-63.12497
-39.80035
-16.37384
4.691891
21.80364
34.38072
42.61436
47.16225
48.81433
48.35319
46.48684
43.86069
41.06737
38.58067
36.76824
35.84235
35.89007
36.85368
38.62311
41.05887
44.0322
47.40826
50.97312
54.41123
57.26496
59.03395
59.29842
57.89565
54.97731
50.96127
46.39834
41.75223
37.33202
33.2065
29.33261
25.63123
22.08032
18.74728
15.73768
13.12333
10.92853
9.074657
7.416302
5.811892
4.159643
2.468801
0.8228016
-0.6553326
-1.930159
-3.061146
-4.267194
-5.80959
-7.866632
-10.46136
-13.44754
-16.59252
-19.73359
-22.85528
-26.11562
-29.71084
-33.77251
-38.21233
-42.76671
-47.07207
-50.85409
-54.02693
-56.75431
-59.3702
-62.30554
-66.02058
-70.87793
-77.01485
-84.02728
-90.79494
-95.49552
-95.99161
-90.4933
-78.28436
-60.13036
-38.13016
-15.12633
6.236204
24.12124
37.76774
47.26482
53.12196
55.9354
56.21975
54.49462
51.35109
47.49349
43.63273
40.40083
38.24768
37.40601
37.90458
39.60684
42.27512
45.61602
49.30472
53.02687
56.48695
59.37473
61.35157
62.0649
61.22369
58.72546
54.73274
49.68846
44.18877
38.8135
33.9654
29.79377
26.19997
22.97259
19.89378
16.84072
13.83965
11.0173
8.550064
6.530998
4.942097
3.596527
2.219387
0.5479698
-1.570255
-4.072708
-6.735359
-9.284519
-11.56274
-13.61168
-15.73382
-18.32665
-21.74739
-26.14067
-31.36121
-37.042
-42.68534
-47.87538
-52.41565
-56.39898
-60.2235
-64.48122
-69.76155
-76.38908
-84.13443
-91.96846
-98.08528
-100.2809
-96.59732
-86.02855
-68.98212
-47.24771
-23.50401
-0.5037766
19.59654
35.58385
47.10291
54.33569
57.71081
57.7501
55.07393
50.46629
44.86198
39.19791
34.30484
30.74936
28.84915
28.64784
30.00341
32.61716
36.09082
40.03948
44.08299
47.89387
51.16513
53.56676
54.76157
54.47569
52.62062
49.31071
44.88229
39.74765
34.32066
28.9101
23.72427
18.87039
14.36129
10.13241
6.041874
1.959496
-2.154144
-6.159695
-9.788033
-12.74817
-14.87974
-16.30928
-17.40588
-18.72236
-20.72678
-23.66599
-27.43568
-31.65848
-35.85347
-39.61929
-42.80996
-45.58317
-48.40053
-51.85274
-56.51902
-62.74924
-70.36844
-78.49382
-85.50024
-89.31326
-87.92812
-80.11201
-65.88481
-46.62186
-24.67543
-2.649334
17.26233
33.6729
46.01472
54.28841
58.75523
59.7661
57.76117
53.33525
47.32854
40.72881
34.54486
29.6117
26.45595
25.24339
25.83267
27.88548
30.98037
34.71003
38.69316
42.52795
45.79338
48.02909
48.824
47.91476
45.31105
41.25871
36.25519
30.88181
25.65001
20.89345
16.66229
12.76382
8.88023
4.739376
0.2665825
-4.353863
-8.750576
-12.5792
-15.67753
-18.18311
-20.4812
-23.0427
-26.21811
-30.07216
-34.41139
-38.84345
-42.99875
-46.6279
-49.7477
-52.62886
-55.7639
-59.75309
-65.12668
-72.0497
-80.02969
-87.77486
-93.2718
-94.26653
-88.96992
-76.7359
-58.41111
-36.1618
-12.83953
8.845997
26.98293
40.71312
50.06651
55.56662
57.85985
57.51508
55.04041
50.9943
46.03915
40.93304
36.44326
33.18755
31.52335
31.50178
32.88864
35.32285
38.39943
41.78868
45.23009
48.47084
51.17958
52.93551
53.31498
52.06343
49.2276
45.14975
40.37592
35.43826
30.67977
26.2157
21.99916
17.93897
14.03014
10.38963
7.157951
4.428951
2.192696
0.2801132
-1.545635
-3.4687
-5.606533
-7.960636
-10.43724
-12.93249
-15.37772
-17.78969
-20.30691
-23.17152
-26.5946
-30.68486
-35.34937
-40.29533
-45.13002
-49.5072
-53.32671
-56.78696
-60.36913
-64.70853
-70.37442
-77.59604
-85.98407
-94.34505
-100.6966
-102.7158
-98.42812
-86.90554
-68.75983
-46.06991
-21.74732
1.312323
20.96776
36.15163
46.74771
53.1871
56.10496
56.16183
54.01289
50.39729
46.12934
41.95221
38.47891
36.08673
34.91628
34.95641
36.08699
38.1147
40.80824
43.90551
47.11678
50.13637
52.66181
54.37112
54.98777
54.30311
52.24628
48.9853
44.84184
40.26744
35.69712
31.46643
27.72172
24.4551
21.53743
18.78945
16.04429
13.19525
10.21917
7.218288
4.400637
1.998735
0.196764
-0.9815054
-1.737146
-2.413868
-3.404167
-4.966784
-7.150146
-9.796551
-12.65469
-15.50678
-18.28255
-21.07163
-24.03612
-27.37544
-31.1847
-35.51278
-40.28652
-45.32232
-50.3229
-54.89282
-58.74339
-61.78419
-64.32809
-67.02084
-70.69812
-75.96133
-82.82681
-90.39702
-96.87194
-99.96741
-97.49741
-88.18806
-72.15729
-50.99051
-27.31461
-4.031156
16.43875
32.65269
44.16113
51.26859
54.62193
54.93436
52.8799
49.15794
44.51293
39.71145
35.47254
32.33095
30.59171
30.34472
31.48519
33.80654
37.02112
40.8287
44.86626
48.76751
52.12771
54.54042
55.63871
55.18226
53.11681
49.63293
45.16047
40.24258
35.42237
31.05297
27.24109
23.84849
20.5722
17.17833
13.57664
9.939525
6.567605
3.808491
1.856062
0.667737
-0.01445961
-0.5990524
-1.474306
-2.931864
-5.05436
-7.757383
-10.82214
-13.96233
-16.96601
-19.72175
-22.30848
-24.96114
-28.00748
-31.69932
-36.09847
-40.97816
-45.90716
-50.41026
-54.18439
-57.28252
-60.108
-63.33327
-67.67386
-73.63654
-81.21566
-89.66197
-97.42467
-102.3445
-102.187
-95.33466
-81.43484
-61.64262
-38.32887
-14.38925
7.586233
25.86193
39.70528
49.15831
54.68714
56.85516
56.24775
53.48626
49.30611
44.5043
39.85517
36.01917
33.44679
32.35706
32.764
34.52113
37.34998
40.94448
44.96154
49.04419
52.80245
55.8137
57.69804
58.15757
57.10131
54.65957
51.14825
46.98888
42.60044
38.29135
34.24375
30.50395
27.0331
23.78133
20.73662
17.92331
15.43564
13.33173
11.61302
10.17653
8.881981
7.565439
6.138335
4.579226
2.938507
1.293659
-0.3331738
-1.989193
-3.815035
-5.991587
-8.655741
-11.82198
-15.36505
-19.03462
-22.58065
-25.8758
-29.04616
-32.39087
-36.26064
-40.84758
-46.04583
-51.49126
-56.69805
-61.25588
-65.04172
-68.25949
-71.40513
-75.11166
-79.98093
-86.26908
-93.61248
-100.8297
-105.9437
-106.617
-100.8762
-87.87859
-68.35715
-44.55629
-19.50701
3.839987
23.40002
38.26472
48.50694
54.7112
57.52835
57.50369
55.10246
50.94347
45.82798
40.67113
36.32021
33.35751
32.02509
32.26516
33.86109
36.54301
40.07309
44.18896
48.54251
52.70303
56.18722
58.53411
59.4409
58.83261
56.8361
53.75536
49.95771
45.77026
41.44497
37.12928
32.91921
28.90236
25.15656
21.74734
18.6883
15.93468
13.3709
10.90742
8.546539
6.394855
4.619749
3.323116
2.440944
1.682215
0.6772652
-0.9336834
-3.300424
-6.293383
-9.568984
-12.70356
-15.40111
-17.58959
-19.46351
-21.39642
-23.80103
-26.97532
-31.00478
-35.71848
-40.7295
-45.57729
-49.86758
-53.42805
-56.37557
-59.1402
-62.3501
-66.65409
-72.44675
-79.5537
-86.98479
-92.96909
-95.28856
-91.93387
-81.81807
-65.23548
-43.90608
-20.48366
2.228102
22.00285
37.58865
48.66756
55.52866
58.69487
58.64983
55.84433
50.848
44.40679
37.46637
31.02702
25.94793
22.78008
21.73352
22.73621
25.48577
29.58417
34.562
39.89341
45.01538
49.34621
52.3863
53.80666
53.5381
51.75178
48.83201
45.24057
41.38153
37.54081
33.81512
30.17223
26.49811
22.68564
18.70443
14.62289
10.59226
6.849324
3.628358
1.113403
-0.6628208
-1.852173
-2.786865
-3.884764
-5.489944
-7.739782
-10.53009
-13.55354
-16.46934
-19.054
-21.35336
-23.63886
-26.29006
-29.62883
-33.77882
-38.62102
-43.83214
-49.01424
-53.84447
-58.15025
-61.98152
-65.61975
-69.55733
-74.39478
-80.63866
-88.3642
-96.84893
-104.4554
-108.8568
-107.697
-99.40074
-83.83723
-62.45087
-37.82921
-12.92587
9.743391
28.54945
42.80882
52.52262
58.07637
60.04391
59.11329
56.07214
51.73732
