1569490236.37992
1569490236.39555
1569490236.41117
1569490236.4268
1569490236.44242
1569490236.45805
1569490236.47368
1569490236.4893
1569490236.50493
1569490236.52055
1569490236.53618
1569490236.5518
1569490236.56743
1569490236.58306
1569490236.59868
1569490236.61431
1569490236.62993
1569490236.64556
1569490236.66119
1569490236.67681
1569490236.69244
1569490236.70806
1569490236.72369
1569490236.73931
1569490236.75494
1569490236.77057
1569490236.78619
1569490236.80182
1569490236.81744
1569490236.83307
1569490236.84869
1569490236.86432
1569490236.87995
1569490236.89557
1569490236.9112
1569490236.92682
1569490236.94245
1569490236.95807
1569490236.9737
1569490236.98933
1569490237.00495
1569490237.02058
1569490237.0362
1569490237.05183
1569490237.06745
1569490237.08308
1569490237.09871
1569490237.11433
1569490237.12996
1569490237.14558
1569490237.16121
1569490237.17683
1569490237.19246
1569490237.20809
1569490237.22371
1569490237.23934
1569490237.25496
1569490237.27059
1569490237.28621
1569490237.30184
1569490237.31747
1569490237.33309
1569490237.34872
1569490237.36434
1569490237.37997
1569490237.39559
1569490237.41122
1569490237.42685
1569490237.44247
1569490237.4581
1569490237.47372
1569490237.48935
1569490237.50497
1569490237.5206
1569490237.53623
1569490237.55185
1569490237.56748
1569490237.5831
1569490237.59873
1569490237.61435
1569490237.62998
1569490237.64561
1569490237.66123
1569490237.67686
1569490237.69248
1569490237.70811
1569490237.72373
1569490237.73936
1569490237.75499
1569490237.77061
1569490237.78624
1569490237.80186
1569490237.81749
1569490237.83311
1569490237.84874
1569490237.86437
1569490237.87999
1569490237.89562
1569490237.91124
1569490237.92687
1569490237.94249
1569490237.95812
1569490237.97375
1569490237.98937
1569490238.005
1569490238.02062
1569490238.03625
1569490238.05187
1569490238.0675
1569490238.08313
1569490238.09875
1569490238.11438
1569490238.13
1569490238.14563
1569490238.16125
1569490238.17688
1569490238.19251
1569490238.20813
1569490238.22376
1569490238.23938
1569490238.25501
1569490238.27063
1569490238.28626
1569490238.30189
1569490238.31751
1569490238.33314
1569490238.34876
1569490238.36439
1569490238.38001
1569490238.39564
1569490238.41127
1569490238.42689
1569490238.44252
1569490238.45814
1569490238.47377
1569490238.48939
1569490238.50502
1569490238.52065
1569490238.53627
1569490238.5519
1569490238.56752
1569490238.58315
1569490238.59877
1569490238.6144
1569490238.63003
1569490238.64565
1569490238.66128
1569490238.6769
1569490238.69253
1569490238.70815
1569490238.72378
1569490238.73941
1569490238.75503
1569490238.77066
1569490238.78628
1569490238.80191
1569490238.81753
1569490238.83316
1569490238.84879
1569490238.86441
1569490238.88004
1569490238.89566
1569490238.91129
1569490238.92691
1569490238.94254
1569490238.95817
1569490238.97379
1569490238.98942
1569490239.00504
1569490239.02067
1569490239.03629
1569490239.05192
1569490239.06755
1569490239.08317
1569490239.0988
1569490239.11442
1569490239.13005
1569490239.14567
1569490239.1613
1569490239.17693
1569490239.19255
1569490239.20818
1569490239.2238
1569490239.23943
1569490239.25505
1569490239.27068
1569490239.28631
1569490239.30193
1569490239.31756
1569490239.33318
1569490239.34881
1569490239.36444
1569490239.38006
1569490239.39569
1569490239.41131
1569490239.42694
1569490239.44256
1569490239.45819
1569490239.47382
1569490239.48944
1569490239.50507
1569490239.52069
1569490239.53632
1569490239.55194
1569490239.56757
1569490239.5832
1569490239.59882
1569490239.61445
1569490239.63007
1569490239.6457
1569490239.66132
1569490239.67695
1569490239.69258
1569490239.7082
1569490239.72383
1569490239.73945
1569490239.75508
1569490239.7707
1569490239.78633
1569490239.80196
1569490239.81758
1569490239.83321
1569490239.84883
1569490239.86446
1569490239.88008
1569490239.89571
1569490239.91134
1569490239.92696
1569490239.94259
1569490239.95821
1569490239.97384
1569490239.98946
1569490240.00509
1569490240.02072
1569490240.03634
1569490240.05197
1569490240.06759
1569490240.08322
1569490240.09884
1569490240.11447
1569490240.1301
1569490240.14572
1569490240.16135
1569490240.17697
1569490240.1926
1569490240.20822
1569490240.22385
1569490240.23948
1569490240.2551
1569490240.27073
1569490240.28635
1569490240.30198
1569490240.3176
1569490240.33323
1569490240.34886
1569490240.36448
1569490240.38011
1569490240.39573
1569490240.41136
1569490240.42698
1569490240.44261
1569490240.45824
1569490240.47386
1569490240.48949
1569490240.50511
1569490240.52074
1569490240.53636
1569490240.55199
1569490240.56762
1569490240.58324
1569490240.59887
1569490240.61449
1569490240.63012
1569490240.64574
1569490240.66137
1569490240.677
1569490240.69262
1569490240.70825
1569490240.72387
1569490240.7395
1569490240.75512
1569490240.77075
1569490240.78638
1569490240.802
1569490240.81763
1569490240.83325
1569490240.84888
1569490240.8645
1569490240.88013
1569490240.89576
1569490240.91138
1569490240.92701
1569490240.94263
1569490240.95826
1569490240.97388
1569490240.98951
1569490241.00514
1569490241.02076
1569490241.03639
1569490241.05201
1569490241.06764
1569490241.08326
1569490241.09889
1569490241.11452
1569490241.13014
1569490241.14577
1569490241.16139
1569490241.17702
1569490241.19264
1569490241.20827
1569490241.2239
1569490241.23952
1569490241.25515
1569490241.27077
1569490241.2864
1569490241.30202
1569490241.31765
1569490241.33328
1569490241.3489
1569490241.36453
1569490241.38015
1569490241.39578
1569490241.4114
1569490241.42703
1569490241.44266
1569490241.45828
1569490241.47391
1569490241.48953
1569490241.50516
1569490241.52079
1569490241.53641
1569490241.55204
1569490241.56766
1569490241.58329
1569490241.59891
1569490241.61454
1569490241.63017
1569490241.64579
1569490241.66142
1569490241.67704
1569490241.69267
1569490241.70829
1569490241.72392
1569490241.73955
1569490241.75517
1569490241.7708
1569490241.78642
1569490241.80205
1569490241.81767
1569490241.8333
1569490241.84893
1569490241.86455
1569490241.88018
1569490241.8958
1569490241.91143
1569490241.92705
1569490241.94268
1569490241.95831
1569490241.97393
1569490241.98956
1569490242.00518
1569490242.02081
1569490242.03643
1569490242.05206
1569490242.06769
1569490242.08331
1569490242.09894
1569490242.11456
1569490242.13019
1569490242.14581
1569490242.16144
1569490242.17707
1569490242.19269
1569490242.20832
1569490242.22394
1569490242.23957
1569490242.25519
1569490242.27082
1569490242.28645
1569490242.30207
1569490242.3177
1569490242.33332
1569490242.34895
1569490242.36457
1569490242.3802
1569490242.39583
1569490242.41145
1569490242.42708
1569490242.4427
1569490242.45833
1569490242.47395
1569490242.48958
1569490242.50521
1569490242.52083
1569490242.53646
1569490242.55208
1569490242.56771
1569490242.58333
1569490242.59896
1569490242.61459
1569490242.63021
1569490242.64584
1569490242.66146
1569490242.67709
1569490242.69271
1569490242.70834
1569490242.72397
1569490242.73959
1569490242.75522
1569490242.77084
1569490242.78647
1569490242.80209
1569490242.81772
1569490242.83335
1569490242.84897
1569490242.8646
1569490242.88022
1569490242.89585
1569490242.91147
1569490242.9271
1569490242.94273
1569490242.95835
1569490242.97398
1569490242.9896
1569490243.00523
1569490243.02085
1569490243.03648
1569490243.05211
1569490243.06773
1569490243.08336
1569490243.09898
1569490243.11461
1569490243.13023
1569490243.14586
1569490243.16149
1569490243.17711
1569490243.19274
1569490243.20836
1569490243.22399
1569490243.23961
1569490243.25524
1569490243.27087
1569490243.28649
1569490243.30212
1569490243.31774
1569490243.33337
1569490243.34899
1569490243.36462
1569490243.38025
1569490243.39587
1569490243.4115
1569490243.42712
1569490243.44275
1569490243.45837
1569490243.474
1569490243.48963
1569490243.50525
1569490243.52088
1569490243.5365
1569490243.55213
1569490243.56775
1569490243.58338
1569490243.59901
1569490243.61463
1569490243.63026
1569490243.64588
1569490243.66151
1569490243.67713
1569490243.69276
1569490243.70839
1569490243.72401
1569490243.73964
1569490243.75526
1569490243.77089
1569490243.78652
1569490243.80214
1569490243.81777
1569490243.83339
1569490243.84902
1569490243.86464
1569490243.88027
1569490243.8959
1569490243.91152
1569490243.92715
1569490243.94277
1569490243.9584
1569490243.97402
1569490243.98965
1569490244.00528
1569490244.0209
1569490244.03653
1569490244.05215
1569490244.06778
1569490244.0834
1569490244.09903
1569490244.11466
1569490244.13028
1569490244.14591
1569490244.16153
1569490244.17716
1569490244.19278
1569490244.20841
1569490244.22404
1569490244.23966
1569490244.25529
1569490244.27091
1569490244.28654
1569490244.30216
1569490244.31779
1569490244.33342
1569490244.34904
1569490244.36467
1569490244.38029
1569490244.39592
1569490244.41154
1569490244.42717
1569490244.4428
1569490244.45842
1569490244.47405
1569490244.48967
1569490244.5053
1569490244.52092
1569490244.53655
1569490244.55218
1569490244.5678
1569490244.58343
1569490244.59905
1569490244.61468
1569490244.6303
1569490244.64593
1569490244.66156
1569490244.67718
1569490244.69281
1569490244.70843
1569490244.72406
1569490244.73968
1569490244.75531
1569490244.77094
1569490244.78656
1569490244.80219
1569490244.81781
1569490244.83344
1569490244.84906
1569490244.86469
1569490244.88032
1569490244.89594
1569490244.91157
1569490244.92719
1569490244.94282
1569490244.95844
1569490244.97407
1569490244.9897
1569490245.00532
1569490245.02095
1569490245.03657
1569490245.0522
1569490245.06782
1569490245.08345
1569490245.09908
1569490245.1147
1569490245.13033
1569490245.14595
1569490245.16158
1569490245.1772
1569490245.19283
1569490245.20846
1569490245.22408
1569490245.23971
1569490245.25533
1569490245.27096
1569490245.28658
1569490245.30221
1569490245.31784
1569490245.33346
1569490245.34909
1569490245.36471
1569490245.38034
1569490245.39596
1569490245.41159
1569490245.42722
1569490245.44284
1569490245.45847
1569490245.47409
1569490245.48972
1569490245.50534
1569490245.52097
1569490245.5366
1569490245.55222
1569490245.56785
1569490245.58347
1569490245.5991
1569490245.61472
1569490245.63035
1569490245.64598
1569490245.6616
1569490245.67723
1569490245.69285
1569490245.70848
1569490245.7241
1569490245.73973
1569490245.75536
1569490245.77098
1569490245.78661
1569490245.80223
1569490245.81786
1569490245.83348
1569490245.84911
1569490245.86474
1569490245.88036
1569490245.89599
1569490245.91161
1569490245.92724
1569490245.94286
1569490245.95849
1569490245.97412
1569490245.98974
1569490246.00537
1569490246.02099
1569490246.03662
1569490246.05224
1569490246.06787
1569490246.0835
1569490246.09912
1569490246.11475
1569490246.13037
1569490246.146
1569490246.16162
1569490246.17725
1569490246.19288
1569490246.2085
1569490246.22413
1569490246.23975
1569490246.25538
1569490246.271
1569490246.28663
1569490246.30226
1569490246.31788
1569490246.33351
1569490246.34913
1569490246.36476
1569490246.38039
1569490246.39601
1569490246.41164
1569490246.42726
1569490246.44289
1569490246.45851
1569490246.47414
1569490246.48977
1569490246.50539
1569490246.52102
1569490246.53664
1569490246.55227
1569490246.56789
1569490246.58352
1569490246.59915
1569490246.61477
1569490246.6304
1569490246.64602
1569490246.66165
1569490246.67727
1569490246.6929
1569490246.70853
1569490246.72415
1569490246.73978
1569490246.7554
1569490246.77103
1569490246.78665
1569490246.80228
1569490246.81791
1569490246.83353
1569490246.84916
1569490246.86478
1569490246.88041
1569490246.89603
1569490246.91166
1569490246.92729
1569490246.94291
1569490246.95854
1569490246.97416
1569490246.98979
1569490247.00541
1569490247.02104
1569490247.03667
1569490247.05229
1569490247.06792
1569490247.08354
1569490247.09917
1569490247.11479
1569490247.13042
1569490247.14605
1569490247.16167
1569490247.1773
1569490247.19292
1569490247.20855
1569490247.22417
1569490247.2398
1569490247.25543
1569490247.27105
1569490247.28668
1569490247.3023
1569490247.31793
1569490247.33355
1569490247.34918
1569490247.36481
1569490247.38043
1569490247.39606
1569490247.41168
1569490247.42731
1569490247.44293
1569490247.45856
1569490247.47419
1569490247.48981
1569490247.50544
1569490247.52106
1569490247.53669
1569490247.55231
1569490247.56794
1569490247.58357
1569490247.59919
1569490247.61482
1569490247.63044
1569490247.64607
1569490247.66169
1569490247.67732
1569490247.69295
1569490247.70857
1569490247.7242
1569490247.73982
1569490247.75545
1569490247.77107
1569490247.7867
1569490247.80233
1569490247.81795
1569490247.83358
1569490247.8492
1569490247.86483
1569490247.88045
1569490247.89608
1569490247.91171
1569490247.92733
1569490247.94296
1569490247.95858
1569490247.97421
1569490247.98983
1569490248.00546
1569490248.02109
1569490248.03671
1569490248.05234
1569490248.06796
1569490248.08359
1569490248.09921
1569490248.11484
1569490248.13047
1569490248.14609
1569490248.16172
1569490248.17734
1569490248.19297
1569490248.20859
1569490248.22422
1569490248.23985
1569490248.25547
1569490248.2711
1569490248.28672
1569490248.30235
1569490248.31797
1569490248.3336
1569490248.34923
1569490248.36485
1569490248.38048
1569490248.3961
1569490248.41173
1569490248.42735
1569490248.44298
1569490248.45861
1569490248.47423
1569490248.48986
1569490248.50548
1569490248.52111
1569490248.53673
1569490248.55236
1569490248.56799
1569490248.58361
1569490248.59924
1569490248.61486
1569490248.63049
1569490248.64612
1569490248.66174
1569490248.67737
1569490248.69299
1569490248.70862
1569490248.72424
1569490248.73987
1569490248.7555
1569490248.77112
1569490248.78675
1569490248.80237
1569490248.818
1569490248.83362
1569490248.84925
1569490248.86488
1569490248.8805
1569490248.89613
1569490248.91175
1569490248.92738
1569490248.943
1569490248.95863
1569490248.97426
1569490248.98988
1569490249.00551
1569490249.02113
1569490249.03676
1569490249.05238
1569490249.06801
1569490249.08364
1569490249.09926
1569490249.11489
1569490249.13051
1569490249.14614
1569490249.16176
1569490249.17739
1569490249.19302
1569490249.20864
1569490249.22427
1569490249.23989
1569490249.25552
1569490249.27114
1569490249.28677
1569490249.3024
1569490249.31802
1569490249.33365
1569490249.34927
1569490249.3649
1569490249.38052
1569490249.39615
1569490249.41178
1569490249.4274
1569490249.44303
1569490249.45865
1569490249.47428
1569490249.4899
1569490249.50553
1569490249.52116
1569490249.53678
1569490249.55241
1569490249.56803
1569490249.58366
1569490249.59928
1569490249.61491
1569490249.63054
1569490249.64616
1569490249.66179
1569490249.67741
1569490249.69304
1569490249.70866
1569490249.72429
1569490249.73992
1569490249.75554
1569490249.77117
1569490249.78679
1569490249.80242
1569490249.81804
1569490249.83367
1569490249.8493
1569490249.86492
1569490249.88055
1569490249.89617
1569490249.9118
1569490249.92742
1569490249.94305
1569490249.95868
1569490249.9743
1569490249.98993
1569490250.00555
1569490250.02118
1569490250.0368
1569490250.05243
1569490250.06806
1569490250.08368
1569490250.09931
1569490250.11493
1569490250.13056
1569490250.14618
1569490250.16181
1569490250.17744
1569490250.19306
1569490250.20869
1569490250.22431
1569490250.23994
1569490250.25556
1569490250.27119
1569490250.28682
1569490250.30244
1569490250.31807
1569490250.33369
1569490250.34932
1569490250.36494
1569490250.38057
1569490250.3962
1569490250.41182
1569490250.42745
1569490250.44307
1569490250.4587
1569490250.47432
1569490250.48995
1569490250.50558
1569490250.5212
1569490250.53683
1569490250.55245
1569490250.56808
1569490250.5837
1569490250.59933
1569490250.61496
1569490250.63058
1569490250.64621
1569490250.66183
1569490250.67746
1569490250.69308
1569490250.70871
1569490250.72434
1569490250.73996
1569490250.75559
1569490250.77121
1569490250.78684
1569490250.80246
1569490250.81809
1569490250.83372
1569490250.84934
1569490250.86497
1569490250.88059
1569490250.89622
1569490250.91184
1569490250.92747
1569490250.9431
1569490250.95872
1569490250.97435
1569490250.98997
1569490251.0056
1569490251.02122
1569490251.03685
1569490251.05248
1569490251.0681
1569490251.08373
1569490251.09935
1569490251.11498
1569490251.1306
1569490251.14623
1569490251.16186
1569490251.17748
1569490251.19311
1569490251.20873
1569490251.22436
1569490251.23999
1569490251.25561
1569490251.27124
1569490251.28686
1569490251.30249
1569490251.31811
1569490251.33374
1569490251.34937
1569490251.36499
1569490251.38062
1569490251.39624
1569490251.41187
1569490251.42749
1569490251.44312
1569490251.45875
1569490251.47437
1569490251.49
1569490251.50562
1569490251.52125
1569490251.53687
1569490251.5525
1569490251.56813
1569490251.58375
1569490251.59938
1569490251.615
1569490251.63063
1569490251.64625
1569490251.66188
1569490251.67751
1569490251.69313
1569490251.70876
1569490251.72438
1569490251.74001
1569490251.75563
1569490251.77126
1569490251.78689
1569490251.80251
1569490251.81814
1569490251.83376
1569490251.84939
1569490251.86501
1569490251.88064
1569490251.89627
1569490251.91189
1569490251.92752
1569490251.94314
1569490251.95877
1569490251.97439
1569490251.99002
1569490252.00565
1569490252.02127
1569490252.0369
1569490252.05252
1569490252.06815
1569490252.08377
1569490252.0994
1569490252.11503
1569490252.13065
1569490252.14628
1569490252.1619
1569490252.17753
1569490252.19315
1569490252.20878
1569490252.22441
1569490252.24003
1569490252.25566
1569490252.27128
1569490252.28691
1569490252.30253
1569490252.31816
1569490252.33379
1569490252.34941
1569490252.36504
1569490252.38066
1569490252.39629
1569490252.41191
1569490252.42754
1569490252.44317
1569490252.45879
1569490252.47442
1569490252.49004
1569490252.50567
1569490252.52129
1569490252.53692
1569490252.55255
1569490252.56817
1569490252.5838
1569490252.59942
1569490252.61505
1569490252.63067
1569490252.6463
1569490252.66193
1569490252.67755
1569490252.69318
1569490252.7088
1569490252.72443
1569490252.74005
1569490252.75568
1569490252.77131
1569490252.78693
1569490252.80256
1569490252.81818
1569490252.83381
1569490252.84943
1569490252.86506
1569490252.88069
1569490252.89631
1569490252.91194
1569490252.92756
1569490252.94319
1569490252.95881
1569490252.97444
1569490252.99007
1569490253.00569
1569490253.02132
1569490253.03694
1569490253.05257
1569490253.06819
1569490253.08382
1569490253.09945
1569490253.11507
1569490253.1307
1569490253.14632
1569490253.16195
1569490253.17757
1569490253.1932
1569490253.20883
1569490253.22445
1569490253.24008
1569490253.2557
1569490253.27133
1569490253.28695
1569490253.30258
1569490253.31821
1569490253.33383
1569490253.34946
1569490253.36508
1569490253.38071
1569490253.39633
1569490253.41196
1569490253.42759
1569490253.44321
1569490253.45884
1569490253.47446
1569490253.49009
1569490253.50572
1569490253.52134
1569490253.53697
1569490253.55259
1569490253.56822
1569490253.58384
1569490253.59947
1569490253.6151
1569490253.63072
1569490253.64635
1569490253.66197
1569490253.6776
1569490253.69322
1569490253.70885
1569490253.72448
1569490253.7401
1569490253.75573
1569490253.77135
1569490253.78698
1569490253.8026
1569490253.81823
1569490253.83386
1569490253.84948
1569490253.86511
1569490253.88073
1569490253.89636
1569490253.91198
1569490253.92761
1569490253.94324
1569490253.95886
1569490253.97449
1569490253.99011
1569490254.00574
1569490254.02136
1569490254.03699
1569490254.05262
1569490254.06824
1569490254.08387
1569490254.09949
1569490254.11512
1569490254.13074
1569490254.14637
1569490254.162
1569490254.17762
1569490254.19325
1569490254.20887
1569490254.2245
1569490254.24012
1569490254.25575
1569490254.27138
1569490254.287
1569490254.30263
1569490254.31825
1569490254.33388
1569490254.3495
1569490254.36513
1569490254.38076
1569490254.39638
1569490254.41201
1569490254.42763
1569490254.44326
1569490254.45888
1569490254.47451
1569490254.49014
1569490254.50576
1569490254.52139
1569490254.53701
1569490254.55264
1569490254.56826
1569490254.58389
1569490254.59952
1569490254.61514
1569490254.63077
1569490254.64639
1569490254.66202
1569490254.67764
1569490254.69327
1569490254.7089
1569490254.72452
1569490254.74015
1569490254.75577
1569490254.7714
1569490254.78702
1569490254.80265
1569490254.81828
1569490254.8339
1569490254.84953
1569490254.86515
1569490254.88078
1569490254.8964
1569490254.91203
1569490254.92766
1569490254.94328
1569490254.95891
1569490254.97453
1569490254.99016
1569490255.00578
1569490255.02141
1569490255.03704
1569490255.05266
1569490255.06829
1569490255.08391
1569490255.09954
1569490255.11516
1569490255.13079
1569490255.14642
1569490255.16204
1569490255.17767
1569490255.19329
1569490255.20892
1569490255.22454
1569490255.24017
1569490255.2558
1569490255.27142
1569490255.28705
1569490255.30267
1569490255.3183
1569490255.33392
1569490255.34955
1569490255.36518
1569490255.3808
1569490255.39643
1569490255.41205
1569490255.42768
1569490255.4433
1569490255.45893
1569490255.47456
1569490255.49018
1569490255.50581
1569490255.52143
1569490255.53706
1569490255.55268
1569490255.56831
1569490255.58394
1569490255.59956
1569490255.61519
1569490255.63081
1569490255.64644
1569490255.66207
1569490255.67769
1569490255.69332
1569490255.70894
1569490255.72457
1569490255.74019
1569490255.75582
1569490255.77145
1569490255.78707
1569490255.8027
1569490255.81832
1569490255.83395
1569490255.84957
1569490255.8652
1569490255.88083
1569490255.89645
1569490255.91208
1569490255.9277
1569490255.94333
1569490255.95895
1569490255.97458
1569490255.99021
1569490256.00583
1569490256.02146
1569490256.03708
1569490256.05271
1569490256.06833
1569490256.08396
1569490256.09959
1569490256.11521
1569490256.13084
1569490256.14646
1569490256.16209
1569490256.17771
1569490256.19334
1569490256.20897
1569490256.22459
1569490256.24022
1569490256.25584
1569490256.27147
1569490256.28709
1569490256.30272
1569490256.31835
1569490256.33397
1569490256.3496
1569490256.36522
1569490256.38085
1569490256.39647
1569490256.4121
1569490256.42773
1569490256.44335
1569490256.45898
1569490256.4746
1569490256.49023
1569490256.50585
1569490256.52148
1569490256.53711
1569490256.55273
1569490256.56836
1569490256.58398
1569490256.59961
1569490256.61523
1569490256.63086
1569490256.64649
1569490256.66211
1569490256.67774
1569490256.69336
1569490256.70899
1569490256.72461
1569490256.74024
1569490256.75587
1569490256.77149
1569490256.78712
1569490256.80274
1569490256.81837
1569490256.83399
1569490256.84962
1569490256.86525
1569490256.88087
1569490256.8965
1569490256.91212
1569490256.92775
1569490256.94337
1569490256.959
1569490256.97463
1569490256.99025
1569490257.00588
1569490257.0215
1569490257.03713
1569490257.05275
1569490257.06838
1569490257.08401
1569490257.09963
1569490257.11526
1569490257.13088
1569490257.14651
1569490257.16213
1569490257.17776
1569490257.19339
1569490257.20901
1569490257.22464
1569490257.24026
1569490257.25589
1569490257.27151
1569490257.28714
1569490257.30277
1569490257.31839
1569490257.33402
1569490257.34964
1569490257.36527
1569490257.38089
1569490257.39652
1569490257.41215
1569490257.42777
1569490257.4434
1569490257.45902
1569490257.47465
1569490257.49027
1569490257.5059
1569490257.52153
1569490257.53715
1569490257.55278
1569490257.5684
1569490257.58403
1569490257.59965
1569490257.61528
1569490257.63091
1569490257.64653
1569490257.66216
1569490257.67778
1569490257.69341
1569490257.70903
1569490257.72466
1569490257.74029
1569490257.75591
1569490257.77154
1569490257.78716
1569490257.80279
1569490257.81841
1569490257.83404
1569490257.84967
1569490257.86529
1569490257.88092
1569490257.89654
1569490257.91217
1569490257.92779
1569490257.94342
1569490257.95905
1569490257.97467
1569490257.9903
1569490258.00592
1569490258.02155
1569490258.03717
1569490258.0528
1569490258.06843
1569490258.08405
1569490258.09968
1569490258.1153
1569490258.13093
1569490258.14655
1569490258.16218
1569490258.17781
1569490258.19343
1569490258.20906
1569490258.22468
1569490258.24031
1569490258.25593
1569490258.27156
1569490258.28719
1569490258.30281
1569490258.31844
1569490258.33406
1569490258.34969
1569490258.36532
1569490258.38094
1569490258.39657
1569490258.41219
1569490258.42782
1569490258.44344
1569490258.45907
1569490258.4747
1569490258.49032
1569490258.50595
1569490258.52157
1569490258.5372
1569490258.55282
1569490258.56845
1569490258.58408
1569490258.5997
1569490258.61533
1569490258.63095
1569490258.64658
1569490258.6622
1569490258.67783
1569490258.69346
1569490258.70908
1569490258.72471
1569490258.74033
1569490258.75596
1569490258.77158
1569490258.78721
1569490258.80284
1569490258.81846
1569490258.83409
1569490258.84971
1569490258.86534
1569490258.88096
1569490258.89659
1569490258.91222
1569490258.92784
1569490258.94347
1569490258.95909
1569490258.97472
1569490258.99034
1569490259.00597
1569490259.0216
1569490259.03722
1569490259.05285
1569490259.06847
1569490259.0841
1569490259.09972
1569490259.11535
1569490259.13098
1569490259.1466
1569490259.16223
1569490259.17785
1569490259.19348
1569490259.2091
1569490259.22473
1569490259.24036
1569490259.25598
1569490259.27161
1569490259.28723
1569490259.30286
1569490259.31848
1569490259.33411
1569490259.34974
1569490259.36536
1569490259.38099
1569490259.39661
1569490259.41224
1569490259.42786
1569490259.44349
1569490259.45912
1569490259.47474
1569490259.49037
1569490259.50599
1569490259.52162
1569490259.53724
1569490259.55287
1569490259.5685
1569490259.58412
1569490259.59975
1569490259.61537
1569490259.631
1569490259.64662
1569490259.66225
1569490259.67788
1569490259.6935
1569490259.70913
1569490259.72475
1569490259.74038
1569490259.756
1569490259.77163
1569490259.78726
1569490259.80288
1569490259.81851
1569490259.83413
1569490259.84976
1569490259.86538
1569490259.88101
1569490259.89664
1569490259.91226
1569490259.92789
1569490259.94351
1569490259.95914
1569490259.97476
1569490259.99039
1569490260.00602
1569490260.02164
1569490260.03727
1569490260.05289
1569490260.06852
1569490260.08414
1569490260.09977
1569490260.1154
1569490260.13102
1569490260.14665
1569490260.16227
1569490260.1779
1569490260.19352
1569490260.20915
1569490260.22478
1569490260.2404
1569490260.25603
1569490260.27165
1569490260.28728
1569490260.3029
1569490260.31853
1569490260.33416
1569490260.34978
1569490260.36541
1569490260.38103
1569490260.39666
1569490260.41228
1569490260.42791
1569490260.44354
1569490260.45916
1569490260.47479
1569490260.49041
1569490260.50604
1569490260.52166
1569490260.53729
1569490260.55292
1569490260.56854
1569490260.58417
1569490260.59979
1569490260.61542
1569490260.63105
1569490260.64667
1569490260.6623
1569490260.67792
1569490260.69355
1569490260.70917
1569490260.7248
1569490260.74043
1569490260.75605
1569490260.77168
1569490260.7873
1569490260.80293
1569490260.81855
1569490260.83418
1569490260.84981
1569490260.86543
1569490260.88106
1569490260.89668
1569490260.91231
1569490260.92793
1569490260.94356
1569490260.95919
1569490260.97481
1569490260.99044
1569490261.00606
1569490261.02169
1569490261.03731
1569490261.05294
1569490261.06857
1569490261.08419
1569490261.09982
1569490261.11544
1569490261.13107
1569490261.14669
1569490261.16232
1569490261.17795
1569490261.19357
1569490261.2092
1569490261.22482
1569490261.24045
1569490261.25607
1569490261.2717
1569490261.28733
1569490261.30295
1569490261.31858
1569490261.3342
1569490261.34983
1569490261.36545
1569490261.38108
1569490261.39671
1569490261.41233
1569490261.42796
1569490261.44358
1569490261.45921
1569490261.47483
1569490261.49046
1569490261.50609
1569490261.52171
1569490261.53734
1569490261.55296
1569490261.56859
1569490261.58421
1569490261.59984
1569490261.61547
1569490261.63109
1569490261.64672
1569490261.66234
1569490261.67797
1569490261.69359
1569490261.70922
1569490261.72485
1569490261.74047
1569490261.7561
1569490261.77172
1569490261.78735
1569490261.80297
1569490261.8186
1569490261.83423
1569490261.84985
1569490261.86548
1569490261.8811
1569490261.89673
1569490261.91235
1569490261.92798
1569490261.94361
1569490261.95923
1569490261.97486
1569490261.99048
1569490262.00611
1569490262.02173
1569490262.03736
1569490262.05299
1569490262.06861
1569490262.08424
1569490262.09986
1569490262.11549
1569490262.13111
1569490262.14674
1569490262.16237
1569490262.17799
1569490262.19362
1569490262.20924
1569490262.22487
1569490262.24049
1569490262.25612
1569490262.27175
1569490262.28737
1569490262.303
1569490262.31862
1569490262.33425
1569490262.34987
1569490262.3655
1569490262.38113
1569490262.39675
1569490262.41238
1569490262.428
1569490262.44363
1569490262.45925
1569490262.47488
1569490262.49051
1569490262.50613
1569490262.52176
1569490262.53738
1569490262.55301
1569490262.56863
1569490262.58426
1569490262.59989
1569490262.61551
1569490262.63114
1569490262.64676
1569490262.66239
1569490262.67801
1569490262.69364
1569490262.70927
1569490262.72489
1569490262.74052
1569490262.75614
1569490262.77177
1569490262.7874
1569490262.80302
1569490262.81865
1569490262.83427
1569490262.8499
1569490262.86552
1569490262.88115
1569490262.89678
1569490262.9124
1569490262.92803
1569490262.94365
1569490262.95928
1569490262.9749
1569490262.99053
1569490263.00616
1569490263.02178
1569490263.03741
1569490263.05303
1569490263.06866
1569490263.08428
1569490263.09991
1569490263.11554
1569490263.13116
1569490263.14679
1569490263.16241
1569490263.17804
1569490263.19366
1569490263.20929
1569490263.22492
1569490263.24054
1569490263.25617
1569490263.27179
1569490263.28742
1569490263.30304
1569490263.31867
1569490263.3343
1569490263.34992
1569490263.36555
1569490263.38117
1569490263.3968
1569490263.41242
1569490263.42805
1569490263.44368
1569490263.4593
1569490263.47493
1569490263.49055
1569490263.50618
1569490263.5218
1569490263.53743
1569490263.55306
1569490263.56868
1569490263.58431
1569490263.59993
1569490263.61556
1569490263.63118
1569490263.64681
1569490263.66244
1569490263.67806
1569490263.69369
1569490263.70931
1569490263.72494
1569490263.74056
1569490263.75619
1569490263.77182
1569490263.78744
1569490263.80307
1569490263.81869
1569490263.83432
1569490263.84994
1569490263.86557
1569490263.8812
1569490263.89682
1569490263.91245
1569490263.92807
1569490263.9437
1569490263.95932
1569490263.97495
1569490263.99058
1569490264.0062
1569490264.02183
1569490264.03745
1569490264.05308
1569490264.0687
1569490264.08433
1569490264.09996
1569490264.11558
1569490264.13121
1569490264.14683
1569490264.16246
1569490264.17808
1569490264.19371
1569490264.20934
1569490264.22496
1569490264.24059
1569490264.25621
1569490264.27184
1569490264.28746
1569490264.30309
1569490264.31872
1569490264.33434
1569490264.34997
1569490264.36559
1569490264.38122
1569490264.39684
1569490264.41247
1569490264.4281
1569490264.44372
1569490264.45935
1569490264.47497
1569490264.4906
1569490264.50622
1569490264.52185
1569490264.53748
1569490264.5531
1569490264.56873
1569490264.58435
1569490264.59998
1569490264.6156
1569490264.63123
1569490264.64686
1569490264.66248
1569490264.67811
1569490264.69373
1569490264.70936
1569490264.72498
1569490264.74061
1569490264.75624
1569490264.77186
1569490264.78749
1569490264.80311
1569490264.81874
1569490264.83436
1569490264.84999
1569490264.86562
1569490264.88124
1569490264.89687
1569490264.91249
1569490264.92812
1569490264.94374
1569490264.95937
1569490264.975
1569490264.99062
1569490265.00625
1569490265.02187
1569490265.0375
1569490265.05312
1569490265.06875
1569490265.08438
1569490265.1
1569490265.11563
1569490265.13125
1569490265.14688
1569490265.1625
1569490265.17813
1569490265.19376
1569490265.20938
1569490265.22501
1569490265.24063
1569490265.25626
1569490265.27188
1569490265.28751
1569490265.30314
1569490265.31876
1569490265.33439
1569490265.35001
1569490265.36564
1569490265.38126
1569490265.39689
1569490265.41252
1569490265.42814
1569490265.44377
1569490265.45939
1569490265.47502
1569490265.49065
1569490265.50627
1569490265.5219
1569490265.53752
1569490265.55315
1569490265.56877
1569490265.5844
1569490265.60003
1569490265.61565
1569490265.63128
1569490265.6469
1569490265.66253
1569490265.67815
1569490265.69378
1569490265.70941
1569490265.72503
1569490265.74066
1569490265.75628
1569490265.77191
1569490265.78753
1569490265.80316
1569490265.81879
1569490265.83441
1569490265.85004
1569490265.86566
1569490265.88129
1569490265.89691
1569490265.91254
1569490265.92817
1569490265.94379
1569490265.95942
1569490265.97504
1569490265.99067
1569490266.00629
1569490266.02192
1569490266.03755
1569490266.05317
1569490266.0688
1569490266.08442
1569490266.10005
1569490266.11567
1569490266.1313
1569490266.14693
1569490266.16255
1569490266.17818
1569490266.1938
1569490266.20943
1569490266.22505
1569490266.24068
1569490266.25631
1569490266.27193
1569490266.28756
1569490266.30318
1569490266.31881
1569490266.33443
1569490266.35006
1569490266.36569
1569490266.38131
1569490266.39694
1569490266.41256
1569490266.42819
1569490266.44381
1569490266.45944
1569490266.47507
1569490266.49069
1569490266.50632
1569490266.52194
1569490266.53757
1569490266.55319
1569490266.56882
1569490266.58445
1569490266.60007
1569490266.6157
1569490266.63132
1569490266.64695
1569490266.66257
1569490266.6782
1569490266.69383
1569490266.70945
1569490266.72508
1569490266.7407
1569490266.75633
1569490266.77195
1569490266.78758
1569490266.80321
1569490266.81883
1569490266.83446
1569490266.85008
1569490266.86571
1569490266.88133
1569490266.89696
1569490266.91259
1569490266.92821
1569490266.94384
1569490266.95946
1569490266.97509
1569490266.99071
1569490267.00634
1569490267.02197
1569490267.03759
1569490267.05322
1569490267.06884
1569490267.08447
1569490267.10009
1569490267.11572
1569490267.13135
1569490267.14697
1569490267.1626
1569490267.17822
1569490267.19385
1569490267.20947
1569490267.2251
1569490267.24073
1569490267.25635
1569490267.27198
1569490267.2876
1569490267.30323
1569490267.31885
1569490267.33448
1569490267.35011
1569490267.36573
1569490267.38136
1569490267.39698
1569490267.41261
1569490267.42823
1569490267.44386
1569490267.45949
1569490267.47511
1569490267.49074
1569490267.50636
1569490267.52199
1569490267.53761
1569490267.55324
1569490267.56887
1569490267.58449
1569490267.60012
1569490267.61574
1569490267.63137
1569490267.647
1569490267.66262
1569490267.67825
1569490267.69387
1569490267.7095
1569490267.72512
1569490267.74075
1569490267.75638
1569490267.772
1569490267.78763
1569490267.80325
1569490267.81888
1569490267.8345
1569490267.85013
1569490267.86576
1569490267.88138
1569490267.89701
1569490267.91263
1569490267.92826
1569490267.94388
1569490267.95951
1569490267.97514
1569490267.99076
1569490268.00639
1569490268.02201
1569490268.03764
1569490268.05326
1569490268.06889
1569490268.08452
1569490268.10014
1569490268.11577
1569490268.13139
1569490268.14702
1569490268.16264
1569490268.17827
1569490268.1939
1569490268.20952
1569490268.22515
1569490268.24077
1569490268.2564
1569490268.27202
1569490268.28765
1569490268.30328
1569490268.3189
1569490268.33453
1569490268.35015
1569490268.36578
1569490268.3814
1569490268.39703
1569490268.41266
1569490268.42828
1569490268.44391
1569490268.45953
1569490268.47516
1569490268.49078
1569490268.50641
1569490268.52204
1569490268.53766
1569490268.55329
1569490268.56891
1569490268.58454
1569490268.60016
1569490268.61579
1569490268.63142
1569490268.64704
1569490268.66267
1569490268.67829
1569490268.69392
1569490268.70954
1569490268.72517
1569490268.7408
1569490268.75642
1569490268.77205
1569490268.78767
1569490268.8033
1569490268.81892
1569490268.83455
1569490268.85018
1569490268.8658
1569490268.88143
1569490268.89705
1569490268.91268
1569490268.9283
1569490268.94393
1569490268.95956
1569490268.97518
1569490268.99081
1569490269.00643
1569490269.02206
1569490269.03768
1569490269.05331
1569490269.06894
1569490269.08456
1569490269.10019
1569490269.11581
1569490269.13144
1569490269.14706
1569490269.16269
1569490269.17832
1569490269.19394
1569490269.20957
1569490269.22519
1569490269.24082
1569490269.25644
1569490269.27207
1569490269.2877
1569490269.30332
1569490269.31895
1569490269.33457
1569490269.3502
1569490269.36582
1569490269.38145
1569490269.39708
1569490269.4127
1569490269.42833
1569490269.44395
1569490269.45958
1569490269.4752
1569490269.49083
1569490269.50646
1569490269.52208
1569490269.53771
1569490269.55333
1569490269.56896
1569490269.58458
1569490269.60021
1569490269.61584
1569490269.63146
1569490269.64709
1569490269.66271
1569490269.67834
1569490269.69396
1569490269.70959
1569490269.72522
1569490269.74084
1569490269.75647
1569490269.77209
1569490269.78772
1569490269.80334
1569490269.81897
1569490269.8346
1569490269.85022
1569490269.86585
1569490269.88147
1569490269.8971
1569490269.91272
1569490269.92835
1569490269.94398
1569490269.9596
1569490269.97523
1569490269.99085
1569490270.00648
1569490270.0221
1569490270.03773
1569490270.05336
1569490270.06898
1569490270.08461
1569490270.10023
1569490270.11586
1569490270.13148
1569490270.14711
1569490270.16274
1569490270.17836
1569490270.19399
1569490270.20961
1569490270.22524
1569490270.24086
1569490270.25649
1569490270.27212
1569490270.28774
1569490270.30337
1569490270.31899
1569490270.33462
1569490270.35025
1569490270.36587
1569490270.3815
1569490270.39712
1569490270.41275
1569490270.42837
1569490270.444
1569490270.45963
1569490270.47525
1569490270.49088
1569490270.5065
1569490270.52213
1569490270.53775
1569490270.55338
1569490270.56901
1569490270.58463
1569490270.60026
1569490270.61588
1569490270.63151
1569490270.64713
1569490270.66276
1569490270.67839
1569490270.69401
1569490270.70964
1569490270.72526
1569490270.74089
1569490270.75651
1569490270.77214
1569490270.78777
1569490270.80339
1569490270.81902
1569490270.83464
1569490270.85027
1569490270.86589
1569490270.88152
1569490270.89715
1569490270.91277
1569490270.9284
1569490270.94402
1569490270.95965
1569490270.97527
1569490270.9909
1569490271.00653
1569490271.02215
1569490271.03778
1569490271.0534
1569490271.06903
1569490271.08465
1569490271.10028
1569490271.11591
1569490271.13153
1569490271.14716
1569490271.16278
1569490271.17841
1569490271.19403
1569490271.20966
1569490271.22529
1569490271.24091
1569490271.25654
1569490271.27216
1569490271.28779
1569490271.30341
1569490271.31904
1569490271.33467
1569490271.35029
1569490271.36592
1569490271.38154
1569490271.39717
1569490271.41279
1569490271.42842
1569490271.44405
1569490271.45967
1569490271.4753
1569490271.49092
1569490271.50655
1569490271.52217
1569490271.5378
1569490271.55343
1569490271.56905
1569490271.58468
1569490271.6003
1569490271.61593
1569490271.63155
1569490271.64718
1569490271.66281
1569490271.67843
1569490271.69406
1569490271.70968
1569490271.72531
1569490271.74093
1569490271.75656
1569490271.77219
1569490271.78781
1569490271.80344
1569490271.81906
1569490271.83469
1569490271.85031
1569490271.86594
1569490271.88157
1569490271.89719
1569490271.91282
1569490271.92844
1569490271.94407
1569490271.95969
1569490271.97532
1569490271.99095
1569490272.00657
1569490272.0222
1569490272.03782
1569490272.05345
1569490272.06907
1569490272.0847
1569490272.10033
1569490272.11595
1569490272.13158
1569490272.1472
1569490272.16283
1569490272.17845
1569490272.19408
1569490272.20971
1569490272.22533
1569490272.24096
1569490272.25658
1569490272.27221
1569490272.28783
1569490272.30346
1569490272.31909
1569490272.33471
1569490272.35034
1569490272.36596
1569490272.38159
1569490272.39721
1569490272.41284
1569490272.42847
1569490272.44409
1569490272.45972
1569490272.47534
1569490272.49097
1569490272.5066
1569490272.52222
1569490272.53785
1569490272.55347
1569490272.5691
1569490272.58472
1569490272.60035
1569490272.61598
1569490272.6316
1569490272.64723
1569490272.66285
1569490272.67848
1569490272.6941
1569490272.70973
1569490272.72536
1569490272.74098
1569490272.75661
1569490272.77223
1569490272.78786
1569490272.80348
1569490272.81911
1569490272.83474
1569490272.85036
1569490272.86599
1569490272.88161
1569490272.89724
1569490272.91286
1569490272.92849
1569490272.94412
1569490272.95974
1569490272.97537
1569490272.99099
1569490273.00662
1569490273.02224
1569490273.03787
1569490273.0535
1569490273.06912
1569490273.08475
1569490273.10037
1569490273.116
1569490273.13162
1569490273.14725
1569490273.16288
1569490273.1785
1569490273.19413
1569490273.20975
1569490273.22538
1569490273.241
1569490273.25663
1569490273.27226
1569490273.28788
1569490273.30351
1569490273.31913
1569490273.33476
1569490273.35038
1569490273.36601
1569490273.38164
1569490273.39726
1569490273.41289
1569490273.42851
1569490273.44414
1569490273.45976
1569490273.47539
1569490273.49102
1569490273.50664
1569490273.52227
1569490273.53789
1569490273.55352
1569490273.56914
1569490273.58477
1569490273.6004
1569490273.61602
1569490273.63165
1569490273.64727
1569490273.6629
1569490273.67852
1569490273.69415
1569490273.70978
1569490273.7254
1569490273.74103
1569490273.75665
1569490273.77228
1569490273.7879
1569490273.80353
1569490273.81916
1569490273.83478
1569490273.85041
1569490273.86603
1569490273.88166
1569490273.89728
1569490273.91291
1569490273.92854
1569490273.94416
1569490273.95979
1569490273.97541
1569490273.99104
1569490274.00666
1569490274.02229
1569490274.03792
1569490274.05354
1569490274.06917
1569490274.08479
1569490274.10042
1569490274.11604
1569490274.13167
1569490274.1473
1569490274.16292
1569490274.17855
1569490274.19417
1569490274.2098
1569490274.22542
1569490274.24105
1569490274.25668
1569490274.2723
1569490274.28793
1569490274.30355
1569490274.31918
1569490274.3348
1569490274.35043
1569490274.36606
1569490274.38168
1569490274.39731
1569490274.41293
1569490274.42856
1569490274.44418
1569490274.45981
1569490274.47544
1569490274.49106
1569490274.50669
1569490274.52231
1569490274.53794
1569490274.55356
1569490274.56919
1569490274.58482
1569490274.60044
1569490274.61607
1569490274.63169
1569490274.64732
1569490274.66294
1569490274.67857
1569490274.6942
1569490274.70982
1569490274.72545
1569490274.74107
1569490274.7567
1569490274.77233
1569490274.78795
1569490274.80358
1569490274.8192
1569490274.83483
1569490274.85045
1569490274.86608
1569490274.88171
1569490274.89733
1569490274.91296
1569490274.92858
1569490274.94421
1569490274.95983
1569490274.97546
1569490274.99109
1569490275.00671
1569490275.02234
1569490275.03796
1569490275.05359
1569490275.06921
1569490275.08484
1569490275.10047
1569490275.11609
1569490275.13172
1569490275.14734
1569490275.16297
1569490275.17859
1569490275.19422
1569490275.20985
1569490275.22547
1569490275.2411
1569490275.25672
1569490275.27235
1569490275.28797
1569490275.3036
1569490275.31923
1569490275.33485
1569490275.35048
1569490275.3661
1569490275.38173
1569490275.39735
1569490275.41298
1569490275.42861
1569490275.44423
1569490275.45986
1569490275.47548
1569490275.49111
1569490275.50673
1569490275.52236
1569490275.53799
1569490275.55361
1569490275.56924
1569490275.58486
1569490275.60049
1569490275.61611
1569490275.63174
1569490275.64737
1569490275.66299
1569490275.67862
1569490275.69424
1569490275.70987
1569490275.72549
1569490275.74112
1569490275.75675
1569490275.77237
1569490275.788
1569490275.80362
1569490275.81925
1569490275.83487
1569490275.8505
1569490275.86613
1569490275.88175
1569490275.89738
1569490275.913
1569490275.92863
1569490275.94425
1569490275.95988
1569490275.97551
1569490275.99113
1569490276.00676
1569490276.02238
1569490276.03801
1569490276.05363
1569490276.06926
1569490276.08489
1569490276.10051
1569490276.11614
1569490276.13176
1569490276.14739
1569490276.16301
1569490276.17864
1569490276.19427
1569490276.20989
1569490276.22552
1569490276.24114
1569490276.25677
1569490276.27239
1569490276.28802
1569490276.30365
1569490276.31927
1569490276.3349
1569490276.35052
1569490276.36615
1569490276.38177
1569490276.3974
1569490276.41303
1569490276.42865
1569490276.44428
1569490276.4599
1569490276.47553
1569490276.49115
1569490276.50678
1569490276.52241
1569490276.53803
1569490276.55366
1569490276.56928
1569490276.58491
1569490276.60053
1569490276.61616
1569490276.63179
1569490276.64741
1569490276.66304
1569490276.67866
1569490276.69429
1569490276.70991
1569490276.72554
1569490276.74117
1569490276.75679
1569490276.77242
1569490276.78804
1569490276.80367
1569490276.81929
1569490276.83492
1569490276.85055
1569490276.86617
1569490276.8818
1569490276.89742
1569490276.91305
1569490276.92867
1569490276.9443
1569490276.95993
1569490276.97555
1569490276.99118
1569490277.0068
1569490277.02243
1569490277.03805
1569490277.05368
1569490277.06931
1569490277.08493
1569490277.10056
1569490277.11618
1569490277.13181
1569490277.14743
1569490277.16306
1569490277.17869
1569490277.19431
1569490277.20994
1569490277.22556
1569490277.24119
1569490277.25681
1569490277.27244
1569490277.28807
1569490277.30369
1569490277.31932
1569490277.33494
1569490277.35057
1569490277.3662
1569490277.38182
1569490277.39745
1569490277.41307
1569490277.4287
1569490277.44432
1569490277.45995
1569490277.47558
1569490277.4912
1569490277.50683
1569490277.52245
1569490277.53808
1569490277.5537
1569490277.56933
1569490277.58496
1569490277.60058
1569490277.61621
1569490277.63183
1569490277.64746
1569490277.66308
1569490277.67871
1569490277.69434
1569490277.70996
1569490277.72559
1569490277.74121
1569490277.75684
1569490277.77246
1569490277.78809
1569490277.80372
1569490277.81934
1569490277.83497
1569490277.85059
1569490277.86622
1569490277.88184
1569490277.89747
1569490277.9131
1569490277.92872
1569490277.94435
1569490277.95997
1569490277.9756
1569490277.99122
1569490278.00685
1569490278.02248
1569490278.0381
1569490278.05373
1569490278.06935
1569490278.08498
1569490278.1006
1569490278.11623
1569490278.13186
1569490278.14748
1569490278.16311
1569490278.17873
1569490278.19436
1569490278.20998
1569490278.22561
1569490278.24124
1569490278.25686
1569490278.27249
1569490278.28811
1569490278.30374
1569490278.31936
1569490278.33499
1569490278.35062
1569490278.36624
1569490278.38187
1569490278.39749
1569490278.41312
1569490278.42874
1569490278.44437
1569490278.46
1569490278.47562
1569490278.49125
1569490278.50687
1569490278.5225
1569490278.53812
1569490278.55375
1569490278.56938
1569490278.585
1569490278.60063
1569490278.61625
1569490278.63188
1569490278.6475
1569490278.66313
1569490278.67876
1569490278.69438
1569490278.71001
1569490278.72563
1569490278.74126
1569490278.75688
1569490278.77251
1569490278.78814
1569490278.80376
1569490278.81939
1569490278.83501
1569490278.85064
1569490278.86626
1569490278.88189
1569490278.89752
1569490278.91314
1569490278.92877
1569490278.94439
1569490278.96002
1569490278.97564
1569490278.99127
1569490279.0069
1569490279.02252
1569490279.03815
1569490279.05377
1569490279.0694
1569490279.08502
1569490279.10065
1569490279.11628
1569490279.1319
1569490279.14753
1569490279.16315
1569490279.17878
1569490279.1944
1569490279.21003
1569490279.22566
1569490279.24128
1569490279.25691
1569490279.27253
1569490279.28816
1569490279.30378
1569490279.31941
1569490279.33504
1569490279.35066
1569490279.36629
1569490279.38191
1569490279.39754
1569490279.41316
1569490279.42879
1569490279.44442
1569490279.46004
1569490279.47567
1569490279.49129
1569490279.50692
1569490279.52254
1569490279.53817
1569490279.5538
1569490279.56942
1569490279.58505
1569490279.60067
1569490279.6163
1569490279.63193
1569490279.64755
1569490279.66318
1569490279.6788
1569490279.69443
1569490279.71005
1569490279.72568
1569490279.74131
1569490279.75693
1569490279.77256
1569490279.78818
1569490279.80381
1569490279.81943
1569490279.83506
1569490279.85069
1569490279.86631
1569490279.88194
1569490279.89756
1569490279.91319
1569490279.92881
1569490279.94444
1569490279.96007
1569490279.97569
1569490279.99132
1569490280.00694
1569490280.02257
1569490280.03819
1569490280.05382
1569490280.06945
1569490280.08507
1569490280.1007
1569490280.11632
1569490280.13195
1569490280.14757
1569490280.1632
1569490280.17883
1569490280.19445
1569490280.21008
1569490280.2257
1569490280.24133
1569490280.25695
1569490280.27258
1569490280.28821
1569490280.30383
1569490280.31946
1569490280.33508
1569490280.35071
1569490280.36633
1569490280.38196
1569490280.39759
1569490280.41321
1569490280.42884
1569490280.44446
1569490280.46009
1569490280.47571
1569490280.49134
1569490280.50697
1569490280.52259
1569490280.53822
1569490280.55384
1569490280.56947
1569490280.58509
1569490280.60072
1569490280.61635
1569490280.63197
1569490280.6476
1569490280.66322
1569490280.67885
1569490280.69447
1569490280.7101
1569490280.72573
1569490280.74135
1569490280.75698
1569490280.7726
1569490280.78823
1569490280.80385
1569490280.81948
1569490280.83511
1569490280.85073
1569490280.86636
1569490280.88198
1569490280.89761
1569490280.91323
1569490280.92886
1569490280.94449
1569490280.96011
1569490280.97574
1569490280.99136
1569490281.00699
1569490281.02261
1569490281.03824
1569490281.05387
1569490281.06949
1569490281.08512
1569490281.10074
1569490281.11637
1569490281.13199
1569490281.14762
1569490281.16325
1569490281.17887
1569490281.1945
1569490281.21012
1569490281.22575
1569490281.24137
1569490281.257
1569490281.27263
1569490281.28825
1569490281.30388
1569490281.3195
1569490281.33513
1569490281.35075
1569490281.36638
1569490281.38201
1569490281.39763
1569490281.41326
1569490281.42888
1569490281.44451
1569490281.46013
1569490281.47576
1569490281.49139
1569490281.50701
1569490281.52264
1569490281.53826
1569490281.55389
1569490281.56951
1569490281.58514
1569490281.60077
1569490281.61639
1569490281.63202
1569490281.64764
1569490281.66327
1569490281.67889
1569490281.69452
1569490281.71015
1569490281.72577
1569490281.7414
1569490281.75702
1569490281.77265
1569490281.78828
1569490281.8039
1569490281.81953
1569490281.83515
1569490281.85078
1569490281.8664
1569490281.88203
1569490281.89766
1569490281.91328
1569490281.92891
1569490281.94453
1569490281.96016
1569490281.97578
1569490281.99141
1569490282.00704
1569490282.02266
1569490282.03829
1569490282.05391
1569490282.06954
1569490282.08516
1569490282.10079
1569490282.11642
1569490282.13204
1569490282.14767
1569490282.16329
1569490282.17892
1569490282.19454
1569490282.21017
1569490282.2258
1569490282.24142
1569490282.25705
1569490282.27267
1569490282.2883
1569490282.30392
1569490282.31955
1569490282.33518
1569490282.3508
1569490282.36643
1569490282.38205
1569490282.39768
1569490282.4133
1569490282.42893
1569490282.44456
1569490282.46018
1569490282.47581
1569490282.49143
1569490282.50706
1569490282.52268
1569490282.53831
1569490282.55394
1569490282.56956
1569490282.58519
1569490282.60081
1569490282.61644
1569490282.63206
1569490282.64769
1569490282.66332
1569490282.67894
1569490282.69457
1569490282.71019
1569490282.72582
1569490282.74144
1569490282.75707
1569490282.7727
1569490282.78832
1569490282.80395
1569490282.81957
1569490282.8352
1569490282.85082
1569490282.86645
1569490282.88208
1569490282.8977
1569490282.91333
1569490282.92895
1569490282.94458
1569490282.9602
1569490282.97583
1569490282.99146
1569490283.00708
1569490283.02271
1569490283.03833
1569490283.05396
1569490283.06958
1569490283.08521
1569490283.10084
1569490283.11646
1569490283.13209
1569490283.14771
1569490283.16334
1569490283.17896
1569490283.19459
1569490283.21022
1569490283.22584
1569490283.24147
1569490283.25709
1569490283.27272
1569490283.28834
1569490283.30397
1569490283.3196
1569490283.33522
1569490283.35085
1569490283.36647
1569490283.3821
1569490283.39772
1569490283.41335
1569490283.42898
1569490283.4446
1569490283.46023
1569490283.47585
1569490283.49148
1569490283.5071
1569490283.52273
1569490283.53836
1569490283.55398
1569490283.56961
1569490283.58523
1569490283.60086
1569490283.61648
1569490283.63211
1569490283.64774
1569490283.66336
1569490283.67899
1569490283.69461
1569490283.71024
1569490283.72586
1569490283.74149
1569490283.75712
1569490283.77274
1569490283.78837
1569490283.80399
1569490283.81962
1569490283.83524
1569490283.85087
1569490283.8665
1569490283.88212
1569490283.89775
1569490283.91337
1569490283.929
1569490283.94462
1569490283.96025
1569490283.97588
1569490283.9915
1569490284.00713
1569490284.02275
1569490284.03838
1569490284.054
1569490284.06963
1569490284.08526
1569490284.10088
1569490284.11651
1569490284.13213
1569490284.14776
1569490284.16338
1569490284.17901
1569490284.19464
1569490284.21026
1569490284.22589
1569490284.24151
1569490284.25714
1569490284.27276
1569490284.28839
1569490284.30402
1569490284.31964
1569490284.33527
1569490284.35089
1569490284.36652
1569490284.38214
1569490284.39777
1569490284.4134
1569490284.42902
1569490284.44465
1569490284.46027
1569490284.4759
1569490284.49153
1569490284.50715
1569490284.52278
1569490284.5384
1569490284.55403
1569490284.56965
1569490284.58528
1569490284.60091
1569490284.61653
1569490284.63216
1569490284.64778
1569490284.66341
1569490284.67903
1569490284.69466
1569490284.71029
1569490284.72591
1569490284.74154
1569490284.75716
1569490284.77279
1569490284.78841
1569490284.80404
1569490284.81967
1569490284.83529
1569490284.85092
1569490284.86654
1569490284.88217
1569490284.89779
1569490284.91342
1569490284.92905
1569490284.94467
1569490284.9603
1569490284.97592
1569490284.99155
1569490285.00717
1569490285.0228
1569490285.03843
1569490285.05405
1569490285.06968
1569490285.0853
1569490285.10093
1569490285.11655
1569490285.13218
1569490285.14781
1569490285.16343
1569490285.17906
1569490285.19468
1569490285.21031
1569490285.22593
1569490285.24156
1569490285.25719
1569490285.27281
1569490285.28844
1569490285.30406
1569490285.31969
1569490285.33531
1569490285.35094
1569490285.36657
1569490285.38219
1569490285.39782
1569490285.41344
1569490285.42907
1569490285.44469
1569490285.46032
1569490285.47595
1569490285.49157
1569490285.5072
1569490285.52282
1569490285.53845
1569490285.55407
1569490285.5697
1569490285.58533
1569490285.60095
1569490285.61658
1569490285.6322
1569490285.64783
1569490285.66345
1569490285.67908
1569490285.69471
1569490285.71033
1569490285.72596
1569490285.74158
1569490285.75721
1569490285.77283
1569490285.78846
1569490285.80409
1569490285.81971
1569490285.83534
1569490285.85096
1569490285.86659
1569490285.88221
1569490285.89784
1569490285.91347
1569490285.92909
1569490285.94472
1569490285.96034
1569490285.97597
1569490285.99159
1569490286.00722
1569490286.02285
1569490286.03847
1569490286.0541
1569490286.06972
1569490286.08535
1569490286.10097
1569490286.1166
1569490286.13223
1569490286.14785
1569490286.16348
1569490286.1791
1569490286.19473
1569490286.21035
1569490286.22598
1569490286.24161
1569490286.25723
1569490286.27286
1569490286.28848
1569490286.30411
1569490286.31973
1569490286.33536
1569490286.35099
1569490286.36661
1569490286.38224
1569490286.39786
1569490286.41349
1569490286.42911
1569490286.44474
1569490286.46037
1569490286.47599
1569490286.49162
1569490286.50724
1569490286.52287
1569490286.53849
1569490286.55412
1569490286.56975
1569490286.58537
1569490286.601
1569490286.61662
1569490286.63225
1569490286.64788
1569490286.6635
1569490286.67913
1569490286.69475
1569490286.71038
1569490286.726
1569490286.74163
1569490286.75726
1569490286.77288
1569490286.78851
1569490286.80413
1569490286.81976
1569490286.83538
1569490286.85101
1569490286.86664
1569490286.88226
1569490286.89789
1569490286.91351
1569490286.92914
1569490286.94476
1569490286.96039
1569490286.97602
1569490286.99164
1569490287.00727
1569490287.02289
1569490287.03852
1569490287.05414
1569490287.06977
1569490287.0854
1569490287.10102
1569490287.11665
1569490287.13227
1569490287.1479
1569490287.16352
1569490287.17915
1569490287.19478
1569490287.2104
1569490287.22603
1569490287.24165
1569490287.25728
1569490287.2729
1569490287.28853
1569490287.30416
1569490287.31978
1569490287.33541
1569490287.35103
1569490287.36666
1569490287.38228
1569490287.39791
1569490287.41354
1569490287.42916
1569490287.44479
1569490287.46041
1569490287.47604
1569490287.49166
1569490287.50729
1569490287.52292
1569490287.53854
1569490287.55417
1569490287.56979
1569490287.58542
1569490287.60104
1569490287.61667
1569490287.6323
1569490287.64792
1569490287.66355
1569490287.67917
1569490287.6948
1569490287.71042
1569490287.72605
1569490287.74168
1569490287.7573
1569490287.77293
1569490287.78855
1569490287.80418
1569490287.8198
1569490287.83543
1569490287.85106
1569490287.86668
1569490287.88231
1569490287.89793
1569490287.91356
1569490287.92918
1569490287.94481
1569490287.96044
1569490287.97606
1569490287.99169
1569490288.00731
1569490288.02294
1569490288.03856
1569490288.05419
1569490288.06982
1569490288.08544
1569490288.10107
1569490288.11669
1569490288.13232
1569490288.14794
1569490288.16357
1569490288.1792
1569490288.19482
1569490288.21045
1569490288.22607
1569490288.2417
1569490288.25732
1569490288.27295
1569490288.28858
1569490288.3042
1569490288.31983
1569490288.33545
1569490288.35108
1569490288.3667
1569490288.38233
1569490288.39796
1569490288.41358
1569490288.42921
1569490288.44483
1569490288.46046
1569490288.47608
1569490288.49171
1569490288.50734
1569490288.52296
1569490288.53859
1569490288.55421
1569490288.56984
1569490288.58546
1569490288.60109
1569490288.61672
1569490288.63234
1569490288.64797
1569490288.66359
1569490288.67922
1569490288.69484
1569490288.71047
1569490288.7261
1569490288.74172
1569490288.75735
1569490288.77297
1569490288.7886
1569490288.80422
1569490288.81985
1569490288.83548
1569490288.8511
1569490288.86673
1569490288.88235
1569490288.89798
1569490288.9136
1569490288.92923
1569490288.94486
1569490288.96048
1569490288.97611
1569490288.99173
1569490289.00736
1569490289.02298
1569490289.03861
1569490289.05424
1569490289.06986
1569490289.08549
1569490289.10111
1569490289.11674
1569490289.13236
1569490289.14799
1569490289.16362
1569490289.17924
1569490289.19487
1569490289.21049
1569490289.22612
1569490289.24175
1569490289.25737
1569490289.273
1569490289.28862
1569490289.30425
1569490289.31987
1569490289.3355
1569490289.35113
1569490289.36675
1569490289.38238
1569490289.398
1569490289.41363
1569490289.42925
1569490289.44488
1569490289.46051
1569490289.47613
1569490289.49176
1569490289.50738
1569490289.52301
1569490289.53863
1569490289.55426
1569490289.56989
1569490289.58551
1569490289.60114
1569490289.61676
1569490289.63239
1569490289.64801
1569490289.66364
1569490289.67927
1569490289.69489
1569490289.71052
1569490289.72614
1569490289.74177
1569490289.75739
1569490289.77302
1569490289.78865
1569490289.80427
1569490289.8199
1569490289.83552
1569490289.85115
1569490289.86677
1569490289.8824
1569490289.89803
1569490289.91365
1569490289.92928
1569490289.9449
1569490289.96053
1569490289.97615
1569490289.99178
1569490290.00741
1569490290.02303
1569490290.03866
1569490290.05428
1569490290.06991
1569490290.08553
1569490290.10116
1569490290.11679
1569490290.13241
1569490290.14804
1569490290.16366
1569490290.17929
1569490290.19491
1569490290.21054
1569490290.22617
1569490290.24179
1569490290.25742
1569490290.27304
1569490290.28867
1569490290.30429
1569490290.31992
1569490290.33555
1569490290.35117
1569490290.3668
1569490290.38242
1569490290.39805
1569490290.41367
1569490290.4293
1569490290.44493
1569490290.46055
1569490290.47618
1569490290.4918
1569490290.50743
1569490290.52305
1569490290.53868
1569490290.55431
1569490290.56993
1569490290.58556
1569490290.60118
1569490290.61681
1569490290.63243
1569490290.64806
1569490290.66369
1569490290.67931
1569490290.69494
1569490290.71056
1569490290.72619
1569490290.74181
1569490290.75744
1569490290.77307
1569490290.78869
1569490290.80432
1569490290.81994
1569490290.83557
1569490290.85119
1569490290.86682
1569490290.88245
1569490290.89807
1569490290.9137
1569490290.92932
1569490290.94495
1569490290.96057
1569490290.9762
1569490290.99183
1569490291.00745
1569490291.02308
1569490291.0387
1569490291.05433
1569490291.06995
1569490291.08558
1569490291.10121
1569490291.11683
1569490291.13246
1569490291.14808
1569490291.16371
1569490291.17933
1569490291.19496
1569490291.21059
1569490291.22621
1569490291.24184
1569490291.25746
1569490291.27309
1569490291.28871
1569490291.30434
1569490291.31997
1569490291.33559
1569490291.35122
1569490291.36684
1569490291.38247
1569490291.39809
1569490291.41372
1569490291.42935
1569490291.44497
1569490291.4606
1569490291.47622
1569490291.49185
1569490291.50747
1569490291.5231
1569490291.53873
1569490291.55435
1569490291.56998
1569490291.5856
1569490291.60123
1569490291.61686
1569490291.63248
1569490291.64811
1569490291.66373
1569490291.67936
1569490291.69498
1569490291.71061
1569490291.72624
1569490291.74186
1569490291.75749
1569490291.77311
1569490291.78874
1569490291.80436
1569490291.81999
1569490291.83562
1569490291.85124
1569490291.86687
1569490291.88249
1569490291.89812
1569490291.91374
1569490291.92937
1569490291.945
1569490291.96062
1569490291.97625
1569490291.99187
1569490292.0075
1569490292.02312
1569490292.03875
1569490292.05438
1569490292.07
1569490292.08563
1569490292.10125
1569490292.11688
1569490292.1325
1569490292.14813
1569490292.16376
1569490292.17938
1569490292.19501
1569490292.21063
1569490292.22626
1569490292.24188
1569490292.25751
1569490292.27314
1569490292.28876
1569490292.30439
1569490292.32001
1569490292.33564
1569490292.35126
1569490292.36689
1569490292.38252
1569490292.39814
1569490292.41377
1569490292.42939
1569490292.44502
1569490292.46064
1569490292.47627
1569490292.4919
1569490292.50752
1569490292.52315
1569490292.53877
1569490292.5544
1569490292.57002
1569490292.58565
1569490292.60128
1569490292.6169
1569490292.63253
1569490292.64815
1569490292.66378
1569490292.6794
1569490292.69503
1569490292.71066
1569490292.72628
1569490292.74191
1569490292.75753
1569490292.77316
1569490292.78878
1569490292.80441
1569490292.82004
1569490292.83566
1569490292.85129
1569490292.86691
1569490292.88254
1569490292.89816
1569490292.91379
1569490292.92942
1569490292.94504
1569490292.96067
1569490292.97629
1569490292.99192
1569490293.00754
1569490293.02317
1569490293.0388
1569490293.05442
1569490293.07005
1569490293.08567
1569490293.1013
1569490293.11692
1569490293.13255
1569490293.14818
1569490293.1638
1569490293.17943
1569490293.19505
1569490293.21068
1569490293.2263
1569490293.24193
1569490293.25756
1569490293.27318
1569490293.28881
1569490293.30443
1569490293.32006
1569490293.33568
1569490293.35131
1569490293.36694
1569490293.38256
1569490293.39819
1569490293.41381
1569490293.42944
1569490293.44506
1569490293.46069
1569490293.47632
1569490293.49194
1569490293.50757
1569490293.52319
1569490293.53882
1569490293.55444
1569490293.57007
1569490293.5857
1569490293.60132
1569490293.61695
1569490293.63257
1569490293.6482
1569490293.66382
1569490293.67945
1569490293.69508
1569490293.7107
1569490293.72633
1569490293.74195
1569490293.75758
1569490293.77321
1569490293.78883
1569490293.80446
1569490293.82008
1569490293.83571
1569490293.85133
1569490293.86696
1569490293.88259
1569490293.89821
1569490293.91384
1569490293.92946
1569490293.94509
1569490293.96071
1569490293.97634
1569490293.99197
1569490294.00759
1569490294.02322
1569490294.03884
1569490294.05447
1569490294.07009
1569490294.08572
1569490294.10135
1569490294.11697
1569490294.1326
1569490294.14822
1569490294.16385
1569490294.17947
1569490294.1951
1569490294.21073
1569490294.22635
1569490294.24198
1569490294.2576
1569490294.27323
1569490294.28885
1569490294.30448
1569490294.32011
1569490294.33573
1569490294.35136
1569490294.36698
1569490294.38261
1569490294.39823
1569490294.41386
1569490294.42949
1569490294.44511
1569490294.46074
1569490294.47636
1569490294.49199
1569490294.50761
1569490294.52324
1569490294.53887
1569490294.55449
1569490294.57012
1569490294.58574
1569490294.60137
1569490294.61699
1569490294.63262
1569490294.64825
1569490294.66387
1569490294.6795
1569490294.69512
1569490294.71075
1569490294.72637
1569490294.742
1569490294.75763
1569490294.77325
1569490294.78888
1569490294.8045
1569490294.82013
1569490294.83575
1569490294.85138
1569490294.86701
1569490294.88263
1569490294.89826
1569490294.91388
1569490294.92951
1569490294.94513
1569490294.96076
1569490294.97639
1569490294.99201
1569490295.00764
1569490295.02326
1569490295.03889
1569490295.05451
1569490295.07014
1569490295.08577
1569490295.10139
1569490295.11702
1569490295.13264
1569490295.14827
1569490295.16389
1569490295.17952
1569490295.19515
1569490295.21077
1569490295.2264
1569490295.24202
1569490295.25765
1569490295.27327
1569490295.2889
1569490295.30453
1569490295.32015
1569490295.33578
1569490295.3514
1569490295.36703
1569490295.38265
1569490295.39828
1569490295.41391
1569490295.42953
1569490295.44516
1569490295.46078
1569490295.47641
1569490295.49203
1569490295.50766
1569490295.52329
1569490295.53891
1569490295.55454
1569490295.57016
1569490295.58579
1569490295.60141
1569490295.61704
1569490295.63267
1569490295.64829
1569490295.66392
1569490295.67954
1569490295.69517
1569490295.71079
1569490295.72642
1569490295.74205
1569490295.75767
1569490295.7733
1569490295.78892
1569490295.80455
1569490295.82017
1569490295.8358
1569490295.85143
1569490295.86705
1569490295.88268
1569490295.8983
1569490295.91393
1569490295.92955
1569490295.94518
1569490295.96081
1569490295.97643
1569490295.99206
1569490296.00768
1569490296.02331
1569490296.03893
1569490296.05456
1569490296.07019
1569490296.08581
1569490296.10144
1569490296.11706
1569490296.13269
1569490296.14831
1569490296.16394
1569490296.17957
1569490296.19519
1569490296.21082
1569490296.22644
1569490296.24207
1569490296.25769
1569490296.27332
1569490296.28895
1569490296.30457
1569490296.3202
1569490296.33582
1569490296.35145
1569490296.36707
1569490296.3827
1569490296.39833
1569490296.41395
1569490296.42958
1569490296.4452
1569490296.46083
1569490296.47646
1569490296.49208
1569490296.50771
1569490296.52333
1569490296.53896
1569490296.55458
1569490296.57021
1569490296.58584
1569490296.60146
1569490296.61709
1569490296.63271
1569490296.64834
1569490296.66396
1569490296.67959
1569490296.69522
1569490296.71084
1569490296.72647
1569490296.74209
1569490296.75772
1569490296.77334
1569490296.78897
1569490296.8046
1569490296.82022
1569490296.83585
1569490296.85147
1569490296.8671
1569490296.88272
1569490296.89835
1569490296.91398
1569490296.9296
1569490296.94523
1569490296.96085
1569490296.97648
1569490296.9921
1569490297.00773
1569490297.02336
1569490297.03898
1569490297.05461
1569490297.07023
1569490297.08586
1569490297.10148
1569490297.11711
1569490297.13274
1569490297.14836
1569490297.16399
1569490297.17961
1569490297.19524
1569490297.21086
1569490297.22649
1569490297.24212
1569490297.25774
1569490297.27337
1569490297.28899
1569490297.30462
1569490297.32024
1569490297.33587
1569490297.3515
1569490297.36712
1569490297.38275
1569490297.39837
1569490297.414
1569490297.42962
1569490297.44525
1569490297.46088
1569490297.4765
1569490297.49213
1569490297.50775
1569490297.52338
1569490297.539
1569490297.55463
1569490297.57026
1569490297.58588
1569490297.60151
1569490297.61713
1569490297.63276
1569490297.64838
1569490297.66401
1569490297.67964
1569490297.69526
1569490297.71089
1569490297.72651
1569490297.74214
1569490297.75776
1569490297.77339
1569490297.78902
1569490297.80464
1569490297.82027
1569490297.83589
1569490297.85152
1569490297.86714
1569490297.88277
1569490297.8984
1569490297.91402
1569490297.92965
1569490297.94527
1569490297.9609
1569490297.97652
1569490297.99215
1569490298.00778
1569490298.0234
1569490298.03903
1569490298.05465
1569490298.07028
1569490298.0859
1569490298.10153
1569490298.11716
1569490298.13278
1569490298.14841
1569490298.16403
1569490298.17966
1569490298.19528
1569490298.21091
1569490298.22654
1569490298.24216
1569490298.25779
1569490298.27341
1569490298.28904
1569490298.30466
1569490298.32029
1569490298.33592
1569490298.35154
1569490298.36717
1569490298.38279
1569490298.39842
1569490298.41404
1569490298.42967
1569490298.4453
1569490298.46092
1569490298.47655
1569490298.49217
1569490298.5078
1569490298.52342
1569490298.53905
1569490298.55468
1569490298.5703
1569490298.58593
1569490298.60155
1569490298.61718
1569490298.63281
1569490298.64843
1569490298.66406
1569490298.67968
1569490298.69531
1569490298.71093
1569490298.72656
1569490298.74219
1569490298.75781
1569490298.77344
1569490298.78906
1569490298.80469
1569490298.82031
1569490298.83594
1569490298.85157
1569490298.86719
1569490298.88282
1569490298.89844
1569490298.91407
1569490298.92969
1569490298.94532
1569490298.96095
1569490298.97657
1569490298.9922
1569490299.00782
1569490299.02345
1569490299.03907
1569490299.0547
1569490299.07033
1569490299.08595
1569490299.10158
1569490299.1172
1569490299.13283
1569490299.14845
1569490299.16408
1569490299.17971
1569490299.19533
1569490299.21096
1569490299.22658
1569490299.24221
1569490299.25783
1569490299.27346
1569490299.28909
1569490299.30471
1569490299.32034
1569490299.33596
1569490299.35159
1569490299.36721
1569490299.38284
1569490299.39847
1569490299.41409
1569490299.42972
1569490299.44534
1569490299.46097
1569490299.47659
1569490299.49222
1569490299.50785
1569490299.52347
1569490299.5391
1569490299.55472
1569490299.57035
1569490299.58597
1569490299.6016
1569490299.61723
1569490299.63285
1569490299.64848
1569490299.6641
1569490299.67973
1569490299.69535
1569490299.71098
1569490299.72661
1569490299.74223
1569490299.75786
1569490299.77348
1569490299.78911
1569490299.80473
1569490299.82036
1569490299.83599
1569490299.85161
1569490299.86724
1569490299.88286
1569490299.89849
1569490299.91411
1569490299.92974
1569490299.94537
1569490299.96099
1569490299.97662
1569490299.99224
1569490300.00787
1569490300.02349
1569490300.03912
1569490300.05475
1569490300.07037
1569490300.086
1569490300.10162
1569490300.11725
1569490300.13287
1569490300.1485
1569490300.16413
1569490300.17975
1569490300.19538
1569490300.211
1569490300.22663
1569490300.24225
1569490300.25788
1569490300.27351
1569490300.28913
1569490300.30476
1569490300.32038
1569490300.33601
1569490300.35163
1569490300.36726
1569490300.38289
1569490300.39851
1569490300.41414
1569490300.42976
1569490300.44539
1569490300.46101
1569490300.47664
1569490300.49227
1569490300.50789
1569490300.52352
1569490300.53914
1569490300.55477
1569490300.57039
1569490300.58602
1569490300.60165
1569490300.61727
1569490300.6329
1569490300.64852
1569490300.66415
1569490300.67977
1569490300.6954
1569490300.71103
1569490300.72665
1569490300.74228
1569490300.7579
1569490300.77353
1569490300.78915
1569490300.80478
1569490300.82041
1569490300.83603
1569490300.85166
1569490300.86728
1569490300.88291
1569490300.89854
1569490300.91416
1569490300.92979
1569490300.94541
1569490300.96104
1569490300.97666
1569490300.99229
1569490301.00792
1569490301.02354
1569490301.03917
1569490301.05479
1569490301.07042
1569490301.08604
1569490301.10167
1569490301.1173
1569490301.13292
1569490301.14855
1569490301.16417
1569490301.1798
1569490301.19542
1569490301.21105
1569490301.22668
1569490301.2423
1569490301.25793
1569490301.27355
1569490301.28918
1569490301.3048
1569490301.32043
1569490301.33606
1569490301.35168
1569490301.36731
1569490301.38293
1569490301.39856
1569490301.41418
1569490301.42981
1569490301.44544
1569490301.46106
1569490301.47669
1569490301.49231
1569490301.50794
1569490301.52356
1569490301.53919
1569490301.55482
1569490301.57044
1569490301.58607
1569490301.60169
1569490301.61732
1569490301.63294
1569490301.64857
1569490301.6642
1569490301.67982
1569490301.69545
1569490301.71107
1569490301.7267
1569490301.74232
1569490301.75795
1569490301.77358
1569490301.7892
1569490301.80483
1569490301.82045
1569490301.83608
1569490301.8517
1569490301.86733
1569490301.88296
1569490301.89858
1569490301.91421
1569490301.92983
1569490301.94546
1569490301.96108
1569490301.97671
1569490301.99234
1569490302.00796
1569490302.02359
1569490302.03921
1569490302.05484
1569490302.07046
1569490302.08609
1569490302.10172
1569490302.11734
1569490302.13297
1569490302.14859
1569490302.16422
1569490302.17984
1569490302.19547
1569490302.2111
1569490302.22672
1569490302.24235
1569490302.25797
1569490302.2736
1569490302.28922
1569490302.30485
1569490302.32048
1569490302.3361
1569490302.35173
1569490302.36735
1569490302.38298
1569490302.3986
1569490302.41423
1569490302.42986
1569490302.44548
1569490302.46111
1569490302.47673
1569490302.49236
1569490302.50798
1569490302.52361
1569490302.53924
1569490302.55486
1569490302.57049
1569490302.58611
1569490302.60174
1569490302.61736
1569490302.63299
1569490302.64862
1569490302.66424
1569490302.67987
1569490302.69549
1569490302.71112
1569490302.72674
1569490302.74237
1569490302.758
1569490302.77362
1569490302.78925
1569490302.80487
1569490302.8205
1569490302.83612
1569490302.85175
1569490302.86738
1569490302.883
1569490302.89863
1569490302.91425
1569490302.92988
1569490302.9455
1569490302.96113
1569490302.97676
1569490302.99238
1569490303.00801
1569490303.02363
1569490303.03926
1569490303.05488
1569490303.07051
1569490303.08614
1569490303.10176
1569490303.11739
1569490303.13301
1569490303.14864
1569490303.16426
1569490303.17989
1569490303.19552
1569490303.21114
1569490303.22677
1569490303.24239
1569490303.25802
1569490303.27364
1569490303.28927
1569490303.3049
1569490303.32052
1569490303.33615
1569490303.35177
1569490303.3674
1569490303.38302
1569490303.39865
1569490303.41428
1569490303.4299
1569490303.44553
1569490303.46115
1569490303.47678
1569490303.49241
1569490303.50803
1569490303.52366
1569490303.53928
1569490303.55491
1569490303.57053
1569490303.58616
1569490303.60179
1569490303.61741
1569490303.63304
1569490303.64866
1569490303.66429
1569490303.67991
1569490303.69554
1569490303.71117
1569490303.72679
1569490303.74242
1569490303.75804
1569490303.77367
1569490303.78929
1569490303.80492
1569490303.82055
1569490303.83617
1569490303.8518
1569490303.86742
1569490303.88305
1569490303.89867
1569490303.9143
1569490303.92993
1569490303.94555
1569490303.96118
1569490303.9768
1569490303.99243
1569490304.00805
1569490304.02368
1569490304.03931
1569490304.05493
1569490304.07056
1569490304.08618
1569490304.10181
1569490304.11743
1569490304.13306
1569490304.14869
1569490304.16431
1569490304.17994
1569490304.19556
1569490304.21119
1569490304.22681
1569490304.24244
1569490304.25807
1569490304.27369
1569490304.28932
1569490304.30494
1569490304.32057
1569490304.33619
1569490304.35182
1569490304.36745
1569490304.38307
1569490304.3987
1569490304.41432
1569490304.42995
1569490304.44557
1569490304.4612
1569490304.47683
1569490304.49245
1569490304.50808
1569490304.5237
1569490304.53933
1569490304.55495
1569490304.57058
1569490304.58621
1569490304.60183
1569490304.61746
1569490304.63308
1569490304.64871
1569490304.66433
1569490304.67996
1569490304.69559
1569490304.71121
1569490304.72684
1569490304.74246
1569490304.75809
1569490304.77371
1569490304.78934
1569490304.80497
1569490304.82059
1569490304.83622
1569490304.85184
1569490304.86747
1569490304.88309
1569490304.89872
1569490304.91435
1569490304.92997
1569490304.9456
1569490304.96122
1569490304.97685
1569490304.99247
1569490305.0081
1569490305.02373
1569490305.03935
1569490305.05498
1569490305.0706
1569490305.08623
1569490305.10185
1569490305.11748
1569490305.13311
1569490305.14873
1569490305.16436
1569490305.17998
1569490305.19561
1569490305.21123
1569490305.22686
1569490305.24249
1569490305.25811
1569490305.27374
1569490305.28936
1569490305.30499
1569490305.32061
1569490305.33624
1569490305.35187
1569490305.36749
1569490305.38312
1569490305.39874
1569490305.41437
1569490305.42999
1569490305.44562
1569490305.46125
1569490305.47687
1569490305.4925
1569490305.50812
1569490305.52375
1569490305.53937
1569490305.555
1569490305.57063
1569490305.58625
1569490305.60188
1569490305.6175
1569490305.63313
1569490305.64875
1569490305.66438
1569490305.68001
1569490305.69563
1569490305.71126
1569490305.72688
1569490305.74251
1569490305.75814
1569490305.77376
1569490305.78939
1569490305.80501
1569490305.82064
1569490305.83626
1569490305.85189
1569490305.86752
1569490305.88314
1569490305.89877
1569490305.91439
1569490305.93002
1569490305.94564
1569490305.96127
1569490305.9769
1569490305.99252
1569490306.00815
1569490306.02377
1569490306.0394
1569490306.05502
1569490306.07065
1569490306.08628
1569490306.1019
1569490306.11753
1569490306.13315
1569490306.14878
1569490306.1644
1569490306.18003
1569490306.19566
1569490306.21128
1569490306.22691
1569490306.24253
1569490306.25816
1569490306.27378
1569490306.28941
1569490306.30504
1569490306.32066
1569490306.33629
1569490306.35191
1569490306.36754
1569490306.38316
1569490306.39879
1569490306.41442
1569490306.43004
1569490306.44567
1569490306.46129
1569490306.47692
1569490306.49254
1569490306.50817
1569490306.5238
1569490306.53942
1569490306.55505
1569490306.57067
1569490306.5863
1569490306.60192
1569490306.61755
1569490306.63318
1569490306.6488
1569490306.66443
1569490306.68005
1569490306.69568
1569490306.7113
1569490306.72693
1569490306.74256
1569490306.75818
1569490306.77381
1569490306.78943
1569490306.80506
1569490306.82068
1569490306.83631
1569490306.85194
1569490306.86756
1569490306.88319
1569490306.89881
1569490306.91444
1569490306.93006
1569490306.94569
1569490306.96132
1569490306.97694
1569490306.99257
1569490307.00819
1569490307.02382
1569490307.03944
1569490307.05507
1569490307.0707
1569490307.08632
1569490307.10195
1569490307.11757
1569490307.1332
1569490307.14882
1569490307.16445
1569490307.18008
1569490307.1957
1569490307.21133
1569490307.22695
1569490307.24258
1569490307.2582
1569490307.27383
1569490307.28946
1569490307.30508
1569490307.32071
1569490307.33633
1569490307.35196
1569490307.36758
1569490307.38321
1569490307.39884
1569490307.41446
1569490307.43009
1569490307.44571
1569490307.46134
1569490307.47696
1569490307.49259
1569490307.50822
1569490307.52384
1569490307.53947
1569490307.55509
1569490307.57072
1569490307.58634
1569490307.60197
1569490307.6176
1569490307.63322
1569490307.64885
1569490307.66447
1569490307.6801
1569490307.69572
1569490307.71135
1569490307.72698
1569490307.7426
1569490307.75823
1569490307.77385
1569490307.78948
1569490307.8051
1569490307.82073
1569490307.83636
1569490307.85198
1569490307.86761
1569490307.88323
1569490307.89886
1569490307.91448
1569490307.93011
1569490307.94574
1569490307.96136
1569490307.97699
1569490307.99261
1569490308.00824
1569490308.02386
1569490308.03949
1569490308.05512
1569490308.07074
1569490308.08637
1569490308.10199
1569490308.11762
1569490308.13324
1569490308.14887
1569490308.1645
1569490308.18012
1569490308.19575
1569490308.21137
1569490308.227
1569490308.24263
1569490308.25825
1569490308.27388
1569490308.2895
1569490308.30513
1569490308.32075
1569490308.33638
1569490308.35201
1569490308.36763
1569490308.38326
1569490308.39888
1569490308.41451
1569490308.43013
1569490308.44576
1569490308.46139
1569490308.47701
1569490308.49264
1569490308.50826
1569490308.52389
1569490308.53951
1569490308.55514
1569490308.57077
1569490308.58639
1569490308.60202
1569490308.61764
1569490308.63327
1569490308.64889
1569490308.66452
1569490308.68015
1569490308.69577
1569490308.7114
1569490308.72702
1569490308.74265
1569490308.75827
1569490308.7739
1569490308.78953
1569490308.80515
1569490308.82078
1569490308.8364
1569490308.85203
1569490308.86765
1569490308.88328
1569490308.89891
1569490308.91453
1569490308.93016
1569490308.94578
1569490308.96141
1569490308.97703
1569490308.99266
1569490309.00829
1569490309.02391
1569490309.03954
1569490309.05516
1569490309.07079
1569490309.08641
1569490309.10204
1569490309.11767
1569490309.13329
1569490309.14892
1569490309.16454
1569490309.18017
1569490309.19579
1569490309.21142
1569490309.22705
1569490309.24267
1569490309.2583
1569490309.27392
1569490309.28955
1569490309.30517
1569490309.3208
1569490309.33643
1569490309.35205
1569490309.36768
1569490309.3833
1569490309.39893
1569490309.41455
1569490309.43018
1569490309.44581
1569490309.46143
1569490309.47706
1569490309.49268
1569490309.50831
1569490309.52393
1569490309.53956
1569490309.55519
1569490309.57081
1569490309.58644
1569490309.60206
1569490309.61769
1569490309.63331
1569490309.64894
1569490309.66457
1569490309.68019
1569490309.69582
1569490309.71144
1569490309.72707
1569490309.74269
1569490309.75832
1569490309.77395
1569490309.78957
1569490309.8052
1569490309.82082
1569490309.83645
1569490309.85207
1569490309.8677
1569490309.88333
1569490309.89895
1569490309.91458
1569490309.9302
1569490309.94583
1569490309.96145
1569490309.97708
1569490309.99271
1569490310.00833
1569490310.02396
1569490310.03958
1569490310.05521
1569490310.07083
1569490310.08646
1569490310.10209
1569490310.11771
1569490310.13334
1569490310.14896
1569490310.16459
1569490310.18021
1569490310.19584
1569490310.21147
1569490310.22709
1569490310.24272
1569490310.25834
1569490310.27397
1569490310.28959
1569490310.30522
1569490310.32085
1569490310.33647
1569490310.3521
1569490310.36772
1569490310.38335
1569490310.39897
1569490310.4146
1569490310.43023
1569490310.44585
1569490310.46148
1569490310.4771
1569490310.49273
1569490310.50835
1569490310.52398
1569490310.53961
1569490310.55523
1569490310.57086
1569490310.58648
1569490310.60211
1569490310.61774
1569490310.63336
1569490310.64899
1569490310.66461
1569490310.68024
1569490310.69586
1569490310.71149
1569490310.72712
1569490310.74274
1569490310.75837
1569490310.77399
1569490310.78962
1569490310.80524
1569490310.82087
1569490310.8365
1569490310.85212
1569490310.86775
1569490310.88337
1569490310.899
1569490310.91462
1569490310.93025
1569490310.94588
1569490310.9615
1569490310.97713
1569490310.99275
1569490311.00838
1569490311.024
1569490311.03963
1569490311.05526
1569490311.07088
1569490311.08651
1569490311.10213
1569490311.11776
1569490311.13338
1569490311.14901
1569490311.16464
1569490311.18026
1569490311.19589
1569490311.21151
1569490311.22714
1569490311.24276
1569490311.25839
1569490311.27402
1569490311.28964
1569490311.30527
1569490311.32089
1569490311.33652
1569490311.35214
1569490311.36777
1569490311.3834
1569490311.39902
1569490311.41465
1569490311.43027
1569490311.4459
1569490311.46152
1569490311.47715
1569490311.49278
1569490311.5084
1569490311.52403
1569490311.53965
1569490311.55528
1569490311.5709
1569490311.58653
1569490311.60216
1569490311.61778
1569490311.63341
1569490311.64903
1569490311.66466
1569490311.68028
1569490311.69591
1569490311.71154
1569490311.72716
1569490311.74279
1569490311.75841
1569490311.77404
1569490311.78966
1569490311.80529
1569490311.82092
1569490311.83654
1569490311.85217
1569490311.86779
1569490311.88342
1569490311.89904
1569490311.91467
1569490311.9303
1569490311.94592
1569490311.96155
1569490311.97717
1569490311.9928
1569490312.00842
1569490312.02405
1569490312.03968
1569490312.0553
1569490312.07093
1569490312.08655
1569490312.10218
1569490312.1178
1569490312.13343
1569490312.14906
1569490312.16468
1569490312.18031
1569490312.19593
1569490312.21156
1569490312.22718
1569490312.24281
1569490312.25844
1569490312.27406
1569490312.28969
1569490312.30531
1569490312.32094
1569490312.33656
1569490312.35219
1569490312.36782
1569490312.38344
1569490312.39907
1569490312.41469
1569490312.43032
1569490312.44594
1569490312.46157
1569490312.4772
1569490312.49282
1569490312.50845
1569490312.52407
1569490312.5397
1569490312.55532
1569490312.57095
1569490312.58658
1569490312.6022
1569490312.61783
1569490312.63345
1569490312.64908
1569490312.6647
1569490312.68033
1569490312.69596
1569490312.71158
1569490312.72721
1569490312.74283
1569490312.75846
1569490312.77409
1569490312.78971
1569490312.80534
1569490312.82096
1569490312.83659
1569490312.85221
1569490312.86784
1569490312.88347
1569490312.89909
1569490312.91472
1569490312.93034
1569490312.94597
1569490312.96159
1569490312.97722
1569490312.99285
1569490313.00847
1569490313.0241
1569490313.03972
1569490313.05535
1569490313.07097
1569490313.0866
1569490313.10223
1569490313.11785
1569490313.13348
1569490313.1491
1569490313.16473
1569490313.18035
1569490313.19598
1569490313.21161
1569490313.22723
1569490313.24286
1569490313.25848
1569490313.27411
1569490313.28973
1569490313.30536
1569490313.32099
1569490313.33661
1569490313.35224
1569490313.36786
1569490313.38349
1569490313.39911
1569490313.41474
1569490313.43037
1569490313.44599
1569490313.46162
1569490313.47724
1569490313.49287
1569490313.50849
1569490313.52412
1569490313.53975
1569490313.55537
1569490313.571
1569490313.58662
1569490313.60225
1569490313.61787
1569490313.6335
1569490313.64913
1569490313.66475
1569490313.68038
1569490313.696
1569490313.71163
1569490313.72725
1569490313.74288
1569490313.75851
1569490313.77413
1569490313.78976
1569490313.80538
1569490313.82101
1569490313.83663
1569490313.85226
1569490313.86789
1569490313.88351
1569490313.89914
1569490313.91476
1569490313.93039
1569490313.94601
1569490313.96164
1569490313.97727
1569490313.99289
1569490314.00852
1569490314.02414
1569490314.03977
1569490314.05539
1569490314.07102
1569490314.08665
1569490314.10227
1569490314.1179
1569490314.13352
1569490314.14915
1569490314.16477
1569490314.1804
1569490314.19603
1569490314.21165
1569490314.22728
1569490314.2429
1569490314.25853
1569490314.27415
1569490314.28978
1569490314.30541
1569490314.32103
1569490314.33666
1569490314.35228
1569490314.36791
1569490314.38353
1569490314.39916
1569490314.41479
1569490314.43041
1569490314.44604
1569490314.46166
1569490314.47729
1569490314.49291
1569490314.50854
1569490314.52417
1569490314.53979
1569490314.55542
1569490314.57104
1569490314.58667
1569490314.60229
1569490314.61792
1569490314.63355
1569490314.64917
1569490314.6648
1569490314.68042
1569490314.69605
1569490314.71167
1569490314.7273
1569490314.74293
1569490314.75855
1569490314.77418
1569490314.7898
1569490314.80543
1569490314.82105
1569490314.83668
1569490314.85231
1569490314.86793
1569490314.88356
1569490314.89918
1569490314.91481
1569490314.93043
1569490314.94606
1569490314.96169
1569490314.97731
1569490314.99294
1569490315.00856
1569490315.02419
1569490315.03981
1569490315.05544
1569490315.07107
1569490315.08669
1569490315.10232
1569490315.11794
1569490315.13357
1569490315.14919
1569490315.16482
1569490315.18045
1569490315.19607
1569490315.2117
1569490315.22732
1569490315.24295
1569490315.25857
1569490315.2742
1569490315.28983
1569490315.30545
1569490315.32108
1569490315.3367
1569490315.35233
1569490315.36795
1569490315.38358
1569490315.39921
1569490315.41483
1569490315.43046
1569490315.44608
1569490315.46171
1569490315.47734
1569490315.49296
1569490315.50859
1569490315.52421
1569490315.53984
1569490315.55546
1569490315.57109
1569490315.58672
1569490315.60234
1569490315.61797
1569490315.63359
1569490315.64922
1569490315.66484
1569490315.68047
1569490315.6961
1569490315.71172
1569490315.72735
1569490315.74297
1569490315.7586
1569490315.77422
1569490315.78985
1569490315.80548
1569490315.8211
1569490315.83673
1569490315.85235
1569490315.86798
1569490315.8836
1569490315.89923
1569490315.91486
1569490315.93048
1569490315.94611
1569490315.96173
1569490315.97736
1569490315.99298
1569490316.00861
1569490316.02424
1569490316.03986
1569490316.05549
1569490316.07111
1569490316.08674
1569490316.10236
1569490316.11799
1569490316.13362
1569490316.14924
1569490316.16487
1569490316.18049
1569490316.19612
1569490316.21174
1569490316.22737
1569490316.243
1569490316.25862
1569490316.27425
1569490316.28987
1569490316.3055
1569490316.32112
1569490316.33675
1569490316.35238
1569490316.368
1569490316.38363
1569490316.39925
1569490316.41488
1569490316.4305
1569490316.44613
1569490316.46176
1569490316.47738
1569490316.49301
1569490316.50863
1569490316.52426
1569490316.53988
1569490316.55551
1569490316.57114
1569490316.58676
1569490316.60239
1569490316.61801
1569490316.63364
1569490316.64926
1569490316.66489
1569490316.68052
1569490316.69614
1569490316.71177
1569490316.72739
1569490316.74302
1569490316.75864
1569490316.77427
1569490316.7899
1569490316.80552
1569490316.82115
1569490316.83677
1569490316.8524
1569490316.86802
1569490316.88365
1569490316.89928
1569490316.9149
1569490316.93053
1569490316.94615
1569490316.96178
1569490316.9774
1569490316.99303
1569490317.00866
1569490317.02428
1569490317.03991
1569490317.05553
1569490317.07116
1569490317.08678
1569490317.10241
1569490317.11804
1569490317.13366
1569490317.14929
1569490317.16491
1569490317.18054
1569490317.19616
1569490317.21179
1569490317.22742
1569490317.24304
1569490317.25867
1569490317.27429
1569490317.28992
1569490317.30554
1569490317.32117
1569490317.3368
1569490317.35242
1569490317.36805
1569490317.38367
1569490317.3993
1569490317.41492
1569490317.43055
1569490317.44618
1569490317.4618
1569490317.47743
1569490317.49305
1569490317.50868
1569490317.5243
1569490317.53993
1569490317.55556
1569490317.57118
1569490317.58681
1569490317.60243
1569490317.61806
1569490317.63369
1569490317.64931
1569490317.66494
1569490317.68056
1569490317.69619
1569490317.71181
1569490317.72744
1569490317.74307
1569490317.75869
1569490317.77432
1569490317.78994
1569490317.80557
1569490317.82119
1569490317.83682
1569490317.85245
1569490317.86807
1569490317.8837
1569490317.89932
1569490317.91495
1569490317.93057
1569490317.9462
1569490317.96183
1569490317.97745
1569490317.99308
1569490318.0087
1569490318.02433
1569490318.03995
1569490318.05558
1569490318.07121
1569490318.08683
1569490318.10246
1569490318.11808
1569490318.13371
1569490318.14933
1569490318.16496
1569490318.18059
1569490318.19621
1569490318.21184
1569490318.22746
1569490318.24309
1569490318.25871
1569490318.27434
1569490318.28997
1569490318.30559
1569490318.32122
1569490318.33684
1569490318.35247
1569490318.36809
1569490318.38372
1569490318.39935
1569490318.41497
1569490318.4306
1569490318.44622
1569490318.46185
1569490318.47747
1569490318.4931
1569490318.50873
1569490318.52435
1569490318.53998
1569490318.5556
1569490318.57123
1569490318.58685
1569490318.60248
1569490318.61811
1569490318.63373
1569490318.64936
1569490318.66498
1569490318.68061
1569490318.69623
1569490318.71186
1569490318.72749
1569490318.74311
1569490318.75874
1569490318.77436
1569490318.78999
1569490318.80561
1569490318.82124
1569490318.83687
1569490318.85249
1569490318.86812
1569490318.88374
1569490318.89937
1569490318.91499
1569490318.93062
1569490318.94625
1569490318.96187
1569490318.9775
1569490318.99312
1569490319.00875
1569490319.02437
1569490319.04
1569490319.05563
1569490319.07125
1569490319.08688
1569490319.1025
1569490319.11813
1569490319.13375
1569490319.14938
1569490319.16501
1569490319.18063
1569490319.19626
1569490319.21188
1569490319.22751
1569490319.24313
1569490319.25876
1569490319.27439
1569490319.29001
1569490319.30564
1569490319.32126
1569490319.33689
1569490319.35251
1569490319.36814
1569490319.38377
1569490319.39939
1569490319.41502
1569490319.43064
1569490319.44627
1569490319.46189
1569490319.47752
1569490319.49315
1569490319.50877
1569490319.5244
1569490319.54002
1569490319.55565
1569490319.57127
1569490319.5869
1569490319.60253
1569490319.61815
1569490319.63378
1569490319.6494
1569490319.66503
1569490319.68065
1569490319.69628
1569490319.71191
1569490319.72753
1569490319.74316
1569490319.75878
1569490319.77441
1569490319.79003
1569490319.80566
1569490319.82129
1569490319.83691
1569490319.85254
1569490319.86816
1569490319.88379
1569490319.89942
1569490319.91504
1569490319.93067
1569490319.94629
1569490319.96192
1569490319.97754
1569490319.99317
1569490320.0088
1569490320.02442
1569490320.04005
1569490320.05567
1569490320.0713
1569490320.08692
1569490320.10255
1569490320.11818
1569490320.1338
1569490320.14943
1569490320.16505
1569490320.18068
1569490320.1963
1569490320.21193
1569490320.22756
1569490320.24318
1569490320.25881
1569490320.27443
1569490320.29006
1569490320.30568
1569490320.32131
1569490320.33694
1569490320.35256
1569490320.36819
1569490320.38381
1569490320.39944
1569490320.41506
1569490320.43069
1569490320.44632
1569490320.46194
1569490320.47757
1569490320.49319
1569490320.50882
1569490320.52444
1569490320.54007
1569490320.5557
1569490320.57132
1569490320.58695
1569490320.60257
1569490320.6182
1569490320.63382
1569490320.64945
1569490320.66508
1569490320.6807
1569490320.69633
1569490320.71195
1569490320.72758
1569490320.7432
1569490320.75883
1569490320.77446
1569490320.79008
1569490320.80571
1569490320.82133
1569490320.83696
1569490320.85258
1569490320.86821
1569490320.88384
1569490320.89946
1569490320.91509
1569490320.93071
1569490320.94634
1569490320.96196
1569490320.97759
1569490320.99322
1569490321.00884
1569490321.02447
1569490321.04009
1569490321.05572
1569490321.07134
1569490321.08697
1569490321.1026
1569490321.11822
1569490321.13385
1569490321.14947
1569490321.1651
1569490321.18072
1569490321.19635
1569490321.21198
1569490321.2276
1569490321.24323
1569490321.25885
1569490321.27448
1569490321.2901
1569490321.30573
1569490321.32136
1569490321.33698
1569490321.35261
1569490321.36823
1569490321.38386
1569490321.39948
1569490321.41511
1569490321.43074
1569490321.44636
1569490321.46199
1569490321.47761
1569490321.49324
1569490321.50886
1569490321.52449
1569490321.54012
1569490321.55574
1569490321.57137
1569490321.58699
1569490321.60262
1569490321.61824
1569490321.63387
1569490321.6495
1569490321.66512
1569490321.68075
1569490321.69637
1569490321.712
1569490321.72762
1569490321.74325
1569490321.75888
1569490321.7745
1569490321.79013
1569490321.80575
1569490321.82138
1569490321.837
1569490321.85263
1569490321.86826
1569490321.88388
1569490321.89951
1569490321.91513
1569490321.93076
1569490321.94638
1569490321.96201
1569490321.97764
1569490321.99326
1569490322.00889
1569490322.02451
1569490322.04014
1569490322.05576
1569490322.07139
1569490322.08702
1569490322.10264
1569490322.11827
1569490322.13389
1569490322.14952
1569490322.16514
1569490322.18077
1569490322.1964
1569490322.21202
1569490322.22765
1569490322.24327
1569490322.2589
1569490322.27452
1569490322.29015
1569490322.30578
1569490322.3214
1569490322.33703
1569490322.35265
1569490322.36828
1569490322.3839
1569490322.39953
1569490322.41516
1569490322.43078
1569490322.44641
1569490322.46203
1569490322.47766
1569490322.49328
1569490322.50891
1569490322.52454
1569490322.54016
1569490322.55579
1569490322.57141
1569490322.58704
1569490322.60267
1569490322.61829
1569490322.63392
1569490322.64954
1569490322.66517
1569490322.68079
1569490322.69642
1569490322.71205
1569490322.72767
1569490322.7433
1569490322.75892
1569490322.77455
1569490322.79017
1569490322.8058
1569490322.82143
1569490322.83705
1569490322.85268
1569490322.8683
1569490322.88393
1569490322.89955
1569490322.91518
1569490322.93081
1569490322.94643
1569490322.96206
1569490322.97768
1569490322.99331
1569490323.00893
1569490323.02456
1569490323.04019
1569490323.05581
1569490323.07144
1569490323.08706
1569490323.10269
1569490323.11831
1569490323.13394
1569490323.14957
1569490323.16519
1569490323.18082
1569490323.19644
1569490323.21207
1569490323.22769
1569490323.24332
1569490323.25895
1569490323.27457
1569490323.2902
1569490323.30582
1569490323.32145
1569490323.33707
1569490323.3527
1569490323.36833
1569490323.38395
1569490323.39958
1569490323.4152
1569490323.43083
1569490323.44645
1569490323.46208
1569490323.47771
1569490323.49333
1569490323.50896
1569490323.52458
1569490323.54021
1569490323.55583
1569490323.57146
1569490323.58709
1569490323.60271
1569490323.61834
1569490323.63396
1569490323.64959
1569490323.66521
1569490323.68084
1569490323.69647
1569490323.71209
1569490323.72772
1569490323.74334
1569490323.75897
1569490323.77459
1569490323.79022
1569490323.80585
1569490323.82147
1569490323.8371
1569490323.85272
1569490323.86835
1569490323.88397
1569490323.8996
1569490323.91523
1569490323.93085
1569490323.94648
1569490323.9621
1569490323.97773
1569490323.99335
1569490324.00898
1569490324.02461
1569490324.04023
1569490324.05586
1569490324.07148
1569490324.08711
1569490324.10273
1569490324.11836
1569490324.13399
1569490324.14961
1569490324.16524
1569490324.18086
1569490324.19649
1569490324.21211
1569490324.22774
1569490324.24337
1569490324.25899
1569490324.27462
1569490324.29024
1569490324.30587
1569490324.32149
1569490324.33712
1569490324.35275
1569490324.36837
1569490324.384
1569490324.39962
1569490324.41525
1569490324.43087
1569490324.4465
1569490324.46213
1569490324.47775
1569490324.49338
1569490324.509
1569490324.52463
1569490324.54025
1569490324.55588
1569490324.57151
1569490324.58713
1569490324.60276
1569490324.61838
1569490324.63401
1569490324.64963
1569490324.66526
1569490324.68089
1569490324.69651
1569490324.71214
1569490324.72776
1569490324.74339
1569490324.75902
1569490324.77464
1569490324.79027
1569490324.80589
1569490324.82152
1569490324.83714
1569490324.85277
1569490324.8684
1569490324.88402
1569490324.89965
1569490324.91527
1569490324.9309
1569490324.94652
1569490324.96215
1569490324.97778
1569490324.9934
1569490325.00903
1569490325.02465
1569490325.04028
1569490325.0559
1569490325.07153
1569490325.08716
1569490325.10278
1569490325.11841
1569490325.13403
1569490325.14966
1569490325.16528
1569490325.18091
1569490325.19654
1569490325.21216
1569490325.22779
1569490325.24341
1569490325.25904
1569490325.27466
1569490325.29029
1569490325.30592
1569490325.32154
1569490325.33717
1569490325.35279
1569490325.36842
1569490325.38404
1569490325.39967
1569490325.4153
1569490325.43092
1569490325.44655
1569490325.46217
1569490325.4778
1569490325.49342
1569490325.50905
1569490325.52468
1569490325.5403
1569490325.55593
1569490325.57155
1569490325.58718
1569490325.6028
1569490325.61843
1569490325.63406
1569490325.64968
1569490325.66531
1569490325.68093
1569490325.69656
1569490325.71218
1569490325.72781
1569490325.74344
1569490325.75906
1569490325.77469
1569490325.79031
1569490325.80594
1569490325.82156
1569490325.83719
1569490325.85282
1569490325.86844
1569490325.88407
1569490325.89969
1569490325.91532
1569490325.93094
1569490325.94657
1569490325.9622
1569490325.97782
1569490325.99345
1569490326.00907
1569490326.0247
1569490326.04032
1569490326.05595
1569490326.07158
1569490326.0872
1569490326.10283
1569490326.11845
1569490326.13408
1569490326.1497
1569490326.16533
1569490326.18096
1569490326.19658
1569490326.21221
1569490326.22783
1569490326.24346
1569490326.25908
1569490326.27471
1569490326.29034
1569490326.30596
1569490326.32159
1569490326.33721
1569490326.35284
1569490326.36846
1569490326.38409
1569490326.39972
1569490326.41534
1569490326.43097
1569490326.44659
1569490326.46222
1569490326.47784
1569490326.49347
1569490326.5091
1569490326.52472
1569490326.54035
1569490326.55597
1569490326.5716
1569490326.58722
1569490326.60285
1569490326.61848
1569490326.6341
1569490326.64973
1569490326.66535
1569490326.68098
1569490326.6966
1569490326.71223
1569490326.72786
1569490326.74348
1569490326.75911
1569490326.77473
1569490326.79036
1569490326.80598
1569490326.82161
1569490326.83724
1569490326.85286
1569490326.86849
1569490326.88411
1569490326.89974
1569490326.91536
1569490326.93099
1569490326.94662
1569490326.96224
1569490326.97787
1569490326.99349
1569490327.00912
1569490327.02474
1569490327.04037
1569490327.056
1569490327.07162
1569490327.08725
1569490327.10287
1569490327.1185
1569490327.13412
1569490327.14975
1569490327.16538
1569490327.181
1569490327.19663
1569490327.21225
1569490327.22788
1569490327.24351
1569490327.25913
1569490327.27476
1569490327.29038
1569490327.30601
1569490327.32163
1569490327.33726
1569490327.35289
1569490327.36851
1569490327.38414
1569490327.39976
1569490327.41539
1569490327.43101
1569490327.44664
1569490327.46227
1569490327.47789
1569490327.49352
1569490327.50914
1569490327.52477
1569490327.54039
1569490327.55602
1569490327.57165
1569490327.58727
1569490327.6029
1569490327.61852
1569490327.63415
1569490327.64977
1569490327.6654
1569490327.68103
1569490327.69665
1569490327.71228
1569490327.7279
1569490327.74353
1569490327.75915
1569490327.77478
1569490327.79041
1569490327.80603
1569490327.82166
1569490327.83728
1569490327.85291
1569490327.86853
1569490327.88416
1569490327.89979
1569490327.91541
1569490327.93104
1569490327.94666
1569490327.96229
1569490327.97791
1569490327.99354
1569490328.00917
1569490328.02479
1569490328.04042
1569490328.05604
1569490328.07167
1569490328.08729
1569490328.10292
1569490328.11855
1569490328.13417
1569490328.1498
1569490328.16542
1569490328.18105
1569490328.19667
1569490328.2123
1569490328.22793
1569490328.24355
1569490328.25918
1569490328.2748
1569490328.29043
1569490328.30605
1569490328.32168
1569490328.33731
1569490328.35293
1569490328.36856
1569490328.38418
1569490328.39981
1569490328.41543
1569490328.43106
1569490328.44669
1569490328.46231
1569490328.47794
1569490328.49356
1569490328.50919
1569490328.52481
1569490328.54044
1569490328.55607
1569490328.57169
1569490328.58732
1569490328.60294
1569490328.61857
1569490328.63419
1569490328.64982
1569490328.66545
1569490328.68107
1569490328.6967
1569490328.71232
1569490328.72795
1569490328.74357
1569490328.7592
1569490328.77483
1569490328.79045
1569490328.80608
1569490328.8217
1569490328.83733
1569490328.85295
1569490328.86858
1569490328.88421
1569490328.89983
1569490328.91546
1569490328.93108
1569490328.94671
1569490328.96233
1569490328.97796
1569490328.99359
1569490329.00921
1569490329.02484
1569490329.04046
1569490329.05609
1569490329.07171
1569490329.08734
1569490329.10297
1569490329.11859
1569490329.13422
1569490329.14984
1569490329.16547
1569490329.18109
1569490329.19672
1569490329.21235
1569490329.22797
1569490329.2436
1569490329.25922
1569490329.27485
1569490329.29047
1569490329.3061
1569490329.32173
1569490329.33735
1569490329.35298
1569490329.3686
1569490329.38423
1569490329.39985
1569490329.41548
1569490329.43111
1569490329.44673
1569490329.46236
1569490329.47798
1569490329.49361
1569490329.50923
1569490329.52486
1569490329.54049
1569490329.55611
1569490329.57174
1569490329.58736
1569490329.60299
1569490329.61862
1569490329.63424
1569490329.64987
1569490329.66549
1569490329.68112
1569490329.69674
1569490329.71237
1569490329.728
1569490329.74362
1569490329.75925
1569490329.77487
1569490329.7905
1569490329.80612
1569490329.82175
1569490329.83738
1569490329.853
1569490329.86863
1569490329.88425
1569490329.89988
1569490329.9155
1569490329.93113
1569490329.94676
1569490329.96238
1569490329.97801
1569490329.99363
1569490330.00926
1569490330.02488
1569490330.04051
1569490330.05614
1569490330.07176
1569490330.08739
1569490330.10301
1569490330.11864
1569490330.13426
1569490330.14989
1569490330.16552
1569490330.18114
1569490330.19677
1569490330.21239
1569490330.22802
1569490330.24364
1569490330.25927
1569490330.2749
1569490330.29052
1569490330.30615
1569490330.32177
1569490330.3374
1569490330.35302
1569490330.36865
1569490330.38428
1569490330.3999
1569490330.41553
1569490330.43115
1569490330.44678
1569490330.4624
1569490330.47803
1569490330.49366
1569490330.50928
1569490330.52491
1569490330.54053
1569490330.55616
1569490330.57178
1569490330.58741
1569490330.60304
1569490330.61866
1569490330.63429
1569490330.64991
1569490330.66554
1569490330.68116
1569490330.69679
1569490330.71242
1569490330.72804
1569490330.74367
1569490330.75929
1569490330.77492
1569490330.79054
1569490330.80617
1569490330.8218
1569490330.83742
1569490330.85305
1569490330.86867
1569490330.8843
1569490330.89992
1569490330.91555
1569490330.93118
1569490330.9468
1569490330.96243
1569490330.97805
1569490330.99368
1569490331.0093
1569490331.02493
1569490331.04056
1569490331.05618
1569490331.07181
1569490331.08743
1569490331.10306
1569490331.11868
1569490331.13431
1569490331.14994
1569490331.16556
1569490331.18119
1569490331.19681
1569490331.21244
1569490331.22806
1569490331.24369
1569490331.25932
1569490331.27494
1569490331.29057
1569490331.30619
1569490331.32182
1569490331.33744
1569490331.35307
1569490331.3687
1569490331.38432
1569490331.39995
1569490331.41557
1569490331.4312
1569490331.44682
1569490331.46245
1569490331.47808
1569490331.4937
1569490331.50933
1569490331.52495
1569490331.54058
1569490331.5562
1569490331.57183
1569490331.58746
1569490331.60308
1569490331.61871
1569490331.63433
1569490331.64996
1569490331.66558
1569490331.68121
1569490331.69684
1569490331.71246
1569490331.72809
1569490331.74371
1569490331.75934
1569490331.77496
1569490331.79059
1569490331.80622
1569490331.82184
1569490331.83747
1569490331.85309
1569490331.86872
1569490331.88435
1569490331.89997
1569490331.9156
1569490331.93122
1569490331.94685
1569490331.96247
1569490331.9781
1569490331.99373
1569490332.00935
1569490332.02498
1569490332.0406
1569490332.05623
1569490332.07185
1569490332.08748
1569490332.10311
1569490332.11873
1569490332.13436
1569490332.14998
1569490332.16561
1569490332.18123
1569490332.19686
1569490332.21249
1569490332.22811
1569490332.24374
1569490332.25936
1569490332.27499
1569490332.29061
1569490332.30624
1569490332.32187
1569490332.33749
1569490332.35312
1569490332.36874
1569490332.38437
1569490332.39999
1569490332.41562
1569490332.43125
1569490332.44687
1569490332.4625
1569490332.47812
1569490332.49375
1569490332.50937
1569490332.525
1569490332.54063
1569490332.55625
1569490332.57188
1569490332.5875
1569490332.60313
1569490332.61875
1569490332.63438
1569490332.65001
1569490332.66563
1569490332.68126
1569490332.69688
1569490332.71251
1569490332.72813
1569490332.74376
1569490332.75939
1569490332.77501
1569490332.79064
1569490332.80626
1569490332.82189
1569490332.83751
1569490332.85314
1569490332.86877
1569490332.88439
1569490332.90002
1569490332.91564
1569490332.93127
1569490332.94689
1569490332.96252
1569490332.97815
1569490332.99377
1569490333.0094
1569490333.02502
1569490333.04065
1569490333.05627
1569490333.0719
1569490333.08753
1569490333.10315
1569490333.11878
1569490333.1344
1569490333.15003
1569490333.16565
1569490333.18128
1569490333.19691
1569490333.21253
1569490333.22816
1569490333.24378
1569490333.25941
1569490333.27503
1569490333.29066
1569490333.30629
1569490333.32191
1569490333.33754
1569490333.35316
1569490333.36879
1569490333.38441
1569490333.40004
1569490333.41567
1569490333.43129
1569490333.44692
1569490333.46254
1569490333.47817
1569490333.49379
1569490333.50942
1569490333.52505
1569490333.54067
1569490333.5563
1569490333.57192
1569490333.58755
1569490333.60317
1569490333.6188
1569490333.63443
1569490333.65005
1569490333.66568
1569490333.6813
1569490333.69693
1569490333.71255
1569490333.72818
1569490333.74381
1569490333.75943
1569490333.77506
1569490333.79068
1569490333.80631
1569490333.82193
1569490333.83756
1569490333.85319
1569490333.86881
1569490333.88444
1569490333.90006
1569490333.91569
1569490333.93131
1569490333.94694
1569490333.96257
1569490333.97819
1569490333.99382
1569490334.00944
1569490334.02507
1569490334.04069
1569490334.05632
1569490334.07195
1569490334.08757
1569490334.1032
1569490334.11882
1569490334.13445
1569490334.15007
1569490334.1657
1569490334.18133
1569490334.19695
1569490334.21258
1569490334.2282
1569490334.24383
1569490334.25945
1569490334.27508
1569490334.29071
1569490334.30633
1569490334.32196
1569490334.33758
1569490334.35321
1569490334.36883
1569490334.38446
1569490334.40009
1569490334.41571
1569490334.43134
1569490334.44696
1569490334.46259
1569490334.47822
1569490334.49384
1569490334.50947
1569490334.52509
1569490334.54072
1569490334.55634
1569490334.57197
1569490334.5876
1569490334.60322
1569490334.61885
1569490334.63447
1569490334.6501
1569490334.66572
1569490334.68135
1569490334.69698
1569490334.7126
1569490334.72823
1569490334.74385
1569490334.75948
1569490334.7751
1569490334.79073
1569490334.80636
1569490334.82198
1569490334.83761
1569490334.85323
1569490334.86886
1569490334.88448
1569490334.90011
1569490334.91574
1569490334.93136
1569490334.94699
1569490334.96261
1569490334.97824
1569490334.99386
1569490335.00949
1569490335.02512
1569490335.04074
1569490335.05637
1569490335.07199
1569490335.08762
1569490335.10324
1569490335.11887
1569490335.1345
1569490335.15012
1569490335.16575
1569490335.18137
1569490335.197
1569490335.21262
1569490335.22825
1569490335.24388
1569490335.2595
1569490335.27513
1569490335.29075
1569490335.30638
1569490335.322
1569490335.33763
1569490335.35326
1569490335.36888
1569490335.38451
1569490335.40013
1569490335.41576
1569490335.43138
1569490335.44701
1569490335.46264
1569490335.47826
1569490335.49389
1569490335.50951
1569490335.52514
1569490335.54076
1569490335.55639
1569490335.57202
1569490335.58764
1569490335.60327
1569490335.61889
1569490335.63452
1569490335.65014
1569490335.66577
1569490335.6814
1569490335.69702
1569490335.71265
1569490335.72827
1569490335.7439
1569490335.75952
1569490335.77515
1569490335.79078
1569490335.8064
1569490335.82203
1569490335.83765
1569490335.85328
1569490335.8689
1569490335.88453
1569490335.90016
1569490335.91578
1569490335.93141
1569490335.94703
1569490335.96266
1569490335.97828
1569490335.99391
1569490336.00954
1569490336.02516
1569490336.04079
1569490336.05641
1569490336.07204
1569490336.08766
1569490336.10329
1569490336.11892
1569490336.13454
1569490336.15017
1569490336.16579
1569490336.18142
1569490336.19704
1569490336.21267
1569490336.2283
1569490336.24392
1569490336.25955
1569490336.27517
1569490336.2908
1569490336.30642
1569490336.32205
1569490336.33768
1569490336.3533
1569490336.36893
1569490336.38455
1569490336.40018
1569490336.4158
1569490336.43143
1569490336.44706
1569490336.46268
1569490336.47831
1569490336.49393
1569490336.50956
1569490336.52518
1569490336.54081
1569490336.55644
1569490336.57206
1569490336.58769
1569490336.60331
1569490336.61894
1569490336.63456
1569490336.65019
1569490336.66582
1569490336.68144
1569490336.69707
1569490336.71269
1569490336.72832
1569490336.74395
1569490336.75957
1569490336.7752
1569490336.79082
1569490336.80645
1569490336.82207
1569490336.8377
1569490336.85333
1569490336.86895
1569490336.88458
1569490336.9002
1569490336.91583
1569490336.93145
1569490336.94708
1569490336.96271
1569490336.97833
1569490336.99396
1569490337.00958
1569490337.02521
1569490337.04083
1569490337.05646
1569490337.07209
1569490337.08771
1569490337.10334
1569490337.11896
1569490337.13459
1569490337.15021
1569490337.16584
1569490337.18147
1569490337.19709
1569490337.21272
1569490337.22834
1569490337.24397
1569490337.25959
1569490337.27522
1569490337.29085
1569490337.30647
1569490337.3221
1569490337.33772
1569490337.35335
1569490337.36897
1569490337.3846
1569490337.40023
1569490337.41585
1569490337.43148
1569490337.4471
1569490337.46273
1569490337.47835
1569490337.49398
1569490337.50961
1569490337.52523
1569490337.54086
1569490337.55648
1569490337.57211
1569490337.58773
1569490337.60336
1569490337.61899
1569490337.63461
1569490337.65024
1569490337.66586
1569490337.68149
1569490337.69711
1569490337.71274
1569490337.72837
1569490337.74399
1569490337.75962
1569490337.77524
1569490337.79087
1569490337.80649
1569490337.82212
1569490337.83775
1569490337.85337
1569490337.869
1569490337.88462
1569490337.90025
1569490337.91587
1569490337.9315
1569490337.94713
1569490337.96275
1569490337.97838
1569490337.994
1569490338.00963
1569490338.02525
1569490338.04088
1569490338.05651
1569490338.07213
1569490338.08776
1569490338.10338
1569490338.11901
1569490338.13463
1569490338.15026
1569490338.16589
1569490338.18151
1569490338.19714
1569490338.21276
1569490338.22839
1569490338.24401
1569490338.25964
1569490338.27527
1569490338.29089
1569490338.30652
1569490338.32214
1569490338.33777
1569490338.35339
1569490338.36902
1569490338.38465
1569490338.40027
1569490338.4159
1569490338.43152
1569490338.44715
1569490338.46277
1569490338.4784
1569490338.49403
1569490338.50965
1569490338.52528
1569490338.5409
1569490338.55653
1569490338.57215
1569490338.58778
1569490338.60341
1569490338.61903
1569490338.63466
1569490338.65028
1569490338.66591
1569490338.68153
1569490338.69716
1569490338.71279
1569490338.72841
1569490338.74404
1569490338.75966
1569490338.77529
1569490338.79091
1569490338.80654
1569490338.82217
1569490338.83779
1569490338.85342
1569490338.86904
1569490338.88467
1569490338.9003
1569490338.91592
1569490338.93155
1569490338.94717
1569490338.9628
1569490338.97842
1569490338.99405
1569490339.00968
1569490339.0253
1569490339.04093
1569490339.05655
1569490339.07218
1569490339.0878
1569490339.10343
1569490339.11906
1569490339.13468
1569490339.15031
1569490339.16593
1569490339.18156
1569490339.19718
1569490339.21281
1569490339.22844
1569490339.24406
1569490339.25969
1569490339.27531
1569490339.29094
1569490339.30656
1569490339.32219
1569490339.33782
1569490339.35344
1569490339.36907
1569490339.38469
1569490339.40032
1569490339.41594
1569490339.43157
1569490339.4472
1569490339.46282
1569490339.47845
1569490339.49407
1569490339.5097
1569490339.52532
1569490339.54095
1569490339.55658
1569490339.5722
1569490339.58783
1569490339.60345
1569490339.61908
1569490339.6347
1569490339.65033
1569490339.66596
1569490339.68158
1569490339.69721
1569490339.71283
1569490339.72846
1569490339.74408
1569490339.75971
1569490339.77534
1569490339.79096
1569490339.80659
1569490339.82221
1569490339.83784
1569490339.85346
1569490339.86909
1569490339.88472
1569490339.90034
1569490339.91597
1569490339.93159
1569490339.94722
1569490339.96284
1569490339.97847
1569490339.9941
1569490340.00972
1569490340.02535
1569490340.04097
1569490340.0566
1569490340.07222
1569490340.08785
1569490340.10348
1569490340.1191
1569490340.13473
1569490340.15035
1569490340.16598
1569490340.1816
1569490340.19723
1569490340.21286
1569490340.22848
1569490340.24411
1569490340.25973
1569490340.27536
1569490340.29098
1569490340.30661
1569490340.32224
1569490340.33786
1569490340.35349
1569490340.36911
1569490340.38474
1569490340.40036
1569490340.41599
1569490340.43162
1569490340.44724
1569490340.46287
1569490340.47849
1569490340.49412
1569490340.50974
1569490340.52537
1569490340.541
1569490340.55662
1569490340.57225
1569490340.58787
1569490340.6035
1569490340.61912
1569490340.63475
1569490340.65038
1569490340.666
1569490340.68163
1569490340.69725
1569490340.71288
1569490340.7285
1569490340.74413
1569490340.75976
1569490340.77538
1569490340.79101
1569490340.80663
1569490340.82226
1569490340.83788
1569490340.85351
1569490340.86914
1569490340.88476
1569490340.90039
1569490340.91601
1569490340.93164
1569490340.94726
1569490340.96289
1569490340.97852
1569490340.99414
1569490341.00977
1569490341.02539
1569490341.04102
1569490341.05664
1569490341.07227
1569490341.0879
1569490341.10352
1569490341.11915
1569490341.13477
1569490341.1504
1569490341.16602
1569490341.18165
1569490341.19728
1569490341.2129
1569490341.22853
1569490341.24415
1569490341.25978
1569490341.2754
1569490341.29103
1569490341.30666
1569490341.32228
1569490341.33791
1569490341.35353
1569490341.36916
1569490341.38478
1569490341.40041
1569490341.41604
1569490341.43166
1569490341.44729
1569490341.46291
1569490341.47854
1569490341.49416
1569490341.50979
1569490341.52542
1569490341.54104
1569490341.55667
1569490341.57229
1569490341.58792
1569490341.60355
1569490341.61917
1569490341.6348
1569490341.65042
1569490341.66605
1569490341.68167
1569490341.6973
1569490341.71293
1569490341.72855
1569490341.74418
1569490341.7598
1569490341.77543
1569490341.79105
1569490341.80668
1569490341.82231
1569490341.83793
1569490341.85356
1569490341.86918
1569490341.88481
1569490341.90043
1569490341.91606
1569490341.93169
1569490341.94731
1569490341.96294
1569490341.97856
1569490341.99419
1569490342.00981
1569490342.02544
1569490342.04107
1569490342.05669
1569490342.07232
1569490342.08794
1569490342.10357
1569490342.11919
1569490342.13482
1569490342.15045
1569490342.16607
1569490342.1817
1569490342.19732
1569490342.21295
1569490342.22857
1569490342.2442
1569490342.25983
1569490342.27545
1569490342.29108
1569490342.3067
1569490342.32233
1569490342.33795
1569490342.35358
1569490342.36921
1569490342.38483
1569490342.40046
1569490342.41608
1569490342.43171
1569490342.44733
1569490342.46296
1569490342.47859
1569490342.49421
1569490342.50984
1569490342.52546
1569490342.54109
1569490342.55671
1569490342.57234
1569490342.58797
1569490342.60359
1569490342.61922
1569490342.63484
1569490342.65047
1569490342.66609
1569490342.68172
1569490342.69735
1569490342.71297
1569490342.7286
1569490342.74422
1569490342.75985
1569490342.77547
1569490342.7911
1569490342.80673
1569490342.82235
1569490342.83798
1569490342.8536
1569490342.86923
1569490342.88485
1569490342.90048
1569490342.91611
1569490342.93173
1569490342.94736
1569490342.96298
1569490342.97861
1569490342.99423
1569490343.00986
1569490343.02549
1569490343.04111
1569490343.05674
1569490343.07236
1569490343.08799
1569490343.10361
1569490343.11924
1569490343.13487
1569490343.15049
1569490343.16612
1569490343.18174
1569490343.19737
1569490343.21299
1569490343.22862
1569490343.24425
1569490343.25987
1569490343.2755
1569490343.29112
1569490343.30675
1569490343.32237
1569490343.338
1569490343.35363
1569490343.36925
1569490343.38488
1569490343.4005
1569490343.41613
1569490343.43175
1569490343.44738
1569490343.46301
1569490343.47863
1569490343.49426
1569490343.50988
1569490343.52551
1569490343.54113
1569490343.55676
1569490343.57239
1569490343.58801
1569490343.60364
1569490343.61926
1569490343.63489
1569490343.65051
1569490343.66614
1569490343.68177
1569490343.69739
1569490343.71302
1569490343.72864
1569490343.74427
1569490343.7599
1569490343.77552
1569490343.79115
1569490343.80677
1569490343.8224
1569490343.83802
1569490343.85365
1569490343.86928
1569490343.8849
1569490343.90053
1569490343.91615
1569490343.93178
1569490343.9474
1569490343.96303
1569490343.97866
1569490343.99428
1569490344.00991
1569490344.02553
1569490344.04116
1569490344.05678
1569490344.07241
1569490344.08804
1569490344.10366
1569490344.11929
1569490344.13491
1569490344.15054
1569490344.16616
1569490344.18179
1569490344.19742
1569490344.21304
1569490344.22867
1569490344.24429
1569490344.25992
1569490344.27554
1569490344.29117
1569490344.3068
1569490344.32242
1569490344.33805
1569490344.35367
1569490344.3693
1569490344.38492
1569490344.40055
1569490344.41618
1569490344.4318
1569490344.44743
1569490344.46305
1569490344.47868
1569490344.4943
1569490344.50993
1569490344.52556
1569490344.54118
1569490344.55681
1569490344.57243
1569490344.58806
1569490344.60368
1569490344.61931
1569490344.63494
1569490344.65056
1569490344.66619
1569490344.68181
1569490344.69744
1569490344.71306
1569490344.72869
1569490344.74432
1569490344.75994
1569490344.77557
1569490344.79119
1569490344.80682
1569490344.82244
1569490344.83807
1569490344.8537
1569490344.86932
1569490344.88495
1569490344.90057
1569490344.9162
1569490344.93182
1569490344.94745
1569490344.96308
1569490344.9787
1569490344.99433
1569490345.00995
1569490345.02558
1569490345.0412
1569490345.05683
1569490345.07246
1569490345.08808
1569490345.10371
1569490345.11933
1569490345.13496
1569490345.15058
1569490345.16621
1569490345.18184
1569490345.19746
1569490345.21309
1569490345.22871
1569490345.24434
1569490345.25996
1569490345.27559
1569490345.29122
1569490345.30684
1569490345.32247
1569490345.33809
1569490345.35372
1569490345.36934
1569490345.38497
1569490345.4006
1569490345.41622
1569490345.43185
1569490345.44747
1569490345.4631
1569490345.47872
1569490345.49435
1569490345.50998
1569490345.5256
1569490345.54123
1569490345.55685
1569490345.57248
1569490345.5881
1569490345.60373
1569490345.61936
1569490345.63498
1569490345.65061
1569490345.66623
1569490345.68186
1569490345.69748
1569490345.71311
1569490345.72874
1569490345.74436
1569490345.75999
1569490345.77561
1569490345.79124
1569490345.80686
1569490345.82249
1569490345.83812
1569490345.85374
1569490345.86937
1569490345.88499
1569490345.90062
1569490345.91624
1569490345.93187
1569490345.9475
1569490345.96312
1569490345.97875
1569490345.99437
1569490346.01
1569490346.02562
1569490346.04125
1569490346.05688
1569490346.0725
1569490346.08813
1569490346.10375
1569490346.11938
1569490346.13501
1569490346.15063
1569490346.16626
1569490346.18188
1569490346.19751
1569490346.21313
1569490346.22876
1569490346.24439
1569490346.26001
1569490346.27564
1569490346.29126
1569490346.30689
1569490346.32251
1569490346.33814
1569490346.35377
1569490346.36939
1569490346.38502
1569490346.40064
1569490346.41627
1569490346.43189
1569490346.44752
1569490346.46315
1569490346.47877
1569490346.4944
1569490346.51002
1569490346.52565
1569490346.54127
1569490346.5569
1569490346.57253
1569490346.58815
1569490346.60378
1569490346.6194
1569490346.63503
1569490346.65065
1569490346.66628
1569490346.68191
1569490346.69753
1569490346.71316
1569490346.72878
1569490346.74441
1569490346.76003
1569490346.77566
1569490346.79129
1569490346.80691
1569490346.82254
1569490346.83816
1569490346.85379
1569490346.86941
1569490346.88504
1569490346.90067
1569490346.91629
1569490346.93192
1569490346.94754
1569490346.96317
1569490346.97879
1569490346.99442
1569490347.01005
1569490347.02567
1569490347.0413
1569490347.05692
1569490347.07255
1569490347.08817
1569490347.1038
1569490347.11943
1569490347.13505
1569490347.15068
1569490347.1663
1569490347.18193
1569490347.19755
1569490347.21318
1569490347.22881
1569490347.24443
1569490347.26006
1569490347.27568
1569490347.29131
1569490347.30693
1569490347.32256
1569490347.33819
1569490347.35381
1569490347.36944
1569490347.38506
