1569253639.75891
1569253639.77454
1569253639.79016
1569253639.80579
1569253639.82141
1569253639.83704
1569253639.85266
1569253639.86829
1569253639.88392
1569253639.89954
1569253639.91517
1569253639.93079
1569253639.94642
1569253639.96204
1569253639.97767
1569253639.9933
1569253640.00892
1569253640.02455
1569253640.04017
1569253640.0558
1569253640.07142
1569253640.08705
1569253640.10268
1569253640.1183
1569253640.13393
1569253640.14955
1569253640.16518
1569253640.1808
1569253640.19643
1569253640.21206
1569253640.22768
1569253640.24331
1569253640.25893
1569253640.27456
1569253640.29018
1569253640.30581
1569253640.32144
1569253640.33706
1569253640.35269
1569253640.36831
1569253640.38394
1569253640.39956
1569253640.41519
1569253640.43082
1569253640.44644
1569253640.46207
1569253640.47769
1569253640.49332
1569253640.50895
1569253640.52457
1569253640.5402
1569253640.55582
1569253640.57145
1569253640.58707
1569253640.6027
1569253640.61833
1569253640.63395
1569253640.64958
1569253640.6652
1569253640.68083
1569253640.69645
1569253640.71208
1569253640.72771
1569253640.74333
1569253640.75896
1569253640.77458
1569253640.79021
1569253640.80583
1569253640.82146
1569253640.83709
1569253640.85271
1569253640.86834
1569253640.88396
1569253640.89959
1569253640.91521
1569253640.93084
1569253640.94647
1569253640.96209
1569253640.97772
1569253640.99334
1569253641.00897
1569253641.02459
1569253641.04022
1569253641.05585
1569253641.07147
1569253641.0871
1569253641.10272
1569253641.11835
1569253641.13397
1569253641.1496
1569253641.16523
1569253641.18085
1569253641.19648
1569253641.2121
1569253641.22773
1569253641.24335
1569253641.25898
1569253641.27461
1569253641.29023
1569253641.30586
1569253641.32148
1569253641.33711
1569253641.35273
1569253641.36836
1569253641.38399
1569253641.39961
1569253641.41524
1569253641.43086
1569253641.44649
1569253641.46211
1569253641.47774
1569253641.49337
1569253641.50899
1569253641.52462
1569253641.54024
1569253641.55587
1569253641.57149
1569253641.58712
1569253641.60275
1569253641.61837
1569253641.634
1569253641.64962
1569253641.66525
1569253641.68087
1569253641.6965
1569253641.71213
1569253641.72775
1569253641.74338
1569253641.759
1569253641.77463
1569253641.79025
1569253641.80588
1569253641.82151
1569253641.83713
1569253641.85276
1569253641.86838
1569253641.88401
1569253641.89963
1569253641.91526
1569253641.93089
1569253641.94651
1569253641.96214
1569253641.97776
1569253641.99339
1569253642.00901
1569253642.02464
1569253642.04027
1569253642.05589
1569253642.07152
1569253642.08714
1569253642.10277
1569253642.11839
1569253642.13402
1569253642.14965
1569253642.16527
1569253642.1809
1569253642.19652
1569253642.21215
1569253642.22777
1569253642.2434
1569253642.25903
1569253642.27465
1569253642.29028
1569253642.3059
1569253642.32153
1569253642.33715
1569253642.35278
1569253642.36841
1569253642.38403
1569253642.39966
1569253642.41528
1569253642.43091
1569253642.44653
1569253642.46216
1569253642.47779
1569253642.49341
1569253642.50904
1569253642.52466
1569253642.54029
1569253642.55591
1569253642.57154
1569253642.58717
1569253642.60279
1569253642.61842
1569253642.63404
1569253642.64967
1569253642.6653
1569253642.68092
1569253642.69655
1569253642.71217
1569253642.7278
1569253642.74342
1569253642.75905
1569253642.77468
1569253642.7903
1569253642.80593
1569253642.82155
1569253642.83718
1569253642.8528
1569253642.86843
1569253642.88406
1569253642.89968
1569253642.91531
1569253642.93093
1569253642.94656
1569253642.96218
1569253642.97781
1569253642.99344
1569253643.00906
1569253643.02469
1569253643.04031
1569253643.05594
1569253643.07156
1569253643.08719
1569253643.10282
1569253643.11844
1569253643.13407
1569253643.14969
1569253643.16532
1569253643.18094
1569253643.19657
1569253643.2122
1569253643.22782
1569253643.24345
1569253643.25907
1569253643.2747
1569253643.29032
1569253643.30595
1569253643.32158
1569253643.3372
1569253643.35283
1569253643.36845
1569253643.38408
1569253643.3997
1569253643.41533
1569253643.43096
1569253643.44658
1569253643.46221
1569253643.47783
1569253643.49346
1569253643.50908
1569253643.52471
1569253643.54034
1569253643.55596
1569253643.57159
1569253643.58721
1569253643.60284
1569253643.61846
1569253643.63409
1569253643.64972
1569253643.66534
1569253643.68097
1569253643.69659
1569253643.71222
1569253643.72784
1569253643.74347
1569253643.7591
1569253643.77472
1569253643.79035
1569253643.80597
1569253643.8216
1569253643.83722
1569253643.85285
1569253643.86848
1569253643.8841
1569253643.89973
1569253643.91535
1569253643.93098
1569253643.9466
1569253643.96223
1569253643.97786
1569253643.99348
1569253644.00911
1569253644.02473
1569253644.04036
1569253644.05598
1569253644.07161
1569253644.08724
1569253644.10286
1569253644.11849
1569253644.13411
1569253644.14974
1569253644.16536
1569253644.18099
1569253644.19662
1569253644.21224
1569253644.22787
1569253644.24349
1569253644.25912
1569253644.27474
1569253644.29037
1569253644.306
1569253644.32162
1569253644.33725
1569253644.35287
1569253644.3685
1569253644.38412
1569253644.39975
1569253644.41538
1569253644.431
1569253644.44663
1569253644.46225
1569253644.47788
1569253644.4935
1569253644.50913
1569253644.52476
1569253644.54038
1569253644.55601
1569253644.57163
1569253644.58726
1569253644.60288
1569253644.61851
1569253644.63414
1569253644.64976
1569253644.66539
1569253644.68101
1569253644.69664
1569253644.71226
1569253644.72789
1569253644.74352
1569253644.75914
1569253644.77477
1569253644.79039
1569253644.80602
1569253644.82164
1569253644.83727
1569253644.8529
1569253644.86852
1569253644.88415
1569253644.89977
1569253644.9154
1569253644.93103
1569253644.94665
1569253644.96228
1569253644.9779
1569253644.99353
1569253645.00915
1569253645.02478
1569253645.04041
1569253645.05603
1569253645.07166
1569253645.08728
1569253645.10291
1569253645.11853
1569253645.13416
1569253645.14979
1569253645.16541
1569253645.18104
1569253645.19666
1569253645.21229
1569253645.22791
1569253645.24354
1569253645.25917
1569253645.27479
1569253645.29042
1569253645.30604
1569253645.32167
1569253645.33729
1569253645.35292
1569253645.36855
1569253645.38417
1569253645.3998
1569253645.41542
1569253645.43105
1569253645.44667
1569253645.4623
1569253645.47793
1569253645.49355
1569253645.50918
1569253645.5248
1569253645.54043
1569253645.55605
1569253645.57168
1569253645.58731
1569253645.60293
1569253645.61856
1569253645.63418
1569253645.64981
1569253645.66543
1569253645.68106
1569253645.69669
1569253645.71231
1569253645.72794
1569253645.74356
1569253645.75919
1569253645.77481
1569253645.79044
1569253645.80607
1569253645.82169
1569253645.83732
1569253645.85294
1569253645.86857
1569253645.88419
1569253645.89982
1569253645.91545
1569253645.93107
1569253645.9467
1569253645.96232
1569253645.97795
1569253645.99357
1569253646.0092
1569253646.02483
1569253646.04045
1569253646.05608
1569253646.0717
1569253646.08733
1569253646.10295
1569253646.11858
1569253646.13421
1569253646.14983
1569253646.16546
1569253646.18108
1569253646.19671
1569253646.21233
1569253646.22796
1569253646.24359
1569253646.25921
1569253646.27484
1569253646.29046
1569253646.30609
1569253646.32171
1569253646.33734
1569253646.35297
1569253646.36859
1569253646.38422
1569253646.39984
1569253646.41547
1569253646.43109
1569253646.44672
1569253646.46235
1569253646.47797
1569253646.4936
1569253646.50922
1569253646.52485
1569253646.54047
1569253646.5561
1569253646.57173
1569253646.58735
1569253646.60298
1569253646.6186
1569253646.63423
1569253646.64985
1569253646.66548
1569253646.68111
1569253646.69673
1569253646.71236
1569253646.72798
1569253646.74361
1569253646.75923
1569253646.77486
1569253646.79049
1569253646.80611
1569253646.82174
1569253646.83736
1569253646.85299
1569253646.86861
1569253646.88424
1569253646.89987
1569253646.91549
1569253646.93112
1569253646.94674
1569253646.96237
1569253646.97799
1569253646.99362
1569253647.00925
1569253647.02487
1569253647.0405
1569253647.05612
1569253647.07175
1569253647.08737
1569253647.103
1569253647.11863
1569253647.13425
1569253647.14988
1569253647.1655
1569253647.18113
1569253647.19675
1569253647.21238
1569253647.22801
1569253647.24363
1569253647.25926
1569253647.27488
1569253647.29051
1569253647.30613
1569253647.32176
1569253647.33739
1569253647.35301
1569253647.36864
1569253647.38426
1569253647.39989
1569253647.41551
1569253647.43114
1569253647.44677
1569253647.46239
1569253647.47802
1569253647.49364
1569253647.50927
1569253647.5249
1569253647.54052
1569253647.55615
1569253647.57177
1569253647.5874
1569253647.60302
1569253647.61865
1569253647.63428
1569253647.6499
1569253647.66553
1569253647.68115
1569253647.69678
1569253647.7124
1569253647.72803
1569253647.74366
1569253647.75928
1569253647.77491
1569253647.79053
1569253647.80616
1569253647.82178
1569253647.83741
1569253647.85304
1569253647.86866
1569253647.88429
1569253647.89991
1569253647.91554
1569253647.93116
1569253647.94679
1569253647.96242
1569253647.97804
1569253647.99367
1569253648.00929
1569253648.02492
1569253648.04054
1569253648.05617
1569253648.0718
1569253648.08742
1569253648.10305
1569253648.11867
1569253648.1343
1569253648.14992
1569253648.16555
1569253648.18118
1569253648.1968
1569253648.21243
1569253648.22805
1569253648.24368
1569253648.2593
1569253648.27493
1569253648.29056
1569253648.30618
1569253648.32181
1569253648.33743
1569253648.35306
1569253648.36868
1569253648.38431
1569253648.39994
1569253648.41556
1569253648.43119
1569253648.44681
1569253648.46244
1569253648.47806
1569253648.49369
1569253648.50932
1569253648.52494
1569253648.54057
1569253648.55619
1569253648.57182
1569253648.58744
1569253648.60307
1569253648.6187
1569253648.63432
1569253648.64995
1569253648.66557
1569253648.6812
1569253648.69682
1569253648.71245
1569253648.72808
1569253648.7437
1569253648.75933
1569253648.77495
1569253648.79058
1569253648.8062
1569253648.82183
1569253648.83746
1569253648.85308
1569253648.86871
1569253648.88433
1569253648.89996
1569253648.91558
1569253648.93121
1569253648.94684
1569253648.96246
1569253648.97809
1569253648.99371
1569253649.00934
1569253649.02496
1569253649.04059
1569253649.05622
1569253649.07184
1569253649.08747
1569253649.10309
1569253649.11872
1569253649.13434
1569253649.14997
1569253649.1656
1569253649.18122
1569253649.19685
1569253649.21247
1569253649.2281
1569253649.24372
1569253649.25935
1569253649.27498
1569253649.2906
1569253649.30623
1569253649.32185
1569253649.33748
1569253649.3531
1569253649.36873
1569253649.38436
1569253649.39998
1569253649.41561
1569253649.43123
1569253649.44686
1569253649.46248
1569253649.47811
1569253649.49374
1569253649.50936
1569253649.52499
1569253649.54061
1569253649.55624
1569253649.57186
1569253649.58749
1569253649.60312
1569253649.61874
1569253649.63437
1569253649.64999
1569253649.66562
1569253649.68124
1569253649.69687
1569253649.7125
1569253649.72812
1569253649.74375
1569253649.75937
1569253649.775
1569253649.79063
1569253649.80625
1569253649.82188
1569253649.8375
1569253649.85313
1569253649.86875
1569253649.88438
1569253649.90001
1569253649.91563
1569253649.93126
1569253649.94688
1569253649.96251
1569253649.97813
1569253649.99376
1569253650.00939
1569253650.02501
1569253650.04064
1569253650.05626
1569253650.07189
1569253650.08751
1569253650.10314
1569253650.11877
1569253650.13439
1569253650.15002
1569253650.16564
1569253650.18127
1569253650.19689
1569253650.21252
1569253650.22815
1569253650.24377
1569253650.2594
1569253650.27502
1569253650.29065
1569253650.30627
1569253650.3219
1569253650.33753
1569253650.35315
1569253650.36878
1569253650.3844
1569253650.40003
1569253650.41565
1569253650.43128
1569253650.44691
1569253650.46253
1569253650.47816
1569253650.49378
1569253650.50941
1569253650.52503
1569253650.54066
1569253650.55629
1569253650.57191
1569253650.58754
1569253650.60316
1569253650.61879
1569253650.63441
1569253650.65004
1569253650.66567
1569253650.68129
1569253650.69692
1569253650.71254
1569253650.72817
1569253650.74379
1569253650.75942
1569253650.77505
1569253650.79067
1569253650.8063
1569253650.82192
1569253650.83755
1569253650.85317
1569253650.8688
1569253650.88443
1569253650.90005
1569253650.91568
1569253650.9313
1569253650.94693
1569253650.96255
1569253650.97818
1569253650.99381
1569253651.00943
1569253651.02506
1569253651.04068
1569253651.05631
1569253651.07193
1569253651.08756
1569253651.10319
1569253651.11881
1569253651.13444
1569253651.15006
1569253651.16569
1569253651.18131
1569253651.19694
1569253651.21257
1569253651.22819
1569253651.24382
1569253651.25944
1569253651.27507
1569253651.29069
1569253651.30632
1569253651.32195
1569253651.33757
1569253651.3532
1569253651.36882
1569253651.38445
1569253651.40007
1569253651.4157
1569253651.43133
1569253651.44695
1569253651.46258
1569253651.4782
1569253651.49383
1569253651.50945
1569253651.52508
1569253651.54071
1569253651.55633
1569253651.57196
1569253651.58758
1569253651.60321
1569253651.61883
1569253651.63446
1569253651.65009
1569253651.66571
1569253651.68134
1569253651.69696
1569253651.71259
1569253651.72821
1569253651.74384
1569253651.75947
1569253651.77509
1569253651.79072
1569253651.80634
1569253651.82197
1569253651.83759
1569253651.85322
1569253651.86885
1569253651.88447
1569253651.9001
1569253651.91572
1569253651.93135
1569253651.94697
1569253651.9626
1569253651.97823
1569253651.99385
1569253652.00948
1569253652.0251
1569253652.04073
1569253652.05636
1569253652.07198
1569253652.08761
1569253652.10323
1569253652.11886
1569253652.13448
1569253652.15011
1569253652.16574
1569253652.18136
1569253652.19699
1569253652.21261
1569253652.22824
1569253652.24386
1569253652.25949
1569253652.27512
1569253652.29074
1569253652.30637
1569253652.32199
1569253652.33762
1569253652.35324
1569253652.36887
1569253652.3845
1569253652.40012
1569253652.41575
1569253652.43137
1569253652.447
1569253652.46262
1569253652.47825
1569253652.49388
1569253652.5095
1569253652.52513
1569253652.54075
1569253652.55638
1569253652.572
1569253652.58763
1569253652.60326
1569253652.61888
1569253652.63451
1569253652.65013
1569253652.66576
1569253652.68138
1569253652.69701
1569253652.71264
1569253652.72826
1569253652.74389
1569253652.75951
1569253652.77514
1569253652.79076
1569253652.80639
1569253652.82202
1569253652.83764
1569253652.85327
1569253652.86889
1569253652.88452
1569253652.90014
1569253652.91577
1569253652.9314
1569253652.94702
1569253652.96265
1569253652.97827
1569253652.9939
1569253653.00952
1569253653.02515
1569253653.04078
1569253653.0564
1569253653.07203
1569253653.08765
1569253653.10328
1569253653.1189
1569253653.13453
1569253653.15016
1569253653.16578
1569253653.18141
1569253653.19703
1569253653.21266
1569253653.22828
1569253653.24391
1569253653.25954
1569253653.27516
1569253653.29079
1569253653.30641
1569253653.32204
1569253653.33766
1569253653.35329
1569253653.36892
1569253653.38454
1569253653.40017
1569253653.41579
1569253653.43142
1569253653.44704
1569253653.46267
1569253653.4783
1569253653.49392
1569253653.50955
1569253653.52517
1569253653.5408
1569253653.55642
1569253653.57205
1569253653.58768
1569253653.6033
1569253653.61893
1569253653.63455
1569253653.65018
1569253653.6658
1569253653.68143
1569253653.69706
1569253653.71268
1569253653.72831
1569253653.74393
1569253653.75956
1569253653.77518
1569253653.79081
1569253653.80644
1569253653.82206
1569253653.83769
1569253653.85331
1569253653.86894
1569253653.88456
1569253653.90019
1569253653.91582
1569253653.93144
1569253653.94707
1569253653.96269
1569253653.97832
1569253653.99394
1569253654.00957
1569253654.0252
1569253654.04082
1569253654.05645
1569253654.07207
1569253654.0877
1569253654.10332
1569253654.11895
1569253654.13458
1569253654.1502
1569253654.16583
1569253654.18145
1569253654.19708
1569253654.2127
1569253654.22833
1569253654.24396
1569253654.25958
1569253654.27521
1569253654.29083
1569253654.30646
1569253654.32208
1569253654.33771
1569253654.35334
1569253654.36896
1569253654.38459
1569253654.40021
1569253654.41584
1569253654.43146
1569253654.44709
1569253654.46272
1569253654.47834
1569253654.49397
1569253654.50959
1569253654.52522
1569253654.54084
1569253654.55647
1569253654.5721
1569253654.58772
1569253654.60335
1569253654.61897
1569253654.6346
1569253654.65023
1569253654.66585
1569253654.68148
1569253654.6971
1569253654.71273
1569253654.72835
1569253654.74398
1569253654.75961
1569253654.77523
1569253654.79086
1569253654.80648
1569253654.82211
1569253654.83773
1569253654.85336
1569253654.86899
1569253654.88461
1569253654.90024
1569253654.91586
1569253654.93149
1569253654.94711
1569253654.96274
1569253654.97837
1569253654.99399
1569253655.00962
1569253655.02524
1569253655.04087
1569253655.05649
1569253655.07212
1569253655.08775
1569253655.10337
1569253655.119
1569253655.13462
1569253655.15025
1569253655.16587
1569253655.1815
1569253655.19713
1569253655.21275
1569253655.22838
1569253655.244
1569253655.25963
1569253655.27525
1569253655.29088
1569253655.30651
1569253655.32213
1569253655.33776
1569253655.35338
1569253655.36901
1569253655.38463
1569253655.40026
1569253655.41589
1569253655.43151
1569253655.44714
1569253655.46276
1569253655.47839
1569253655.49401
1569253655.50964
1569253655.52527
1569253655.54089
1569253655.55652
1569253655.57214
1569253655.58777
1569253655.60339
1569253655.61902
1569253655.63465
1569253655.65027
1569253655.6659
1569253655.68152
1569253655.69715
1569253655.71277
1569253655.7284
1569253655.74403
1569253655.75965
1569253655.77528
1569253655.7909
1569253655.80653
1569253655.82215
1569253655.83778
1569253655.85341
1569253655.86903
1569253655.88466
1569253655.90028
1569253655.91591
1569253655.93153
1569253655.94716
1569253655.96279
1569253655.97841
1569253655.99404
1569253656.00966
1569253656.02529
1569253656.04091
1569253656.05654
1569253656.07217
1569253656.08779
1569253656.10342
1569253656.11904
1569253656.13467
1569253656.15029
1569253656.16592
1569253656.18155
1569253656.19717
1569253656.2128
1569253656.22842
1569253656.24405
1569253656.25967
1569253656.2753
1569253656.29093
1569253656.30655
1569253656.32218
1569253656.3378
1569253656.35343
1569253656.36905
1569253656.38468
1569253656.40031
1569253656.41593
1569253656.43156
1569253656.44718
1569253656.46281
1569253656.47843
1569253656.49406
1569253656.50969
1569253656.52531
1569253656.54094
1569253656.55656
1569253656.57219
1569253656.58781
1569253656.60344
1569253656.61907
1569253656.63469
1569253656.65032
1569253656.66594
1569253656.68157
1569253656.69719
1569253656.71282
1569253656.72845
1569253656.74407
1569253656.7597
1569253656.77532
1569253656.79095
1569253656.80658
1569253656.8222
1569253656.83783
1569253656.85345
1569253656.86908
1569253656.8847
1569253656.90033
1569253656.91596
1569253656.93158
1569253656.94721
1569253656.96283
1569253656.97846
1569253656.99408
1569253657.00971
1569253657.02534
1569253657.04096
1569253657.05659
1569253657.07221
1569253657.08784
1569253657.10346
1569253657.11909
1569253657.13472
1569253657.15034
1569253657.16597
1569253657.18159
1569253657.19722
1569253657.21284
1569253657.22847
1569253657.2441
1569253657.25972
1569253657.27535
1569253657.29097
1569253657.3066
1569253657.32222
1569253657.33785
1569253657.35348
1569253657.3691
1569253657.38473
1569253657.40035
1569253657.41598
1569253657.4316
1569253657.44723
1569253657.46286
1569253657.47848
1569253657.49411
1569253657.50973
1569253657.52536
1569253657.54098
1569253657.55661
1569253657.57224
1569253657.58786
1569253657.60349
1569253657.61911
1569253657.63474
1569253657.65036
1569253657.66599
1569253657.68162
1569253657.69724
1569253657.71287
1569253657.72849
1569253657.74412
1569253657.75974
1569253657.77537
1569253657.791
1569253657.80662
1569253657.82225
1569253657.83787
1569253657.8535
1569253657.86912
1569253657.88475
1569253657.90038
1569253657.916
1569253657.93163
1569253657.94725
1569253657.96288
1569253657.9785
1569253657.99413
1569253658.00976
1569253658.02538
1569253658.04101
1569253658.05663
1569253658.07226
1569253658.08788
1569253658.10351
1569253658.11914
1569253658.13476
1569253658.15039
1569253658.16601
1569253658.18164
1569253658.19726
1569253658.21289
1569253658.22852
1569253658.24414
1569253658.25977
1569253658.27539
1569253658.29102
1569253658.30664
1569253658.32227
1569253658.3379
1569253658.35352
1569253658.36915
1569253658.38477
1569253658.4004
1569253658.41602
1569253658.43165
1569253658.44728
1569253658.4629
1569253658.47853
1569253658.49415
1569253658.50978
1569253658.5254
1569253658.54103
1569253658.55666
1569253658.57228
1569253658.58791
1569253658.60353
1569253658.61916
1569253658.63478
1569253658.65041
1569253658.66604
1569253658.68166
1569253658.69729
1569253658.71291
1569253658.72854
1569253658.74416
1569253658.75979
1569253658.77542
1569253658.79104
1569253658.80667
1569253658.82229
1569253658.83792
1569253658.85354
1569253658.86917
1569253658.8848
1569253658.90042
1569253658.91605
1569253658.93167
1569253658.9473
1569253658.96292
1569253658.97855
1569253658.99418
1569253659.0098
1569253659.02543
1569253659.04105
1569253659.05668
1569253659.0723
1569253659.08793
1569253659.10356
1569253659.11918
1569253659.13481
1569253659.15043
1569253659.16606
1569253659.18168
1569253659.19731
1569253659.21294
1569253659.22856
1569253659.24419
1569253659.25981
1569253659.27544
1569253659.29106
1569253659.30669
1569253659.32232
1569253659.33794
1569253659.35357
1569253659.36919
1569253659.38482
1569253659.40044
1569253659.41607
1569253659.4317
1569253659.44732
1569253659.46295
1569253659.47857
1569253659.4942
1569253659.50983
1569253659.52545
1569253659.54108
1569253659.5567
1569253659.57233
1569253659.58795
1569253659.60358
1569253659.61921
1569253659.63483
1569253659.65046
1569253659.66608
1569253659.68171
1569253659.69733
1569253659.71296
1569253659.72859
1569253659.74421
1569253659.75984
1569253659.77546
1569253659.79109
1569253659.80671
1569253659.82234
1569253659.83797
1569253659.85359
1569253659.86922
1569253659.88484
1569253659.90047
1569253659.91609
1569253659.93172
1569253659.94735
1569253659.96297
1569253659.9786
1569253659.99422
1569253660.00985
1569253660.02547
1569253660.0411
1569253660.05673
1569253660.07235
1569253660.08798
1569253660.1036
1569253660.11923
1569253660.13485
1569253660.15048
1569253660.16611
1569253660.18173
1569253660.19736
1569253660.21298
1569253660.22861
1569253660.24423
1569253660.25986
1569253660.27549
1569253660.29111
1569253660.30674
1569253660.32236
1569253660.33799
1569253660.35361
1569253660.36924
1569253660.38487
1569253660.40049
1569253660.41612
1569253660.43174
1569253660.44737
1569253660.46299
1569253660.47862
1569253660.49425
1569253660.50987
1569253660.5255
1569253660.54112
1569253660.55675
1569253660.57237
1569253660.588
1569253660.60363
1569253660.61925
1569253660.63488
1569253660.6505
1569253660.66613
1569253660.68175
1569253660.69738
1569253660.71301
1569253660.72863
1569253660.74426
1569253660.75988
1569253660.77551
1569253660.79113
1569253660.80676
1569253660.82239
1569253660.83801
1569253660.85364
1569253660.86926
1569253660.88489
1569253660.90051
1569253660.91614
1569253660.93177
1569253660.94739
1569253660.96302
1569253660.97864
1569253660.99427
1569253661.00989
1569253661.02552
1569253661.04115
1569253661.05677
1569253661.0724
1569253661.08802
1569253661.10365
1569253661.11927
1569253661.1349
1569253661.15053
1569253661.16615
1569253661.18178
1569253661.1974
1569253661.21303
1569253661.22865
1569253661.24428
1569253661.25991
1569253661.27553
1569253661.29116
1569253661.30678
1569253661.32241
1569253661.33803
1569253661.35366
1569253661.36929
1569253661.38491
1569253661.40054
1569253661.41616
1569253661.43179
1569253661.44741
1569253661.46304
1569253661.47867
1569253661.49429
1569253661.50992
1569253661.52554
1569253661.54117
1569253661.55679
1569253661.57242
1569253661.58805
1569253661.60367
1569253661.6193
1569253661.63492
1569253661.65055
1569253661.66618
1569253661.6818
1569253661.69743
1569253661.71305
1569253661.72868
1569253661.7443
1569253661.75993
1569253661.77556
1569253661.79118
1569253661.80681
1569253661.82243
1569253661.83806
1569253661.85368
1569253661.86931
1569253661.88494
1569253661.90056
1569253661.91619
1569253661.93181
1569253661.94744
1569253661.96306
1569253661.97869
1569253661.99432
1569253662.00994
1569253662.02557
1569253662.04119
1569253662.05682
1569253662.07244
1569253662.08807
1569253662.1037
1569253662.11932
1569253662.13495
1569253662.15057
1569253662.1662
1569253662.18182
1569253662.19745
1569253662.21308
1569253662.2287
1569253662.24433
1569253662.25995
1569253662.27558
1569253662.2912
1569253662.30683
1569253662.32246
1569253662.33808
1569253662.35371
1569253662.36933
1569253662.38496
1569253662.40058
1569253662.41621
1569253662.43184
1569253662.44746
1569253662.46309
1569253662.47871
1569253662.49434
1569253662.50996
1569253662.52559
1569253662.54122
1569253662.55684
1569253662.57247
1569253662.58809
1569253662.60372
1569253662.61934
1569253662.63497
1569253662.6506
1569253662.66622
1569253662.68185
1569253662.69747
1569253662.7131
1569253662.72872
1569253662.74435
1569253662.75998
1569253662.7756
1569253662.79123
1569253662.80685
1569253662.82248
1569253662.8381
1569253662.85373
1569253662.86936
1569253662.88498
1569253662.90061
1569253662.91623
1569253662.93186
1569253662.94748
1569253662.96311
1569253662.97874
1569253662.99436
1569253663.00999
1569253663.02561
1569253663.04124
1569253663.05686
1569253663.07249
1569253663.08812
1569253663.10374
1569253663.11937
1569253663.13499
1569253663.15062
1569253663.16624
1569253663.18187
1569253663.1975
1569253663.21312
1569253663.22875
1569253663.24437
1569253663.26
1569253663.27562
1569253663.29125
1569253663.30688
1569253663.3225
1569253663.33813
1569253663.35375
1569253663.36938
1569253663.385
1569253663.40063
1569253663.41626
1569253663.43188
1569253663.44751
1569253663.46313
1569253663.47876
1569253663.49438
1569253663.51001
1569253663.52564
1569253663.54126
1569253663.55689
1569253663.57251
1569253663.58814
1569253663.60376
1569253663.61939
1569253663.63502
1569253663.65064
1569253663.66627
1569253663.68189
1569253663.69752
1569253663.71314
1569253663.72877
1569253663.7444
1569253663.76002
1569253663.77565
1569253663.79127
1569253663.8069
1569253663.82252
1569253663.83815
1569253663.85378
1569253663.8694
1569253663.88503
1569253663.90065
1569253663.91628
1569253663.93191
1569253663.94753
1569253663.96316
1569253663.97878
1569253663.99441
1569253664.01003
1569253664.02566
1569253664.04129
1569253664.05691
1569253664.07254
1569253664.08816
1569253664.10379
1569253664.11941
1569253664.13504
1569253664.15067
1569253664.16629
1569253664.18192
1569253664.19754
1569253664.21317
1569253664.22879
1569253664.24442
1569253664.26005
1569253664.27567
1569253664.2913
1569253664.30692
1569253664.32255
1569253664.33817
1569253664.3538
1569253664.36943
1569253664.38505
1569253664.40068
1569253664.4163
1569253664.43193
1569253664.44755
1569253664.46318
1569253664.47881
1569253664.49443
1569253664.51006
1569253664.52568
1569253664.54131
1569253664.55693
1569253664.57256
1569253664.58819
1569253664.60381
1569253664.61944
1569253664.63506
1569253664.65069
1569253664.66631
1569253664.68194
1569253664.69757
1569253664.71319
1569253664.72882
1569253664.74444
1569253664.76007
1569253664.77569
1569253664.79132
1569253664.80695
1569253664.82257
1569253664.8382
1569253664.85382
1569253664.86945
1569253664.88507
1569253664.9007
1569253664.91633
1569253664.93195
1569253664.94758
1569253664.9632
1569253664.97883
1569253664.99445
1569253665.01008
1569253665.02571
1569253665.04133
1569253665.05696
1569253665.07258
1569253665.08821
1569253665.10383
1569253665.11946
1569253665.13509
1569253665.15071
1569253665.16634
1569253665.18196
1569253665.19759
1569253665.21321
1569253665.22884
1569253665.24447
1569253665.26009
1569253665.27572
1569253665.29134
1569253665.30697
1569253665.32259
1569253665.33822
1569253665.35385
1569253665.36947
1569253665.3851
1569253665.40072
1569253665.41635
1569253665.43197
1569253665.4476
1569253665.46323
1569253665.47885
1569253665.49448
1569253665.5101
1569253665.52573
1569253665.54135
1569253665.55698
1569253665.57261
1569253665.58823
1569253665.60386
1569253665.61948
1569253665.63511
1569253665.65073
1569253665.66636
1569253665.68199
1569253665.69761
1569253665.71324
1569253665.72886
1569253665.74449
1569253665.76011
1569253665.77574
1569253665.79137
1569253665.80699
1569253665.82262
1569253665.83824
1569253665.85387
1569253665.86949
1569253665.88512
1569253665.90075
1569253665.91637
1569253665.932
1569253665.94762
1569253665.96325
1569253665.97887
1569253665.9945
1569253666.01013
1569253666.02575
1569253666.04138
1569253666.057
1569253666.07263
1569253666.08825
1569253666.10388
1569253666.11951
1569253666.13513
1569253666.15076
1569253666.16638
1569253666.18201
1569253666.19763
1569253666.21326
1569253666.22889
1569253666.24451
1569253666.26014
1569253666.27576
1569253666.29139
1569253666.30701
1569253666.32264
1569253666.33827
1569253666.35389
1569253666.36952
1569253666.38514
1569253666.40077
1569253666.41639
1569253666.43202
1569253666.44765
1569253666.46327
1569253666.4789
1569253666.49452
1569253666.51015
1569253666.52578
1569253666.5414
1569253666.55703
1569253666.57265
1569253666.58828
1569253666.6039
1569253666.61953
1569253666.63516
1569253666.65078
1569253666.66641
1569253666.68203
1569253666.69766
1569253666.71328
1569253666.72891
1569253666.74454
1569253666.76016
1569253666.77579
1569253666.79141
1569253666.80704
1569253666.82266
1569253666.83829
1569253666.85392
1569253666.86954
1569253666.88517
1569253666.90079
1569253666.91642
1569253666.93204
1569253666.94767
1569253666.9633
1569253666.97892
1569253666.99455
1569253667.01017
1569253667.0258
1569253667.04142
1569253667.05705
1569253667.07268
1569253667.0883
1569253667.10393
1569253667.11955
1569253667.13518
1569253667.1508
1569253667.16643
1569253667.18206
1569253667.19768
1569253667.21331
1569253667.22893
1569253667.24456
1569253667.26018
1569253667.27581
1569253667.29144
1569253667.30706
1569253667.32269
1569253667.33831
1569253667.35394
1569253667.36956
1569253667.38519
1569253667.40082
1569253667.41644
1569253667.43207
1569253667.44769
1569253667.46332
1569253667.47894
1569253667.49457
1569253667.5102
1569253667.52582
1569253667.54145
1569253667.55707
1569253667.5727
1569253667.58832
1569253667.60395
1569253667.61958
1569253667.6352
1569253667.65083
1569253667.66645
1569253667.68208
1569253667.6977
1569253667.71333
1569253667.72896
1569253667.74458
1569253667.76021
1569253667.77583
1569253667.79146
1569253667.80708
1569253667.82271
1569253667.83834
1569253667.85396
1569253667.86959
1569253667.88521
1569253667.90084
1569253667.91646
1569253667.93209
1569253667.94772
1569253667.96334
1569253667.97897
1569253667.99459
1569253668.01022
1569253668.02584
1569253668.04147
1569253668.0571
1569253668.07272
1569253668.08835
1569253668.10397
1569253668.1196
1569253668.13522
1569253668.15085
1569253668.16648
1569253668.1821
1569253668.19773
1569253668.21335
1569253668.22898
1569253668.2446
1569253668.26023
1569253668.27586
1569253668.29148
1569253668.30711
1569253668.32273
1569253668.33836
1569253668.35398
1569253668.36961
1569253668.38524
1569253668.40086
1569253668.41649
1569253668.43211
1569253668.44774
1569253668.46336
1569253668.47899
1569253668.49462
1569253668.51024
1569253668.52587
1569253668.54149
1569253668.55712
1569253668.57274
1569253668.58837
1569253668.604
1569253668.61962
1569253668.63525
1569253668.65087
1569253668.6665
1569253668.68212
1569253668.69775
1569253668.71338
1569253668.729
1569253668.74463
1569253668.76025
1569253668.77588
1569253668.79151
1569253668.80713
1569253668.82276
1569253668.83838
1569253668.85401
1569253668.86963
1569253668.88526
1569253668.90089
1569253668.91651
1569253668.93214
1569253668.94776
1569253668.96339
1569253668.97901
1569253668.99464
1569253669.01027
1569253669.02589
1569253669.04152
1569253669.05714
1569253669.07277
1569253669.08839
1569253669.10402
1569253669.11965
1569253669.13527
1569253669.1509
1569253669.16652
1569253669.18215
1569253669.19777
1569253669.2134
1569253669.22903
1569253669.24465
1569253669.26028
1569253669.2759
1569253669.29153
1569253669.30715
1569253669.32278
1569253669.33841
1569253669.35403
1569253669.36966
1569253669.38528
1569253669.40091
1569253669.41653
1569253669.43216
1569253669.44779
1569253669.46341
1569253669.47904
1569253669.49466
1569253669.51029
1569253669.52591
1569253669.54154
1569253669.55717
1569253669.57279
1569253669.58842
1569253669.60404
1569253669.61967
1569253669.63529
1569253669.65092
1569253669.66655
1569253669.68217
1569253669.6978
1569253669.71342
1569253669.72905
1569253669.74467
1569253669.7603
1569253669.77593
1569253669.79155
1569253669.80718
1569253669.8228
1569253669.83843
1569253669.85405
1569253669.86968
1569253669.88531
1569253669.90093
1569253669.91656
1569253669.93218
1569253669.94781
1569253669.96343
1569253669.97906
1569253669.99469
1569253670.01031
1569253670.02594
1569253670.04156
1569253670.05719
1569253670.07281
1569253670.08844
1569253670.10407
1569253670.11969
1569253670.13532
1569253670.15094
1569253670.16657
1569253670.18219
1569253670.19782
1569253670.21345
1569253670.22907
1569253670.2447
1569253670.26032
1569253670.27595
1569253670.29157
1569253670.3072
1569253670.32283
1569253670.33845
1569253670.35408
1569253670.3697
1569253670.38533
1569253670.40095
1569253670.41658
1569253670.43221
1569253670.44783
1569253670.46346
1569253670.47908
1569253670.49471
1569253670.51033
1569253670.52596
1569253670.54159
1569253670.55721
1569253670.57284
1569253670.58846
1569253670.60409
1569253670.61971
1569253670.63534
1569253670.65097
1569253670.66659
1569253670.68222
1569253670.69784
1569253670.71347
1569253670.72909
1569253670.74472
1569253670.76035
1569253670.77597
1569253670.7916
1569253670.80722
1569253670.82285
1569253670.83847
1569253670.8541
1569253670.86973
1569253670.88535
1569253670.90098
1569253670.9166
1569253670.93223
1569253670.94786
1569253670.96348
1569253670.97911
1569253670.99473
1569253671.01036
1569253671.02598
1569253671.04161
1569253671.05724
1569253671.07286
1569253671.08849
1569253671.10411
1569253671.11974
1569253671.13536
1569253671.15099
1569253671.16662
1569253671.18224
1569253671.19787
1569253671.21349
1569253671.22912
1569253671.24474
1569253671.26037
1569253671.276
1569253671.29162
1569253671.30725
1569253671.32287
1569253671.3385
1569253671.35412
1569253671.36975
1569253671.38538
1569253671.401
1569253671.41663
1569253671.43225
1569253671.44788
1569253671.4635
1569253671.47913
1569253671.49476
1569253671.51038
1569253671.52601
1569253671.54163
1569253671.55726
1569253671.57288
1569253671.58851
1569253671.60414
1569253671.61976
1569253671.63539
1569253671.65101
1569253671.66664
1569253671.68226
1569253671.69789
1569253671.71352
1569253671.72914
1569253671.74477
1569253671.76039
1569253671.77602
1569253671.79164
1569253671.80727
1569253671.8229
1569253671.83852
1569253671.85415
1569253671.86977
1569253671.8854
1569253671.90102
1569253671.91665
1569253671.93228
1569253671.9479
1569253671.96353
1569253671.97915
1569253671.99478
1569253672.0104
1569253672.02603
1569253672.04166
1569253672.05728
1569253672.07291
1569253672.08853
1569253672.10416
1569253672.11978
1569253672.13541
1569253672.15104
1569253672.16666
1569253672.18229
1569253672.19791
1569253672.21354
1569253672.22916
1569253672.24479
1569253672.26042
1569253672.27604
1569253672.29167
1569253672.30729
1569253672.32292
1569253672.33854
1569253672.35417
1569253672.3698
1569253672.38542
1569253672.40105
1569253672.41667
1569253672.4323
1569253672.44792
1569253672.46355
1569253672.47918
1569253672.4948
1569253672.51043
1569253672.52605
1569253672.54168
1569253672.5573
1569253672.57293
1569253672.58856
1569253672.60418
1569253672.61981
1569253672.63543
1569253672.65106
1569253672.66668
1569253672.68231
1569253672.69794
1569253672.71356
1569253672.72919
1569253672.74481
1569253672.76044
1569253672.77606
1569253672.79169
1569253672.80732
1569253672.82294
1569253672.83857
1569253672.85419
1569253672.86982
1569253672.88544
1569253672.90107
1569253672.9167
1569253672.93232
1569253672.94795
1569253672.96357
1569253672.9792
1569253672.99482
1569253673.01045
1569253673.02608
1569253673.0417
1569253673.05733
1569253673.07295
1569253673.08858
1569253673.1042
1569253673.11983
1569253673.13546
1569253673.15108
1569253673.16671
1569253673.18233
1569253673.19796
1569253673.21358
1569253673.22921
1569253673.24484
1569253673.26046
1569253673.27609
1569253673.29171
1569253673.30734
1569253673.32296
1569253673.33859
1569253673.35422
1569253673.36984
1569253673.38547
1569253673.40109
1569253673.41672
1569253673.43234
1569253673.44797
1569253673.4636
1569253673.47922
1569253673.49485
1569253673.51047
1569253673.5261
1569253673.54172
1569253673.55735
1569253673.57298
1569253673.5886
1569253673.60423
1569253673.61985
1569253673.63548
1569253673.65111
1569253673.66673
1569253673.68236
1569253673.69798
1569253673.71361
1569253673.72923
1569253673.74486
1569253673.76049
1569253673.77611
1569253673.79174
1569253673.80736
1569253673.82299
1569253673.83861
1569253673.85424
1569253673.86987
1569253673.88549
1569253673.90112
1569253673.91674
1569253673.93237
1569253673.94799
1569253673.96362
1569253673.97925
1569253673.99487
1569253674.0105
1569253674.02612
1569253674.04175
1569253674.05737
1569253674.073
1569253674.08863
1569253674.10425
1569253674.11988
1569253674.1355
1569253674.15113
1569253674.16675
1569253674.18238
1569253674.19801
1569253674.21363
1569253674.22926
1569253674.24488
1569253674.26051
1569253674.27613
1569253674.29176
1569253674.30739
1569253674.32301
1569253674.33864
1569253674.35426
1569253674.36989
1569253674.38551
1569253674.40114
1569253674.41677
1569253674.43239
1569253674.44802
1569253674.46364
1569253674.47927
1569253674.49489
1569253674.51052
1569253674.52615
1569253674.54177
1569253674.5574
1569253674.57302
1569253674.58865
1569253674.60427
1569253674.6199
1569253674.63553
1569253674.65115
1569253674.66678
1569253674.6824
1569253674.69803
1569253674.71365
1569253674.72928
1569253674.74491
1569253674.76053
1569253674.77616
1569253674.79178
1569253674.80741
1569253674.82303
1569253674.83866
1569253674.85429
1569253674.86991
1569253674.88554
1569253674.90116
1569253674.91679
1569253674.93241
1569253674.94804
1569253674.96367
1569253674.97929
1569253674.99492
1569253675.01054
1569253675.02617
1569253675.04179
1569253675.05742
1569253675.07305
1569253675.08867
1569253675.1043
1569253675.11992
1569253675.13555
1569253675.15117
1569253675.1668
1569253675.18243
1569253675.19805
1569253675.21368
1569253675.2293
1569253675.24493
1569253675.26055
1569253675.27618
1569253675.29181
1569253675.30743
1569253675.32306
1569253675.33868
1569253675.35431
1569253675.36993
1569253675.38556
1569253675.40119
1569253675.41681
1569253675.43244
1569253675.44806
1569253675.46369
1569253675.47931
1569253675.49494
1569253675.51057
1569253675.52619
1569253675.54182
1569253675.55744
1569253675.57307
1569253675.58869
1569253675.60432
1569253675.61995
1569253675.63557
1569253675.6512
1569253675.66682
1569253675.68245
1569253675.69807
1569253675.7137
1569253675.72933
1569253675.74495
1569253675.76058
1569253675.7762
1569253675.79183
1569253675.80745
1569253675.82308
1569253675.83871
1569253675.85433
1569253675.86996
1569253675.88558
1569253675.90121
1569253675.91684
1569253675.93246
1569253675.94809
1569253675.96371
1569253675.97934
1569253675.99496
1569253676.01059
1569253676.02622
1569253676.04184
1569253676.05747
1569253676.07309
1569253676.08872
1569253676.10434
1569253676.11997
1569253676.1356
1569253676.15122
1569253676.16685
1569253676.18247
1569253676.1981
1569253676.21372
1569253676.22935
1569253676.24498
1569253676.2606
1569253676.27623
1569253676.29185
1569253676.30748
1569253676.3231
1569253676.33873
1569253676.35436
1569253676.36998
1569253676.38561
1569253676.40123
1569253676.41686
1569253676.43248
1569253676.44811
1569253676.46374
1569253676.47936
1569253676.49499
1569253676.51061
1569253676.52624
1569253676.54186
1569253676.55749
1569253676.57312
1569253676.58874
1569253676.60437
1569253676.61999
1569253676.63562
1569253676.65124
1569253676.66687
1569253676.6825
1569253676.69812
1569253676.71375
1569253676.72937
1569253676.745
1569253676.76062
1569253676.77625
1569253676.79188
1569253676.8075
1569253676.82313
1569253676.83875
1569253676.85438
1569253676.87
1569253676.88563
1569253676.90126
1569253676.91688
1569253676.93251
1569253676.94813
1569253676.96376
1569253676.97938
1569253676.99501
1569253677.01064
1569253677.02626
1569253677.04189
1569253677.05751
1569253677.07314
1569253677.08876
1569253677.10439
1569253677.12002
1569253677.13564
1569253677.15127
1569253677.16689
1569253677.18252
1569253677.19814
1569253677.21377
1569253677.2294
1569253677.24502
1569253677.26065
1569253677.27627
1569253677.2919
1569253677.30752
1569253677.32315
1569253677.33878
1569253677.3544
1569253677.37003
1569253677.38565
1569253677.40128
1569253677.4169
1569253677.43253
1569253677.44816
1569253677.46378
1569253677.47941
1569253677.49503
1569253677.51066
1569253677.52628
1569253677.54191
1569253677.55754
1569253677.57316
1569253677.58879
1569253677.60441
1569253677.62004
1569253677.63566
1569253677.65129
1569253677.66692
1569253677.68254
1569253677.69817
1569253677.71379
1569253677.72942
1569253677.74504
1569253677.76067
1569253677.7763
1569253677.79192
1569253677.80755
1569253677.82317
1569253677.8388
1569253677.85442
1569253677.87005
1569253677.88568
1569253677.9013
1569253677.91693
1569253677.93255
1569253677.94818
1569253677.9638
1569253677.97943
1569253677.99506
1569253678.01068
1569253678.02631
1569253678.04193
1569253678.05756
1569253678.07318
1569253678.08881
1569253678.10444
1569253678.12006
1569253678.13569
1569253678.15131
1569253678.16694
1569253678.18256
1569253678.19819
1569253678.21382
1569253678.22944
1569253678.24507
1569253678.26069
1569253678.27632
1569253678.29194
1569253678.30757
1569253678.3232
1569253678.33882
1569253678.35445
1569253678.37007
1569253678.3857
1569253678.40132
1569253678.41695
1569253678.43258
1569253678.4482
1569253678.46383
1569253678.47945
1569253678.49508
1569253678.51071
1569253678.52633
1569253678.54196
1569253678.55758
1569253678.57321
1569253678.58883
1569253678.60446
1569253678.62009
1569253678.63571
1569253678.65134
1569253678.66696
1569253678.68259
1569253678.69821
1569253678.71384
1569253678.72947
1569253678.74509
1569253678.76072
1569253678.77634
1569253678.79197
1569253678.80759
1569253678.82322
1569253678.83885
1569253678.85447
1569253678.8701
1569253678.88572
1569253678.90135
1569253678.91697
1569253678.9326
1569253678.94823
1569253678.96385
1569253678.97948
1569253678.9951
1569253679.01073
1569253679.02635
1569253679.04198
1569253679.05761
1569253679.07323
1569253679.08886
1569253679.10448
1569253679.12011
1569253679.13573
1569253679.15136
1569253679.16699
1569253679.18261
1569253679.19824
1569253679.21386
1569253679.22949
1569253679.24511
1569253679.26074
1569253679.27637
1569253679.29199
1569253679.30762
1569253679.32324
1569253679.33887
1569253679.35449
1569253679.37012
1569253679.38575
1569253679.40137
1569253679.417
1569253679.43262
1569253679.44825
1569253679.46387
1569253679.4795
1569253679.49513
1569253679.51075
1569253679.52638
1569253679.542
1569253679.55763
1569253679.57325
1569253679.58888
1569253679.60451
1569253679.62013
1569253679.63576
1569253679.65138
1569253679.66701
1569253679.68263
1569253679.69826
1569253679.71389
1569253679.72951
1569253679.74514
1569253679.76076
1569253679.77639
1569253679.79201
1569253679.80764
1569253679.82327
1569253679.83889
1569253679.85452
1569253679.87014
1569253679.88577
1569253679.90139
1569253679.91702
1569253679.93265
1569253679.94827
1569253679.9639
1569253679.97952
1569253679.99515
1569253680.01077
1569253680.0264
1569253680.04203
1569253680.05765
1569253680.07328
1569253680.0889
1569253680.10453
1569253680.12015
1569253680.13578
1569253680.15141
1569253680.16703
1569253680.18266
1569253680.19828
1569253680.21391
1569253680.22953
1569253680.24516
1569253680.26079
1569253680.27641
1569253680.29204
1569253680.30766
1569253680.32329
1569253680.33891
1569253680.35454
1569253680.37017
1569253680.38579
1569253680.40142
1569253680.41704
1569253680.43267
1569253680.44829
1569253680.46392
1569253680.47955
1569253680.49517
1569253680.5108
1569253680.52642
1569253680.54205
1569253680.55767
1569253680.5733
1569253680.58893
1569253680.60455
1569253680.62018
1569253680.6358
1569253680.65143
1569253680.66705
1569253680.68268
1569253680.69831
1569253680.71393
1569253680.72956
1569253680.74518
1569253680.76081
1569253680.77644
1569253680.79206
1569253680.80769
1569253680.82331
1569253680.83894
1569253680.85456
1569253680.87019
1569253680.88582
1569253680.90144
1569253680.91707
1569253680.93269
1569253680.94832
1569253680.96394
1569253680.97957
1569253680.9952
1569253681.01082
1569253681.02645
1569253681.04207
1569253681.0577
1569253681.07332
1569253681.08895
1569253681.10458
1569253681.1202
1569253681.13583
1569253681.15145
1569253681.16708
1569253681.1827
1569253681.19833
1569253681.21396
1569253681.22958
1569253681.24521
1569253681.26083
1569253681.27646
1569253681.29208
1569253681.30771
1569253681.32334
1569253681.33896
1569253681.35459
1569253681.37021
1569253681.38584
1569253681.40146
1569253681.41709
1569253681.43272
1569253681.44834
1569253681.46397
1569253681.47959
1569253681.49522
1569253681.51084
1569253681.52647
1569253681.5421
1569253681.55772
1569253681.57335
1569253681.58897
1569253681.6046
1569253681.62022
1569253681.63585
1569253681.65148
1569253681.6671
1569253681.68273
1569253681.69835
1569253681.71398
1569253681.7296
1569253681.74523
1569253681.76086
1569253681.77648
1569253681.79211
1569253681.80773
1569253681.82336
1569253681.83898
1569253681.85461
1569253681.87024
1569253681.88586
1569253681.90149
1569253681.91711
1569253681.93274
1569253681.94836
1569253681.96399
1569253681.97962
1569253681.99524
1569253682.01087
1569253682.02649
1569253682.04212
1569253682.05774
1569253682.07337
1569253682.089
1569253682.10462
1569253682.12025
1569253682.13587
1569253682.1515
1569253682.16712
1569253682.18275
1569253682.19838
1569253682.214
1569253682.22963
1569253682.24525
1569253682.26088
1569253682.2765
1569253682.29213
1569253682.30776
1569253682.32338
1569253682.33901
1569253682.35463
1569253682.37026
1569253682.38588
1569253682.40151
1569253682.41714
1569253682.43276
1569253682.44839
1569253682.46401
1569253682.47964
1569253682.49526
1569253682.51089
1569253682.52652
1569253682.54214
1569253682.55777
1569253682.57339
1569253682.58902
1569253682.60464
1569253682.62027
1569253682.6359
1569253682.65152
1569253682.66715
1569253682.68277
1569253682.6984
1569253682.71402
1569253682.72965
1569253682.74528
1569253682.7609
1569253682.77653
1569253682.79215
1569253682.80778
1569253682.8234
1569253682.83903
1569253682.85466
1569253682.87028
1569253682.88591
1569253682.90153
1569253682.91716
1569253682.93279
1569253682.94841
1569253682.96404
1569253682.97966
1569253682.99529
1569253683.01091
1569253683.02654
1569253683.04217
1569253683.05779
1569253683.07342
1569253683.08904
1569253683.10467
1569253683.12029
1569253683.13592
1569253683.15155
1569253683.16717
1569253683.1828
1569253683.19842
1569253683.21405
1569253683.22967
1569253683.2453
1569253683.26093
1569253683.27655
1569253683.29218
1569253683.3078
1569253683.32343
1569253683.33905
1569253683.35468
1569253683.37031
1569253683.38593
1569253683.40156
1569253683.41718
1569253683.43281
1569253683.44843
1569253683.46406
1569253683.47969
1569253683.49531
1569253683.51094
1569253683.52656
1569253683.54219
1569253683.55781
1569253683.57344
1569253683.58907
1569253683.60469
1569253683.62032
1569253683.63594
1569253683.65157
1569253683.66719
1569253683.68282
1569253683.69845
1569253683.71407
1569253683.7297
1569253683.74532
1569253683.76095
1569253683.77657
1569253683.7922
1569253683.80783
1569253683.82345
1569253683.83908
1569253683.8547
1569253683.87033
1569253683.88595
1569253683.90158
1569253683.91721
1569253683.93283
1569253683.94846
1569253683.96408
1569253683.97971
1569253683.99533
1569253684.01096
1569253684.02659
1569253684.04221
1569253684.05784
1569253684.07346
1569253684.08909
1569253684.10471
1569253684.12034
1569253684.13597
1569253684.15159
1569253684.16722
1569253684.18284
1569253684.19847
1569253684.21409
1569253684.22972
1569253684.24535
1569253684.26097
1569253684.2766
1569253684.29222
1569253684.30785
1569253684.32347
1569253684.3391
1569253684.35473
1569253684.37035
1569253684.38598
1569253684.4016
1569253684.41723
1569253684.43285
1569253684.44848
1569253684.46411
1569253684.47973
1569253684.49536
1569253684.51098
1569253684.52661
1569253684.54223
1569253684.55786
1569253684.57349
1569253684.58911
1569253684.60474
1569253684.62036
1569253684.63599
1569253684.65161
1569253684.66724
1569253684.68287
1569253684.69849
1569253684.71412
1569253684.72974
1569253684.74537
1569253684.76099
1569253684.77662
1569253684.79225
1569253684.80787
1569253684.8235
1569253684.83912
1569253684.85475
1569253684.87037
1569253684.886
1569253684.90163
1569253684.91725
1569253684.93288
1569253684.9485
1569253684.96413
1569253684.97975
1569253684.99538
1569253685.01101
1569253685.02663
1569253685.04226
1569253685.05788
1569253685.07351
1569253685.08913
1569253685.10476
1569253685.12039
1569253685.13601
1569253685.15164
1569253685.16726
1569253685.18289
1569253685.19851
1569253685.21414
1569253685.22977
1569253685.24539
1569253685.26102
1569253685.27664
1569253685.29227
1569253685.30789
1569253685.32352
1569253685.33915
1569253685.35477
1569253685.3704
1569253685.38602
1569253685.40165
1569253685.41727
1569253685.4329
1569253685.44853
1569253685.46415
1569253685.47978
1569253685.4954
1569253685.51103
1569253685.52665
1569253685.54228
1569253685.55791
1569253685.57353
1569253685.58916
1569253685.60478
1569253685.62041
1569253685.63604
1569253685.65166
1569253685.66729
1569253685.68291
1569253685.69854
1569253685.71416
1569253685.72979
1569253685.74542
1569253685.76104
1569253685.77667
1569253685.79229
1569253685.80792
1569253685.82354
1569253685.83917
1569253685.8548
1569253685.87042
1569253685.88605
1569253685.90167
1569253685.9173
1569253685.93292
1569253685.94855
1569253685.96418
1569253685.9798
1569253685.99543
1569253686.01105
1569253686.02668
1569253686.0423
1569253686.05793
1569253686.07356
1569253686.08918
1569253686.10481
1569253686.12043
1569253686.13606
1569253686.15168
1569253686.16731
1569253686.18294
1569253686.19856
1569253686.21419
1569253686.22981
1569253686.24544
1569253686.26106
1569253686.27669
1569253686.29232
1569253686.30794
1569253686.32357
1569253686.33919
1569253686.35482
1569253686.37044
1569253686.38607
1569253686.4017
1569253686.41732
1569253686.43295
1569253686.44857
1569253686.4642
1569253686.47982
1569253686.49545
1569253686.51108
1569253686.5267
1569253686.54233
1569253686.55795
1569253686.57358
1569253686.5892
1569253686.60483
1569253686.62046
1569253686.63608
1569253686.65171
1569253686.66733
1569253686.68296
1569253686.69858
1569253686.71421
1569253686.72984
1569253686.74546
1569253686.76109
1569253686.77671
1569253686.79234
1569253686.80796
1569253686.82359
1569253686.83922
1569253686.85484
1569253686.87047
1569253686.88609
1569253686.90172
1569253686.91734
1569253686.93297
1569253686.9486
1569253686.96422
1569253686.97985
1569253686.99547
1569253687.0111
1569253687.02672
1569253687.04235
1569253687.05798
1569253687.0736
1569253687.08923
1569253687.10485
1569253687.12048
1569253687.1361
1569253687.15173
1569253687.16736
1569253687.18298
1569253687.19861
1569253687.21423
1569253687.22986
1569253687.24548
1569253687.26111
1569253687.27674
1569253687.29236
1569253687.30799
1569253687.32361
1569253687.33924
1569253687.35486
1569253687.37049
1569253687.38612
1569253687.40174
1569253687.41737
1569253687.43299
1569253687.44862
1569253687.46424
1569253687.47987
1569253687.4955
1569253687.51112
1569253687.52675
1569253687.54237
1569253687.558
1569253687.57362
1569253687.58925
1569253687.60488
1569253687.6205
1569253687.63613
1569253687.65175
1569253687.66738
1569253687.683
1569253687.69863
1569253687.71426
1569253687.72988
1569253687.74551
1569253687.76113
1569253687.77676
1569253687.79239
1569253687.80801
1569253687.82364
1569253687.83926
1569253687.85489
1569253687.87051
1569253687.88614
1569253687.90177
1569253687.91739
1569253687.93302
1569253687.94864
1569253687.96427
1569253687.97989
1569253687.99552
1569253688.01115
1569253688.02677
1569253688.0424
1569253688.05802
1569253688.07365
1569253688.08927
1569253688.1049
1569253688.12053
1569253688.13615
1569253688.15178
1569253688.1674
1569253688.18303
1569253688.19865
1569253688.21428
1569253688.22991
1569253688.24553
1569253688.26116
1569253688.27678
1569253688.29241
1569253688.30803
1569253688.32366
1569253688.33929
1569253688.35491
1569253688.37054
1569253688.38616
1569253688.40179
1569253688.41741
1569253688.43304
1569253688.44867
1569253688.46429
1569253688.47992
1569253688.49554
1569253688.51117
1569253688.52679
1569253688.54242
1569253688.55805
1569253688.57367
1569253688.5893
1569253688.60492
1569253688.62055
1569253688.63617
1569253688.6518
1569253688.66743
1569253688.68305
1569253688.69868
1569253688.7143
1569253688.72993
1569253688.74555
1569253688.76118
1569253688.77681
1569253688.79243
1569253688.80806
1569253688.82368
1569253688.83931
1569253688.85493
1569253688.87056
1569253688.88619
1569253688.90181
1569253688.91744
1569253688.93306
1569253688.94869
1569253688.96431
1569253688.97994
1569253688.99557
1569253689.01119
1569253689.02682
1569253689.04244
1569253689.05807
1569253689.07369
1569253689.08932
1569253689.10495
1569253689.12057
1569253689.1362
1569253689.15182
1569253689.16745
1569253689.18307
1569253689.1987
1569253689.21433
1569253689.22995
1569253689.24558
1569253689.2612
1569253689.27683
1569253689.29245
1569253689.30808
1569253689.32371
1569253689.33933
1569253689.35496
1569253689.37058
1569253689.38621
1569253689.40183
1569253689.41746
1569253689.43309
1569253689.44871
1569253689.46434
1569253689.47996
1569253689.49559
1569253689.51121
1569253689.52684
1569253689.54247
1569253689.55809
1569253689.57372
1569253689.58934
1569253689.60497
1569253689.62059
1569253689.63622
1569253689.65185
1569253689.66747
1569253689.6831
1569253689.69872
1569253689.71435
1569253689.72997
1569253689.7456
1569253689.76123
1569253689.77685
1569253689.79248
1569253689.8081
1569253689.82373
1569253689.83935
1569253689.85498
1569253689.87061
1569253689.88623
1569253689.90186
1569253689.91748
1569253689.93311
1569253689.94873
1569253689.96436
1569253689.97999
1569253689.99561
1569253690.01124
1569253690.02686
1569253690.04249
1569253690.05812
1569253690.07374
1569253690.08937
1569253690.10499
1569253690.12062
1569253690.13624
1569253690.15187
1569253690.1675
1569253690.18312
1569253690.19875
1569253690.21437
1569253690.23
1569253690.24562
1569253690.26125
1569253690.27688
1569253690.2925
1569253690.30813
1569253690.32375
1569253690.33938
1569253690.355
1569253690.37063
1569253690.38626
1569253690.40188
1569253690.41751
1569253690.43313
1569253690.44876
1569253690.46438
1569253690.48001
1569253690.49564
1569253690.51126
1569253690.52689
1569253690.54251
1569253690.55814
1569253690.57376
1569253690.58939
1569253690.60502
1569253690.62064
1569253690.63627
1569253690.65189
1569253690.66752
1569253690.68314
1569253690.69877
1569253690.7144
1569253690.73002
1569253690.74565
1569253690.76127
1569253690.7769
1569253690.79252
1569253690.80815
1569253690.82378
1569253690.8394
1569253690.85503
1569253690.87065
1569253690.88628
1569253690.9019
1569253690.91753
1569253690.93316
1569253690.94878
1569253690.96441
1569253690.98003
1569253690.99566
1569253691.01128
1569253691.02691
1569253691.04254
1569253691.05816
1569253691.07379
1569253691.08941
1569253691.10504
1569253691.12066
1569253691.13629
1569253691.15192
1569253691.16754
1569253691.18317
1569253691.19879
1569253691.21442
1569253691.23004
1569253691.24567
1569253691.2613
1569253691.27692
1569253691.29255
1569253691.30817
1569253691.3238
1569253691.33942
1569253691.35505
1569253691.37068
1569253691.3863
1569253691.40193
1569253691.41755
1569253691.43318
1569253691.4488
1569253691.46443
1569253691.48006
1569253691.49568
1569253691.51131
1569253691.52693
1569253691.54256
1569253691.55818
1569253691.57381
1569253691.58944
1569253691.60506
1569253691.62069
1569253691.63631
1569253691.65194
1569253691.66756
1569253691.68319
1569253691.69882
1569253691.71444
1569253691.73007
1569253691.74569
1569253691.76132
1569253691.77694
1569253691.79257
1569253691.8082
1569253691.82382
1569253691.83945
1569253691.85507
1569253691.8707
1569253691.88632
1569253691.90195
1569253691.91758
1569253691.9332
1569253691.94883
1569253691.96445
1569253691.98008
1569253691.9957
1569253692.01133
1569253692.02696
1569253692.04258
1569253692.05821
1569253692.07383
1569253692.08946
1569253692.10508
1569253692.12071
1569253692.13634
1569253692.15196
1569253692.16759
1569253692.18321
1569253692.19884
1569253692.21446
1569253692.23009
1569253692.24572
1569253692.26134
1569253692.27697
1569253692.29259
1569253692.30822
1569253692.32384
1569253692.33947
1569253692.3551
1569253692.37072
1569253692.38635
1569253692.40197
1569253692.4176
1569253692.43322
1569253692.44885
1569253692.46448
1569253692.4801
1569253692.49573
1569253692.51135
1569253692.52698
1569253692.5426
1569253692.55823
1569253692.57386
1569253692.58948
1569253692.60511
1569253692.62073
1569253692.63636
1569253692.65199
1569253692.66761
1569253692.68324
1569253692.69886
1569253692.71449
1569253692.73011
1569253692.74574
1569253692.76137
1569253692.77699
1569253692.79262
1569253692.80824
1569253692.82387
1569253692.83949
1569253692.85512
1569253692.87075
1569253692.88637
1569253692.902
1569253692.91762
1569253692.93325
1569253692.94887
1569253692.9645
1569253692.98013
1569253692.99575
1569253693.01138
1569253693.027
1569253693.04263
1569253693.05825
1569253693.07388
1569253693.08951
1569253693.10513
1569253693.12076
1569253693.13638
1569253693.15201
1569253693.16763
1569253693.18326
1569253693.19889
1569253693.21451
1569253693.23014
1569253693.24576
1569253693.26139
1569253693.27701
1569253693.29264
1569253693.30827
1569253693.32389
1569253693.33952
1569253693.35514
1569253693.37077
1569253693.38639
1569253693.40202
1569253693.41765
1569253693.43327
1569253693.4489
1569253693.46452
1569253693.48015
1569253693.49577
1569253693.5114
1569253693.52703
1569253693.54265
1569253693.55828
1569253693.5739
1569253693.58953
1569253693.60515
1569253693.62078
1569253693.63641
1569253693.65203
1569253693.66766
1569253693.68328
1569253693.69891
1569253693.71453
1569253693.73016
1569253693.74579
1569253693.76141
1569253693.77704
1569253693.79266
1569253693.80829
1569253693.82391
1569253693.83954
1569253693.85517
1569253693.87079
1569253693.88642
1569253693.90204
1569253693.91767
1569253693.93329
1569253693.94892
1569253693.96455
1569253693.98017
1569253693.9958
1569253694.01142
1569253694.02705
1569253694.04267
1569253694.0583
1569253694.07393
1569253694.08955
1569253694.10518
1569253694.1208
1569253694.13643
1569253694.15205
1569253694.16768
1569253694.18331
1569253694.19893
1569253694.21456
1569253694.23018
1569253694.24581
1569253694.26143
1569253694.27706
1569253694.29269
1569253694.30831
1569253694.32394
1569253694.33956
1569253694.35519
1569253694.37081
1569253694.38644
1569253694.40207
1569253694.41769
1569253694.43332
1569253694.44894
1569253694.46457
1569253694.48019
1569253694.49582
1569253694.51145
1569253694.52707
1569253694.5427
1569253694.55832
1569253694.57395
1569253694.58957
1569253694.6052
1569253694.62083
1569253694.63645
1569253694.65208
1569253694.6677
1569253694.68333
1569253694.69895
1569253694.71458
1569253694.73021
1569253694.74583
1569253694.76146
1569253694.77708
1569253694.79271
1569253694.80833
1569253694.82396
1569253694.83959
1569253694.85521
1569253694.87084
1569253694.88646
1569253694.90209
1569253694.91772
1569253694.93334
1569253694.94897
1569253694.96459
1569253694.98022
1569253694.99584
1569253695.01147
1569253695.0271
1569253695.04272
1569253695.05835
1569253695.07397
1569253695.0896
1569253695.10522
1569253695.12085
1569253695.13648
1569253695.1521
1569253695.16773
1569253695.18335
1569253695.19898
1569253695.2146
1569253695.23023
1569253695.24586
1569253695.26148
1569253695.27711
1569253695.29273
1569253695.30836
1569253695.32398
1569253695.33961
1569253695.35524
1569253695.37086
1569253695.38649
1569253695.40211
1569253695.41774
1569253695.43336
1569253695.44899
1569253695.46462
1569253695.48024
1569253695.49587
1569253695.51149
1569253695.52712
1569253695.54274
1569253695.55837
1569253695.574
1569253695.58962
1569253695.60525
1569253695.62087
1569253695.6365
1569253695.65212
1569253695.66775
1569253695.68338
1569253695.699
1569253695.71463
1569253695.73025
1569253695.74588
1569253695.7615
1569253695.77713
1569253695.79276
1569253695.80838
1569253695.82401
1569253695.83963
1569253695.85526
1569253695.87088
1569253695.88651
1569253695.90214
1569253695.91776
1569253695.93339
1569253695.94901
1569253695.96464
1569253695.98026
1569253695.99589
1569253696.01152
1569253696.02714
1569253696.04277
1569253696.05839
1569253696.07402
1569253696.08964
1569253696.10527
1569253696.1209
1569253696.13652
1569253696.15215
1569253696.16777
1569253696.1834
1569253696.19902
1569253696.21465
1569253696.23028
1569253696.2459
1569253696.26153
1569253696.27715
1569253696.29278
1569253696.3084
1569253696.32403
1569253696.33966
1569253696.35528
1569253696.37091
1569253696.38653
1569253696.40216
1569253696.41778
1569253696.43341
1569253696.44904
1569253696.46466
1569253696.48029
1569253696.49591
1569253696.51154
1569253696.52716
1569253696.54279
1569253696.55842
1569253696.57404
1569253696.58967
1569253696.60529
1569253696.62092
1569253696.63654
1569253696.65217
1569253696.6678
1569253696.68342
1569253696.69905
1569253696.71467
1569253696.7303
1569253696.74592
1569253696.76155
1569253696.77718
1569253696.7928
1569253696.80843
1569253696.82405
1569253696.83968
1569253696.8553
1569253696.87093
1569253696.88656
1569253696.90218
1569253696.91781
1569253696.93343
1569253696.94906
1569253696.96468
1569253696.98031
1569253696.99594
1569253697.01156
1569253697.02719
1569253697.04281
1569253697.05844
1569253697.07406
1569253697.08969
1569253697.10532
1569253697.12094
1569253697.13657
1569253697.15219
1569253697.16782
1569253697.18344
1569253697.19907
1569253697.2147
1569253697.23032
1569253697.24595
1569253697.26157
1569253697.2772
1569253697.29282
1569253697.30845
1569253697.32408
1569253697.3397
1569253697.35533
1569253697.37095
1569253697.38658
1569253697.4022
1569253697.41783
1569253697.43346
1569253697.44908
1569253697.46471
1569253697.48033
1569253697.49596
1569253697.51159
1569253697.52721
1569253697.54284
1569253697.55846
1569253697.57409
1569253697.58971
1569253697.60534
1569253697.62097
1569253697.63659
1569253697.65222
1569253697.66784
1569253697.68347
1569253697.69909
1569253697.71472
1569253697.73035
1569253697.74597
1569253697.7616
1569253697.77722
1569253697.79285
1569253697.80847
1569253697.8241
1569253697.83973
1569253697.85535
1569253697.87098
1569253697.8866
1569253697.90223
1569253697.91785
1569253697.93348
1569253697.94911
1569253697.96473
1569253697.98036
1569253697.99598
1569253698.01161
1569253698.02723
1569253698.04286
1569253698.05849
1569253698.07411
1569253698.08974
1569253698.10536
1569253698.12099
1569253698.13661
1569253698.15224
1569253698.16787
1569253698.18349
1569253698.19912
1569253698.21474
1569253698.23037
1569253698.24599
1569253698.26162
1569253698.27725
1569253698.29287
1569253698.3085
1569253698.32412
1569253698.33975
1569253698.35537
1569253698.371
1569253698.38663
1569253698.40225
1569253698.41788
1569253698.4335
1569253698.44913
1569253698.46475
1569253698.48038
1569253698.49601
1569253698.51163
1569253698.52726
1569253698.54288
1569253698.55851
1569253698.57413
1569253698.58976
1569253698.60539
1569253698.62101
1569253698.63664
1569253698.65226
1569253698.66789
1569253698.68351
1569253698.69914
1569253698.71477
1569253698.73039
1569253698.74602
1569253698.76164
1569253698.77727
1569253698.79289
1569253698.80852
1569253698.82415
1569253698.83977
1569253698.8554
1569253698.87102
1569253698.88665
1569253698.90227
1569253698.9179
1569253698.93353
1569253698.94915
1569253698.96478
1569253698.9804
1569253698.99603
1569253699.01165
1569253699.02728
1569253699.04291
1569253699.05853
1569253699.07416
1569253699.08978
1569253699.10541
1569253699.12103
1569253699.13666
1569253699.15229
1569253699.16791
1569253699.18354
1569253699.19916
1569253699.21479
1569253699.23041
1569253699.24604
1569253699.26167
1569253699.27729
1569253699.29292
1569253699.30854
1569253699.32417
1569253699.33979
1569253699.35542
1569253699.37105
1569253699.38667
1569253699.4023
1569253699.41792
1569253699.43355
1569253699.44917
1569253699.4648
1569253699.48043
1569253699.49605
1569253699.51168
1569253699.5273
1569253699.54293
1569253699.55855
1569253699.57418
1569253699.58981
1569253699.60543
1569253699.62106
1569253699.63668
1569253699.65231
1569253699.66793
1569253699.68356
1569253699.69919
1569253699.71481
1569253699.73044
1569253699.74606
1569253699.76169
1569253699.77732
1569253699.79294
1569253699.80857
1569253699.82419
1569253699.83982
1569253699.85544
1569253699.87107
1569253699.8867
1569253699.90232
1569253699.91795
1569253699.93357
1569253699.9492
1569253699.96482
1569253699.98045
1569253699.99608
1569253700.0117
1569253700.02733
1569253700.04295
1569253700.05858
1569253700.0742
1569253700.08983
1569253700.10546
1569253700.12108
1569253700.13671
1569253700.15233
1569253700.16796
1569253700.18358
1569253700.19921
1569253700.21484
1569253700.23046
1569253700.24609
1569253700.26171
1569253700.27734
1569253700.29296
1569253700.30859
1569253700.32422
1569253700.33984
1569253700.35547
1569253700.37109
1569253700.38672
1569253700.40234
1569253700.41797
1569253700.4336
1569253700.44922
1569253700.46485
1569253700.48047
1569253700.4961
1569253700.51172
1569253700.52735
1569253700.54298
1569253700.5586
1569253700.57423
1569253700.58985
1569253700.60548
1569253700.6211
1569253700.63673
1569253700.65236
1569253700.66798
1569253700.68361
1569253700.69923
1569253700.71486
1569253700.73048
1569253700.74611
1569253700.76174
1569253700.77736
1569253700.79299
1569253700.80861
1569253700.82424
1569253700.83986
1569253700.85549
1569253700.87112
1569253700.88674
1569253700.90237
1569253700.91799
1569253700.93362
1569253700.94924
1569253700.96487
1569253700.9805
1569253700.99612
1569253701.01175
1569253701.02737
1569253701.043
1569253701.05862
1569253701.07425
1569253701.08988
1569253701.1055
1569253701.12113
1569253701.13675
1569253701.15238
1569253701.168
1569253701.18363
1569253701.19926
1569253701.21488
1569253701.23051
1569253701.24613
1569253701.26176
1569253701.27738
1569253701.29301
1569253701.30864
1569253701.32426
1569253701.33989
1569253701.35551
1569253701.37114
1569253701.38676
1569253701.40239
1569253701.41802
1569253701.43364
1569253701.44927
1569253701.46489
1569253701.48052
1569253701.49614
1569253701.51177
1569253701.5274
1569253701.54302
1569253701.55865
1569253701.57427
1569253701.5899
1569253701.60552
1569253701.62115
1569253701.63678
1569253701.6524
1569253701.66803
1569253701.68365
1569253701.69928
1569253701.7149
1569253701.73053
1569253701.74616
1569253701.76178
1569253701.77741
1569253701.79303
1569253701.80866
1569253701.82428
1569253701.83991
1569253701.85554
1569253701.87116
1569253701.88679
1569253701.90241
1569253701.91804
1569253701.93366
1569253701.94929
1569253701.96492
1569253701.98054
1569253701.99617
1569253702.01179
1569253702.02742
1569253702.04305
1569253702.05867
1569253702.0743
1569253702.08992
1569253702.10555
1569253702.12117
1569253702.1368
1569253702.15243
1569253702.16805
1569253702.18368
1569253702.1993
1569253702.21493
1569253702.23055
1569253702.24618
1569253702.26181
1569253702.27743
1569253702.29306
1569253702.30868
1569253702.32431
1569253702.33993
1569253702.35556
1569253702.37119
1569253702.38681
1569253702.40244
1569253702.41806
1569253702.43369
1569253702.44931
1569253702.46494
1569253702.48057
1569253702.49619
1569253702.51182
1569253702.52744
1569253702.54307
1569253702.55869
1569253702.57432
1569253702.58995
1569253702.60557
1569253702.6212
1569253702.63682
1569253702.65245
1569253702.66807
1569253702.6837
1569253702.69933
1569253702.71495
1569253702.73058
1569253702.7462
1569253702.76183
1569253702.77745
1569253702.79308
1569253702.80871
1569253702.82433
1569253702.83996
1569253702.85558
1569253702.87121
1569253702.88683
1569253702.90246
1569253702.91809
1569253702.93371
1569253702.94934
1569253702.96496
1569253702.98059
1569253702.99621
1569253703.01184
1569253703.02747
1569253703.04309
1569253703.05872
1569253703.07434
1569253703.08997
1569253703.10559
1569253703.12122
1569253703.13685
1569253703.15247
1569253703.1681
1569253703.18372
1569253703.19935
1569253703.21497
1569253703.2306
1569253703.24623
1569253703.26185
1569253703.27748
1569253703.2931
1569253703.30873
1569253703.32435
1569253703.33998
1569253703.35561
1569253703.37123
1569253703.38686
1569253703.40248
1569253703.41811
1569253703.43373
1569253703.44936
1569253703.46499
1569253703.48061
1569253703.49624
1569253703.51186
1569253703.52749
1569253703.54311
1569253703.55874
1569253703.57437
1569253703.58999
1569253703.60562
1569253703.62124
1569253703.63687
1569253703.65249
1569253703.66812
1569253703.68375
1569253703.69937
1569253703.715
1569253703.73062
1569253703.74625
1569253703.76187
1569253703.7775
1569253703.79313
1569253703.80875
1569253703.82438
1569253703.84
1569253703.85563
1569253703.87125
1569253703.88688
1569253703.90251
1569253703.91813
1569253703.93376
1569253703.94938
1569253703.96501
1569253703.98063
1569253703.99626
1569253704.01189
1569253704.02751
1569253704.04314
1569253704.05876
1569253704.07439
1569253704.09001
1569253704.10564
1569253704.12127
1569253704.13689
1569253704.15252
1569253704.16814
1569253704.18377
1569253704.19939
1569253704.21502
1569253704.23065
1569253704.24627
1569253704.2619
1569253704.27752
1569253704.29315
1569253704.30877
1569253704.3244
1569253704.34003
1569253704.35565
1569253704.37128
1569253704.3869
1569253704.40253
1569253704.41815
1569253704.43378
1569253704.44941
1569253704.46503
1569253704.48066
1569253704.49628
1569253704.51191
1569253704.52753
1569253704.54316
1569253704.55879
1569253704.57441
1569253704.59004
1569253704.60566
1569253704.62129
1569253704.63692
1569253704.65254
1569253704.66817
1569253704.68379
1569253704.69942
1569253704.71504
1569253704.73067
1569253704.7463
1569253704.76192
1569253704.77755
1569253704.79317
1569253704.8088
1569253704.82442
1569253704.84005
1569253704.85568
1569253704.8713
1569253704.88693
1569253704.90255
1569253704.91818
1569253704.9338
1569253704.94943
1569253704.96506
1569253704.98068
1569253704.99631
1569253705.01193
1569253705.02756
1569253705.04318
1569253705.05881
1569253705.07444
1569253705.09006
1569253705.10569
1569253705.12131
1569253705.13694
1569253705.15256
1569253705.16819
1569253705.18382
1569253705.19944
1569253705.21507
1569253705.23069
1569253705.24632
1569253705.26194
1569253705.27757
1569253705.2932
1569253705.30882
1569253705.32445
1569253705.34007
1569253705.3557
1569253705.37132
1569253705.38695
1569253705.40258
1569253705.4182
1569253705.43383
1569253705.44945
1569253705.46508
1569253705.4807
1569253705.49633
1569253705.51196
1569253705.52758
1569253705.54321
1569253705.55883
1569253705.57446
1569253705.59008
1569253705.60571
1569253705.62134
1569253705.63696
1569253705.65259
1569253705.66821
1569253705.68384
1569253705.69946
1569253705.71509
1569253705.73072
1569253705.74634
1569253705.76197
1569253705.77759
1569253705.79322
1569253705.80884
1569253705.82447
1569253705.8401
1569253705.85572
1569253705.87135
1569253705.88697
1569253705.9026
1569253705.91822
1569253705.93385
1569253705.94948
1569253705.9651
1569253705.98073
1569253705.99635
1569253706.01198
1569253706.0276
1569253706.04323
1569253706.05886
1569253706.07448
1569253706.09011
1569253706.10573
1569253706.12136
1569253706.13698
1569253706.15261
1569253706.16824
1569253706.18386
1569253706.19949
1569253706.21511
1569253706.23074
1569253706.24636
1569253706.26199
1569253706.27762
1569253706.29324
1569253706.30887
1569253706.32449
1569253706.34012
1569253706.35574
1569253706.37137
1569253706.387
1569253706.40262
1569253706.41825
1569253706.43387
1569253706.4495
1569253706.46512
1569253706.48075
1569253706.49638
1569253706.512
1569253706.52763
1569253706.54325
1569253706.55888
1569253706.5745
1569253706.59013
1569253706.60576
1569253706.62138
1569253706.63701
1569253706.65263
1569253706.66826
1569253706.68388
1569253706.69951
1569253706.71514
1569253706.73076
1569253706.74639
1569253706.76201
1569253706.77764
1569253706.79326
1569253706.80889
1569253706.82452
1569253706.84014
1569253706.85577
1569253706.87139
1569253706.88702
1569253706.90265
1569253706.91827
1569253706.9339
1569253706.94952
1569253706.96515
1569253706.98077
1569253706.9964
1569253707.01203
1569253707.02765
1569253707.04328
1569253707.0589
1569253707.07453
1569253707.09015
1569253707.10578
1569253707.12141
1569253707.13703
1569253707.15266
1569253707.16828
1569253707.18391
1569253707.19953
1569253707.21516
1569253707.23079
1569253707.24641
1569253707.26204
1569253707.27766
1569253707.29329
1569253707.30891
1569253707.32454
1569253707.34017
1569253707.35579
1569253707.37142
1569253707.38704
1569253707.40267
1569253707.41829
1569253707.43392
1569253707.44955
1569253707.46517
1569253707.4808
1569253707.49642
1569253707.51205
1569253707.52767
1569253707.5433
1569253707.55893
1569253707.57455
1569253707.59018
1569253707.6058
1569253707.62143
1569253707.63705
1569253707.65268
1569253707.66831
1569253707.68393
1569253707.69956
1569253707.71518
1569253707.73081
1569253707.74643
1569253707.76206
1569253707.77769
1569253707.79331
1569253707.80894
1569253707.82456
1569253707.84019
1569253707.85581
1569253707.87144
1569253707.88707
1569253707.90269
1569253707.91832
1569253707.93394
1569253707.94957
1569253707.96519
1569253707.98082
1569253707.99645
1569253708.01207
1569253708.0277
1569253708.04332
1569253708.05895
1569253708.07457
1569253708.0902
1569253708.10583
1569253708.12145
1569253708.13708
1569253708.1527
1569253708.16833
1569253708.18395
1569253708.19958
1569253708.21521
1569253708.23083
1569253708.24646
1569253708.26208
1569253708.27771
1569253708.29333
1569253708.30896
1569253708.32459
1569253708.34021
1569253708.35584
1569253708.37146
1569253708.38709
1569253708.40271
1569253708.41834
1569253708.43397
1569253708.44959
1569253708.46522
1569253708.48084
1569253708.49647
1569253708.51209
1569253708.52772
1569253708.54335
1569253708.55897
1569253708.5746
1569253708.59022
1569253708.60585
1569253708.62147
1569253708.6371
1569253708.65273
1569253708.66835
1569253708.68398
1569253708.6996
1569253708.71523
1569253708.73085
1569253708.74648
1569253708.76211
1569253708.77773
1569253708.79336
1569253708.80898
1569253708.82461
1569253708.84023
1569253708.85586
1569253708.87149
1569253708.88711
1569253708.90274
1569253708.91836
1569253708.93399
1569253708.94961
1569253708.96524
1569253708.98087
1569253708.99649
1569253709.01212
1569253709.02774
1569253709.04337
1569253709.059
1569253709.07462
1569253709.09025
1569253709.10587
1569253709.1215
1569253709.13712
1569253709.15275
1569253709.16838
1569253709.184
1569253709.19963
1569253709.21525
1569253709.23088
1569253709.2465
1569253709.26213
1569253709.27776
1569253709.29338
1569253709.30901
1569253709.32463
1569253709.34026
1569253709.35588
1569253709.37151
1569253709.38714
1569253709.40276
1569253709.41839
1569253709.43401
1569253709.44964
1569253709.46526
1569253709.48089
1569253709.49652
1569253709.51214
1569253709.52777
1569253709.54339
1569253709.55902
1569253709.57464
1569253709.59027
1569253709.6059
1569253709.62152
1569253709.63715
1569253709.65277
1569253709.6684
1569253709.68402
1569253709.69965
1569253709.71528
1569253709.7309
1569253709.74653
1569253709.76215
1569253709.77778
1569253709.7934
1569253709.80903
1569253709.82466
1569253709.84028
1569253709.85591
1569253709.87153
1569253709.88716
1569253709.90278
1569253709.91841
1569253709.93404
1569253709.94966
1569253709.96529
1569253709.98091
1569253709.99654
1569253710.01216
1569253710.02779
1569253710.04342
1569253710.05904
1569253710.07467
1569253710.09029
1569253710.10592
1569253710.12154
1569253710.13717
1569253710.1528
1569253710.16842
1569253710.18405
1569253710.19967
1569253710.2153
1569253710.23092
1569253710.24655
1569253710.26218
1569253710.2778
1569253710.29343
1569253710.30905
1569253710.32468
1569253710.3403
1569253710.35593
1569253710.37156
1569253710.38718
1569253710.40281
1569253710.41843
1569253710.43406
1569253710.44968
1569253710.46531
1569253710.48094
1569253710.49656
1569253710.51219
1569253710.52781
1569253710.54344
1569253710.55906
1569253710.57469
1569253710.59032
1569253710.60594
1569253710.62157
1569253710.63719
1569253710.65282
1569253710.66844
1569253710.68407
1569253710.6997
1569253710.71532
1569253710.73095
1569253710.74657
1569253710.7622
1569253710.77782
1569253710.79345
1569253710.80908
1569253710.8247
1569253710.84033
1569253710.85595
1569253710.87158
1569253710.8872
1569253710.90283
1569253710.91846
1569253710.93408
1569253710.94971
1569253710.96533
1569253710.98096
1569253710.99658
1569253711.01221
1569253711.02784
1569253711.04346
1569253711.05909
1569253711.07471
1569253711.09034
1569253711.10596
1569253711.12159
1569253711.13722
1569253711.15284
1569253711.16847
1569253711.18409
1569253711.19972
1569253711.21534
1569253711.23097
1569253711.2466
1569253711.26222
1569253711.27785
1569253711.29347
1569253711.3091
1569253711.32472
1569253711.34035
1569253711.35598
1569253711.3716
1569253711.38723
1569253711.40285
1569253711.41848
1569253711.4341
1569253711.44973
1569253711.46536
1569253711.48098
1569253711.49661
1569253711.51223
1569253711.52786
1569253711.54348
1569253711.55911
1569253711.57474
1569253711.59036
1569253711.60599
1569253711.62161
1569253711.63724
1569253711.65286
1569253711.66849
1569253711.68412
1569253711.69974
1569253711.71537
1569253711.73099
1569253711.74662
1569253711.76225
1569253711.77787
1569253711.7935
1569253711.80912
1569253711.82475
1569253711.84037
1569253711.856
1569253711.87163
1569253711.88725
1569253711.90288
1569253711.9185
1569253711.93413
1569253711.94975
1569253711.96538
1569253711.98101
1569253711.99663
1569253712.01226
1569253712.02788
1569253712.04351
1569253712.05913
1569253712.07476
1569253712.09039
1569253712.10601
1569253712.12164
1569253712.13726
1569253712.15289
1569253712.16851
1569253712.18414
1569253712.19977
1569253712.21539
1569253712.23102
1569253712.24664
1569253712.26227
1569253712.27789
1569253712.29352
1569253712.30915
1569253712.32477
1569253712.3404
1569253712.35602
1569253712.37165
1569253712.38727
1569253712.4029
1569253712.41853
1569253712.43415
1569253712.44978
1569253712.4654
1569253712.48103
1569253712.49665
1569253712.51228
1569253712.52791
1569253712.54353
1569253712.55916
1569253712.57478
1569253712.59041
1569253712.60603
1569253712.62166
1569253712.63729
1569253712.65291
1569253712.66854
1569253712.68416
1569253712.69979
1569253712.71541
1569253712.73104
1569253712.74667
1569253712.76229
1569253712.77792
1569253712.79354
1569253712.80917
1569253712.82479
1569253712.84042
1569253712.85605
1569253712.87167
1569253712.8873
1569253712.90292
1569253712.91855
1569253712.93417
1569253712.9498
1569253712.96543
1569253712.98105
1569253712.99668
1569253713.0123
1569253713.02793
1569253713.04355
1569253713.05918
1569253713.07481
1569253713.09043
1569253713.10606
1569253713.12168
1569253713.13731
1569253713.15293
1569253713.16856
1569253713.18419
1569253713.19981
1569253713.21544
1569253713.23106
1569253713.24669
1569253713.26231
1569253713.27794
1569253713.29357
1569253713.30919
1569253713.32482
1569253713.34044
1569253713.35607
1569253713.37169
1569253713.38732
1569253713.40295
1569253713.41857
1569253713.4342
1569253713.44982
1569253713.46545
1569253713.48107
1569253713.4967
1569253713.51233
1569253713.52795
1569253713.54358
1569253713.5592
1569253713.57483
1569253713.59045
1569253713.60608
1569253713.62171
1569253713.63733
1569253713.65296
1569253713.66858
1569253713.68421
1569253713.69983
1569253713.71546
1569253713.73109
1569253713.74671
1569253713.76234
1569253713.77796
1569253713.79359
1569253713.80921
1569253713.82484
1569253713.84047
1569253713.85609
1569253713.87172
1569253713.88734
1569253713.90297
1569253713.9186
1569253713.93422
1569253713.94985
1569253713.96547
1569253713.9811
1569253713.99672
1569253714.01235
1569253714.02798
1569253714.0436
1569253714.05923
1569253714.07485
1569253714.09048
1569253714.1061
1569253714.12173
1569253714.13736
1569253714.15298
1569253714.16861
1569253714.18423
1569253714.19986
1569253714.21548
1569253714.23111
1569253714.24674
1569253714.26236
1569253714.27799
1569253714.29361
1569253714.30924
1569253714.32486
1569253714.34049
1569253714.35612
1569253714.37174
1569253714.38737
1569253714.40299
1569253714.41862
1569253714.43424
1569253714.44987
1569253714.4655
1569253714.48112
1569253714.49675
1569253714.51237
1569253714.528
1569253714.54362
1569253714.55925
1569253714.57488
1569253714.5905
1569253714.60613
1569253714.62175
1569253714.63738
1569253714.653
1569253714.66863
1569253714.68426
1569253714.69988
1569253714.71551
1569253714.73113
1569253714.74676
1569253714.76238
1569253714.77801
1569253714.79364
1569253714.80926
1569253714.82489
1569253714.84051
1569253714.85614
1569253714.87176
1569253714.88739
1569253714.90302
1569253714.91864
1569253714.93427
1569253714.94989
1569253714.96552
1569253714.98114
1569253714.99677
1569253715.0124
1569253715.02802
1569253715.04365
1569253715.05927
1569253715.0749
1569253715.09052
1569253715.10615
1569253715.12178
1569253715.1374
1569253715.15303
1569253715.16865
1569253715.18428
1569253715.1999
1569253715.21553
1569253715.23116
1569253715.24678
1569253715.26241
1569253715.27803
1569253715.29366
1569253715.30928
1569253715.32491
1569253715.34054
1569253715.35616
1569253715.37179
1569253715.38741
1569253715.40304
1569253715.41866
1569253715.43429
1569253715.44992
1569253715.46554
1569253715.48117
1569253715.49679
1569253715.51242
1569253715.52804
1569253715.54367
1569253715.5593
1569253715.57492
1569253715.59055
1569253715.60617
1569253715.6218
1569253715.63742
1569253715.65305
1569253715.66868
1569253715.6843
1569253715.69993
1569253715.71555
1569253715.73118
1569253715.7468
1569253715.76243
1569253715.77806
1569253715.79368
1569253715.80931
1569253715.82493
1569253715.84056
1569253715.85618
1569253715.87181
1569253715.88744
1569253715.90306
1569253715.91869
1569253715.93431
1569253715.94994
1569253715.96556
1569253715.98119
1569253715.99682
1569253716.01244
1569253716.02807
1569253716.04369
1569253716.05932
1569253716.07494
1569253716.09057
1569253716.1062
1569253716.12182
1569253716.13745
1569253716.15307
1569253716.1687
1569253716.18432
1569253716.19995
1569253716.21558
1569253716.2312
1569253716.24683
1569253716.26245
1569253716.27808
1569253716.2937
1569253716.30933
1569253716.32496
1569253716.34058
1569253716.35621
1569253716.37183
1569253716.38746
1569253716.40308
1569253716.41871
1569253716.43434
1569253716.44996
1569253716.46559
1569253716.48121
1569253716.49684
1569253716.51247
1569253716.52809
1569253716.54372
1569253716.55934
1569253716.57497
1569253716.59059
1569253716.60622
1569253716.62185
1569253716.63747
1569253716.6531
1569253716.66872
1569253716.68435
1569253716.69997
1569253716.7156
1569253716.73123
1569253716.74685
1569253716.76248
1569253716.7781
1569253716.79373
1569253716.80935
1569253716.82498
1569253716.84061
1569253716.85623
1569253716.87186
1569253716.88748
1569253716.90311
1569253716.91873
1569253716.93436
1569253716.94999
1569253716.96561
1569253716.98124
1569253716.99686
1569253717.01249
1569253717.02811
1569253717.04374
1569253717.05937
1569253717.07499
1569253717.09062
1569253717.10624
1569253717.12187
1569253717.13749
1569253717.15312
1569253717.16875
1569253717.18437
1569253717.2
1569253717.21562
1569253717.23125
1569253717.24687
1569253717.2625
1569253717.27813
1569253717.29375
1569253717.30938
1569253717.325
1569253717.34063
1569253717.35625
1569253717.37188
1569253717.38751
1569253717.40313
1569253717.41876
1569253717.43438
1569253717.45001
1569253717.46563
1569253717.48126
1569253717.49689
1569253717.51251
1569253717.52814
1569253717.54376
1569253717.55939
1569253717.57501
1569253717.59064
1569253717.60627
1569253717.62189
1569253717.63752
1569253717.65314
1569253717.66877
1569253717.68439
1569253717.70002
1569253717.71565
1569253717.73127
1569253717.7469
1569253717.76252
1569253717.77815
1569253717.79377
1569253717.8094
1569253717.82503
1569253717.84065
1569253717.85628
1569253717.8719
1569253717.88753
1569253717.90315
1569253717.91878
1569253717.93441
1569253717.95003
1569253717.96566
1569253717.98128
1569253717.99691
1569253718.01253
1569253718.02816
1569253718.04379
1569253718.05941
1569253718.07504
1569253718.09066
1569253718.10629
1569253718.12191
1569253718.13754
1569253718.15317
1569253718.16879
1569253718.18442
1569253718.20004
1569253718.21567
1569253718.23129
1569253718.24692
1569253718.26255
1569253718.27817
1569253718.2938
1569253718.30942
1569253718.32505
1569253718.34067
1569253718.3563
1569253718.37193
1569253718.38755
1569253718.40318
1569253718.4188
1569253718.43443
1569253718.45005
1569253718.46568
1569253718.48131
1569253718.49693
1569253718.51256
1569253718.52818
1569253718.54381
1569253718.55943
1569253718.57506
1569253718.59069
1569253718.60631
1569253718.62194
1569253718.63756
1569253718.65319
1569253718.66881
1569253718.68444
1569253718.70007
1569253718.71569
1569253718.73132
1569253718.74694
1569253718.76257
1569253718.7782
1569253718.79382
1569253718.80945
1569253718.82507
1569253718.8407
1569253718.85632
1569253718.87195
1569253718.88758
1569253718.9032
1569253718.91883
1569253718.93445
1569253718.95008
1569253718.9657
1569253718.98133
1569253718.99696
1569253719.01258
1569253719.02821
1569253719.04383
1569253719.05946
1569253719.07508
1569253719.09071
1569253719.10634
1569253719.12196
1569253719.13759
1569253719.15321
1569253719.16884
1569253719.18446
1569253719.20009
1569253719.21572
1569253719.23134
1569253719.24697
1569253719.26259
1569253719.27822
1569253719.29384
1569253719.30947
1569253719.3251
1569253719.34072
1569253719.35635
1569253719.37197
1569253719.3876
1569253719.40322
1569253719.41885
1569253719.43448
1569253719.4501
1569253719.46573
1569253719.48135
1569253719.49698
1569253719.5126
1569253719.52823
1569253719.54386
1569253719.55948
1569253719.57511
1569253719.59073
1569253719.60636
1569253719.62198
1569253719.63761
1569253719.65324
1569253719.66886
1569253719.68449
1569253719.70011
1569253719.71574
1569253719.73136
1569253719.74699
1569253719.76262
1569253719.77824
1569253719.79387
1569253719.80949
1569253719.82512
1569253719.84074
1569253719.85637
1569253719.872
1569253719.88762
1569253719.90325
1569253719.91887
1569253719.9345
1569253719.95012
1569253719.96575
1569253719.98138
1569253719.997
1569253720.01263
1569253720.02825
1569253720.04388
1569253720.0595
1569253720.07513
1569253720.09076
1569253720.10638
1569253720.12201
1569253720.13763
1569253720.15326
1569253720.16888
1569253720.18451
1569253720.20014
1569253720.21576
1569253720.23139
1569253720.24701
1569253720.26264
1569253720.27826
1569253720.29389
1569253720.30952
1569253720.32514
1569253720.34077
1569253720.35639
1569253720.37202
1569253720.38764
1569253720.40327
1569253720.4189
1569253720.43452
1569253720.45015
1569253720.46577
1569253720.4814
1569253720.49702
1569253720.51265
1569253720.52828
1569253720.5439
1569253720.55953
1569253720.57515
1569253720.59078
1569253720.6064
1569253720.62203
1569253720.63766
1569253720.65328
1569253720.66891
1569253720.68453
1569253720.70016
1569253720.71578
1569253720.73141
1569253720.74704
1569253720.76266
1569253720.77829
1569253720.79391
1569253720.80954
1569253720.82516
1569253720.84079
1569253720.85642
1569253720.87204
1569253720.88767
1569253720.90329
1569253720.91892
1569253720.93454
1569253720.95017
1569253720.9658
1569253720.98142
1569253720.99705
1569253721.01267
1569253721.0283
1569253721.04393
1569253721.05955
1569253721.07518
1569253721.0908
1569253721.10643
1569253721.12205
1569253721.13768
1569253721.15331
1569253721.16893
1569253721.18456
1569253721.20018
1569253721.21581
1569253721.23143
1569253721.24706
1569253721.26269
1569253721.27831
1569253721.29394
1569253721.30956
1569253721.32519
1569253721.34081
1569253721.35644
1569253721.37207
1569253721.38769
1569253721.40332
1569253721.41894
1569253721.43457
1569253721.45019
1569253721.46582
1569253721.48145
1569253721.49707
1569253721.5127
1569253721.52832
1569253721.54395
1569253721.55957
1569253721.5752
1569253721.59083
1569253721.60645
1569253721.62208
1569253721.6377
1569253721.65333
1569253721.66895
1569253721.68458
1569253721.70021
1569253721.71583
1569253721.73146
1569253721.74708
1569253721.76271
1569253721.77833
1569253721.79396
1569253721.80959
1569253721.82521
1569253721.84084
1569253721.85646
1569253721.87209
1569253721.88771
1569253721.90334
1569253721.91897
1569253721.93459
1569253721.95022
1569253721.96584
1569253721.98147
1569253721.99709
1569253722.01272
1569253722.02835
1569253722.04397
1569253722.0596
1569253722.07522
1569253722.09085
1569253722.10647
1569253722.1221
1569253722.13773
1569253722.15335
1569253722.16898
1569253722.1846
1569253722.20023
1569253722.21585
1569253722.23148
1569253722.24711
1569253722.26273
1569253722.27836
1569253722.29398
1569253722.30961
1569253722.32523
1569253722.34086
1569253722.35649
1569253722.37211
1569253722.38774
1569253722.40336
1569253722.41899
1569253722.43461
1569253722.45024
1569253722.46587
1569253722.48149
1569253722.49712
1569253722.51274
1569253722.52837
1569253722.54399
1569253722.55962
1569253722.57525
1569253722.59087
1569253722.6065
1569253722.62212
1569253722.63775
1569253722.65337
1569253722.669
1569253722.68463
1569253722.70025
1569253722.71588
1569253722.7315
1569253722.74713
1569253722.76275
1569253722.77838
1569253722.79401
1569253722.80963
1569253722.82526
1569253722.84088
1569253722.85651
1569253722.87213
1569253722.88776
1569253722.90339
1569253722.91901
1569253722.93464
1569253722.95026
1569253722.96589
1569253722.98151
1569253722.99714
1569253723.01277
1569253723.02839
1569253723.04402
1569253723.05964
1569253723.07527
1569253723.09089
1569253723.10652
1569253723.12215
1569253723.13777
1569253723.1534
1569253723.16902
1569253723.18465
1569253723.20027
1569253723.2159
1569253723.23153
1569253723.24715
1569253723.26278
1569253723.2784
1569253723.29403
1569253723.30965
1569253723.32528
1569253723.34091
1569253723.35653
1569253723.37216
1569253723.38778
1569253723.40341
1569253723.41903
1569253723.43466
1569253723.45029
1569253723.46591
1569253723.48154
1569253723.49716
1569253723.51279
1569253723.52841
1569253723.54404
1569253723.55967
1569253723.57529
1569253723.59092
1569253723.60654
1569253723.62217
1569253723.6378
1569253723.65342
1569253723.66905
1569253723.68467
1569253723.7003
1569253723.71592
1569253723.73155
1569253723.74718
1569253723.7628
1569253723.77843
1569253723.79405
1569253723.80968
1569253723.8253
1569253723.84093
1569253723.85656
1569253723.87218
1569253723.88781
1569253723.90343
1569253723.91906
1569253723.93468
1569253723.95031
1569253723.96594
1569253723.98156
1569253723.99719
1569253724.01281
1569253724.02844
1569253724.04406
1569253724.05969
1569253724.07532
1569253724.09094
1569253724.10657
1569253724.12219
1569253724.13782
1569253724.15344
1569253724.16907
1569253724.1847
1569253724.20032
1569253724.21595
1569253724.23157
1569253724.2472
1569253724.26282
1569253724.27845
1569253724.29408
1569253724.3097
1569253724.32533
1569253724.34095
1569253724.35658
1569253724.3722
1569253724.38783
1569253724.40346
1569253724.41908
1569253724.43471
1569253724.45033
1569253724.46596
1569253724.48158
1569253724.49721
1569253724.51284
1569253724.52846
1569253724.54409
1569253724.55971
1569253724.57534
1569253724.59096
1569253724.60659
1569253724.62222
1569253724.63784
1569253724.65347
1569253724.66909
1569253724.68472
1569253724.70034
1569253724.71597
1569253724.7316
1569253724.74722
1569253724.76285
1569253724.77847
1569253724.7941
1569253724.80972
1569253724.82535
1569253724.84098
1569253724.8566
1569253724.87223
1569253724.88785
1569253724.90348
1569253724.9191
1569253724.93473
1569253724.95036
1569253724.96598
1569253724.98161
1569253724.99723
1569253725.01286
1569253725.02848
1569253725.04411
1569253725.05974
1569253725.07536
1569253725.09099
1569253725.10661
1569253725.12224
1569253725.13786
1569253725.15349
1569253725.16912
1569253725.18474
1569253725.20037
1569253725.21599
1569253725.23162
1569253725.24724
1569253725.26287
1569253725.2785
1569253725.29412
1569253725.30975
1569253725.32537
1569253725.341
1569253725.35662
1569253725.37225
1569253725.38788
1569253725.4035
1569253725.41913
1569253725.43475
1569253725.45038
1569253725.466
1569253725.48163
1569253725.49726
1569253725.51288
1569253725.52851
1569253725.54413
1569253725.55976
1569253725.57538
1569253725.59101
1569253725.60664
1569253725.62226
1569253725.63789
1569253725.65351
1569253725.66914
1569253725.68476
1569253725.70039
1569253725.71602
1569253725.73164
1569253725.74727
1569253725.76289
1569253725.77852
1569253725.79414
1569253725.80977
1569253725.8254
1569253725.84102
1569253725.85665
1569253725.87227
1569253725.8879
1569253725.90353
1569253725.91915
1569253725.93478
1569253725.9504
1569253725.96603
1569253725.98165
1569253725.99728
1569253726.01291
1569253726.02853
1569253726.04416
1569253726.05978
1569253726.07541
1569253726.09103
1569253726.10666
1569253726.12229
1569253726.13791
1569253726.15354
1569253726.16916
1569253726.18479
1569253726.20041
1569253726.21604
1569253726.23167
1569253726.24729
1569253726.26292
1569253726.27854
1569253726.29417
1569253726.30979
1569253726.32542
1569253726.34105
1569253726.35667
1569253726.3723
1569253726.38792
1569253726.40355
1569253726.41917
1569253726.4348
1569253726.45043
1569253726.46605
1569253726.48168
1569253726.4973
1569253726.51293
1569253726.52855
1569253726.54418
1569253726.55981
1569253726.57543
1569253726.59106
1569253726.60668
1569253726.62231
1569253726.63793
1569253726.65356
1569253726.66919
1569253726.68481
1569253726.70044
1569253726.71606
1569253726.73169
1569253726.74731
1569253726.76294
1569253726.77857
1569253726.79419
1569253726.80982
1569253726.82544
1569253726.84107
1569253726.85669
1569253726.87232
1569253726.88795
1569253726.90357
1569253726.9192
1569253726.93482
1569253726.95045
1569253726.96607
1569253726.9817
1569253726.99733
1569253727.01295
1569253727.02858
1569253727.0442
1569253727.05983
1569253727.07545
1569253727.09108
1569253727.10671
1569253727.12233
1569253727.13796
1569253727.15358
1569253727.16921
1569253727.18483
1569253727.20046
1569253727.21609
1569253727.23171
1569253727.24734
1569253727.26296
1569253727.27859
1569253727.29421
1569253727.30984
1569253727.32547
1569253727.34109
1569253727.35672
1569253727.37234
1569253727.38797
1569253727.40359
1569253727.41922
1569253727.43485
1569253727.45047
1569253727.4661
1569253727.48172
1569253727.49735
1569253727.51297
1569253727.5286
1569253727.54423
1569253727.55985
1569253727.57548
1569253727.5911
1569253727.60673
1569253727.62235
1569253727.63798
1569253727.65361
1569253727.66923
1569253727.68486
1569253727.70048
1569253727.71611
1569253727.73173
1569253727.74736
1569253727.76299
1569253727.77861
1569253727.79424
1569253727.80986
1569253727.82549
1569253727.84111
1569253727.85674
1569253727.87237
1569253727.88799
1569253727.90362
1569253727.91924
1569253727.93487
1569253727.95049
1569253727.96612
1569253727.98175
1569253727.99737
1569253728.013
1569253728.02862
1569253728.04425
1569253728.05988
1569253728.0755
1569253728.09113
1569253728.10675
1569253728.12238
1569253728.138
1569253728.15363
1569253728.16926
1569253728.18488
1569253728.20051
1569253728.21613
1569253728.23176
1569253728.24738
1569253728.26301
1569253728.27864
1569253728.29426
1569253728.30989
1569253728.32551
1569253728.34114
1569253728.35676
1569253728.37239
1569253728.38802
1569253728.40364
1569253728.41927
1569253728.43489
1569253728.45052
1569253728.46614
1569253728.48177
1569253728.4974
1569253728.51302
1569253728.52865
1569253728.54427
1569253728.5599
1569253728.57552
1569253728.59115
1569253728.60678
1569253728.6224
1569253728.63803
1569253728.65365
1569253728.66928
1569253728.6849
1569253728.70053
1569253728.71616
1569253728.73178
1569253728.74741
1569253728.76303
1569253728.77866
1569253728.79428
1569253728.80991
1569253728.82554
1569253728.84116
1569253728.85679
1569253728.87241
1569253728.88804
1569253728.90366
1569253728.91929
1569253728.93492
1569253728.95054
1569253728.96617
1569253728.98179
1569253728.99742
1569253729.01304
1569253729.02867
1569253729.0443
1569253729.05992
1569253729.07555
1569253729.09117
1569253729.1068
1569253729.12242
1569253729.13805
1569253729.15368
1569253729.1693
1569253729.18493
1569253729.20055
1569253729.21618
1569253729.2318
1569253729.24743
1569253729.26306
1569253729.27868
1569253729.29431
1569253729.30993
1569253729.32556
1569253729.34118
1569253729.35681
1569253729.37244
1569253729.38806
1569253729.40369
1569253729.41931
1569253729.43494
1569253729.45056
1569253729.46619
1569253729.48182
1569253729.49744
1569253729.51307
1569253729.52869
1569253729.54432
1569253729.55994
1569253729.57557
1569253729.5912
1569253729.60682
1569253729.62245
1569253729.63807
1569253729.6537
1569253729.66932
1569253729.68495
1569253729.70058
1569253729.7162
1569253729.73183
1569253729.74745
1569253729.76308
1569253729.7787
1569253729.79433
1569253729.80996
1569253729.82558
1569253729.84121
1569253729.85683
1569253729.87246
1569253729.88808
1569253729.90371
1569253729.91934
1569253729.93496
1569253729.95059
1569253729.96621
1569253729.98184
1569253729.99746
1569253730.01309
1569253730.02872
1569253730.04434
1569253730.05997
1569253730.07559
1569253730.09122
1569253730.10684
1569253730.12247
1569253730.1381
1569253730.15372
1569253730.16935
1569253730.18497
1569253730.2006
1569253730.21622
1569253730.23185
1569253730.24748
1569253730.2631
1569253730.27873
1569253730.29435
1569253730.30998
1569253730.3256
1569253730.34123
1569253730.35686
1569253730.37248
1569253730.38811
1569253730.40373
1569253730.41936
1569253730.43498
1569253730.45061
1569253730.46624
1569253730.48186
1569253730.49749
1569253730.51311
1569253730.52874
1569253730.54436
1569253730.55999
1569253730.57562
1569253730.59124
1569253730.60687
1569253730.62249
1569253730.63812
1569253730.65374
1569253730.66937
1569253730.685
1569253730.70062
1569253730.71625
1569253730.73187
1569253730.7475
1569253730.76313
1569253730.77875
1569253730.79438
1569253730.81
1569253730.82563
1569253730.84125
1569253730.85688
1569253730.87251
1569253730.88813
1569253730.90376
1569253730.91938
1569253730.93501
1569253730.95063
1569253730.96626
1569253730.98189
1569253730.99751
1569253731.01314
1569253731.02876
1569253731.04439
1569253731.06001
1569253731.07564
1569253731.09127
1569253731.10689
1569253731.12252
1569253731.13814
1569253731.15377
1569253731.16939
1569253731.18502
1569253731.20065
1569253731.21627
1569253731.2319
1569253731.24752
1569253731.26315
1569253731.27877
1569253731.2944
1569253731.31003
1569253731.32565
1569253731.34128
1569253731.3569
1569253731.37253
1569253731.38815
1569253731.40378
1569253731.41941
1569253731.43503
1569253731.45066
1569253731.46628
1569253731.48191
1569253731.49753
1569253731.51316
1569253731.52879
1569253731.54441
1569253731.56004
1569253731.57566
1569253731.59129
1569253731.60691
1569253731.62254
1569253731.63817
1569253731.65379
1569253731.66942
1569253731.68504
1569253731.70067
1569253731.71629
1569253731.73192
1569253731.74755
1569253731.76317
1569253731.7788
1569253731.79442
1569253731.81005
1569253731.82567
1569253731.8413
1569253731.85693
1569253731.87255
1569253731.88818
1569253731.9038
1569253731.91943
1569253731.93505
1569253731.95068
1569253731.96631
1569253731.98193
1569253731.99756
1569253732.01318
1569253732.02881
1569253732.04443
1569253732.06006
1569253732.07569
1569253732.09131
1569253732.10694
1569253732.12256
1569253732.13819
1569253732.15381
1569253732.16944
1569253732.18507
1569253732.20069
1569253732.21632
1569253732.23194
1569253732.24757
1569253732.26319
1569253732.27882
1569253732.29445
1569253732.31007
1569253732.3257
1569253732.34132
1569253732.35695
1569253732.37257
1569253732.3882
1569253732.40383
1569253732.41945
1569253732.43508
1569253732.4507
1569253732.46633
1569253732.48195
1569253732.49758
1569253732.51321
1569253732.52883
1569253732.54446
1569253732.56008
1569253732.57571
1569253732.59133
1569253732.60696
1569253732.62259
1569253732.63821
1569253732.65384
1569253732.66946
1569253732.68509
1569253732.70071
1569253732.71634
1569253732.73197
1569253732.74759
1569253732.76322
1569253732.77884
1569253732.79447
1569253732.81009
1569253732.82572
1569253732.84135
1569253732.85697
1569253732.8726
1569253732.88822
1569253732.90385
1569253732.91947
1569253732.9351
1569253732.95073
1569253732.96635
1569253732.98198
1569253732.9976
1569253733.01323
1569253733.02886
1569253733.04448
1569253733.06011
1569253733.07573
1569253733.09136
1569253733.10698
1569253733.12261
1569253733.13824
1569253733.15386
1569253733.16949
1569253733.18511
1569253733.20074
1569253733.21636
1569253733.23199
1569253733.24762
1569253733.26324
1569253733.27887
1569253733.29449
1569253733.31012
1569253733.32574
1569253733.34137
1569253733.357
1569253733.37262
1569253733.38825
1569253733.40387
1569253733.4195
1569253733.43512
1569253733.45075
1569253733.46638
1569253733.482
1569253733.49763
1569253733.51325
1569253733.52888
1569253733.5445
1569253733.56013
1569253733.57576
1569253733.59138
1569253733.60701
1569253733.62263
1569253733.63826
1569253733.65388
1569253733.66951
1569253733.68514
1569253733.70076
1569253733.71639
1569253733.73201
1569253733.74764
1569253733.76326
1569253733.77889
1569253733.79452
1569253733.81014
1569253733.82577
1569253733.84139
1569253733.85702
1569253733.87264
1569253733.88827
1569253733.9039
1569253733.91952
1569253733.93515
1569253733.95077
1569253733.9664
1569253733.98202
1569253733.99765
1569253734.01328
1569253734.0289
1569253734.04453
1569253734.06015
1569253734.07578
1569253734.0914
1569253734.10703
1569253734.12266
1569253734.13828
1569253734.15391
1569253734.16953
1569253734.18516
1569253734.20078
1569253734.21641
1569253734.23204
1569253734.24766
1569253734.26329
1569253734.27891
1569253734.29454
1569253734.31016
1569253734.32579
1569253734.34142
1569253734.35704
1569253734.37267
1569253734.38829
1569253734.40392
1569253734.41954
1569253734.43517
1569253734.4508
1569253734.46642
1569253734.48205
1569253734.49767
1569253734.5133
1569253734.52892
1569253734.54455
1569253734.56018
1569253734.5758
1569253734.59143
1569253734.60705
1569253734.62268
1569253734.6383
1569253734.65393
1569253734.66956
1569253734.68518
1569253734.70081
1569253734.71643
1569253734.73206
1569253734.74768
1569253734.76331
1569253734.77894
1569253734.79456
1569253734.81019
1569253734.82581
1569253734.84144
1569253734.85706
1569253734.87269
1569253734.88832
1569253734.90394
1569253734.91957
1569253734.93519
1569253734.95082
1569253734.96644
1569253734.98207
1569253734.9977
1569253735.01332
1569253735.02895
1569253735.04457
1569253735.0602
1569253735.07582
1569253735.09145
1569253735.10708
1569253735.1227
1569253735.13833
1569253735.15395
1569253735.16958
1569253735.1852
1569253735.20083
1569253735.21646
1569253735.23208
1569253735.24771
1569253735.26333
1569253735.27896
1569253735.29458
1569253735.31021
1569253735.32584
1569253735.34146
1569253735.35709
1569253735.37271
1569253735.38834
1569253735.40397
1569253735.41959
1569253735.43522
1569253735.45084
1569253735.46647
1569253735.48209
1569253735.49772
1569253735.51335
1569253735.52897
1569253735.5446
1569253735.56022
1569253735.57585
1569253735.59147
1569253735.6071
1569253735.62273
1569253735.63835
1569253735.65398
1569253735.6696
1569253735.68523
1569253735.70085
1569253735.71648
1569253735.73211
1569253735.74773
1569253735.76336
1569253735.77898
1569253735.79461
1569253735.81023
1569253735.82586
1569253735.84149
1569253735.85711
1569253735.87274
1569253735.88836
1569253735.90399
1569253735.91961
1569253735.93524
1569253735.95087
1569253735.96649
1569253735.98212
1569253735.99774
1569253736.01337
1569253736.02899
1569253736.04462
1569253736.06025
1569253736.07587
1569253736.0915
1569253736.10712
1569253736.12275
1569253736.13837
1569253736.154
1569253736.16963
1569253736.18525
1569253736.20088
1569253736.2165
1569253736.23213
1569253736.24775
1569253736.26338
1569253736.27901
1569253736.29463
1569253736.31026
1569253736.32588
1569253736.34151
1569253736.35713
1569253736.37276
1569253736.38839
1569253736.40401
1569253736.41964
1569253736.43526
1569253736.45089
1569253736.46651
1569253736.48214
1569253736.49777
1569253736.51339
1569253736.52902
1569253736.54464
1569253736.56027
1569253736.57589
1569253736.59152
1569253736.60715
1569253736.62277
1569253736.6384
1569253736.65402
1569253736.66965
1569253736.68527
1569253736.7009
1569253736.71653
1569253736.73215
1569253736.74778
1569253736.7634
1569253736.77903
1569253736.79465
1569253736.81028
1569253736.82591
1569253736.84153
1569253736.85716
1569253736.87278
1569253736.88841
1569253736.90403
1569253736.91966
1569253736.93529
1569253736.95091
1569253736.96654
1569253736.98216
1569253736.99779
1569253737.01341
1569253737.02904
1569253737.04467
1569253737.06029
1569253737.07592
1569253737.09154
1569253737.10717
1569253737.12279
1569253737.13842
1569253737.15405
1569253737.16967
1569253737.1853
1569253737.20092
1569253737.21655
1569253737.23217
1569253737.2478
1569253737.26343
1569253737.27905
1569253737.29468
1569253737.3103
1569253737.32593
1569253737.34155
1569253737.35718
1569253737.37281
1569253737.38843
1569253737.40406
1569253737.41968
1569253737.43531
1569253737.45093
1569253737.46656
1569253737.48219
1569253737.49781
1569253737.51344
1569253737.52906
1569253737.54469
1569253737.56031
1569253737.57594
1569253737.59157
1569253737.60719
1569253737.62282
1569253737.63844
1569253737.65407
1569253737.66969
1569253737.68532
1569253737.70095
1569253737.71657
1569253737.7322
1569253737.74782
1569253737.76345
1569253737.77907
1569253737.7947
1569253737.81033
1569253737.82595
1569253737.84158
1569253737.8572
1569253737.87283
1569253737.88846
1569253737.90408
1569253737.91971
1569253737.93533
1569253737.95096
1569253737.96658
1569253737.98221
1569253737.99784
1569253738.01346
1569253738.02909
1569253738.04471
1569253738.06034
1569253738.07596
1569253738.09159
1569253738.10722
1569253738.12284
1569253738.13847
1569253738.15409
1569253738.16972
1569253738.18534
1569253738.20097
1569253738.2166
1569253738.23222
1569253738.24785
1569253738.26347
1569253738.2791
1569253738.29472
1569253738.31035
1569253738.32598
1569253738.3416
1569253738.35723
1569253738.37285
1569253738.38848
1569253738.4041
1569253738.41973
1569253738.43536
1569253738.45098
1569253738.46661
1569253738.48223
1569253738.49786
1569253738.51348
1569253738.52911
1569253738.54474
1569253738.56036
1569253738.57599
1569253738.59161
1569253738.60724
1569253738.62286
1569253738.63849
1569253738.65412
1569253738.66974
1569253738.68537
1569253738.70099
1569253738.71662
1569253738.73224
1569253738.74787
1569253738.7635
1569253738.77912
1569253738.79475
1569253738.81037
1569253738.826
1569253738.84162
1569253738.85725
1569253738.87288
1569253738.8885
1569253738.90413
1569253738.91975
1569253738.93538
1569253738.951
1569253738.96663
1569253738.98226
1569253738.99788
1569253739.01351
1569253739.02913
1569253739.04476
1569253739.06038
1569253739.07601
1569253739.09164
1569253739.10726
1569253739.12289
1569253739.13851
1569253739.15414
1569253739.16976
1569253739.18539
1569253739.20102
1569253739.21664
1569253739.23227
1569253739.24789
1569253739.26352
1569253739.27914
1569253739.29477
1569253739.3104
1569253739.32602
1569253739.34165
1569253739.35727
1569253739.3729
1569253739.38852
1569253739.40415
1569253739.41978
1569253739.4354
1569253739.45103
1569253739.46665
1569253739.48228
1569253739.4979
1569253739.51353
1569253739.52916
1569253739.54478
1569253739.56041
1569253739.57603
1569253739.59166
1569253739.60728
1569253739.62291
1569253739.63854
1569253739.65416
1569253739.66979
1569253739.68541
1569253739.70104
1569253739.71666
1569253739.73229
1569253739.74792
1569253739.76354
1569253739.77917
1569253739.79479
1569253739.81042
1569253739.82604
1569253739.84167
1569253739.8573
1569253739.87292
1569253739.88855
1569253739.90417
1569253739.9198
1569253739.93542
1569253739.95105
1569253739.96668
1569253739.9823
1569253739.99793
1569253740.01355
1569253740.02918
1569253740.04481
1569253740.06043
1569253740.07606
1569253740.09168
1569253740.10731
1569253740.12293
1569253740.13856
1569253740.15419
1569253740.16981
1569253740.18544
1569253740.20106
1569253740.21669
1569253740.23231
1569253740.24794
1569253740.26357
1569253740.27919
1569253740.29482
1569253740.31044
1569253740.32607
1569253740.34169
1569253740.35732
1569253740.37295
1569253740.38857
1569253740.4042
1569253740.41982
1569253740.43545
1569253740.45107
1569253740.4667
1569253740.48233
1569253740.49795
1569253740.51358
1569253740.5292
1569253740.54483
1569253740.56045
1569253740.57608
1569253740.59171
1569253740.60733
1569253740.62296
1569253740.63858
1569253740.65421
1569253740.66983
1569253740.68546
1569253740.70109
1569253740.71671
1569253740.73234
1569253740.74796
1569253740.76359
1569253740.77921
1569253740.79484
1569253740.81047
1569253740.82609
1569253740.84172
1569253740.85734
1569253740.87297
1569253740.88859
1569253740.90422
1569253740.91985
1569253740.93547
1569253740.9511
1569253740.96672
1569253740.98235
1569253740.99797
1569253741.0136
1569253741.02923
1569253741.04485
1569253741.06048
1569253741.0761
1569253741.09173
1569253741.10735
1569253741.12298
1569253741.13861
1569253741.15423
1569253741.16986
1569253741.18548
1569253741.20111
1569253741.21673
1569253741.23236
1569253741.24799
1569253741.26361
1569253741.27924
1569253741.29486
1569253741.31049
1569253741.32611
1569253741.34174
1569253741.35737
1569253741.37299
1569253741.38862
1569253741.40424
1569253741.41987
1569253741.43549
1569253741.45112
1569253741.46675
1569253741.48237
1569253741.498
1569253741.51362
1569253741.52925
1569253741.54487
1569253741.5605
1569253741.57613
1569253741.59175
1569253741.60738
1569253741.623
1569253741.63863
1569253741.65425
1569253741.66988
1569253741.68551
1569253741.70113
1569253741.71676
1569253741.73238
1569253741.74801
1569253741.76363
1569253741.77926
1569253741.79489
1569253741.81051
1569253741.82614
1569253741.84176
1569253741.85739
1569253741.87301
1569253741.88864
1569253741.90427
1569253741.91989
1569253741.93552
1569253741.95114
1569253741.96677
1569253741.98239
1569253741.99802
1569253742.01365
1569253742.02927
1569253742.0449
1569253742.06052
1569253742.07615
1569253742.09177
1569253742.1074
1569253742.12303
1569253742.13865
1569253742.15428
1569253742.1699
1569253742.18553
1569253742.20115
1569253742.21678
1569253742.23241
1569253742.24803
1569253742.26366
1569253742.27928
1569253742.29491
1569253742.31053
1569253742.32616
1569253742.34179
1569253742.35741
1569253742.37304
1569253742.38866
1569253742.40429
1569253742.41991
1569253742.43554
1569253742.45117
1569253742.46679
1569253742.48242
1569253742.49804
1569253742.51367
1569253742.52929
1569253742.54492
1569253742.56055
1569253742.57617
1569253742.5918
1569253742.60742
1569253742.62305
1569253742.63867
1569253742.6543
1569253742.66993
1569253742.68555
1569253742.70118
1569253742.7168
1569253742.73243
1569253742.74806
1569253742.76368
1569253742.77931
1569253742.79493
1569253742.81056
1569253742.82618
1569253742.84181
1569253742.85744
1569253742.87306
1569253742.88869
1569253742.90431
1569253742.91994
1569253742.93556
1569253742.95119
1569253742.96682
1569253742.98244
1569253742.99807
1569253743.01369
1569253743.02932
1569253743.04494
1569253743.06057
1569253743.0762
1569253743.09182
1569253743.10745
1569253743.12307
1569253743.1387
1569253743.15432
1569253743.16995
1569253743.18558
1569253743.2012
1569253743.21683
1569253743.23245
1569253743.24808
1569253743.2637
1569253743.27933
1569253743.29496
1569253743.31058
1569253743.32621
1569253743.34183
1569253743.35746
1569253743.37308
1569253743.38871
1569253743.40434
1569253743.41996
1569253743.43559
1569253743.45121
1569253743.46684
1569253743.48246
1569253743.49809
1569253743.51372
1569253743.52934
1569253743.54497
1569253743.56059
1569253743.57622
1569253743.59184
1569253743.60747
1569253743.6231
1569253743.63872
1569253743.65435
1569253743.66997
1569253743.6856
1569253743.70122
1569253743.71685
1569253743.73248
1569253743.7481
1569253743.76373
1569253743.77935
1569253743.79498
1569253743.8106
1569253743.82623
1569253743.84186
1569253743.85748
1569253743.87311
1569253743.88873
1569253743.90436
1569253743.91998
1569253743.93561
1569253743.95124
1569253743.96686
1569253743.98249
1569253743.99811
1569253744.01374
1569253744.02936
1569253744.04499
1569253744.06062
1569253744.07624
1569253744.09187
1569253744.10749
1569253744.12312
1569253744.13874
1569253744.15437
1569253744.17
1569253744.18562
1569253744.20125
1569253744.21687
1569253744.2325
1569253744.24812
1569253744.26375
1569253744.27938
1569253744.295
1569253744.31063
1569253744.32625
1569253744.34188
1569253744.3575
1569253744.37313
1569253744.38876
1569253744.40438
1569253744.42001
1569253744.43563
1569253744.45126
1569253744.46688
1569253744.48251
1569253744.49814
1569253744.51376
1569253744.52939
1569253744.54501
1569253744.56064
1569253744.57626
1569253744.59189
1569253744.60752
1569253744.62314
1569253744.63877
1569253744.65439
1569253744.67002
1569253744.68564
1569253744.70127
1569253744.7169
1569253744.73252
1569253744.74815
1569253744.76377
1569253744.7794
1569253744.79502
1569253744.81065
1569253744.82628
1569253744.8419
1569253744.85753
1569253744.87315
1569253744.88878
1569253744.90441
1569253744.92003
1569253744.93566
1569253744.95128
1569253744.96691
1569253744.98253
1569253744.99816
1569253745.01379
1569253745.02941
1569253745.04504
1569253745.06066
1569253745.07629
1569253745.09191
1569253745.10754
1569253745.12317
1569253745.13879
1569253745.15442
1569253745.17004
1569253745.18567
1569253745.20129
1569253745.21692
1569253745.23255
1569253745.24817
1569253745.2638
1569253745.27942
1569253745.29505
1569253745.31067
1569253745.3263
1569253745.34193
1569253745.35755
1569253745.37318
1569253745.3888
1569253745.40443
1569253745.42005
1569253745.43568
1569253745.45131
1569253745.46693
1569253745.48256
1569253745.49818
1569253745.51381
1569253745.52943
1569253745.54506
1569253745.56069
1569253745.57631
1569253745.59194
1569253745.60756
1569253745.62319
1569253745.63881
1569253745.65444
1569253745.67007
1569253745.68569
1569253745.70132
1569253745.71694
1569253745.73257
1569253745.74819
1569253745.76382
1569253745.77945
1569253745.79507
1569253745.8107
1569253745.82632
1569253745.84195
1569253745.85757
1569253745.8732
1569253745.88883
1569253745.90445
1569253745.92008
1569253745.9357
1569253745.95133
1569253745.96695
1569253745.98258
1569253745.99821
1569253746.01383
1569253746.02946
1569253746.04508
1569253746.06071
1569253746.07633
1569253746.09196
1569253746.10759
1569253746.12321
1569253746.13884
1569253746.15446
1569253746.17009
1569253746.18571
1569253746.20134
1569253746.21697
1569253746.23259
1569253746.24822
1569253746.26384
1569253746.27947
1569253746.29509
1569253746.31072
1569253746.32635
1569253746.34197
1569253746.3576
1569253746.37322
1569253746.38885
1569253746.40447
1569253746.4201
1569253746.43573
1569253746.45135
1569253746.46698
1569253746.4826
1569253746.49823
1569253746.51385
1569253746.52948
1569253746.54511
1569253746.56073
1569253746.57636
1569253746.59198
1569253746.60761
1569253746.62323
1569253746.63886
1569253746.65449
1569253746.67011
1569253746.68574
1569253746.70136
1569253746.71699
1569253746.73261
1569253746.74824
1569253746.76387
1569253746.77949
1569253746.79512
1569253746.81074
1569253746.82637
1569253746.84199
1569253746.85762
1569253746.87325
1569253746.88887
1569253746.9045
1569253746.92012
1569253746.93575
1569253746.95137
1569253746.967
1569253746.98263
1569253746.99825
1569253747.01388
1569253747.0295
1569253747.04513
1569253747.06075
1569253747.07638
1569253747.09201
1569253747.10763
1569253747.12326
1569253747.13888
1569253747.15451
1569253747.17014
1569253747.18576
1569253747.20139
1569253747.21701
1569253747.23264
1569253747.24826
1569253747.26389
1569253747.27952
1569253747.29514
1569253747.31077
1569253747.32639
1569253747.34202
1569253747.35764
1569253747.37327
1569253747.3889
1569253747.40452
1569253747.42015
1569253747.43577
1569253747.4514
1569253747.46702
1569253747.48265
1569253747.49828
1569253747.5139
1569253747.52953
1569253747.54515
1569253747.56078
1569253747.5764
1569253747.59203
1569253747.60766
1569253747.62328
1569253747.63891
1569253747.65453
1569253747.67016
1569253747.68578
1569253747.70141
1569253747.71704
1569253747.73266
1569253747.74829
1569253747.76391
1569253747.77954
1569253747.79516
1569253747.81079
1569253747.82642
1569253747.84204
1569253747.85767
1569253747.87329
1569253747.88892
1569253747.90454
1569253747.92017
1569253747.9358
1569253747.95142
1569253747.96705
1569253747.98267
1569253747.9983
1569253748.01392
1569253748.02955
1569253748.04518
1569253748.0608
1569253748.07643
1569253748.09205
1569253748.10768
1569253748.1233
1569253748.13893
1569253748.15456
1569253748.17018
1569253748.18581
1569253748.20143
1569253748.21706
1569253748.23268
1569253748.24831
1569253748.26394
1569253748.27956
1569253748.29519
1569253748.31081
1569253748.32644
1569253748.34206
1569253748.35769
1569253748.37332
1569253748.38894
1569253748.40457
1569253748.42019
1569253748.43582
1569253748.45144
1569253748.46707
1569253748.4827
1569253748.49832
1569253748.51395
1569253748.52957
1569253748.5452
1569253748.56082
1569253748.57645
1569253748.59208
1569253748.6077
1569253748.62333
1569253748.63895
1569253748.65458
1569253748.6702
1569253748.68583
1569253748.70146
1569253748.71708
1569253748.73271
1569253748.74833
1569253748.76396
1569253748.77958
1569253748.79521
1569253748.81084
1569253748.82646
1569253748.84209
1569253748.85771
1569253748.87334
1569253748.88896
1569253748.90459
1569253748.92022
1569253748.93584
1569253748.95147
1569253748.96709
1569253748.98272
1569253748.99834
1569253749.01397
1569253749.0296
1569253749.04522
1569253749.06085
1569253749.07647
1569253749.0921
1569253749.10772
1569253749.12335
1569253749.13898
1569253749.1546
1569253749.17023
1569253749.18585
1569253749.20148
1569253749.2171
1569253749.23273
1569253749.24836
1569253749.26398
1569253749.27961
1569253749.29523
1569253749.31086
1569253749.32648
1569253749.34211
1569253749.35774
1569253749.37336
1569253749.38899
1569253749.40461
1569253749.42024
1569253749.43586
1569253749.45149
1569253749.46712
1569253749.48274
1569253749.49837
1569253749.51399
1569253749.52962
1569253749.54524
1569253749.56087
1569253749.5765
1569253749.59212
1569253749.60775
1569253749.62337
1569253749.639
1569253749.65462
1569253749.67025
1569253749.68588
1569253749.7015
1569253749.71713
1569253749.73275
1569253749.74838
1569253749.76401
1569253749.77963
1569253749.79526
1569253749.81088
1569253749.82651
1569253749.84213
1569253749.85776
1569253749.87339
1569253749.88901
1569253749.90464
1569253749.92026
1569253749.93589
1569253749.95151
1569253749.96714
1569253749.98277
1569253749.99839
1569253750.01402
1569253750.02964
1569253750.04527
1569253750.06089
1569253750.07652
1569253750.09215
1569253750.10777
1569253750.1234
1569253750.13902
1569253750.15465
1569253750.17027
1569253750.1859
1569253750.20153
1569253750.21715
1569253750.23278
1569253750.2484
1569253750.26403
1569253750.27965
1569253750.29528
1569253750.31091
1569253750.32653
1569253750.34216
1569253750.35778
1569253750.37341
1569253750.38903
1569253750.40466
1569253750.42029
1569253750.43591
1569253750.45154
1569253750.46716
1569253750.48279
1569253750.49841
1569253750.51404
1569253750.52967
1569253750.54529
1569253750.56092
1569253750.57654
1569253750.59217
1569253750.60779
1569253750.62342
1569253750.63905
1569253750.65467
1569253750.6703
1569253750.68592
1569253750.70155
1569253750.71717
1569253750.7328
1569253750.74843
1569253750.76405
