1569254863.8156
1569254863.83123
1569254863.84685
1569254863.86248
1569254863.8781
1569254863.89373
1569254863.90935
1569254863.92498
1569254863.94061
1569254863.95623
1569254863.97186
1569254863.98748
1569254864.00311
1569254864.01873
1569254864.03436
1569254864.04999
1569254864.06561
1569254864.08124
1569254864.09686
1569254864.11249
1569254864.12811
1569254864.14374
1569254864.15937
1569254864.17499
1569254864.19062
1569254864.20624
1569254864.22187
1569254864.23749
1569254864.25312
1569254864.26875
1569254864.28437
1569254864.3
1569254864.31562
1569254864.33125
1569254864.34687
1569254864.3625
1569254864.37813
1569254864.39375
1569254864.40938
1569254864.425
1569254864.44063
1569254864.45625
1569254864.47188
1569254864.48751
1569254864.50313
1569254864.51876
1569254864.53438
1569254864.55001
1569254864.56563
1569254864.58126
1569254864.59689
1569254864.61251
1569254864.62814
1569254864.64376
1569254864.65939
1569254864.67501
1569254864.69064
1569254864.70627
1569254864.72189
1569254864.73752
1569254864.75314
1569254864.76877
1569254864.78439
1569254864.80002
1569254864.81565
1569254864.83127
1569254864.8469
1569254864.86252
1569254864.87815
1569254864.89377
1569254864.9094
1569254864.92503
1569254864.94065
1569254864.95628
1569254864.9719
1569254864.98753
1569254865.00315
1569254865.01878
1569254865.03441
1569254865.05003
1569254865.06566
1569254865.08128
1569254865.09691
1569254865.11254
1569254865.12816
1569254865.14379
1569254865.15941
1569254865.17504
1569254865.19066
1569254865.20629
1569254865.22192
1569254865.23754
1569254865.25317
1569254865.26879
1569254865.28442
1569254865.30004
1569254865.31567
1569254865.3313
1569254865.34692
1569254865.36255
1569254865.37817
1569254865.3938
1569254865.40942
1569254865.42505
1569254865.44068
1569254865.4563
1569254865.47193
1569254865.48755
1569254865.50318
1569254865.5188
1569254865.53443
1569254865.55006
1569254865.56568
1569254865.58131
1569254865.59693
1569254865.61256
1569254865.62818
1569254865.64381
1569254865.65944
1569254865.67506
1569254865.69069
1569254865.70631
1569254865.72194
1569254865.73756
1569254865.75319
1569254865.76882
1569254865.78444
1569254865.80007
1569254865.81569
1569254865.83132
1569254865.84694
1569254865.86257
1569254865.8782
1569254865.89382
1569254865.90945
1569254865.92507
1569254865.9407
1569254865.95632
1569254865.97195
1569254865.98758
1569254866.0032
1569254866.01883
1569254866.03445
1569254866.05008
1569254866.0657
1569254866.08133
1569254866.09696
1569254866.11258
1569254866.12821
1569254866.14383
1569254866.15946
1569254866.17508
1569254866.19071
1569254866.20634
1569254866.22196
1569254866.23759
1569254866.25321
1569254866.26884
1569254866.28446
1569254866.30009
1569254866.31572
1569254866.33134
1569254866.34697
1569254866.36259
1569254866.37822
1569254866.39384
1569254866.40947
1569254866.4251
1569254866.44072
1569254866.45635
1569254866.47197
1569254866.4876
1569254866.50322
1569254866.51885
1569254866.53448
1569254866.5501
1569254866.56573
1569254866.58135
1569254866.59698
1569254866.6126
1569254866.62823
1569254866.64386
1569254866.65948
1569254866.67511
1569254866.69073
1569254866.70636
1569254866.72198
1569254866.73761
1569254866.75324
1569254866.76886
1569254866.78449
1569254866.80011
1569254866.81574
1569254866.83136
1569254866.84699
1569254866.86262
1569254866.87824
1569254866.89387
1569254866.90949
1569254866.92512
1569254866.94074
1569254866.95637
1569254866.972
1569254866.98762
1569254867.00325
1569254867.01887
1569254867.0345
1569254867.05012
1569254867.06575
1569254867.08138
1569254867.097
1569254867.11263
1569254867.12825
1569254867.14388
1569254867.1595
1569254867.17513
1569254867.19076
1569254867.20638
1569254867.22201
1569254867.23763
1569254867.25326
1569254867.26888
1569254867.28451
1569254867.30014
1569254867.31576
1569254867.33139
1569254867.34701
1569254867.36264
1569254867.37826
1569254867.39389
1569254867.40952
1569254867.42514
1569254867.44077
1569254867.45639
1569254867.47202
1569254867.48764
1569254867.50327
1569254867.5189
1569254867.53452
1569254867.55015
1569254867.56577
1569254867.5814
1569254867.59703
1569254867.61265
1569254867.62828
1569254867.6439
1569254867.65953
1569254867.67515
1569254867.69078
1569254867.70641
1569254867.72203
1569254867.73766
1569254867.75328
1569254867.76891
1569254867.78453
1569254867.80016
1569254867.81579
1569254867.83141
1569254867.84704
1569254867.86266
1569254867.87829
1569254867.89391
1569254867.90954
1569254867.92517
1569254867.94079
1569254867.95642
1569254867.97204
1569254867.98767
1569254868.00329
1569254868.01892
1569254868.03455
1569254868.05017
1569254868.0658
1569254868.08142
1569254868.09705
1569254868.11267
1569254868.1283
1569254868.14393
1569254868.15955
1569254868.17518
1569254868.1908
1569254868.20643
1569254868.22205
1569254868.23768
1569254868.25331
1569254868.26893
1569254868.28456
1569254868.30018
1569254868.31581
1569254868.33143
1569254868.34706
1569254868.36269
1569254868.37831
1569254868.39394
1569254868.40956
1569254868.42519
1569254868.44081
1569254868.45644
1569254868.47207
1569254868.48769
1569254868.50332
1569254868.51894
1569254868.53457
1569254868.55019
1569254868.56582
1569254868.58145
1569254868.59707
1569254868.6127
1569254868.62832
1569254868.64395
1569254868.65957
1569254868.6752
1569254868.69083
1569254868.70645
1569254868.72208
1569254868.7377
1569254868.75333
1569254868.76895
1569254868.78458
1569254868.80021
1569254868.81583
1569254868.83146
1569254868.84708
1569254868.86271
1569254868.87833
1569254868.89396
1569254868.90959
1569254868.92521
1569254868.94084
1569254868.95646
1569254868.97209
1569254868.98771
1569254869.00334
1569254869.01897
1569254869.03459
1569254869.05022
1569254869.06584
1569254869.08147
1569254869.09709
1569254869.11272
1569254869.12835
1569254869.14397
1569254869.1596
1569254869.17522
1569254869.19085
1569254869.20647
1569254869.2221
1569254869.23773
1569254869.25335
1569254869.26898
1569254869.2846
1569254869.30023
1569254869.31585
1569254869.33148
1569254869.34711
1569254869.36273
1569254869.37836
1569254869.39398
1569254869.40961
1569254869.42523
1569254869.44086
1569254869.45649
1569254869.47211
1569254869.48774
1569254869.50336
1569254869.51899
1569254869.53461
1569254869.55024
1569254869.56587
1569254869.58149
1569254869.59712
1569254869.61274
1569254869.62837
1569254869.64399
1569254869.65962
1569254869.67525
1569254869.69087
1569254869.7065
1569254869.72212
1569254869.73775
1569254869.75337
1569254869.769
1569254869.78463
1569254869.80025
1569254869.81588
1569254869.8315
1569254869.84713
1569254869.86276
1569254869.87838
1569254869.89401
1569254869.90963
1569254869.92526
1569254869.94088
1569254869.95651
1569254869.97214
1569254869.98776
1569254870.00339
1569254870.01901
1569254870.03464
1569254870.05026
1569254870.06589
1569254870.08152
1569254870.09714
1569254870.11277
1569254870.12839
1569254870.14402
1569254870.15964
1569254870.17527
1569254870.1909
1569254870.20652
1569254870.22215
1569254870.23777
1569254870.2534
1569254870.26902
1569254870.28465
1569254870.30028
1569254870.3159
1569254870.33153
1569254870.34715
1569254870.36278
1569254870.3784
1569254870.39403
1569254870.40966
1569254870.42528
1569254870.44091
1569254870.45653
1569254870.47216
1569254870.48778
1569254870.50341
1569254870.51904
1569254870.53466
1569254870.55029
1569254870.56591
1569254870.58154
1569254870.59716
1569254870.61279
1569254870.62842
1569254870.64404
1569254870.65967
1569254870.67529
1569254870.69092
1569254870.70654
1569254870.72217
1569254870.7378
1569254870.75342
1569254870.76905
1569254870.78467
1569254870.8003
1569254870.81592
1569254870.83155
1569254870.84718
1569254870.8628
1569254870.87843
1569254870.89405
1569254870.90968
1569254870.9253
1569254870.94093
1569254870.95656
1569254870.97218
1569254870.98781
1569254871.00343
1569254871.01906
1569254871.03468
1569254871.05031
1569254871.06594
1569254871.08156
1569254871.09719
1569254871.11281
1569254871.12844
1569254871.14406
1569254871.15969
1569254871.17532
1569254871.19094
1569254871.20657
1569254871.22219
1569254871.23782
1569254871.25344
1569254871.26907
1569254871.2847
1569254871.30032
1569254871.31595
1569254871.33157
1569254871.3472
1569254871.36282
1569254871.37845
1569254871.39408
1569254871.4097
1569254871.42533
1569254871.44095
1569254871.45658
1569254871.4722
1569254871.48783
1569254871.50346
1569254871.51908
1569254871.53471
1569254871.55033
1569254871.56596
1569254871.58158
1569254871.59721
1569254871.61284
1569254871.62846
1569254871.64409
1569254871.65971
1569254871.67534
1569254871.69096
1569254871.70659
1569254871.72222
1569254871.73784
1569254871.75347
1569254871.76909
1569254871.78472
1569254871.80034
1569254871.81597
1569254871.8316
1569254871.84722
1569254871.86285
1569254871.87847
1569254871.8941
1569254871.90972
1569254871.92535
1569254871.94098
1569254871.9566
1569254871.97223
1569254871.98785
1569254872.00348
1569254872.0191
1569254872.03473
1569254872.05036
1569254872.06598
1569254872.08161
1569254872.09723
1569254872.11286
1569254872.12848
1569254872.14411
1569254872.15974
1569254872.17536
1569254872.19099
1569254872.20661
1569254872.22224
1569254872.23786
1569254872.25349
1569254872.26912
1569254872.28474
1569254872.30037
1569254872.31599
1569254872.33162
1569254872.34724
1569254872.36287
1569254872.3785
1569254872.39412
1569254872.40975
1569254872.42537
1569254872.441
1569254872.45663
1569254872.47225
1569254872.48788
1569254872.5035
1569254872.51913
1569254872.53475
1569254872.55038
1569254872.56601
1569254872.58163
1569254872.59726
1569254872.61288
1569254872.62851
1569254872.64413
1569254872.65976
1569254872.67539
1569254872.69101
1569254872.70664
1569254872.72226
1569254872.73789
1569254872.75351
1569254872.76914
1569254872.78477
1569254872.80039
1569254872.81602
1569254872.83164
1569254872.84727
1569254872.86289
1569254872.87852
1569254872.89415
1569254872.90977
1569254872.9254
1569254872.94102
1569254872.95665
1569254872.97227
1569254872.9879
1569254873.00353
1569254873.01915
1569254873.03478
1569254873.0504
1569254873.06603
1569254873.08165
1569254873.09728
1569254873.11291
1569254873.12853
1569254873.14416
1569254873.15978
1569254873.17541
1569254873.19103
1569254873.20666
1569254873.22229
1569254873.23791
1569254873.25354
1569254873.26916
1569254873.28479
1569254873.30041
1569254873.31604
1569254873.33167
1569254873.34729
1569254873.36292
1569254873.37854
1569254873.39417
1569254873.40979
1569254873.42542
1569254873.44105
1569254873.45667
1569254873.4723
1569254873.48792
1569254873.50355
1569254873.51917
1569254873.5348
1569254873.55043
1569254873.56605
1569254873.58168
1569254873.5973
1569254873.61293
1569254873.62855
1569254873.64418
1569254873.65981
1569254873.67543
1569254873.69106
1569254873.70668
1569254873.72231
1569254873.73793
1569254873.75356
1569254873.76919
1569254873.78481
1569254873.80044
1569254873.81606
1569254873.83169
1569254873.84731
1569254873.86294
1569254873.87857
1569254873.89419
1569254873.90982
1569254873.92544
1569254873.94107
1569254873.95669
1569254873.97232
1569254873.98795
1569254874.00357
1569254874.0192
1569254874.03482
1569254874.05045
1569254874.06607
1569254874.0817
1569254874.09733
1569254874.11295
1569254874.12858
1569254874.1442
1569254874.15983
1569254874.17545
1569254874.19108
1569254874.20671
1569254874.22233
1569254874.23796
1569254874.25358
1569254874.26921
1569254874.28483
1569254874.30046
1569254874.31609
1569254874.33171
1569254874.34734
1569254874.36296
1569254874.37859
1569254874.39421
1569254874.40984
1569254874.42547
1569254874.44109
1569254874.45672
1569254874.47234
1569254874.48797
1569254874.50359
1569254874.51922
1569254874.53485
1569254874.55047
1569254874.5661
1569254874.58172
1569254874.59735
1569254874.61297
1569254874.6286
1569254874.64423
1569254874.65985
1569254874.67548
1569254874.6911
1569254874.70673
1569254874.72236
1569254874.73798
1569254874.75361
1569254874.76923
1569254874.78486
1569254874.80048
1569254874.81611
1569254874.83174
1569254874.84736
1569254874.86299
1569254874.87861
1569254874.89424
1569254874.90986
1569254874.92549
1569254874.94112
1569254874.95674
1569254874.97237
1569254874.98799
1569254875.00362
1569254875.01924
1569254875.03487
1569254875.0505
1569254875.06612
1569254875.08175
1569254875.09737
1569254875.113
1569254875.12862
1569254875.14425
1569254875.15988
1569254875.1755
1569254875.19113
1569254875.20675
1569254875.22238
1569254875.238
1569254875.25363
1569254875.26926
1569254875.28488
1569254875.30051
1569254875.31613
1569254875.33176
1569254875.34738
1569254875.36301
1569254875.37864
1569254875.39426
1569254875.40989
1569254875.42551
1569254875.44114
1569254875.45676
1569254875.47239
1569254875.48802
1569254875.50364
1569254875.51927
1569254875.53489
1569254875.55052
1569254875.56614
1569254875.58177
1569254875.5974
1569254875.61302
1569254875.62865
1569254875.64427
1569254875.6599
1569254875.67552
1569254875.69115
1569254875.70678
1569254875.7224
1569254875.73803
1569254875.75365
1569254875.76928
1569254875.7849
1569254875.80053
1569254875.81616
1569254875.83178
1569254875.84741
1569254875.86303
1569254875.87866
1569254875.89428
1569254875.90991
1569254875.92554
1569254875.94116
1569254875.95679
1569254875.97241
1569254875.98804
1569254876.00366
1569254876.01929
1569254876.03492
1569254876.05054
1569254876.06617
1569254876.08179
1569254876.09742
1569254876.11304
1569254876.12867
1569254876.1443
1569254876.15992
1569254876.17555
1569254876.19117
1569254876.2068
1569254876.22242
1569254876.23805
1569254876.25368
1569254876.2693
1569254876.28493
1569254876.30055
1569254876.31618
1569254876.3318
1569254876.34743
1569254876.36306
1569254876.37868
1569254876.39431
1569254876.40993
1569254876.42556
1569254876.44118
1569254876.45681
1569254876.47244
1569254876.48806
1569254876.50369
1569254876.51931
1569254876.53494
1569254876.55056
1569254876.56619
1569254876.58182
1569254876.59744
1569254876.61307
1569254876.62869
1569254876.64432
1569254876.65994
1569254876.67557
1569254876.6912
1569254876.70682
1569254876.72245
1569254876.73807
1569254876.7537
1569254876.76932
1569254876.78495
1569254876.80058
1569254876.8162
1569254876.83183
1569254876.84745
1569254876.86308
1569254876.87871
1569254876.89433
1569254876.90996
1569254876.92558
1569254876.94121
1569254876.95683
1569254876.97246
1569254876.98809
1569254877.00371
1569254877.01934
1569254877.03496
1569254877.05059
1569254877.06621
1569254877.08184
1569254877.09747
1569254877.11309
1569254877.12872
1569254877.14434
1569254877.15997
1569254877.17559
1569254877.19122
1569254877.20685
1569254877.22247
1569254877.2381
1569254877.25372
1569254877.26935
1569254877.28497
1569254877.3006
1569254877.31623
1569254877.33185
1569254877.34748
1569254877.3631
1569254877.37873
1569254877.39435
1569254877.40998
1569254877.42561
1569254877.44123
1569254877.45686
1569254877.47248
1569254877.48811
1569254877.50373
1569254877.51936
1569254877.53499
1569254877.55061
1569254877.56624
1569254877.58186
1569254877.59749
1569254877.61311
1569254877.62874
1569254877.64437
1569254877.65999
1569254877.67562
1569254877.69124
1569254877.70687
1569254877.72249
1569254877.73812
1569254877.75375
1569254877.76937
1569254877.785
1569254877.80062
1569254877.81625
1569254877.83187
1569254877.8475
1569254877.86313
1569254877.87875
1569254877.89438
1569254877.91
1569254877.92563
1569254877.94125
1569254877.95688
1569254877.97251
1569254877.98813
1569254878.00376
1569254878.01938
1569254878.03501
1569254878.05063
1569254878.06626
1569254878.08189
1569254878.09751
1569254878.11314
1569254878.12876
1569254878.14439
1569254878.16001
1569254878.17564
1569254878.19127
1569254878.20689
1569254878.22252
1569254878.23814
1569254878.25377
1569254878.26939
1569254878.28502
1569254878.30065
1569254878.31627
1569254878.3319
1569254878.34752
1569254878.36315
1569254878.37877
1569254878.3944
1569254878.41003
1569254878.42565
1569254878.44128
1569254878.4569
1569254878.47253
1569254878.48815
1569254878.50378
1569254878.51941
1569254878.53503
1569254878.55066
1569254878.56628
1569254878.58191
1569254878.59753
1569254878.61316
1569254878.62879
1569254878.64441
1569254878.66004
1569254878.67566
1569254878.69129
1569254878.70691
1569254878.72254
1569254878.73817
1569254878.75379
1569254878.76942
1569254878.78504
1569254878.80067
1569254878.81629
1569254878.83192
1569254878.84755
1569254878.86317
1569254878.8788
1569254878.89442
1569254878.91005
1569254878.92567
1569254878.9413
1569254878.95693
1569254878.97255
1569254878.98818
1569254879.0038
1569254879.01943
1569254879.03505
1569254879.05068
1569254879.06631
1569254879.08193
1569254879.09756
1569254879.11318
1569254879.12881
1569254879.14443
1569254879.16006
1569254879.17569
1569254879.19131
1569254879.20694
1569254879.22256
1569254879.23819
1569254879.25381
1569254879.26944
1569254879.28507
1569254879.30069
1569254879.31632
1569254879.33194
1569254879.34757
1569254879.36319
1569254879.37882
1569254879.39445
1569254879.41007
1569254879.4257
1569254879.44132
1569254879.45695
1569254879.47257
1569254879.4882
1569254879.50383
1569254879.51945
1569254879.53508
1569254879.5507
1569254879.56633
1569254879.58196
1569254879.59758
1569254879.61321
1569254879.62883
1569254879.64446
1569254879.66008
1569254879.67571
1569254879.69134
1569254879.70696
1569254879.72259
1569254879.73821
1569254879.75384
1569254879.76946
1569254879.78509
1569254879.80072
1569254879.81634
1569254879.83197
1569254879.84759
1569254879.86322
1569254879.87884
1569254879.89447
1569254879.9101
1569254879.92572
1569254879.94135
1569254879.95697
1569254879.9726
1569254879.98822
1569254880.00385
1569254880.01948
1569254880.0351
1569254880.05073
1569254880.06635
1569254880.08198
1569254880.0976
1569254880.11323
1569254880.12886
1569254880.14448
1569254880.16011
1569254880.17573
1569254880.19136
1569254880.20698
1569254880.22261
1569254880.23824
1569254880.25386
1569254880.26949
1569254880.28511
1569254880.30074
1569254880.31636
1569254880.33199
1569254880.34762
1569254880.36324
1569254880.37887
1569254880.39449
1569254880.41012
1569254880.42574
1569254880.44137
1569254880.457
1569254880.47262
1569254880.48825
1569254880.50387
1569254880.5195
1569254880.53512
1569254880.55075
1569254880.56638
1569254880.582
1569254880.59763
1569254880.61325
1569254880.62888
1569254880.6445
1569254880.66013
1569254880.67576
1569254880.69138
1569254880.70701
1569254880.72263
1569254880.73826
1569254880.75388
1569254880.76951
1569254880.78514
1569254880.80076
1569254880.81639
1569254880.83201
1569254880.84764
1569254880.86326
1569254880.87889
1569254880.89452
1569254880.91014
1569254880.92577
1569254880.94139
1569254880.95702
1569254880.97264
1569254880.98827
1569254881.0039
1569254881.01952
1569254881.03515
1569254881.05077
1569254881.0664
1569254881.08202
1569254881.09765
1569254881.11328
1569254881.1289
1569254881.14453
1569254881.16015
1569254881.17578
1569254881.1914
1569254881.20703
1569254881.22266
1569254881.23828
1569254881.25391
1569254881.26953
1569254881.28516
1569254881.30078
1569254881.31641
1569254881.33204
1569254881.34766
1569254881.36329
1569254881.37891
1569254881.39454
1569254881.41016
1569254881.42579
1569254881.44142
1569254881.45704
1569254881.47267
1569254881.48829
1569254881.50392
1569254881.51954
1569254881.53517
1569254881.5508
1569254881.56642
1569254881.58205
1569254881.59767
1569254881.6133
1569254881.62892
1569254881.64455
1569254881.66018
1569254881.6758
1569254881.69143
1569254881.70705
1569254881.72268
1569254881.73831
1569254881.75393
1569254881.76956
1569254881.78518
1569254881.80081
1569254881.81643
1569254881.83206
1569254881.84769
1569254881.86331
1569254881.87894
1569254881.89456
1569254881.91019
1569254881.92581
1569254881.94144
1569254881.95707
1569254881.97269
1569254881.98832
1569254882.00394
1569254882.01957
1569254882.03519
1569254882.05082
1569254882.06645
1569254882.08207
1569254882.0977
1569254882.11332
1569254882.12895
1569254882.14457
1569254882.1602
1569254882.17583
1569254882.19145
1569254882.20708
1569254882.2227
1569254882.23833
1569254882.25395
1569254882.26958
1569254882.28521
1569254882.30083
1569254882.31646
1569254882.33208
1569254882.34771
1569254882.36333
1569254882.37896
1569254882.39459
1569254882.41021
1569254882.42584
1569254882.44146
1569254882.45709
1569254882.47271
1569254882.48834
1569254882.50397
1569254882.51959
1569254882.53522
1569254882.55084
1569254882.56647
1569254882.58209
1569254882.59772
1569254882.61335
1569254882.62897
1569254882.6446
1569254882.66022
1569254882.67585
1569254882.69147
1569254882.7071
1569254882.72273
1569254882.73835
1569254882.75398
1569254882.7696
1569254882.78523
1569254882.80085
1569254882.81648
1569254882.83211
1569254882.84773
1569254882.86336
1569254882.87898
1569254882.89461
1569254882.91023
1569254882.92586
1569254882.94149
1569254882.95711
1569254882.97274
1569254882.98836
1569254883.00399
1569254883.01961
1569254883.03524
1569254883.05087
1569254883.06649
1569254883.08212
1569254883.09774
1569254883.11337
1569254883.12899
1569254883.14462
1569254883.16025
1569254883.17587
1569254883.1915
1569254883.20712
1569254883.22275
1569254883.23837
1569254883.254
1569254883.26963
1569254883.28525
1569254883.30088
1569254883.3165
1569254883.33213
1569254883.34775
1569254883.36338
1569254883.37901
1569254883.39463
1569254883.41026
1569254883.42588
1569254883.44151
1569254883.45713
1569254883.47276
1569254883.48839
1569254883.50401
1569254883.51964
1569254883.53526
1569254883.55089
1569254883.56651
1569254883.58214
1569254883.59777
1569254883.61339
1569254883.62902
1569254883.64464
1569254883.66027
1569254883.67589
1569254883.69152
1569254883.70715
1569254883.72277
1569254883.7384
1569254883.75402
1569254883.76965
1569254883.78527
1569254883.8009
1569254883.81653
1569254883.83215
1569254883.84778
1569254883.8634
1569254883.87903
1569254883.89465
1569254883.91028
1569254883.92591
1569254883.94153
1569254883.95716
1569254883.97278
1569254883.98841
1569254884.00404
1569254884.01966
1569254884.03529
1569254884.05091
1569254884.06654
1569254884.08216
1569254884.09779
1569254884.11342
1569254884.12904
1569254884.14467
1569254884.16029
1569254884.17592
1569254884.19154
1569254884.20717
1569254884.2228
1569254884.23842
1569254884.25405
1569254884.26967
1569254884.2853
1569254884.30092
1569254884.31655
1569254884.33218
1569254884.3478
1569254884.36343
1569254884.37905
1569254884.39468
1569254884.4103
1569254884.42593
1569254884.44156
1569254884.45718
1569254884.47281
1569254884.48843
1569254884.50406
1569254884.51968
1569254884.53531
1569254884.55094
1569254884.56656
1569254884.58219
1569254884.59781
1569254884.61344
1569254884.62906
1569254884.64469
1569254884.66032
1569254884.67594
1569254884.69157
1569254884.70719
1569254884.72282
1569254884.73844
1569254884.75407
1569254884.7697
1569254884.78532
1569254884.80095
1569254884.81657
1569254884.8322
1569254884.84782
1569254884.86345
1569254884.87908
1569254884.8947
1569254884.91033
1569254884.92595
1569254884.94158
1569254884.9572
1569254884.97283
1569254884.98846
1569254885.00408
1569254885.01971
1569254885.03533
1569254885.05096
1569254885.06658
1569254885.08221
1569254885.09784
1569254885.11346
1569254885.12909
1569254885.14471
1569254885.16034
1569254885.17596
1569254885.19159
1569254885.20722
1569254885.22284
1569254885.23847
1569254885.25409
1569254885.26972
1569254885.28534
1569254885.30097
1569254885.3166
1569254885.33222
1569254885.34785
1569254885.36347
1569254885.3791
1569254885.39472
1569254885.41035
1569254885.42598
1569254885.4416
1569254885.45723
1569254885.47285
1569254885.48848
1569254885.5041
1569254885.51973
1569254885.53536
1569254885.55098
1569254885.56661
1569254885.58223
1569254885.59786
1569254885.61348
1569254885.62911
1569254885.64474
1569254885.66036
1569254885.67599
1569254885.69161
1569254885.70724
1569254885.72286
1569254885.73849
1569254885.75412
1569254885.76974
1569254885.78537
1569254885.80099
1569254885.81662
1569254885.83224
1569254885.84787
1569254885.8635
1569254885.87912
1569254885.89475
1569254885.91037
1569254885.926
1569254885.94162
1569254885.95725
1569254885.97288
1569254885.9885
1569254886.00413
1569254886.01975
1569254886.03538
1569254886.051
1569254886.06663
1569254886.08226
1569254886.09788
1569254886.11351
1569254886.12913
1569254886.14476
1569254886.16038
1569254886.17601
1569254886.19164
1569254886.20726
1569254886.22289
1569254886.23851
1569254886.25414
1569254886.26976
1569254886.28539
1569254886.30102
1569254886.31664
1569254886.33227
1569254886.34789
1569254886.36352
1569254886.37914
1569254886.39477
1569254886.4104
1569254886.42602
1569254886.44165
1569254886.45727
1569254886.4729
1569254886.48852
1569254886.50415
1569254886.51978
1569254886.5354
1569254886.55103
1569254886.56665
1569254886.58228
1569254886.59791
1569254886.61353
1569254886.62916
1569254886.64478
1569254886.66041
1569254886.67603
1569254886.69166
1569254886.70729
1569254886.72291
1569254886.73854
1569254886.75416
1569254886.76979
1569254886.78541
1569254886.80104
1569254886.81667
1569254886.83229
1569254886.84792
1569254886.86354
1569254886.87917
1569254886.89479
1569254886.91042
1569254886.92605
1569254886.94167
1569254886.9573
1569254886.97292
1569254886.98855
1569254887.00417
1569254887.0198
1569254887.03543
1569254887.05105
1569254887.06668
1569254887.0823
1569254887.09793
1569254887.11355
1569254887.12918
1569254887.14481
1569254887.16043
1569254887.17606
1569254887.19168
1569254887.20731
1569254887.22293
1569254887.23856
1569254887.25419
1569254887.26981
1569254887.28544
1569254887.30106
1569254887.31669
1569254887.33231
1569254887.34794
1569254887.36357
1569254887.37919
1569254887.39482
1569254887.41044
1569254887.42607
1569254887.44169
1569254887.45732
1569254887.47295
1569254887.48857
1569254887.5042
1569254887.51982
1569254887.53545
1569254887.55107
1569254887.5667
1569254887.58233
1569254887.59795
1569254887.61358
1569254887.6292
1569254887.64483
1569254887.66045
1569254887.67608
1569254887.69171
1569254887.70733
1569254887.72296
1569254887.73858
1569254887.75421
1569254887.76983
1569254887.78546
1569254887.80109
1569254887.81671
1569254887.83234
1569254887.84796
1569254887.86359
1569254887.87921
1569254887.89484
1569254887.91047
1569254887.92609
1569254887.94172
1569254887.95734
1569254887.97297
1569254887.98859
1569254888.00422
1569254888.01985
1569254888.03547
1569254888.0511
1569254888.06672
1569254888.08235
1569254888.09797
1569254888.1136
1569254888.12923
1569254888.14485
1569254888.16048
1569254888.1761
1569254888.19173
1569254888.20735
1569254888.22298
1569254888.23861
1569254888.25423
1569254888.26986
1569254888.28548
1569254888.30111
1569254888.31673
1569254888.33236
1569254888.34799
1569254888.36361
1569254888.37924
1569254888.39486
1569254888.41049
1569254888.42611
1569254888.44174
1569254888.45737
1569254888.47299
1569254888.48862
1569254888.50424
1569254888.51987
1569254888.53549
1569254888.55112
1569254888.56675
1569254888.58237
1569254888.598
1569254888.61362
1569254888.62925
1569254888.64487
1569254888.6605
1569254888.67613
1569254888.69175
1569254888.70738
1569254888.723
1569254888.73863
1569254888.75425
1569254888.76988
1569254888.78551
1569254888.80113
1569254888.81676
1569254888.83238
1569254888.84801
1569254888.86364
1569254888.87926
1569254888.89489
1569254888.91051
1569254888.92614
1569254888.94176
1569254888.95739
1569254888.97302
1569254888.98864
1569254889.00427
1569254889.01989
1569254889.03552
1569254889.05114
1569254889.06677
1569254889.0824
1569254889.09802
1569254889.11365
1569254889.12927
1569254889.1449
1569254889.16052
1569254889.17615
1569254889.19178
1569254889.2074
1569254889.22303
1569254889.23865
1569254889.25428
1569254889.2699
1569254889.28553
1569254889.30116
1569254889.31678
1569254889.33241
1569254889.34803
1569254889.36366
1569254889.37928
1569254889.39491
1569254889.41054
1569254889.42616
1569254889.44179
1569254889.45741
1569254889.47304
1569254889.48866
1569254889.50429
1569254889.51992
1569254889.53554
1569254889.55117
1569254889.56679
1569254889.58242
1569254889.59804
1569254889.61367
1569254889.6293
1569254889.64492
1569254889.66055
1569254889.67617
1569254889.6918
1569254889.70742
1569254889.72305
1569254889.73868
1569254889.7543
1569254889.76993
1569254889.78555
1569254889.80118
1569254889.8168
1569254889.83243
1569254889.84806
1569254889.86368
1569254889.87931
1569254889.89493
1569254889.91056
1569254889.92618
1569254889.94181
1569254889.95744
1569254889.97306
1569254889.98869
1569254890.00431
1569254890.01994
1569254890.03556
1569254890.05119
1569254890.06682
1569254890.08244
1569254890.09807
1569254890.11369
1569254890.12932
1569254890.14494
1569254890.16057
1569254890.1762
1569254890.19182
1569254890.20745
1569254890.22307
1569254890.2387
1569254890.25432
1569254890.26995
1569254890.28558
1569254890.3012
1569254890.31683
1569254890.33245
1569254890.34808
1569254890.3637
1569254890.37933
1569254890.39496
1569254890.41058
1569254890.42621
1569254890.44183
1569254890.45746
1569254890.47308
1569254890.48871
1569254890.50434
1569254890.51996
1569254890.53559
1569254890.55121
1569254890.56684
1569254890.58246
1569254890.59809
1569254890.61372
1569254890.62934
1569254890.64497
1569254890.66059
1569254890.67622
1569254890.69184
1569254890.70747
1569254890.7231
1569254890.73872
1569254890.75435
1569254890.76997
1569254890.7856
1569254890.80122
1569254890.81685
1569254890.83248
1569254890.8481
1569254890.86373
1569254890.87935
1569254890.89498
1569254890.9106
1569254890.92623
1569254890.94186
1569254890.95748
1569254890.97311
1569254890.98873
1569254891.00436
1569254891.01998
1569254891.03561
1569254891.05124
1569254891.06686
1569254891.08249
1569254891.09811
1569254891.11374
1569254891.12936
1569254891.14499
1569254891.16062
1569254891.17624
1569254891.19187
1569254891.20749
1569254891.22312
1569254891.23874
1569254891.25437
1569254891.27
1569254891.28562
1569254891.30125
1569254891.31687
1569254891.3325
1569254891.34812
1569254891.36375
1569254891.37938
1569254891.395
1569254891.41063
1569254891.42625
1569254891.44188
1569254891.45751
1569254891.47313
1569254891.48876
1569254891.50438
1569254891.52001
1569254891.53563
1569254891.55126
1569254891.56689
1569254891.58251
1569254891.59814
1569254891.61376
1569254891.62939
1569254891.64501
1569254891.66064
1569254891.67627
1569254891.69189
1569254891.70752
1569254891.72314
1569254891.73877
1569254891.75439
1569254891.77002
1569254891.78565
1569254891.80127
1569254891.8169
1569254891.83252
1569254891.84815
1569254891.86377
1569254891.8794
1569254891.89503
1569254891.91065
1569254891.92628
1569254891.9419
1569254891.95753
1569254891.97315
1569254891.98878
1569254892.00441
1569254892.02003
1569254892.03566
1569254892.05128
1569254892.06691
1569254892.08253
1569254892.09816
1569254892.11379
1569254892.12941
1569254892.14504
1569254892.16066
1569254892.17629
1569254892.19191
1569254892.20754
1569254892.22317
1569254892.23879
1569254892.25442
1569254892.27004
1569254892.28567
1569254892.30129
1569254892.31692
1569254892.33255
1569254892.34817
1569254892.3638
1569254892.37942
1569254892.39505
1569254892.41067
1569254892.4263
1569254892.44193
1569254892.45755
1569254892.47318
1569254892.4888
1569254892.50443
1569254892.52005
1569254892.53568
1569254892.55131
1569254892.56693
1569254892.58256
1569254892.59818
1569254892.61381
1569254892.62943
1569254892.64506
1569254892.66069
1569254892.67631
1569254892.69194
1569254892.70756
1569254892.72319
1569254892.73881
1569254892.75444
1569254892.77007
1569254892.78569
1569254892.80132
1569254892.81694
1569254892.83257
1569254892.84819
1569254892.86382
1569254892.87945
1569254892.89507
1569254892.9107
1569254892.92632
1569254892.94195
1569254892.95757
1569254892.9732
1569254892.98883
1569254893.00445
1569254893.02008
1569254893.0357
1569254893.05133
1569254893.06695
1569254893.08258
1569254893.09821
1569254893.11383
1569254893.12946
1569254893.14508
1569254893.16071
1569254893.17633
1569254893.19196
1569254893.20759
1569254893.22321
1569254893.23884
1569254893.25446
1569254893.27009
1569254893.28571
1569254893.30134
1569254893.31697
1569254893.33259
1569254893.34822
1569254893.36384
1569254893.37947
1569254893.39509
1569254893.41072
1569254893.42635
1569254893.44197
1569254893.4576
1569254893.47322
1569254893.48885
1569254893.50447
1569254893.5201
1569254893.53573
1569254893.55135
1569254893.56698
1569254893.5826
1569254893.59823
1569254893.61385
1569254893.62948
1569254893.64511
1569254893.66073
1569254893.67636
1569254893.69198
1569254893.70761
1569254893.72324
1569254893.73886
1569254893.75449
1569254893.77011
1569254893.78574
1569254893.80136
1569254893.81699
1569254893.83262
1569254893.84824
1569254893.86387
1569254893.87949
1569254893.89512
1569254893.91074
1569254893.92637
1569254893.942
1569254893.95762
1569254893.97325
1569254893.98887
1569254894.0045
1569254894.02012
1569254894.03575
1569254894.05138
1569254894.067
1569254894.08263
1569254894.09825
1569254894.11388
1569254894.1295
1569254894.14513
1569254894.16076
1569254894.17638
1569254894.19201
1569254894.20763
1569254894.22326
1569254894.23888
1569254894.25451
1569254894.27014
1569254894.28576
1569254894.30139
1569254894.31701
1569254894.33264
1569254894.34826
1569254894.36389
1569254894.37952
1569254894.39514
1569254894.41077
1569254894.42639
1569254894.44202
1569254894.45764
1569254894.47327
1569254894.4889
1569254894.50452
1569254894.52015
1569254894.53577
1569254894.5514
1569254894.56702
1569254894.58265
1569254894.59828
1569254894.6139
1569254894.62953
1569254894.64515
1569254894.66078
1569254894.6764
1569254894.69203
1569254894.70766
1569254894.72328
1569254894.73891
1569254894.75453
1569254894.77016
1569254894.78578
1569254894.80141
1569254894.81704
1569254894.83266
1569254894.84829
1569254894.86391
1569254894.87954
1569254894.89516
1569254894.91079
1569254894.92642
1569254894.94204
1569254894.95767
1569254894.97329
1569254894.98892
1569254895.00454
1569254895.02017
1569254895.0358
1569254895.05142
1569254895.06705
1569254895.08267
1569254895.0983
1569254895.11392
1569254895.12955
1569254895.14518
1569254895.1608
1569254895.17643
1569254895.19205
1569254895.20768
1569254895.2233
1569254895.23893
1569254895.25456
1569254895.27018
1569254895.28581
1569254895.30143
1569254895.31706
1569254895.33268
1569254895.34831
1569254895.36394
1569254895.37956
1569254895.39519
1569254895.41081
1569254895.42644
1569254895.44206
1569254895.45769
1569254895.47332
1569254895.48894
1569254895.50457
1569254895.52019
1569254895.53582
1569254895.55144
1569254895.56707
1569254895.5827
1569254895.59832
1569254895.61395
1569254895.62957
1569254895.6452
1569254895.66082
1569254895.67645
1569254895.69208
1569254895.7077
1569254895.72333
1569254895.73895
1569254895.75458
1569254895.7702
1569254895.78583
1569254895.80146
1569254895.81708
1569254895.83271
1569254895.84833
1569254895.86396
1569254895.87958
1569254895.89521
1569254895.91084
1569254895.92646
1569254895.94209
1569254895.95771
1569254895.97334
1569254895.98897
1569254896.00459
1569254896.02022
1569254896.03584
1569254896.05147
1569254896.06709
1569254896.08272
1569254896.09835
1569254896.11397
1569254896.1296
1569254896.14522
1569254896.16085
1569254896.17647
1569254896.1921
1569254896.20773
1569254896.22335
1569254896.23898
1569254896.2546
1569254896.27023
1569254896.28585
1569254896.30148
1569254896.31711
1569254896.33273
1569254896.34836
1569254896.36398
1569254896.37961
1569254896.39523
1569254896.41086
1569254896.42649
1569254896.44211
1569254896.45774
1569254896.47336
1569254896.48899
1569254896.50461
1569254896.52024
1569254896.53587
1569254896.55149
1569254896.56712
1569254896.58274
1569254896.59837
1569254896.61399
1569254896.62962
1569254896.64525
1569254896.66087
1569254896.6765
1569254896.69212
1569254896.70775
1569254896.72337
1569254896.739
1569254896.75463
1569254896.77025
1569254896.78588
1569254896.8015
1569254896.81713
1569254896.83275
1569254896.84838
1569254896.86401
1569254896.87963
1569254896.89526
1569254896.91088
1569254896.92651
1569254896.94213
1569254896.95776
1569254896.97339
1569254896.98901
1569254897.00464
1569254897.02026
1569254897.03589
1569254897.05151
1569254897.06714
1569254897.08277
1569254897.09839
1569254897.11402
1569254897.12964
1569254897.14527
1569254897.16089
1569254897.17652
1569254897.19215
1569254897.20777
1569254897.2234
1569254897.23902
1569254897.25465
1569254897.27027
1569254897.2859
1569254897.30153
1569254897.31715
1569254897.33278
1569254897.3484
1569254897.36403
1569254897.37965
1569254897.39528
1569254897.41091
1569254897.42653
1569254897.44216
1569254897.45778
1569254897.47341
1569254897.48903
1569254897.50466
1569254897.52029
1569254897.53591
1569254897.55154
1569254897.56716
1569254897.58279
1569254897.59841
1569254897.61404
1569254897.62967
1569254897.64529
1569254897.66092
1569254897.67654
1569254897.69217
1569254897.70779
1569254897.72342
1569254897.73905
1569254897.75467
1569254897.7703
1569254897.78592
1569254897.80155
1569254897.81717
1569254897.8328
1569254897.84843
1569254897.86405
1569254897.87968
1569254897.8953
1569254897.91093
1569254897.92655
1569254897.94218
1569254897.95781
1569254897.97343
1569254897.98906
1569254898.00468
1569254898.02031
1569254898.03593
1569254898.05156
1569254898.06719
1569254898.08281
1569254898.09844
1569254898.11406
1569254898.12969
1569254898.14531
1569254898.16094
1569254898.17657
1569254898.19219
1569254898.20782
1569254898.22344
1569254898.23907
1569254898.25469
1569254898.27032
1569254898.28595
1569254898.30157
1569254898.3172
1569254898.33282
1569254898.34845
1569254898.36407
1569254898.3797
1569254898.39533
1569254898.41095
1569254898.42658
1569254898.4422
1569254898.45783
1569254898.47345
1569254898.48908
1569254898.50471
1569254898.52033
1569254898.53596
1569254898.55158
1569254898.56721
1569254898.58284
1569254898.59846
1569254898.61409
1569254898.62971
1569254898.64534
1569254898.66096
1569254898.67659
1569254898.69222
1569254898.70784
1569254898.72347
1569254898.73909
1569254898.75472
1569254898.77034
1569254898.78597
1569254898.8016
1569254898.81722
1569254898.83285
1569254898.84847
1569254898.8641
1569254898.87972
1569254898.89535
1569254898.91098
1569254898.9266
1569254898.94223
1569254898.95785
1569254898.97348
1569254898.9891
1569254899.00473
1569254899.02036
1569254899.03598
1569254899.05161
1569254899.06723
1569254899.08286
1569254899.09848
1569254899.11411
1569254899.12974
1569254899.14536
1569254899.16099
1569254899.17661
1569254899.19224
1569254899.20786
1569254899.22349
1569254899.23912
1569254899.25474
1569254899.27037
1569254899.28599
1569254899.30162
1569254899.31724
1569254899.33287
1569254899.3485
1569254899.36412
1569254899.37975
1569254899.39537
1569254899.411
1569254899.42662
1569254899.44225
1569254899.45788
1569254899.4735
1569254899.48913
1569254899.50475
1569254899.52038
1569254899.536
1569254899.55163
1569254899.56726
1569254899.58288
1569254899.59851
1569254899.61413
1569254899.62976
1569254899.64538
1569254899.66101
1569254899.67664
1569254899.69226
1569254899.70789
1569254899.72351
1569254899.73914
1569254899.75476
1569254899.77039
1569254899.78602
1569254899.80164
1569254899.81727
1569254899.83289
1569254899.84852
1569254899.86414
1569254899.87977
1569254899.8954
1569254899.91102
1569254899.92665
1569254899.94227
1569254899.9579
1569254899.97352
1569254899.98915
1569254900.00478
1569254900.0204
1569254900.03603
1569254900.05165
1569254900.06728
1569254900.0829
1569254900.09853
1569254900.11416
1569254900.12978
1569254900.14541
1569254900.16103
1569254900.17666
1569254900.19228
1569254900.20791
1569254900.22354
1569254900.23916
1569254900.25479
1569254900.27041
1569254900.28604
1569254900.30166
1569254900.31729
1569254900.33292
1569254900.34854
1569254900.36417
1569254900.37979
1569254900.39542
1569254900.41104
1569254900.42667
1569254900.4423
1569254900.45792
1569254900.47355
1569254900.48917
1569254900.5048
1569254900.52042
1569254900.53605
1569254900.55168
1569254900.5673
1569254900.58293
1569254900.59855
1569254900.61418
1569254900.6298
1569254900.64543
1569254900.66106
1569254900.67668
1569254900.69231
1569254900.70793
1569254900.72356
1569254900.73918
1569254900.75481
1569254900.77044
1569254900.78606
1569254900.80169
1569254900.81731
1569254900.83294
1569254900.84857
1569254900.86419
1569254900.87982
1569254900.89544
1569254900.91107
1569254900.92669
1569254900.94232
1569254900.95795
1569254900.97357
1569254900.9892
1569254901.00482
1569254901.02045
1569254901.03607
1569254901.0517
1569254901.06733
1569254901.08295
1569254901.09858
1569254901.1142
1569254901.12983
1569254901.14545
1569254901.16108
1569254901.17671
1569254901.19233
1569254901.20796
1569254901.22358
1569254901.23921
1569254901.25483
1569254901.27046
1569254901.28609
1569254901.30171
1569254901.31734
1569254901.33296
1569254901.34859
1569254901.36421
1569254901.37984
1569254901.39547
1569254901.41109
1569254901.42672
1569254901.44234
1569254901.45797
1569254901.47359
1569254901.48922
1569254901.50485
1569254901.52047
1569254901.5361
1569254901.55172
1569254901.56735
1569254901.58297
1569254901.5986
1569254901.61423
1569254901.62985
1569254901.64548
1569254901.6611
1569254901.67673
1569254901.69235
1569254901.70798
1569254901.72361
1569254901.73923
1569254901.75486
1569254901.77048
1569254901.78611
1569254901.80173
1569254901.81736
1569254901.83299
1569254901.84861
1569254901.86424
1569254901.87986
1569254901.89549
1569254901.91111
1569254901.92674
1569254901.94237
1569254901.95799
1569254901.97362
1569254901.98924
1569254902.00487
1569254902.02049
1569254902.03612
1569254902.05175
1569254902.06737
1569254902.083
1569254902.09862
1569254902.11425
1569254902.12987
1569254902.1455
1569254902.16113
1569254902.17675
1569254902.19238
1569254902.208
1569254902.22363
1569254902.23925
1569254902.25488
1569254902.27051
1569254902.28613
1569254902.30176
1569254902.31738
1569254902.33301
1569254902.34863
1569254902.36426
1569254902.37989
1569254902.39551
1569254902.41114
1569254902.42676
1569254902.44239
1569254902.45801
1569254902.47364
1569254902.48927
1569254902.50489
1569254902.52052
1569254902.53614
1569254902.55177
1569254902.56739
1569254902.58302
1569254902.59865
1569254902.61427
1569254902.6299
1569254902.64552
1569254902.66115
1569254902.67677
1569254902.6924
1569254902.70803
1569254902.72365
1569254902.73928
1569254902.7549
1569254902.77053
1569254902.78615
1569254902.80178
1569254902.81741
1569254902.83303
1569254902.84866
1569254902.86428
1569254902.87991
1569254902.89553
1569254902.91116
1569254902.92679
1569254902.94241
1569254902.95804
1569254902.97366
1569254902.98929
1569254903.00492
1569254903.02054
1569254903.03617
1569254903.05179
1569254903.06742
1569254903.08304
1569254903.09867
1569254903.1143
1569254903.12992
1569254903.14555
1569254903.16117
1569254903.1768
1569254903.19242
1569254903.20805
1569254903.22368
1569254903.2393
1569254903.25493
1569254903.27055
1569254903.28618
1569254903.3018
1569254903.31743
1569254903.33306
1569254903.34868
1569254903.36431
1569254903.37993
1569254903.39556
1569254903.41118
1569254903.42681
1569254903.44244
1569254903.45806
1569254903.47369
1569254903.48931
1569254903.50494
1569254903.52056
1569254903.53619
1569254903.55182
1569254903.56744
1569254903.58307
1569254903.59869
1569254903.61432
1569254903.62994
1569254903.64557
1569254903.6612
1569254903.67682
1569254903.69245
1569254903.70807
1569254903.7237
1569254903.73932
1569254903.75495
1569254903.77058
1569254903.7862
1569254903.80183
1569254903.81745
1569254903.83308
1569254903.8487
1569254903.86433
1569254903.87996
1569254903.89558
1569254903.91121
1569254903.92683
1569254903.94246
1569254903.95808
1569254903.97371
1569254903.98934
1569254904.00496
1569254904.02059
1569254904.03621
1569254904.05184
1569254904.06746
1569254904.08309
1569254904.09872
1569254904.11434
1569254904.12997
1569254904.14559
1569254904.16122
1569254904.17684
1569254904.19247
1569254904.2081
1569254904.22372
1569254904.23935
1569254904.25497
1569254904.2706
1569254904.28622
1569254904.30185
1569254904.31748
1569254904.3331
1569254904.34873
1569254904.36435
1569254904.37998
1569254904.3956
1569254904.41123
1569254904.42686
1569254904.44248
1569254904.45811
1569254904.47373
1569254904.48936
1569254904.50498
1569254904.52061
1569254904.53624
1569254904.55186
1569254904.56749
1569254904.58311
1569254904.59874
1569254904.61436
1569254904.62999
1569254904.64562
1569254904.66124
1569254904.67687
1569254904.69249
1569254904.70812
1569254904.72374
1569254904.73937
1569254904.755
1569254904.77062
1569254904.78625
1569254904.80187
1569254904.8175
1569254904.83312
1569254904.84875
1569254904.86438
1569254904.88
1569254904.89563
1569254904.91125
1569254904.92688
1569254904.9425
1569254904.95813
1569254904.97376
1569254904.98938
1569254905.00501
1569254905.02063
1569254905.03626
1569254905.05188
1569254905.06751
1569254905.08314
1569254905.09876
1569254905.11439
1569254905.13001
1569254905.14564
1569254905.16126
1569254905.17689
1569254905.19252
1569254905.20814
1569254905.22377
1569254905.23939
1569254905.25502
1569254905.27064
1569254905.28627
1569254905.3019
1569254905.31752
1569254905.33315
1569254905.34877
1569254905.3644
1569254905.38002
1569254905.39565
1569254905.41128
1569254905.4269
1569254905.44253
1569254905.45815
1569254905.47378
1569254905.4894
1569254905.50503
1569254905.52066
1569254905.53628
1569254905.55191
1569254905.56753
1569254905.58316
1569254905.59878
1569254905.61441
1569254905.63004
1569254905.64566
1569254905.66129
1569254905.67691
1569254905.69254
1569254905.70817
1569254905.72379
1569254905.73942
1569254905.75504
1569254905.77067
1569254905.78629
1569254905.80192
1569254905.81755
1569254905.83317
1569254905.8488
1569254905.86442
1569254905.88005
1569254905.89567
1569254905.9113
1569254905.92693
1569254905.94255
1569254905.95818
1569254905.9738
1569254905.98943
1569254906.00505
1569254906.02068
1569254906.03631
1569254906.05193
1569254906.06756
1569254906.08318
1569254906.09881
1569254906.11443
1569254906.13006
1569254906.14569
1569254906.16131
1569254906.17694
1569254906.19256
1569254906.20819
1569254906.22381
1569254906.23944
1569254906.25507
1569254906.27069
1569254906.28632
1569254906.30194
1569254906.31757
1569254906.33319
1569254906.34882
1569254906.36445
1569254906.38007
1569254906.3957
1569254906.41132
1569254906.42695
1569254906.44257
1569254906.4582
1569254906.47383
1569254906.48945
1569254906.50508
1569254906.5207
1569254906.53633
1569254906.55195
1569254906.56758
1569254906.58321
1569254906.59883
1569254906.61446
1569254906.63008
1569254906.64571
1569254906.66133
1569254906.67696
1569254906.69259
1569254906.70821
1569254906.72384
1569254906.73946
1569254906.75509
1569254906.77071
1569254906.78634
1569254906.80197
1569254906.81759
1569254906.83322
1569254906.84884
1569254906.86447
1569254906.88009
1569254906.89572
1569254906.91135
1569254906.92697
1569254906.9426
1569254906.95822
1569254906.97385
1569254906.98947
1569254907.0051
1569254907.02073
1569254907.03635
1569254907.05198
1569254907.0676
1569254907.08323
1569254907.09885
1569254907.11448
1569254907.13011
1569254907.14573
1569254907.16136
1569254907.17698
1569254907.19261
1569254907.20823
1569254907.22386
1569254907.23949
1569254907.25511
1569254907.27074
1569254907.28636
1569254907.30199
1569254907.31761
1569254907.33324
1569254907.34887
1569254907.36449
1569254907.38012
1569254907.39574
1569254907.41137
1569254907.42699
1569254907.44262
1569254907.45825
1569254907.47387
1569254907.4895
1569254907.50512
1569254907.52075
1569254907.53637
1569254907.552
1569254907.56763
1569254907.58325
1569254907.59888
1569254907.6145
1569254907.63013
1569254907.64575
1569254907.66138
1569254907.67701
1569254907.69263
1569254907.70826
1569254907.72388
1569254907.73951
1569254907.75513
1569254907.77076
1569254907.78639
1569254907.80201
1569254907.81764
1569254907.83326
1569254907.84889
1569254907.86452
1569254907.88014
1569254907.89577
1569254907.91139
1569254907.92702
1569254907.94264
1569254907.95827
1569254907.9739
1569254907.98952
1569254908.00515
1569254908.02077
1569254908.0364
1569254908.05202
1569254908.06765
1569254908.08328
1569254908.0989
1569254908.11453
1569254908.13015
1569254908.14578
1569254908.1614
1569254908.17703
1569254908.19266
1569254908.20828
1569254908.22391
1569254908.23953
1569254908.25516
1569254908.27078
1569254908.28641
1569254908.30204
1569254908.31766
1569254908.33329
1569254908.34891
1569254908.36454
1569254908.38016
1569254908.39579
1569254908.41142
1569254908.42704
1569254908.44267
1569254908.45829
1569254908.47392
1569254908.48954
1569254908.50517
1569254908.5208
1569254908.53642
1569254908.55205
1569254908.56767
1569254908.5833
1569254908.59892
1569254908.61455
1569254908.63018
1569254908.6458
1569254908.66143
1569254908.67705
1569254908.69268
1569254908.7083
1569254908.72393
1569254908.73956
1569254908.75518
1569254908.77081
1569254908.78643
1569254908.80206
1569254908.81768
1569254908.83331
1569254908.84894
1569254908.86456
1569254908.88019
1569254908.89581
1569254908.91144
1569254908.92706
1569254908.94269
1569254908.95832
1569254908.97394
1569254908.98957
1569254909.00519
1569254909.02082
1569254909.03644
1569254909.05207
1569254909.0677
1569254909.08332
1569254909.09895
1569254909.11457
1569254909.1302
1569254909.14582
1569254909.16145
1569254909.17708
1569254909.1927
1569254909.20833
1569254909.22395
1569254909.23958
1569254909.2552
1569254909.27083
1569254909.28646
1569254909.30208
1569254909.31771
1569254909.33333
1569254909.34896
1569254909.36458
1569254909.38021
1569254909.39584
1569254909.41146
1569254909.42709
1569254909.44271
1569254909.45834
1569254909.47396
1569254909.48959
1569254909.50522
1569254909.52084
1569254909.53647
1569254909.55209
1569254909.56772
1569254909.58334
1569254909.59897
1569254909.6146
1569254909.63022
1569254909.64585
1569254909.66147
1569254909.6771
1569254909.69272
1569254909.70835
1569254909.72398
1569254909.7396
1569254909.75523
1569254909.77085
1569254909.78648
1569254909.8021
1569254909.81773
1569254909.83336
1569254909.84898
1569254909.86461
1569254909.88023
1569254909.89586
1569254909.91148
1569254909.92711
1569254909.94274
1569254909.95836
1569254909.97399
1569254909.98961
1569254910.00524
1569254910.02086
1569254910.03649
1569254910.05212
1569254910.06774
1569254910.08337
1569254910.09899
1569254910.11462
1569254910.13024
1569254910.14587
1569254910.1615
1569254910.17712
1569254910.19275
1569254910.20837
1569254910.224
1569254910.23962
1569254910.25525
1569254910.27088
1569254910.2865
1569254910.30213
1569254910.31775
1569254910.33338
1569254910.349
1569254910.36463
1569254910.38026
1569254910.39588
1569254910.41151
1569254910.42713
1569254910.44276
1569254910.45838
1569254910.47401
1569254910.48964
1569254910.50526
1569254910.52089
1569254910.53651
1569254910.55214
1569254910.56777
1569254910.58339
1569254910.59902
1569254910.61464
1569254910.63027
1569254910.64589
1569254910.66152
1569254910.67715
1569254910.69277
1569254910.7084
1569254910.72402
1569254910.73965
1569254910.75527
1569254910.7709
1569254910.78653
1569254910.80215
1569254910.81778
1569254910.8334
1569254910.84903
1569254910.86465
1569254910.88028
1569254910.89591
1569254910.91153
1569254910.92716
1569254910.94278
1569254910.95841
1569254910.97403
1569254910.98966
1569254911.00529
1569254911.02091
1569254911.03654
1569254911.05216
1569254911.06779
1569254911.08341
1569254911.09904
1569254911.11467
1569254911.13029
1569254911.14592
1569254911.16154
1569254911.17717
1569254911.19279
1569254911.20842
1569254911.22405
1569254911.23967
1569254911.2553
1569254911.27092
1569254911.28655
1569254911.30217
1569254911.3178
1569254911.33343
1569254911.34905
1569254911.36468
1569254911.3803
1569254911.39593
1569254911.41155
1569254911.42718
1569254911.44281
1569254911.45843
1569254911.47406
1569254911.48968
1569254911.50531
1569254911.52093
1569254911.53656
1569254911.55219
1569254911.56781
1569254911.58344
1569254911.59906
1569254911.61469
1569254911.63031
1569254911.64594
1569254911.66157
1569254911.67719
1569254911.69282
1569254911.70844
1569254911.72407
1569254911.73969
1569254911.75532
1569254911.77095
1569254911.78657
1569254911.8022
1569254911.81782
1569254911.83345
1569254911.84907
1569254911.8647
1569254911.88033
1569254911.89595
1569254911.91158
1569254911.9272
1569254911.94283
1569254911.95845
1569254911.97408
1569254911.98971
1569254912.00533
1569254912.02096
1569254912.03658
1569254912.05221
1569254912.06783
1569254912.08346
1569254912.09909
1569254912.11471
1569254912.13034
1569254912.14596
1569254912.16159
1569254912.17721
1569254912.19284
1569254912.20847
1569254912.22409
1569254912.23972
1569254912.25534
1569254912.27097
1569254912.28659
1569254912.30222
1569254912.31785
1569254912.33347
1569254912.3491
1569254912.36472
1569254912.38035
1569254912.39597
1569254912.4116
1569254912.42723
1569254912.44285
1569254912.45848
1569254912.4741
1569254912.48973
1569254912.50535
1569254912.52098
1569254912.53661
1569254912.55223
1569254912.56786
1569254912.58348
1569254912.59911
1569254912.61473
1569254912.63036
1569254912.64599
1569254912.66161
1569254912.67724
1569254912.69286
1569254912.70849
1569254912.72412
1569254912.73974
1569254912.75537
1569254912.77099
1569254912.78662
1569254912.80224
1569254912.81787
1569254912.8335
1569254912.84912
1569254912.86475
1569254912.88037
1569254912.896
1569254912.91162
1569254912.92725
1569254912.94288
1569254912.9585
1569254912.97413
1569254912.98975
1569254913.00538
1569254913.021
1569254913.03663
1569254913.05226
1569254913.06788
1569254913.08351
1569254913.09913
1569254913.11476
1569254913.13038
1569254913.14601
1569254913.16164
1569254913.17726
1569254913.19289
1569254913.20851
1569254913.22414
1569254913.23976
1569254913.25539
1569254913.27102
1569254913.28664
1569254913.30227
1569254913.31789
1569254913.33352
1569254913.34914
1569254913.36477
1569254913.3804
1569254913.39602
1569254913.41165
1569254913.42727
1569254913.4429
1569254913.45852
1569254913.47415
1569254913.48978
1569254913.5054
1569254913.52103
1569254913.53665
1569254913.55228
1569254913.5679
1569254913.58353
1569254913.59916
1569254913.61478
1569254913.63041
1569254913.64603
1569254913.66166
1569254913.67728
1569254913.69291
1569254913.70854
1569254913.72416
1569254913.73979
1569254913.75541
1569254913.77104
1569254913.78666
1569254913.80229
1569254913.81792
1569254913.83354
1569254913.84917
1569254913.86479
1569254913.88042
1569254913.89604
1569254913.91167
1569254913.9273
1569254913.94292
1569254913.95855
1569254913.97417
1569254913.9898
1569254914.00542
1569254914.02105
1569254914.03668
1569254914.0523
1569254914.06793
1569254914.08355
1569254914.09918
1569254914.1148
1569254914.13043
1569254914.14606
1569254914.16168
1569254914.17731
1569254914.19293
1569254914.20856
1569254914.22418
1569254914.23981
1569254914.25544
1569254914.27106
1569254914.28669
1569254914.30231
1569254914.31794
1569254914.33356
1569254914.34919
1569254914.36482
1569254914.38044
1569254914.39607
1569254914.41169
1569254914.42732
1569254914.44294
1569254914.45857
1569254914.4742
1569254914.48982
1569254914.50545
1569254914.52107
1569254914.5367
1569254914.55232
1569254914.56795
1569254914.58358
1569254914.5992
1569254914.61483
1569254914.63045
1569254914.64608
1569254914.6617
1569254914.67733
1569254914.69296
1569254914.70858
1569254914.72421
1569254914.73983
1569254914.75546
1569254914.77108
1569254914.78671
1569254914.80234
1569254914.81796
1569254914.83359
1569254914.84921
1569254914.86484
1569254914.88046
1569254914.89609
1569254914.91172
1569254914.92734
1569254914.94297
1569254914.95859
1569254914.97422
1569254914.98985
1569254915.00547
1569254915.0211
1569254915.03672
1569254915.05235
1569254915.06797
1569254915.0836
1569254915.09923
1569254915.11485
1569254915.13048
1569254915.1461
1569254915.16173
1569254915.17735
1569254915.19298
1569254915.20861
1569254915.22423
1569254915.23986
1569254915.25548
1569254915.27111
1569254915.28673
1569254915.30236
1569254915.31799
1569254915.33361
1569254915.34924
1569254915.36486
1569254915.38049
1569254915.39611
1569254915.41174
1569254915.42737
1569254915.44299
1569254915.45862
1569254915.47424
1569254915.48987
1569254915.50549
1569254915.52112
1569254915.53675
1569254915.55237
1569254915.568
1569254915.58362
1569254915.59925
1569254915.61487
1569254915.6305
1569254915.64613
1569254915.66175
1569254915.67738
1569254915.693
1569254915.70863
1569254915.72425
1569254915.73988
1569254915.75551
1569254915.77113
1569254915.78676
1569254915.80238
1569254915.81801
1569254915.83363
1569254915.84926
1569254915.86489
1569254915.88051
1569254915.89614
1569254915.91176
1569254915.92739
1569254915.94301
1569254915.95864
1569254915.97427
1569254915.98989
1569254916.00552
1569254916.02114
1569254916.03677
1569254916.05239
1569254916.06802
1569254916.08365
1569254916.09927
1569254916.1149
1569254916.13052
1569254916.14615
1569254916.16177
1569254916.1774
1569254916.19303
1569254916.20865
1569254916.22428
1569254916.2399
1569254916.25553
1569254916.27115
1569254916.28678
1569254916.30241
1569254916.31803
1569254916.33366
1569254916.34928
1569254916.36491
1569254916.38053
1569254916.39616
1569254916.41179
1569254916.42741
1569254916.44304
1569254916.45866
1569254916.47429
1569254916.48991
1569254916.50554
1569254916.52117
1569254916.53679
1569254916.55242
1569254916.56804
1569254916.58367
1569254916.59929
1569254916.61492
1569254916.63055
1569254916.64617
1569254916.6618
1569254916.67742
1569254916.69305
1569254916.70867
1569254916.7243
1569254916.73993
1569254916.75555
1569254916.77118
1569254916.7868
1569254916.80243
1569254916.81805
1569254916.83368
1569254916.84931
1569254916.86493
1569254916.88056
1569254916.89618
1569254916.91181
1569254916.92743
1569254916.94306
1569254916.95869
1569254916.97431
1569254916.98994
1569254917.00556
1569254917.02119
1569254917.03681
1569254917.05244
1569254917.06807
1569254917.08369
1569254917.09932
1569254917.11494
1569254917.13057
1569254917.14619
1569254917.16182
1569254917.17745
1569254917.19307
1569254917.2087
1569254917.22432
1569254917.23995
1569254917.25557
1569254917.2712
1569254917.28683
1569254917.30245
1569254917.31808
1569254917.3337
1569254917.34933
1569254917.36495
1569254917.38058
1569254917.39621
1569254917.41183
1569254917.42746
1569254917.44308
1569254917.45871
1569254917.47433
1569254917.48996
1569254917.50559
1569254917.52121
1569254917.53684
1569254917.55246
1569254917.56809
1569254917.58372
1569254917.59934
1569254917.61497
1569254917.63059
1569254917.64622
1569254917.66184
1569254917.67747
1569254917.6931
1569254917.70872
1569254917.72435
1569254917.73997
1569254917.7556
1569254917.77122
1569254917.78685
1569254917.80248
1569254917.8181
1569254917.83373
1569254917.84935
1569254917.86498
1569254917.8806
1569254917.89623
1569254917.91186
1569254917.92748
1569254917.94311
1569254917.95873
1569254917.97436
1569254917.98998
1569254918.00561
1569254918.02124
1569254918.03686
1569254918.05249
1569254918.06811
1569254918.08374
1569254918.09936
1569254918.11499
1569254918.13062
1569254918.14624
1569254918.16187
1569254918.17749
1569254918.19312
1569254918.20874
1569254918.22437
1569254918.24
1569254918.25562
1569254918.27125
1569254918.28687
1569254918.3025
1569254918.31812
1569254918.33375
1569254918.34938
1569254918.365
1569254918.38063
1569254918.39625
1569254918.41188
1569254918.4275
1569254918.44313
1569254918.45876
1569254918.47438
1569254918.49001
1569254918.50563
1569254918.52126
1569254918.53688
1569254918.55251
1569254918.56814
1569254918.58376
1569254918.59939
1569254918.61501
1569254918.63064
1569254918.64626
1569254918.66189
1569254918.67752
1569254918.69314
1569254918.70877
1569254918.72439
1569254918.74002
1569254918.75564
1569254918.77127
1569254918.7869
1569254918.80252
1569254918.81815
1569254918.83377
1569254918.8494
1569254918.86502
1569254918.88065
1569254918.89628
1569254918.9119
1569254918.92753
1569254918.94315
1569254918.95878
1569254918.9744
1569254918.99003
1569254919.00566
1569254919.02128
1569254919.03691
1569254919.05253
1569254919.06816
1569254919.08378
1569254919.09941
1569254919.11504
1569254919.13066
1569254919.14629
1569254919.16191
1569254919.17754
1569254919.19316
1569254919.20879
1569254919.22442
1569254919.24004
1569254919.25567
1569254919.27129
1569254919.28692
1569254919.30254
1569254919.31817
1569254919.3338
1569254919.34942
1569254919.36505
1569254919.38067
1569254919.3963
1569254919.41192
1569254919.42755
1569254919.44318
1569254919.4588
1569254919.47443
1569254919.49005
1569254919.50568
1569254919.5213
1569254919.53693
1569254919.55256
1569254919.56818
1569254919.58381
1569254919.59943
1569254919.61506
1569254919.63068
1569254919.64631
1569254919.66194
1569254919.67756
1569254919.69319
1569254919.70881
1569254919.72444
1569254919.74006
1569254919.75569
1569254919.77132
1569254919.78694
1569254919.80257
1569254919.81819
1569254919.83382
1569254919.84945
1569254919.86507
1569254919.8807
1569254919.89632
1569254919.91195
1569254919.92757
1569254919.9432
1569254919.95883
1569254919.97445
1569254919.99008
1569254920.0057
1569254920.02133
1569254920.03695
1569254920.05258
1569254920.06821
1569254920.08383
1569254920.09946
1569254920.11508
1569254920.13071
1569254920.14633
1569254920.16196
1569254920.17759
1569254920.19321
1569254920.20884
1569254920.22446
1569254920.24009
1569254920.25571
1569254920.27134
1569254920.28697
1569254920.30259
1569254920.31822
1569254920.33384
1569254920.34947
1569254920.36509
1569254920.38072
1569254920.39635
1569254920.41197
1569254920.4276
1569254920.44322
1569254920.45885
1569254920.47447
1569254920.4901
1569254920.50573
1569254920.52135
1569254920.53698
1569254920.5526
1569254920.56823
1569254920.58385
1569254920.59948
1569254920.61511
1569254920.63073
1569254920.64636
1569254920.66198
1569254920.67761
1569254920.69323
1569254920.70886
1569254920.72449
1569254920.74011
1569254920.75574
1569254920.77136
1569254920.78699
1569254920.80261
1569254920.81824
1569254920.83387
1569254920.84949
1569254920.86512
1569254920.88074
1569254920.89637
1569254920.91199
1569254920.92762
1569254920.94325
1569254920.95887
1569254920.9745
1569254920.99012
1569254921.00575
1569254921.02137
1569254921.037
1569254921.05263
1569254921.06825
1569254921.08388
1569254921.0995
1569254921.11513
1569254921.13075
1569254921.14638
1569254921.16201
1569254921.17763
1569254921.19326
1569254921.20888
1569254921.22451
1569254921.24013
1569254921.25576
1569254921.27139
1569254921.28701
1569254921.30264
1569254921.31826
1569254921.33389
1569254921.34951
1569254921.36514
1569254921.38077
1569254921.39639
1569254921.41202
1569254921.42764
1569254921.44327
1569254921.45889
1569254921.47452
1569254921.49015
1569254921.50577
1569254921.5214
1569254921.53702
1569254921.55265
1569254921.56827
1569254921.5839
1569254921.59953
1569254921.61515
1569254921.63078
1569254921.6464
1569254921.66203
1569254921.67765
1569254921.69328
1569254921.70891
1569254921.72453
1569254921.74016
1569254921.75578
1569254921.77141
1569254921.78703
1569254921.80266
1569254921.81829
1569254921.83391
1569254921.84954
1569254921.86516
1569254921.88079
1569254921.89641
1569254921.91204
1569254921.92767
1569254921.94329
1569254921.95892
1569254921.97454
1569254921.99017
1569254922.0058
1569254922.02142
1569254922.03705
1569254922.05267
1569254922.0683
1569254922.08392
1569254922.09955
1569254922.11518
1569254922.1308
1569254922.14643
1569254922.16205
1569254922.17768
1569254922.1933
1569254922.20893
1569254922.22456
1569254922.24018
1569254922.25581
1569254922.27143
1569254922.28706
1569254922.30268
1569254922.31831
1569254922.33394
1569254922.34956
1569254922.36519
1569254922.38081
1569254922.39644
1569254922.41206
1569254922.42769
1569254922.44332
1569254922.45894
1569254922.47457
1569254922.49019
1569254922.50582
1569254922.52144
1569254922.53707
1569254922.5527
1569254922.56832
1569254922.58395
1569254922.59957
1569254922.6152
1569254922.63082
1569254922.64645
1569254922.66208
1569254922.6777
1569254922.69333
1569254922.70895
1569254922.72458
1569254922.7402
1569254922.75583
1569254922.77146
1569254922.78708
1569254922.80271
1569254922.81833
1569254922.83396
1569254922.84958
1569254922.86521
1569254922.88084
1569254922.89646
1569254922.91209
1569254922.92771
1569254922.94334
1569254922.95896
1569254922.97459
1569254922.99022
1569254923.00584
1569254923.02147
1569254923.03709
1569254923.05272
1569254923.06834
1569254923.08397
1569254923.0996
1569254923.11522
1569254923.13085
1569254923.14647
1569254923.1621
1569254923.17772
1569254923.19335
1569254923.20898
1569254923.2246
1569254923.24023
1569254923.25585
1569254923.27148
1569254923.2871
1569254923.30273
1569254923.31836
1569254923.33398
1569254923.34961
1569254923.36523
1569254923.38086
1569254923.39648
1569254923.41211
1569254923.42774
1569254923.44336
1569254923.45899
1569254923.47461
1569254923.49024
1569254923.50586
1569254923.52149
1569254923.53712
1569254923.55274
1569254923.56837
1569254923.58399
1569254923.59962
1569254923.61524
1569254923.63087
1569254923.6465
1569254923.66212
1569254923.67775
1569254923.69337
1569254923.709
1569254923.72462
1569254923.74025
1569254923.75588
1569254923.7715
1569254923.78713
1569254923.80275
1569254923.81838
1569254923.834
1569254923.84963
1569254923.86526
1569254923.88088
1569254923.89651
1569254923.91213
1569254923.92776
1569254923.94338
1569254923.95901
1569254923.97464
1569254923.99026
1569254924.00589
1569254924.02151
1569254924.03714
1569254924.05276
1569254924.06839
1569254924.08402
1569254924.09964
1569254924.11527
1569254924.13089
1569254924.14652
1569254924.16214
1569254924.17777
1569254924.1934
1569254924.20902
1569254924.22465
1569254924.24027
1569254924.2559
1569254924.27152
1569254924.28715
1569254924.30278
1569254924.3184
1569254924.33403
1569254924.34965
1569254924.36528
1569254924.3809
1569254924.39653
1569254924.41216
1569254924.42778
1569254924.44341
1569254924.45903
1569254924.47466
1569254924.49028
1569254924.50591
1569254924.52154
1569254924.53716
1569254924.55279
1569254924.56841
1569254924.58404
1569254924.59966
1569254924.61529
1569254924.63092
1569254924.64654
1569254924.66217
1569254924.67779
1569254924.69342
1569254924.70905
1569254924.72467
1569254924.7403
1569254924.75592
1569254924.77155
1569254924.78717
1569254924.8028
1569254924.81843
1569254924.83405
1569254924.84968
1569254924.8653
1569254924.88093
1569254924.89655
1569254924.91218
1569254924.92781
1569254924.94343
1569254924.95906
1569254924.97468
1569254924.99031
1569254925.00593
1569254925.02156
1569254925.03719
1569254925.05281
1569254925.06844
1569254925.08406
1569254925.09969
1569254925.11531
1569254925.13094
1569254925.14657
1569254925.16219
1569254925.17782
1569254925.19344
1569254925.20907
1569254925.22469
1569254925.24032
1569254925.25595
1569254925.27157
1569254925.2872
1569254925.30282
1569254925.31845
1569254925.33407
1569254925.3497
1569254925.36533
1569254925.38095
1569254925.39658
1569254925.4122
1569254925.42783
1569254925.44345
1569254925.45908
1569254925.47471
1569254925.49033
1569254925.50596
1569254925.52158
1569254925.53721
1569254925.55283
1569254925.56846
1569254925.58409
1569254925.59971
1569254925.61534
1569254925.63096
1569254925.64659
1569254925.66221
1569254925.67784
1569254925.69347
1569254925.70909
1569254925.72472
1569254925.74034
1569254925.75597
1569254925.77159
1569254925.78722
1569254925.80285
1569254925.81847
1569254925.8341
1569254925.84972
1569254925.86535
1569254925.88097
1569254925.8966
1569254925.91223
1569254925.92785
1569254925.94348
1569254925.9591
1569254925.97473
1569254925.99035
1569254926.00598
1569254926.02161
1569254926.03723
1569254926.05286
1569254926.06848
1569254926.08411
1569254926.09973
1569254926.11536
1569254926.13099
1569254926.14661
1569254926.16224
1569254926.17786
1569254926.19349
1569254926.20911
1569254926.22474
1569254926.24037
1569254926.25599
1569254926.27162
1569254926.28724
1569254926.30287
1569254926.31849
1569254926.33412
1569254926.34975
1569254926.36537
1569254926.381
1569254926.39662
1569254926.41225
1569254926.42787
1569254926.4435
1569254926.45913
1569254926.47475
1569254926.49038
1569254926.506
1569254926.52163
1569254926.53725
1569254926.55288
1569254926.56851
1569254926.58413
1569254926.59976
1569254926.61538
1569254926.63101
1569254926.64663
1569254926.66226
1569254926.67789
1569254926.69351
1569254926.70914
1569254926.72476
1569254926.74039
1569254926.75601
1569254926.77164
1569254926.78727
1569254926.80289
1569254926.81852
1569254926.83414
1569254926.84977
1569254926.86539
1569254926.88102
1569254926.89665
1569254926.91227
1569254926.9279
1569254926.94352
1569254926.95915
1569254926.97478
1569254926.9904
1569254927.00603
1569254927.02165
1569254927.03728
1569254927.0529
1569254927.06853
1569254927.08416
1569254927.09978
1569254927.11541
1569254927.13103
1569254927.14666
1569254927.16228
1569254927.17791
1569254927.19354
1569254927.20916
1569254927.22479
1569254927.24041
1569254927.25604
1569254927.27166
1569254927.28729
1569254927.30292
1569254927.31854
1569254927.33417
1569254927.34979
1569254927.36542
1569254927.38104
1569254927.39667
1569254927.4123
1569254927.42792
1569254927.44355
1569254927.45917
1569254927.4748
1569254927.49042
1569254927.50605
1569254927.52168
1569254927.5373
1569254927.55293
1569254927.56855
1569254927.58418
1569254927.5998
1569254927.61543
1569254927.63106
1569254927.64668
1569254927.66231
1569254927.67793
1569254927.69356
1569254927.70918
1569254927.72481
1569254927.74044
1569254927.75606
1569254927.77169
1569254927.78731
1569254927.80294
1569254927.81856
1569254927.83419
1569254927.84982
1569254927.86544
1569254927.88107
1569254927.89669
1569254927.91232
1569254927.92794
1569254927.94357
1569254927.9592
1569254927.97482
1569254927.99045
1569254928.00607
1569254928.0217
1569254928.03732
1569254928.05295
1569254928.06858
1569254928.0842
1569254928.09983
1569254928.11545
1569254928.13108
1569254928.1467
1569254928.16233
1569254928.17796
1569254928.19358
1569254928.20921
1569254928.22483
1569254928.24046
1569254928.25608
1569254928.27171
1569254928.28734
1569254928.30296
1569254928.31859
1569254928.33421
1569254928.34984
1569254928.36546
1569254928.38109
1569254928.39672
1569254928.41234
1569254928.42797
1569254928.44359
1569254928.45922
1569254928.47484
1569254928.49047
1569254928.5061
1569254928.52172
1569254928.53735
1569254928.55297
1569254928.5686
1569254928.58422
1569254928.59985
1569254928.61548
1569254928.6311
1569254928.64673
1569254928.66235
1569254928.67798
1569254928.6936
1569254928.70923
1569254928.72486
1569254928.74048
1569254928.75611
1569254928.77173
1569254928.78736
1569254928.80298
1569254928.81861
1569254928.83424
1569254928.84986
1569254928.86549
1569254928.88111
1569254928.89674
1569254928.91236
1569254928.92799
1569254928.94362
1569254928.95924
1569254928.97487
1569254928.99049
1569254929.00612
1569254929.02174
1569254929.03737
1569254929.053
1569254929.06862
1569254929.08425
1569254929.09987
1569254929.1155
1569254929.13112
1569254929.14675
1569254929.16238
1569254929.178
1569254929.19363
1569254929.20925
1569254929.22488
1569254929.2405
1569254929.25613
1569254929.27176
1569254929.28738
1569254929.30301
1569254929.31863
1569254929.33426
1569254929.34988
1569254929.36551
1569254929.38114
1569254929.39676
1569254929.41239
1569254929.42801
1569254929.44364
1569254929.45926
1569254929.47489
1569254929.49052
1569254929.50614
1569254929.52177
1569254929.53739
1569254929.55302
1569254929.56865
1569254929.58427
1569254929.5999
1569254929.61552
1569254929.63115
1569254929.64677
1569254929.6624
1569254929.67803
1569254929.69365
1569254929.70928
1569254929.7249
1569254929.74053
1569254929.75615
1569254929.77178
1569254929.78741
1569254929.80303
1569254929.81866
1569254929.83428
1569254929.84991
1569254929.86553
1569254929.88116
1569254929.89679
1569254929.91241
1569254929.92804
1569254929.94366
1569254929.95929
1569254929.97491
1569254929.99054
1569254930.00617
1569254930.02179
1569254930.03742
1569254930.05304
1569254930.06867
1569254930.08429
1569254930.09992
1569254930.11555
1569254930.13117
1569254930.1468
1569254930.16242
1569254930.17805
1569254930.19367
1569254930.2093
1569254930.22493
1569254930.24055
1569254930.25618
1569254930.2718
1569254930.28743
1569254930.30305
1569254930.31868
1569254930.33431
1569254930.34993
1569254930.36556
1569254930.38118
1569254930.39681
1569254930.41243
1569254930.42806
1569254930.44369
1569254930.45931
1569254930.47494
1569254930.49056
1569254930.50619
1569254930.52181
1569254930.53744
1569254930.55307
1569254930.56869
1569254930.58432
1569254930.59994
1569254930.61557
1569254930.63119
1569254930.64682
1569254930.66245
1569254930.67807
1569254930.6937
1569254930.70932
1569254930.72495
1569254930.74057
1569254930.7562
1569254930.77183
1569254930.78745
1569254930.80308
1569254930.8187
1569254930.83433
1569254930.84995
1569254930.86558
1569254930.88121
1569254930.89683
1569254930.91246
1569254930.92808
1569254930.94371
1569254930.95933
1569254930.97496
1569254930.99059
1569254931.00621
1569254931.02184
1569254931.03746
1569254931.05309
1569254931.06871
1569254931.08434
1569254931.09997
1569254931.11559
1569254931.13122
1569254931.14684
1569254931.16247
1569254931.17809
1569254931.19372
1569254931.20935
1569254931.22497
1569254931.2406
1569254931.25622
1569254931.27185
1569254931.28747
1569254931.3031
1569254931.31873
1569254931.33435
1569254931.34998
1569254931.3656
1569254931.38123
1569254931.39685
1569254931.41248
1569254931.42811
1569254931.44373
1569254931.45936
1569254931.47498
1569254931.49061
1569254931.50623
1569254931.52186
1569254931.53749
1569254931.55311
1569254931.56874
1569254931.58436
1569254931.59999
1569254931.61561
1569254931.63124
1569254931.64687
1569254931.66249
1569254931.67812
1569254931.69374
1569254931.70937
1569254931.72499
1569254931.74062
1569254931.75625
1569254931.77187
1569254931.7875
1569254931.80312
1569254931.81875
1569254931.83438
1569254931.85
1569254931.86563
1569254931.88125
1569254931.89688
1569254931.9125
1569254931.92813
1569254931.94376
1569254931.95938
1569254931.97501
1569254931.99063
1569254932.00626
1569254932.02188
1569254932.03751
1569254932.05314
1569254932.06876
1569254932.08439
1569254932.10001
1569254932.11564
1569254932.13126
1569254932.14689
1569254932.16252
1569254932.17814
1569254932.19377
1569254932.20939
1569254932.22502
1569254932.24064
1569254932.25627
1569254932.2719
1569254932.28752
1569254932.30315
1569254932.31877
1569254932.3344
1569254932.35002
1569254932.36565
1569254932.38128
1569254932.3969
1569254932.41253
1569254932.42815
1569254932.44378
1569254932.4594
1569254932.47503
1569254932.49066
1569254932.50628
1569254932.52191
1569254932.53753
1569254932.55316
1569254932.56878
1569254932.58441
1569254932.60004
1569254932.61566
1569254932.63129
1569254932.64691
1569254932.66254
1569254932.67816
1569254932.69379
1569254932.70942
1569254932.72504
1569254932.74067
1569254932.75629
1569254932.77192
1569254932.78754
1569254932.80317
1569254932.8188
1569254932.83442
1569254932.85005
1569254932.86567
1569254932.8813
1569254932.89692
1569254932.91255
1569254932.92818
1569254932.9438
1569254932.95943
1569254932.97505
1569254932.99068
1569254933.0063
1569254933.02193
1569254933.03756
1569254933.05318
1569254933.06881
1569254933.08443
1569254933.10006
1569254933.11568
1569254933.13131
1569254933.14694
1569254933.16256
1569254933.17819
1569254933.19381
1569254933.20944
1569254933.22506
1569254933.24069
1569254933.25632
1569254933.27194
1569254933.28757
1569254933.30319
1569254933.31882
1569254933.33444
1569254933.35007
1569254933.3657
1569254933.38132
1569254933.39695
1569254933.41257
1569254933.4282
1569254933.44382
1569254933.45945
1569254933.47508
1569254933.4907
1569254933.50633
1569254933.52195
1569254933.53758
1569254933.5532
1569254933.56883
1569254933.58446
1569254933.60008
1569254933.61571
1569254933.63133
1569254933.64696
1569254933.66258
1569254933.67821
1569254933.69384
1569254933.70946
1569254933.72509
1569254933.74071
1569254933.75634
1569254933.77196
1569254933.78759
1569254933.80322
1569254933.81884
1569254933.83447
1569254933.85009
1569254933.86572
1569254933.88134
1569254933.89697
1569254933.9126
1569254933.92822
1569254933.94385
1569254933.95947
1569254933.9751
1569254933.99073
1569254934.00635
1569254934.02198
1569254934.0376
1569254934.05323
1569254934.06885
1569254934.08448
1569254934.10011
1569254934.11573
1569254934.13136
1569254934.14698
1569254934.16261
1569254934.17823
1569254934.19386
1569254934.20949
1569254934.22511
1569254934.24074
1569254934.25636
1569254934.27199
1569254934.28761
1569254934.30324
1569254934.31887
1569254934.33449
1569254934.35012
1569254934.36574
1569254934.38137
1569254934.39699
1569254934.41262
1569254934.42825
1569254934.44387
1569254934.4595
1569254934.47512
1569254934.49075
1569254934.50637
1569254934.522
1569254934.53763
1569254934.55325
1569254934.56888
1569254934.5845
1569254934.60013
1569254934.61575
1569254934.63138
1569254934.64701
1569254934.66263
1569254934.67826
1569254934.69388
1569254934.70951
1569254934.72513
1569254934.74076
1569254934.75639
1569254934.77201
1569254934.78764
1569254934.80326
1569254934.81889
1569254934.83451
1569254934.85014
1569254934.86577
1569254934.88139
1569254934.89702
1569254934.91264
1569254934.92827
1569254934.94389
1569254934.95952
1569254934.97515
1569254934.99077
1569254935.0064
1569254935.02202
1569254935.03765
1569254935.05327
1569254935.0689
1569254935.08453
1569254935.10015
1569254935.11578
1569254935.1314
1569254935.14703
1569254935.16265
1569254935.17828
1569254935.19391
1569254935.20953
1569254935.22516
1569254935.24078
1569254935.25641
1569254935.27203
1569254935.28766
1569254935.30329
1569254935.31891
1569254935.33454
1569254935.35016
1569254935.36579
1569254935.38141
1569254935.39704
1569254935.41267
1569254935.42829
1569254935.44392
1569254935.45954
1569254935.47517
1569254935.49079
1569254935.50642
1569254935.52205
1569254935.53767
1569254935.5533
1569254935.56892
1569254935.58455
1569254935.60017
1569254935.6158
1569254935.63143
1569254935.64705
1569254935.66268
1569254935.6783
1569254935.69393
1569254935.70955
1569254935.72518
1569254935.74081
1569254935.75643
1569254935.77206
1569254935.78768
1569254935.80331
1569254935.81893
1569254935.83456
1569254935.85019
1569254935.86581
1569254935.88144
1569254935.89706
1569254935.91269
1569254935.92831
1569254935.94394
1569254935.95957
1569254935.97519
1569254935.99082
1569254936.00644
1569254936.02207
1569254936.03769
1569254936.05332
1569254936.06895
1569254936.08457
1569254936.1002
1569254936.11582
1569254936.13145
1569254936.14707
1569254936.1627
1569254936.17833
1569254936.19395
1569254936.20958
1569254936.2252
1569254936.24083
1569254936.25645
1569254936.27208
1569254936.28771
1569254936.30333
1569254936.31896
1569254936.33458
1569254936.35021
1569254936.36583
1569254936.38146
1569254936.39709
1569254936.41271
1569254936.42834
1569254936.44396
1569254936.45959
1569254936.47521
1569254936.49084
1569254936.50647
1569254936.52209
1569254936.53772
1569254936.55334
1569254936.56897
1569254936.58459
1569254936.60022
1569254936.61585
1569254936.63147
1569254936.6471
1569254936.66272
1569254936.67835
1569254936.69398
1569254936.7096
1569254936.72523
1569254936.74085
1569254936.75648
1569254936.7721
1569254936.78773
1569254936.80336
1569254936.81898
1569254936.83461
1569254936.85023
1569254936.86586
1569254936.88148
1569254936.89711
1569254936.91274
1569254936.92836
1569254936.94399
1569254936.95961
1569254936.97524
1569254936.99086
1569254937.00649
1569254937.02212
1569254937.03774
1569254937.05337
1569254937.06899
1569254937.08462
1569254937.10024
1569254937.11587
1569254937.1315
1569254937.14712
1569254937.16275
1569254937.17837
1569254937.194
1569254937.20962
1569254937.22525
1569254937.24088
1569254937.2565
1569254937.27213
1569254937.28775
1569254937.30338
1569254937.319
1569254937.33463
1569254937.35026
1569254937.36588
1569254937.38151
1569254937.39713
1569254937.41276
1569254937.42838
1569254937.44401
1569254937.45964
1569254937.47526
1569254937.49089
1569254937.50651
1569254937.52214
1569254937.53776
1569254937.55339
1569254937.56902
1569254937.58464
1569254937.60027
1569254937.61589
1569254937.63152
1569254937.64714
1569254937.66277
1569254937.6784
1569254937.69402
1569254937.70965
1569254937.72527
1569254937.7409
1569254937.75652
1569254937.77215
1569254937.78778
1569254937.8034
1569254937.81903
1569254937.83465
1569254937.85028
1569254937.8659
1569254937.88153
1569254937.89716
1569254937.91278
1569254937.92841
1569254937.94403
1569254937.95966
1569254937.97528
1569254937.99091
1569254938.00654
1569254938.02216
1569254938.03779
1569254938.05341
1569254938.06904
1569254938.08466
1569254938.10029
1569254938.11592
1569254938.13154
1569254938.14717
1569254938.16279
1569254938.17842
1569254938.19404
1569254938.20967
1569254938.2253
1569254938.24092
1569254938.25655
1569254938.27217
1569254938.2878
1569254938.30342
1569254938.31905
1569254938.33468
1569254938.3503
1569254938.36593
1569254938.38155
1569254938.39718
1569254938.4128
1569254938.42843
1569254938.44406
1569254938.45968
1569254938.47531
1569254938.49093
1569254938.50656
1569254938.52218
1569254938.53781
1569254938.55344
1569254938.56906
1569254938.58469
1569254938.60031
1569254938.61594
1569254938.63156
1569254938.64719
1569254938.66282
1569254938.67844
1569254938.69407
1569254938.70969
1569254938.72532
1569254938.74094
1569254938.75657
1569254938.7722
1569254938.78782
1569254938.80345
1569254938.81907
1569254938.8347
1569254938.85033
1569254938.86595
1569254938.88158
1569254938.8972
1569254938.91283
1569254938.92845
1569254938.94408
1569254938.95971
1569254938.97533
1569254938.99096
1569254939.00658
1569254939.02221
1569254939.03783
1569254939.05346
1569254939.06909
1569254939.08471
1569254939.10034
1569254939.11596
1569254939.13159
1569254939.14721
1569254939.16284
1569254939.17847
1569254939.19409
1569254939.20972
1569254939.22534
1569254939.24097
1569254939.25659
1569254939.27222
1569254939.28785
1569254939.30347
1569254939.3191
1569254939.33472
1569254939.35035
1569254939.36597
1569254939.3816
1569254939.39723
1569254939.41285
1569254939.42848
1569254939.4441
1569254939.45973
1569254939.47535
1569254939.49098
1569254939.50661
1569254939.52223
1569254939.53786
1569254939.55348
1569254939.56911
1569254939.58473
1569254939.60036
1569254939.61599
1569254939.63161
1569254939.64724
1569254939.66286
1569254939.67849
1569254939.69411
1569254939.70974
1569254939.72537
1569254939.74099
1569254939.75662
1569254939.77224
1569254939.78787
1569254939.80349
1569254939.81912
1569254939.83475
1569254939.85037
1569254939.866
1569254939.88162
1569254939.89725
1569254939.91287
1569254939.9285
1569254939.94413
1569254939.95975
1569254939.97538
1569254939.991
1569254940.00663
1569254940.02225
1569254940.03788
1569254940.05351
1569254940.06913
1569254940.08476
1569254940.10038
1569254940.11601
1569254940.13163
1569254940.14726
1569254940.16289
1569254940.17851
1569254940.19414
1569254940.20976
1569254940.22539
1569254940.24101
1569254940.25664
1569254940.27227
1569254940.28789
1569254940.30352
1569254940.31914
1569254940.33477
1569254940.35039
1569254940.36602
1569254940.38165
1569254940.39727
1569254940.4129
1569254940.42852
1569254940.44415
1569254940.45977
1569254940.4754
1569254940.49103
1569254940.50665
1569254940.52228
1569254940.5379
1569254940.55353
1569254940.56915
1569254940.58478
1569254940.60041
1569254940.61603
1569254940.63166
1569254940.64728
1569254940.66291
1569254940.67853
1569254940.69416
1569254940.70979
1569254940.72541
1569254940.74104
1569254940.75666
1569254940.77229
1569254940.78791
1569254940.80354
1569254940.81917
1569254940.83479
1569254940.85042
1569254940.86604
1569254940.88167
1569254940.89729
1569254940.91292
1569254940.92855
1569254940.94417
1569254940.9598
1569254940.97542
1569254940.99105
1569254941.00667
1569254941.0223
1569254941.03793
1569254941.05355
1569254941.06918
1569254941.0848
1569254941.10043
1569254941.11606
1569254941.13168
1569254941.14731
1569254941.16293
1569254941.17856
1569254941.19418
1569254941.20981
1569254941.22544
1569254941.24106
1569254941.25669
1569254941.27231
1569254941.28794
1569254941.30356
1569254941.31919
1569254941.33482
1569254941.35044
1569254941.36607
1569254941.38169
1569254941.39732
1569254941.41294
1569254941.42857
1569254941.4442
1569254941.45982
1569254941.47545
1569254941.49107
1569254941.5067
1569254941.52232
1569254941.53795
1569254941.55358
1569254941.5692
1569254941.58483
1569254941.60045
1569254941.61608
1569254941.6317
1569254941.64733
1569254941.66296
1569254941.67858
1569254941.69421
1569254941.70983
1569254941.72546
1569254941.74108
1569254941.75671
1569254941.77234
1569254941.78796
1569254941.80359
1569254941.81921
1569254941.83484
1569254941.85046
1569254941.86609
1569254941.88172
1569254941.89734
1569254941.91297
1569254941.92859
1569254941.94422
1569254941.95984
1569254941.97547
1569254941.9911
1569254942.00672
1569254942.02235
1569254942.03797
1569254942.0536
1569254942.06922
1569254942.08485
1569254942.10048
1569254942.1161
1569254942.13173
1569254942.14735
1569254942.16298
1569254942.1786
1569254942.19423
1569254942.20986
1569254942.22548
1569254942.24111
1569254942.25673
1569254942.27236
1569254942.28798
1569254942.30361
1569254942.31924
1569254942.33486
1569254942.35049
1569254942.36611
1569254942.38174
1569254942.39736
1569254942.41299
1569254942.42862
1569254942.44424
1569254942.45987
1569254942.47549
1569254942.49112
1569254942.50674
1569254942.52237
1569254942.538
1569254942.55362
1569254942.56925
1569254942.58487
1569254942.6005
1569254942.61612
1569254942.63175
1569254942.64738
1569254942.663
1569254942.67863
1569254942.69425
1569254942.70988
1569254942.7255
1569254942.74113
1569254942.75676
1569254942.77238
1569254942.78801
1569254942.80363
1569254942.81926
1569254942.83488
1569254942.85051
1569254942.86614
1569254942.88176
1569254942.89739
1569254942.91301
1569254942.92864
1569254942.94426
1569254942.95989
1569254942.97552
1569254942.99114
1569254943.00677
1569254943.02239
1569254943.03802
1569254943.05364
1569254943.06927
1569254943.0849
1569254943.10052
1569254943.11615
1569254943.13177
1569254943.1474
1569254943.16302
1569254943.17865
1569254943.19428
1569254943.2099
1569254943.22553
1569254943.24115
1569254943.25678
1569254943.2724
1569254943.28803
1569254943.30366
1569254943.31928
1569254943.33491
1569254943.35053
1569254943.36616
1569254943.38178
1569254943.39741
1569254943.41304
1569254943.42866
1569254943.44429
1569254943.45991
1569254943.47554
1569254943.49116
1569254943.50679
1569254943.52242
1569254943.53804
1569254943.55367
1569254943.56929
1569254943.58492
1569254943.60054
1569254943.61617
1569254943.6318
1569254943.64742
1569254943.66305
1569254943.67867
1569254943.6943
1569254943.70993
1569254943.72555
1569254943.74118
1569254943.7568
1569254943.77243
1569254943.78805
1569254943.80368
1569254943.81931
1569254943.83493
1569254943.85056
1569254943.86618
1569254943.88181
1569254943.89743
1569254943.91306
1569254943.92869
1569254943.94431
1569254943.95994
1569254943.97556
1569254943.99119
1569254944.00681
1569254944.02244
1569254944.03807
1569254944.05369
1569254944.06932
1569254944.08494
1569254944.10057
1569254944.11619
1569254944.13182
1569254944.14745
1569254944.16307
1569254944.1787
1569254944.19432
1569254944.20995
1569254944.22557
1569254944.2412
1569254944.25683
1569254944.27245
1569254944.28808
1569254944.3037
1569254944.31933
1569254944.33495
1569254944.35058
1569254944.36621
1569254944.38183
1569254944.39746
1569254944.41308
1569254944.42871
1569254944.44433
1569254944.45996
1569254944.47559
1569254944.49121
1569254944.50684
1569254944.52246
1569254944.53809
1569254944.55371
1569254944.56934
1569254944.58497
1569254944.60059
1569254944.61622
1569254944.63184
1569254944.64747
1569254944.66309
1569254944.67872
1569254944.69435
1569254944.70997
1569254944.7256
1569254944.74122
1569254944.75685
1569254944.77247
1569254944.7881
1569254944.80373
1569254944.81935
1569254944.83498
1569254944.8506
1569254944.86623
1569254944.88185
1569254944.89748
1569254944.91311
1569254944.92873
1569254944.94436
1569254944.95998
1569254944.97561
1569254944.99123
1569254945.00686
1569254945.02249
1569254945.03811
1569254945.05374
1569254945.06936
1569254945.08499
1569254945.10061
1569254945.11624
1569254945.13187
1569254945.14749
1569254945.16312
1569254945.17874
1569254945.19437
1569254945.20999
1569254945.22562
1569254945.24125
1569254945.25687
1569254945.2725
1569254945.28812
1569254945.30375
1569254945.31937
1569254945.335
1569254945.35063
1569254945.36625
1569254945.38188
1569254945.3975
1569254945.41313
1569254945.42875
1569254945.44438
1569254945.46001
1569254945.47563
1569254945.49126
1569254945.50688
1569254945.52251
1569254945.53813
1569254945.55376
1569254945.56939
1569254945.58501
1569254945.60064
1569254945.61626
1569254945.63189
1569254945.64751
1569254945.66314
1569254945.67877
1569254945.69439
1569254945.71002
1569254945.72564
1569254945.74127
1569254945.75689
1569254945.77252
1569254945.78815
1569254945.80377
1569254945.8194
1569254945.83502
1569254945.85065
1569254945.86627
1569254945.8819
1569254945.89753
1569254945.91315
1569254945.92878
1569254945.9444
1569254945.96003
1569254945.97566
1569254945.99128
1569254946.00691
1569254946.02253
1569254946.03816
1569254946.05378
1569254946.06941
1569254946.08504
1569254946.10066
1569254946.11629
1569254946.13191
1569254946.14754
1569254946.16316
1569254946.17879
1569254946.19442
1569254946.21004
1569254946.22567
1569254946.24129
1569254946.25692
1569254946.27254
1569254946.28817
1569254946.3038
1569254946.31942
1569254946.33505
1569254946.35067
1569254946.3663
1569254946.38192
1569254946.39755
1569254946.41318
1569254946.4288
1569254946.44443
1569254946.46005
1569254946.47568
1569254946.4913
1569254946.50693
1569254946.52256
1569254946.53818
1569254946.55381
1569254946.56943
1569254946.58506
1569254946.60068
1569254946.61631
1569254946.63194
1569254946.64756
1569254946.66319
1569254946.67881
1569254946.69444
1569254946.71006
1569254946.72569
1569254946.74132
1569254946.75694
1569254946.77257
1569254946.78819
1569254946.80382
1569254946.81944
1569254946.83507
1569254946.8507
1569254946.86632
1569254946.88195
1569254946.89757
1569254946.9132
1569254946.92882
1569254946.94445
1569254946.96008
1569254946.9757
1569254946.99133
1569254947.00695
1569254947.02258
1569254947.0382
1569254947.05383
1569254947.06946
1569254947.08508
1569254947.10071
1569254947.11633
1569254947.13196
1569254947.14758
1569254947.16321
1569254947.17884
1569254947.19446
1569254947.21009
1569254947.22571
1569254947.24134
1569254947.25696
1569254947.27259
1569254947.28822
1569254947.30384
1569254947.31947
1569254947.33509
1569254947.35072
1569254947.36634
1569254947.38197
1569254947.3976
1569254947.41322
1569254947.42885
1569254947.44447
1569254947.4601
1569254947.47572
1569254947.49135
1569254947.50698
1569254947.5226
1569254947.53823
1569254947.55385
1569254947.56948
1569254947.5851
1569254947.60073
1569254947.61636
1569254947.63198
1569254947.64761
1569254947.66323
1569254947.67886
1569254947.69448
1569254947.71011
1569254947.72574
1569254947.74136
1569254947.75699
1569254947.77261
1569254947.78824
1569254947.80386
1569254947.81949
1569254947.83512
1569254947.85074
1569254947.86637
1569254947.88199
1569254947.89762
1569254947.91324
1569254947.92887
1569254947.9445
1569254947.96012
1569254947.97575
1569254947.99137
1569254948.007
1569254948.02262
1569254948.03825
1569254948.05388
1569254948.0695
1569254948.08513
1569254948.10075
1569254948.11638
1569254948.132
1569254948.14763
1569254948.16326
1569254948.17888
1569254948.19451
1569254948.21013
1569254948.22576
1569254948.24138
1569254948.25701
1569254948.27264
1569254948.28826
1569254948.30389
1569254948.31951
1569254948.33514
1569254948.35076
1569254948.36639
1569254948.38202
1569254948.39764
1569254948.41327
1569254948.42889
1569254948.44452
1569254948.46015
1569254948.47577
1569254948.4914
1569254948.50702
1569254948.52265
1569254948.53827
1569254948.5539
1569254948.56953
1569254948.58515
1569254948.60078
1569254948.6164
1569254948.63203
1569254948.64765
1569254948.66328
1569254948.67891
1569254948.69453
1569254948.71016
1569254948.72578
1569254948.74141
1569254948.75703
1569254948.77266
1569254948.78829
1569254948.80391
1569254948.81954
1569254948.83516
1569254948.85079
1569254948.86641
1569254948.88204
1569254948.89767
1569254948.91329
1569254948.92892
1569254948.94454
1569254948.96017
1569254948.97579
1569254948.99142
1569254949.00705
1569254949.02267
1569254949.0383
1569254949.05392
1569254949.06955
1569254949.08517
1569254949.1008
1569254949.11643
1569254949.13205
1569254949.14768
1569254949.1633
1569254949.17893
1569254949.19455
1569254949.21018
1569254949.22581
1569254949.24143
1569254949.25706
1569254949.27268
1569254949.28831
1569254949.30393
1569254949.31956
1569254949.33519
1569254949.35081
1569254949.36644
1569254949.38206
1569254949.39769
1569254949.41331
1569254949.42894
1569254949.44457
1569254949.46019
1569254949.47582
1569254949.49144
1569254949.50707
1569254949.52269
1569254949.53832
1569254949.55395
1569254949.56957
1569254949.5852
1569254949.60082
1569254949.61645
1569254949.63207
1569254949.6477
1569254949.66333
1569254949.67895
1569254949.69458
1569254949.7102
1569254949.72583
1569254949.74145
1569254949.75708
1569254949.77271
1569254949.78833
1569254949.80396
1569254949.81958
1569254949.83521
1569254949.85083
1569254949.86646
1569254949.88209
1569254949.89771
1569254949.91334
1569254949.92896
1569254949.94459
1569254949.96021
1569254949.97584
1569254949.99147
1569254950.00709
1569254950.02272
1569254950.03834
1569254950.05397
1569254950.06959
1569254950.08522
1569254950.10085
1569254950.11647
1569254950.1321
1569254950.14772
1569254950.16335
1569254950.17897
1569254950.1946
1569254950.21023
1569254950.22585
1569254950.24148
1569254950.2571
1569254950.27273
1569254950.28835
1569254950.30398
1569254950.31961
1569254950.33523
1569254950.35086
1569254950.36648
1569254950.38211
1569254950.39773
1569254950.41336
1569254950.42899
1569254950.44461
1569254950.46024
1569254950.47586
1569254950.49149
1569254950.50711
1569254950.52274
1569254950.53837
1569254950.55399
1569254950.56962
1569254950.58524
1569254950.60087
1569254950.61649
1569254950.63212
1569254950.64775
1569254950.66337
1569254950.679
1569254950.69462
1569254950.71025
1569254950.72587
1569254950.7415
1569254950.75713
1569254950.77275
1569254950.78838
1569254950.804
1569254950.81963
1569254950.83526
1569254950.85088
1569254950.86651
1569254950.88213
1569254950.89776
1569254950.91338
1569254950.92901
1569254950.94464
1569254950.96026
1569254950.97589
1569254950.99151
1569254951.00714
1569254951.02276
1569254951.03839
1569254951.05402
1569254951.06964
1569254951.08527
1569254951.10089
1569254951.11652
1569254951.13214
1569254951.14777
1569254951.1634
1569254951.17902
1569254951.19465
1569254951.21027
1569254951.2259
1569254951.24152
1569254951.25715
1569254951.27278
1569254951.2884
1569254951.30403
1569254951.31965
1569254951.33528
1569254951.3509
1569254951.36653
1569254951.38216
1569254951.39778
1569254951.41341
1569254951.42903
1569254951.44466
1569254951.46028
1569254951.47591
1569254951.49154
1569254951.50716
1569254951.52279
1569254951.53841
1569254951.55404
1569254951.56966
1569254951.58529
1569254951.60092
1569254951.61654
1569254951.63217
1569254951.64779
1569254951.66342
1569254951.67904
1569254951.69467
1569254951.7103
1569254951.72592
1569254951.74155
1569254951.75717
1569254951.7728
1569254951.78842
1569254951.80405
1569254951.81968
1569254951.8353
1569254951.85093
1569254951.86655
1569254951.88218
1569254951.8978
1569254951.91343
1569254951.92906
1569254951.94468
1569254951.96031
1569254951.97593
1569254951.99156
1569254952.00718
1569254952.02281
1569254952.03844
1569254952.05406
1569254952.06969
1569254952.08531
1569254952.10094
1569254952.11656
1569254952.13219
1569254952.14782
1569254952.16344
1569254952.17907
1569254952.19469
1569254952.21032
1569254952.22594
1569254952.24157
1569254952.2572
1569254952.27282
1569254952.28845
1569254952.30407
1569254952.3197
1569254952.33532
1569254952.35095
1569254952.36658
1569254952.3822
1569254952.39783
1569254952.41345
1569254952.42908
1569254952.4447
1569254952.46033
1569254952.47596
1569254952.49158
1569254952.50721
1569254952.52283
1569254952.53846
1569254952.55408
1569254952.56971
1569254952.58534
1569254952.60096
1569254952.61659
1569254952.63221
1569254952.64784
1569254952.66346
1569254952.67909
1569254952.69472
1569254952.71034
1569254952.72597
1569254952.74159
1569254952.75722
1569254952.77284
1569254952.78847
1569254952.8041
1569254952.81972
1569254952.83535
1569254952.85097
1569254952.8666
1569254952.88222
1569254952.89785
1569254952.91348
1569254952.9291
1569254952.94473
1569254952.96035
1569254952.97598
1569254952.9916
1569254953.00723
1569254953.02286
1569254953.03848
1569254953.05411
1569254953.06973
1569254953.08536
1569254953.10099
1569254953.11661
1569254953.13224
1569254953.14786
1569254953.16349
1569254953.17911
1569254953.19474
1569254953.21037
1569254953.22599
1569254953.24162
1569254953.25724
1569254953.27287
1569254953.28849
1569254953.30412
1569254953.31975
1569254953.33537
1569254953.351
1569254953.36662
1569254953.38225
1569254953.39787
1569254953.4135
1569254953.42913
1569254953.44475
1569254953.46038
1569254953.476
1569254953.49163
1569254953.50725
1569254953.52288
1569254953.53851
1569254953.55413
1569254953.56976
1569254953.58538
1569254953.60101
1569254953.61663
1569254953.63226
1569254953.64789
1569254953.66351
1569254953.67914
1569254953.69476
1569254953.71039
1569254953.72601
1569254953.74164
1569254953.75727
1569254953.77289
1569254953.78852
1569254953.80414
1569254953.81977
1569254953.83539
1569254953.85102
1569254953.86665
1569254953.88227
1569254953.8979
1569254953.91352
1569254953.92915
1569254953.94477
1569254953.9604
1569254953.97603
1569254953.99165
1569254954.00728
1569254954.0229
1569254954.03853
1569254954.05415
1569254954.06978
1569254954.08541
1569254954.10103
1569254954.11666
1569254954.13228
1569254954.14791
1569254954.16353
1569254954.17916
1569254954.19479
1569254954.21041
1569254954.22604
1569254954.24166
1569254954.25729
1569254954.27291
1569254954.28854
1569254954.30417
1569254954.31979
1569254954.33542
1569254954.35104
1569254954.36667
1569254954.38229
1569254954.39792
1569254954.41355
1569254954.42917
1569254954.4448
1569254954.46042
1569254954.47605
1569254954.49167
1569254954.5073
1569254954.52293
1569254954.53855
1569254954.55418
1569254954.5698
1569254954.58543
1569254954.60105
1569254954.61668
1569254954.63231
1569254954.64793
1569254954.66356
1569254954.67918
1569254954.69481
1569254954.71043
1569254954.72606
1569254954.74169
1569254954.75731
1569254954.77294
1569254954.78856
1569254954.80419
1569254954.81981
1569254954.83544
1569254954.85107
1569254954.86669
1569254954.88232
1569254954.89794
1569254954.91357
1569254954.92919
1569254954.94482
1569254954.96045
1569254954.97607
1569254954.9917
1569254955.00732
1569254955.02295
1569254955.03857
1569254955.0542
1569254955.06983
1569254955.08545
1569254955.10108
1569254955.1167
1569254955.13233
1569254955.14795
1569254955.16358
1569254955.17921
1569254955.19483
1569254955.21046
1569254955.22608
1569254955.24171
1569254955.25733
1569254955.27296
1569254955.28859
1569254955.30421
1569254955.31984
1569254955.33546
1569254955.35109
1569254955.36671
1569254955.38234
1569254955.39797
1569254955.41359
1569254955.42922
1569254955.44484
1569254955.46047
1569254955.47609
1569254955.49172
1569254955.50735
1569254955.52297
1569254955.5386
1569254955.55422
1569254955.56985
1569254955.58547
1569254955.6011
1569254955.61673
1569254955.63235
1569254955.64798
1569254955.6636
1569254955.67923
1569254955.69486
1569254955.71048
1569254955.72611
1569254955.74173
1569254955.75736
1569254955.77298
1569254955.78861
1569254955.80424
1569254955.81986
1569254955.83549
1569254955.85111
1569254955.86674
1569254955.88236
1569254955.89799
1569254955.91362
1569254955.92924
1569254955.94487
1569254955.96049
1569254955.97612
1569254955.99174
1569254956.00737
1569254956.023
1569254956.03862
1569254956.05425
1569254956.06987
1569254956.0855
1569254956.10112
1569254956.11675
1569254956.13238
1569254956.148
1569254956.16363
1569254956.17925
1569254956.19488
1569254956.2105
1569254956.22613
1569254956.24176
1569254956.25738
1569254956.27301
1569254956.28863
1569254956.30426
1569254956.31988
1569254956.33551
1569254956.35114
1569254956.36676
1569254956.38239
1569254956.39801
1569254956.41364
1569254956.42926
1569254956.44489
1569254956.46052
1569254956.47614
1569254956.49177
1569254956.50739
1569254956.52302
1569254956.53864
1569254956.55427
1569254956.5699
1569254956.58552
1569254956.60115
1569254956.61677
1569254956.6324
1569254956.64802
1569254956.66365
1569254956.67928
1569254956.6949
1569254956.71053
1569254956.72615
1569254956.74178
1569254956.7574
1569254956.77303
1569254956.78866
1569254956.80428
1569254956.81991
1569254956.83553
1569254956.85116
1569254956.86678
1569254956.88241
1569254956.89804
1569254956.91366
1569254956.92929
1569254956.94491
1569254956.96054
1569254956.97616
1569254956.99179
1569254957.00742
1569254957.02304
1569254957.03867
1569254957.05429
1569254957.06992
1569254957.08554
1569254957.10117
1569254957.1168
1569254957.13242
1569254957.14805
1569254957.16367
1569254957.1793
1569254957.19492
1569254957.21055
1569254957.22618
1569254957.2418
1569254957.25743
1569254957.27305
1569254957.28868
1569254957.3043
1569254957.31993
1569254957.33556
1569254957.35118
1569254957.36681
1569254957.38243
1569254957.39806
1569254957.41368
1569254957.42931
1569254957.44494
1569254957.46056
1569254957.47619
1569254957.49181
1569254957.50744
1569254957.52306
1569254957.53869
1569254957.55432
1569254957.56994
1569254957.58557
1569254957.60119
1569254957.61682
1569254957.63244
1569254957.64807
1569254957.6637
1569254957.67932
1569254957.69495
1569254957.71057
1569254957.7262
1569254957.74182
1569254957.75745
1569254957.77308
1569254957.7887
1569254957.80433
1569254957.81995
1569254957.83558
1569254957.8512
1569254957.86683
1569254957.88246
1569254957.89808
1569254957.91371
1569254957.92933
1569254957.94496
1569254957.96059
1569254957.97621
1569254957.99184
1569254958.00746
1569254958.02309
1569254958.03871
1569254958.05434
1569254958.06997
1569254958.08559
1569254958.10122
1569254958.11684
1569254958.13247
1569254958.14809
1569254958.16372
1569254958.17935
1569254958.19497
1569254958.2106
1569254958.22622
1569254958.24185
1569254958.25747
1569254958.2731
1569254958.28873
1569254958.30435
1569254958.31998
1569254958.3356
1569254958.35123
1569254958.36685
1569254958.38248
1569254958.39811
1569254958.41373
1569254958.42936
1569254958.44498
1569254958.46061
1569254958.47623
1569254958.49186
1569254958.50749
1569254958.52311
1569254958.53874
1569254958.55436
1569254958.56999
1569254958.58561
1569254958.60124
1569254958.61687
1569254958.63249
1569254958.64812
1569254958.66374
1569254958.67937
1569254958.69499
1569254958.71062
1569254958.72625
1569254958.74187
1569254958.7575
1569254958.77312
1569254958.78875
1569254958.80437
1569254958.82
1569254958.83563
1569254958.85125
1569254958.86688
1569254958.8825
1569254958.89813
1569254958.91375
1569254958.92938
1569254958.94501
1569254958.96063
1569254958.97626
1569254958.99188
1569254959.00751
1569254959.02313
1569254959.03876
1569254959.05439
1569254959.07001
1569254959.08564
1569254959.10126
1569254959.11689
1569254959.13251
1569254959.14814
1569254959.16377
1569254959.17939
1569254959.19502
1569254959.21064
1569254959.22627
1569254959.24189
1569254959.25752
1569254959.27315
1569254959.28877
1569254959.3044
1569254959.32002
1569254959.33565
1569254959.35127
1569254959.3669
1569254959.38253
1569254959.39815
1569254959.41378
1569254959.4294
1569254959.44503
1569254959.46065
1569254959.47628
1569254959.49191
1569254959.50753
1569254959.52316
1569254959.53878
1569254959.55441
1569254959.57003
1569254959.58566
1569254959.60129
1569254959.61691
1569254959.63254
1569254959.64816
1569254959.66379
1569254959.67941
1569254959.69504
1569254959.71067
1569254959.72629
1569254959.74192
1569254959.75754
1569254959.77317
1569254959.78879
1569254959.80442
1569254959.82005
1569254959.83567
1569254959.8513
1569254959.86692
1569254959.88255
1569254959.89817
1569254959.9138
1569254959.92943
1569254959.94505
1569254959.96068
1569254959.9763
1569254959.99193
1569254960.00755
1569254960.02318
1569254960.03881
1569254960.05443
1569254960.07006
1569254960.08568
1569254960.10131
1569254960.11694
1569254960.13256
1569254960.14819
1569254960.16381
1569254960.17944
1569254960.19506
1569254960.21069
1569254960.22632
1569254960.24194
1569254960.25757
1569254960.27319
1569254960.28882
1569254960.30444
1569254960.32007
1569254960.3357
1569254960.35132
1569254960.36695
1569254960.38257
1569254960.3982
1569254960.41382
1569254960.42945
1569254960.44508
1569254960.4607
1569254960.47633
1569254960.49195
1569254960.50758
1569254960.5232
1569254960.53883
1569254960.55446
1569254960.57008
1569254960.58571
1569254960.60133
1569254960.61696
1569254960.63258
1569254960.64821
1569254960.66384
1569254960.67946
1569254960.69509
1569254960.71071
1569254960.72634
1569254960.74196
1569254960.75759
1569254960.77322
1569254960.78884
1569254960.80447
1569254960.82009
1569254960.83572
1569254960.85134
1569254960.86697
1569254960.8826
1569254960.89822
1569254960.91385
1569254960.92947
1569254960.9451
1569254960.96072
1569254960.97635
1569254960.99198
1569254961.0076
1569254961.02323
1569254961.03885
1569254961.05448
1569254961.0701
1569254961.08573
1569254961.10136
1569254961.11698
1569254961.13261
1569254961.14823
1569254961.16386
1569254961.17948
1569254961.19511
1569254961.21074
1569254961.22636
1569254961.24199
1569254961.25761
1569254961.27324
1569254961.28886
1569254961.30449
1569254961.32012
1569254961.33574
1569254961.35137
1569254961.36699
1569254961.38262
1569254961.39824
1569254961.41387
1569254961.4295
1569254961.44512
1569254961.46075
1569254961.47637
1569254961.492
1569254961.50762
1569254961.52325
1569254961.53888
1569254961.5545
1569254961.57013
1569254961.58575
1569254961.60138
1569254961.617
1569254961.63263
1569254961.64826
1569254961.66388
1569254961.67951
1569254961.69513
1569254961.71076
1569254961.72638
1569254961.74201
1569254961.75764
1569254961.77326
1569254961.78889
1569254961.80451
1569254961.82014
1569254961.83576
1569254961.85139
1569254961.86702
1569254961.88264
1569254961.89827
1569254961.91389
1569254961.92952
1569254961.94514
1569254961.96077
1569254961.9764
1569254961.99202
1569254962.00765
1569254962.02327
1569254962.0389
1569254962.05452
1569254962.07015
1569254962.08578
1569254962.1014
1569254962.11703
1569254962.13265
1569254962.14828
1569254962.1639
1569254962.17953
1569254962.19516
1569254962.21078
1569254962.22641
1569254962.24203
1569254962.25766
1569254962.27328
1569254962.28891
1569254962.30454
1569254962.32016
1569254962.33579
1569254962.35141
1569254962.36704
1569254962.38266
1569254962.39829
1569254962.41392
1569254962.42954
1569254962.44517
1569254962.46079
1569254962.47642
1569254962.49204
1569254962.50767
1569254962.5233
1569254962.53892
1569254962.55455
1569254962.57017
1569254962.5858
1569254962.60142
1569254962.61705
1569254962.63268
1569254962.6483
1569254962.66393
1569254962.67955
1569254962.69518
1569254962.7108
1569254962.72643
1569254962.74206
1569254962.75768
1569254962.77331
1569254962.78893
1569254962.80456
1569254962.82019
1569254962.83581
1569254962.85144
1569254962.86706
1569254962.88269
1569254962.89831
1569254962.91394
1569254962.92957
1569254962.94519
1569254962.96082
1569254962.97644
1569254962.99207
1569254963.00769
1569254963.02332
1569254963.03895
1569254963.05457
1569254963.0702
1569254963.08582
1569254963.10145
1569254963.11707
1569254963.1327
1569254963.14833
1569254963.16395
1569254963.17958
1569254963.1952
1569254963.21083
1569254963.22645
1569254963.24208
1569254963.25771
1569254963.27333
1569254963.28896
1569254963.30458
1569254963.32021
1569254963.33583
1569254963.35146
1569254963.36709
1569254963.38271
1569254963.39834
1569254963.41396
1569254963.42959
1569254963.44521
1569254963.46084
1569254963.47647
1569254963.49209
1569254963.50772
1569254963.52334
1569254963.53897
1569254963.55459
1569254963.57022
1569254963.58585
1569254963.60147
1569254963.6171
1569254963.63272
1569254963.64835
1569254963.66397
1569254963.6796
1569254963.69523
1569254963.71085
1569254963.72648
1569254963.7421
1569254963.75773
1569254963.77335
1569254963.78898
1569254963.80461
1569254963.82023
1569254963.83586
1569254963.85148
1569254963.86711
1569254963.88273
1569254963.89836
1569254963.91399
1569254963.92961
1569254963.94524
1569254963.96086
1569254963.97649
1569254963.99211
1569254964.00774
1569254964.02337
1569254964.03899
1569254964.05462
1569254964.07024
1569254964.08587
1569254964.10149
1569254964.11712
1569254964.13275
1569254964.14837
1569254964.164
1569254964.17962
1569254964.19525
1569254964.21087
1569254964.2265
1569254964.24213
1569254964.25775
1569254964.27338
1569254964.289
1569254964.30463
1569254964.32025
1569254964.33588
1569254964.35151
1569254964.36713
1569254964.38276
1569254964.39838
1569254964.41401
1569254964.42963
1569254964.44526
1569254964.46089
1569254964.47651
1569254964.49214
1569254964.50776
1569254964.52339
1569254964.53901
1569254964.55464
1569254964.57027
1569254964.58589
1569254964.60152
1569254964.61714
1569254964.63277
1569254964.64839
1569254964.66402
1569254964.67965
1569254964.69527
1569254964.7109
1569254964.72652
1569254964.74215
1569254964.75777
1569254964.7734
1569254964.78903
1569254964.80465
1569254964.82028
1569254964.8359
1569254964.85153
1569254964.86715
1569254964.88278
1569254964.89841
1569254964.91403
1569254964.92966
1569254964.94528
1569254964.96091
1569254964.97654
1569254964.99216
1569254965.00779
1569254965.02341
1569254965.03904
1569254965.05466
1569254965.07029
1569254965.08592
1569254965.10154
1569254965.11717
1569254965.13279
1569254965.14842
1569254965.16404
1569254965.17967
1569254965.1953
1569254965.21092
1569254965.22655
1569254965.24217
1569254965.2578
1569254965.27342
1569254965.28905
1569254965.30468
1569254965.3203
1569254965.33593
1569254965.35155
1569254965.36718
1569254965.3828
1569254965.39843
1569254965.41406
1569254965.42968
1569254965.44531
1569254965.46093
1569254965.47656
1569254965.49218
1569254965.50781
1569254965.52344
1569254965.53906
1569254965.55469
1569254965.57031
1569254965.58594
1569254965.60156
1569254965.61719
1569254965.63282
1569254965.64844
1569254965.66407
1569254965.67969
1569254965.69532
1569254965.71094
1569254965.72657
1569254965.7422
1569254965.75782
1569254965.77345
1569254965.78907
1569254965.8047
1569254965.82032
1569254965.83595
1569254965.85158
1569254965.8672
1569254965.88283
1569254965.89845
1569254965.91408
1569254965.9297
1569254965.94533
1569254965.96096
1569254965.97658
1569254965.99221
1569254966.00783
1569254966.02346
1569254966.03908
1569254966.05471
1569254966.07034
1569254966.08596
1569254966.10159
1569254966.11721
1569254966.13284
1569254966.14846
1569254966.16409
1569254966.17972
1569254966.19534
1569254966.21097
1569254966.22659
1569254966.24222
1569254966.25784
1569254966.27347
1569254966.2891
1569254966.30472
1569254966.32035
1569254966.33597
1569254966.3516
1569254966.36722
1569254966.38285
1569254966.39848
1569254966.4141
1569254966.42973
1569254966.44535
1569254966.46098
1569254966.4766
1569254966.49223
1569254966.50786
1569254966.52348
1569254966.53911
1569254966.55473
1569254966.57036
1569254966.58598
1569254966.60161
1569254966.61724
1569254966.63286
1569254966.64849
1569254966.66411
1569254966.67974
1569254966.69536
1569254966.71099
1569254966.72662
1569254966.74224
1569254966.75787
1569254966.77349
1569254966.78912
1569254966.80474
1569254966.82037
1569254966.836
1569254966.85162
1569254966.86725
1569254966.88287
1569254966.8985
1569254966.91412
1569254966.92975
1569254966.94538
1569254966.961
1569254966.97663
1569254966.99225
1569254967.00788
1569254967.0235
1569254967.03913
1569254967.05476
1569254967.07038
1569254967.08601
1569254967.10163
1569254967.11726
1569254967.13288
1569254967.14851
1569254967.16414
1569254967.17976
1569254967.19539
1569254967.21101
1569254967.22664
1569254967.24226
1569254967.25789
1569254967.27352
1569254967.28914
1569254967.30477
1569254967.32039
1569254967.33602
1569254967.35164
1569254967.36727
1569254967.3829
1569254967.39852
1569254967.41415
1569254967.42977
1569254967.4454
1569254967.46103
1569254967.47665
1569254967.49228
1569254967.5079
1569254967.52353
1569254967.53915
1569254967.55478
1569254967.57041
1569254967.58603
1569254967.60166
1569254967.61728
1569254967.63291
1569254967.64853
1569254967.66416
1569254967.67979
1569254967.69541
1569254967.71104
1569254967.72666
1569254967.74229
1569254967.75791
1569254967.77354
1569254967.78917
1569254967.80479
1569254967.82042
1569254967.83604
1569254967.85167
1569254967.86729
1569254967.88292
1569254967.89855
1569254967.91417
1569254967.9298
1569254967.94542
1569254967.96105
1569254967.97667
1569254967.9923
1569254968.00793
1569254968.02355
1569254968.03918
1569254968.0548
1569254968.07043
1569254968.08605
1569254968.10168
1569254968.11731
1569254968.13293
1569254968.14856
1569254968.16418
1569254968.17981
1569254968.19543
1569254968.21106
1569254968.22669
1569254968.24231
1569254968.25794
1569254968.27356
1569254968.28919
1569254968.30481
1569254968.32044
1569254968.33607
1569254968.35169
1569254968.36732
1569254968.38294
1569254968.39857
1569254968.41419
1569254968.42982
1569254968.44545
1569254968.46107
1569254968.4767
1569254968.49232
1569254968.50795
1569254968.52357
1569254968.5392
1569254968.55483
1569254968.57045
1569254968.58608
1569254968.6017
1569254968.61733
1569254968.63295
1569254968.64858
1569254968.66421
1569254968.67983
1569254968.69546
1569254968.71108
1569254968.72671
1569254968.74233
1569254968.75796
1569254968.77359
1569254968.78921
1569254968.80484
1569254968.82046
1569254968.83609
1569254968.85171
1569254968.86734
1569254968.88297
1569254968.89859
1569254968.91422
1569254968.92984
1569254968.94547
1569254968.96109
1569254968.97672
1569254968.99235
1569254969.00797
1569254969.0236
1569254969.03922
1569254969.05485
1569254969.07047
1569254969.0861
1569254969.10173
1569254969.11735
1569254969.13298
1569254969.1486
1569254969.16423
1569254969.17985
1569254969.19548
1569254969.21111
1569254969.22673
1569254969.24236
1569254969.25798
1569254969.27361
1569254969.28923
1569254969.30486
1569254969.32049
1569254969.33611
1569254969.35174
1569254969.36736
1569254969.38299
1569254969.39861
1569254969.41424
1569254969.42987
1569254969.44549
1569254969.46112
1569254969.47674
1569254969.49237
1569254969.50799
1569254969.52362
1569254969.53925
1569254969.55487
1569254969.5705
1569254969.58612
1569254969.60175
1569254969.61737
1569254969.633
1569254969.64863
1569254969.66425
1569254969.67988
1569254969.6955
1569254969.71113
1569254969.72675
1569254969.74238
1569254969.75801
1569254969.77363
1569254969.78926
1569254969.80488
1569254969.82051
1569254969.83614
1569254969.85176
1569254969.86739
1569254969.88301
1569254969.89864
1569254969.91426
1569254969.92989
1569254969.94552
1569254969.96114
1569254969.97677
1569254969.99239
1569254970.00802
1569254970.02364
1569254970.03927
1569254970.0549
1569254970.07052
1569254970.08615
1569254970.10177
1569254970.1174
1569254970.13302
1569254970.14865
1569254970.16428
1569254970.1799
1569254970.19553
1569254970.21115
1569254970.22678
1569254970.2424
1569254970.25803
1569254970.27366
1569254970.28928
1569254970.30491
1569254970.32053
1569254970.33616
1569254970.35178
1569254970.36741
1569254970.38304
1569254970.39866
1569254970.41429
1569254970.42991
1569254970.44554
1569254970.46116
1569254970.47679
1569254970.49242
1569254970.50804
1569254970.52367
1569254970.53929
1569254970.55492
1569254970.57054
1569254970.58617
1569254970.6018
1569254970.61742
1569254970.63305
1569254970.64867
1569254970.6643
1569254970.67992
1569254970.69555
1569254970.71118
1569254970.7268
1569254970.74243
1569254970.75805
1569254970.77368
1569254970.7893
1569254970.80493
1569254970.82056
1569254970.83618
1569254970.85181
1569254970.86743
1569254970.88306
1569254970.89868
1569254970.91431
1569254970.92994
1569254970.94556
1569254970.96119
1569254970.97681
1569254970.99244
1569254971.00806
1569254971.02369
1569254971.03932
1569254971.05494
1569254971.07057
1569254971.08619
1569254971.10182
1569254971.11744
1569254971.13307
1569254971.1487
1569254971.16432
1569254971.17995
1569254971.19557
1569254971.2112
1569254971.22682
1569254971.24245
1569254971.25808
1569254971.2737
1569254971.28933
1569254971.30495
1569254971.32058
1569254971.3362
1569254971.35183
1569254971.36746
1569254971.38308
1569254971.39871
1569254971.41433
1569254971.42996
1569254971.44558
1569254971.46121
1569254971.47684
1569254971.49246
1569254971.50809
1569254971.52371
1569254971.53934
1569254971.55496
1569254971.57059
1569254971.58622
1569254971.60184
1569254971.61747
1569254971.63309
1569254971.64872
1569254971.66434
1569254971.67997
1569254971.6956
1569254971.71122
1569254971.72685
1569254971.74247
1569254971.7581
1569254971.77372
1569254971.78935
1569254971.80498
1569254971.8206
1569254971.83623
1569254971.85185
1569254971.86748
1569254971.8831
1569254971.89873
1569254971.91436
1569254971.92998
1569254971.94561
1569254971.96123
1569254971.97686
1569254971.99248
1569254972.00811
1569254972.02374
1569254972.03936
1569254972.05499
1569254972.07061
1569254972.08624
1569254972.10187
1569254972.11749
1569254972.13312
1569254972.14874
1569254972.16437
1569254972.17999
1569254972.19562
1569254972.21125
1569254972.22687
1569254972.2425
1569254972.25812
1569254972.27375
1569254972.28937
1569254972.305
1569254972.32063
1569254972.33625
1569254972.35188
1569254972.3675
1569254972.38313
1569254972.39875
1569254972.41438
1569254972.43001
1569254972.44563
1569254972.46126
1569254972.47688
1569254972.49251
1569254972.50813
1569254972.52376
1569254972.53939
1569254972.55501
1569254972.57064
1569254972.58626
1569254972.60189
1569254972.61751
1569254972.63314
1569254972.64877
1569254972.66439
1569254972.68002
1569254972.69564
1569254972.71127
1569254972.72689
1569254972.74252
1569254972.75815
1569254972.77377
1569254972.7894
1569254972.80502
1569254972.82065
1569254972.83627
1569254972.8519
1569254972.86753
1569254972.88315
1569254972.89878
1569254972.9144
1569254972.93003
1569254972.94565
1569254972.96128
1569254972.97691
1569254972.99253
1569254973.00816
1569254973.02378
1569254973.03941
1569254973.05503
1569254973.07066
1569254973.08629
1569254973.10191
1569254973.11754
1569254973.13316
1569254973.14879
1569254973.16441
1569254973.18004
1569254973.19567
1569254973.21129
1569254973.22692
1569254973.24254
1569254973.25817
1569254973.27379
1569254973.28942
1569254973.30505
1569254973.32067
1569254973.3363
1569254973.35192
1569254973.36755
1569254973.38317
1569254973.3988
1569254973.41443
1569254973.43005
1569254973.44568
1569254973.4613
1569254973.47693
1569254973.49255
1569254973.50818
1569254973.52381
1569254973.53943
1569254973.55506
1569254973.57068
1569254973.58631
1569254973.60193
1569254973.61756
1569254973.63319
1569254973.64881
1569254973.66444
1569254973.68006
1569254973.69569
1569254973.71131
1569254973.72694
1569254973.74257
1569254973.75819
1569254973.77382
1569254973.78944
1569254973.80507
1569254973.82069
1569254973.83632
1569254973.85195
1569254973.86757
1569254973.8832
1569254973.89882
1569254973.91445
1569254973.93007
1569254973.9457
1569254973.96133
1569254973.97695
1569254973.99258
1569254974.0082
1569254974.02383
1569254974.03945
1569254974.05508
1569254974.07071
1569254974.08633
1569254974.10196
1569254974.11758
1569254974.13321
1569254974.14883
1569254974.16446
1569254974.18009
1569254974.19571
1569254974.21134
1569254974.22696
1569254974.24259
1569254974.25821
1569254974.27384
1569254974.28947
1569254974.30509
1569254974.32072
1569254974.33634
1569254974.35197
1569254974.36759
1569254974.38322
1569254974.39885
1569254974.41447
1569254974.4301
1569254974.44572
1569254974.46135
1569254974.47697
1569254974.4926
1569254974.50823
1569254974.52385
1569254974.53948
1569254974.5551
1569254974.57073
1569254974.58635
1569254974.60198
1569254974.61761
1569254974.63323
1569254974.64886
1569254974.66448
1569254974.68011
1569254974.69574
1569254974.71136
1569254974.72699
1569254974.74261
1569254974.75824
1569254974.77386
1569254974.78949
1569254974.80512
1569254974.82074
