1569254255.78744
1569254255.80307
1569254255.81869
1569254255.83432
1569254255.84994
1569254255.86557
1569254255.88119
1569254255.89682
1569254255.91245
1569254255.92807
1569254255.9437
1569254255.95932
1569254255.97495
1569254255.99057
1569254256.0062
1569254256.02183
1569254256.03745
1569254256.05308
1569254256.0687
1569254256.08433
1569254256.09995
1569254256.11558
1569254256.13121
1569254256.14683
1569254256.16246
1569254256.17808
1569254256.19371
1569254256.20934
1569254256.22496
1569254256.24059
1569254256.25621
1569254256.27184
1569254256.28746
1569254256.30309
1569254256.31872
1569254256.33434
1569254256.34997
1569254256.36559
1569254256.38122
1569254256.39684
1569254256.41247
1569254256.4281
1569254256.44372
1569254256.45935
1569254256.47497
1569254256.4906
1569254256.50622
1569254256.52185
1569254256.53748
1569254256.5531
1569254256.56873
1569254256.58435
1569254256.59998
1569254256.6156
1569254256.63123
1569254256.64686
1569254256.66248
1569254256.67811
1569254256.69373
1569254256.70936
1569254256.72498
1569254256.74061
1569254256.75624
1569254256.77186
1569254256.78749
1569254256.80311
1569254256.81874
1569254256.83436
1569254256.84999
1569254256.86562
1569254256.88124
1569254256.89687
1569254256.91249
1569254256.92812
1569254256.94374
1569254256.95937
1569254256.975
1569254256.99062
1569254257.00625
1569254257.02187
1569254257.0375
1569254257.05312
1569254257.06875
1569254257.08438
1569254257.1
1569254257.11563
1569254257.13125
1569254257.14688
1569254257.1625
1569254257.17813
1569254257.19376
1569254257.20938
1569254257.22501
1569254257.24063
1569254257.25626
1569254257.27188
1569254257.28751
1569254257.30314
1569254257.31876
1569254257.33439
1569254257.35001
1569254257.36564
1569254257.38126
1569254257.39689
1569254257.41252
1569254257.42814
1569254257.44377
1569254257.45939
1569254257.47502
1569254257.49064
1569254257.50627
1569254257.5219
1569254257.53752
1569254257.55315
1569254257.56877
1569254257.5844
1569254257.60002
1569254257.61565
1569254257.63128
1569254257.6469
1569254257.66253
1569254257.67815
1569254257.69378
1569254257.7094
1569254257.72503
1569254257.74066
1569254257.75628
1569254257.77191
1569254257.78753
1569254257.80316
1569254257.81878
1569254257.83441
1569254257.85004
1569254257.86566
1569254257.88129
1569254257.89691
1569254257.91254
1569254257.92816
1569254257.94379
1569254257.95942
1569254257.97504
1569254257.99067
1569254258.00629
1569254258.02192
1569254258.03754
1569254258.05317
1569254258.0688
1569254258.08442
1569254258.10005
1569254258.11567
1569254258.1313
1569254258.14692
1569254258.16255
1569254258.17818
1569254258.1938
1569254258.20943
1569254258.22505
1569254258.24068
1569254258.2563
1569254258.27193
1569254258.28756
1569254258.30318
1569254258.31881
1569254258.33443
1569254258.35006
1569254258.36568
1569254258.38131
1569254258.39694
1569254258.41256
1569254258.42819
1569254258.44381
1569254258.45944
1569254258.47506
1569254258.49069
1569254258.50632
1569254258.52194
1569254258.53757
1569254258.55319
1569254258.56882
1569254258.58445
1569254258.60007
1569254258.6157
1569254258.63132
1569254258.64695
1569254258.66257
1569254258.6782
1569254258.69383
1569254258.70945
1569254258.72508
1569254258.7407
1569254258.75633
1569254258.77195
1569254258.78758
1569254258.80321
1569254258.81883
1569254258.83446
1569254258.85008
1569254258.86571
1569254258.88133
1569254258.89696
1569254258.91259
1569254258.92821
1569254258.94384
1569254258.95946
1569254258.97509
1569254258.99071
1569254259.00634
1569254259.02197
1569254259.03759
1569254259.05322
1569254259.06884
1569254259.08447
1569254259.10009
1569254259.11572
1569254259.13135
1569254259.14697
1569254259.1626
1569254259.17822
1569254259.19385
1569254259.20947
1569254259.2251
1569254259.24073
1569254259.25635
1569254259.27198
1569254259.2876
1569254259.30323
1569254259.31885
1569254259.33448
1569254259.35011
1569254259.36573
1569254259.38136
1569254259.39698
1569254259.41261
1569254259.42823
1569254259.44386
1569254259.45949
1569254259.47511
1569254259.49074
1569254259.50636
1569254259.52199
1569254259.53761
1569254259.55324
1569254259.56887
1569254259.58449
1569254259.60012
1569254259.61574
1569254259.63137
1569254259.64699
1569254259.66262
1569254259.67825
1569254259.69387
1569254259.7095
1569254259.72512
1569254259.74075
1569254259.75637
1569254259.772
1569254259.78763
1569254259.80325
1569254259.81888
1569254259.8345
1569254259.85013
1569254259.86575
1569254259.88138
1569254259.89701
1569254259.91263
1569254259.92826
1569254259.94388
1569254259.95951
1569254259.97513
1569254259.99076
1569254260.00639
1569254260.02201
1569254260.03764
1569254260.05326
1569254260.06889
1569254260.08451
1569254260.10014
1569254260.11577
1569254260.13139
1569254260.14702
1569254260.16264
1569254260.17827
1569254260.19389
1569254260.20952
1569254260.22515
1569254260.24077
1569254260.2564
1569254260.27202
1569254260.28765
1569254260.30327
1569254260.3189
1569254260.33453
1569254260.35015
1569254260.36578
1569254260.3814
1569254260.39703
1569254260.41265
1569254260.42828
1569254260.44391
1569254260.45953
1569254260.47516
1569254260.49078
1569254260.50641
1569254260.52203
1569254260.53766
1569254260.55329
1569254260.56891
1569254260.58454
1569254260.60016
1569254260.61579
1569254260.63141
1569254260.64704
1569254260.66267
1569254260.67829
1569254260.69392
1569254260.70954
1569254260.72517
1569254260.74079
1569254260.75642
1569254260.77205
1569254260.78767
1569254260.8033
1569254260.81892
1569254260.83455
1569254260.85017
1569254260.8658
1569254260.88143
1569254260.89705
1569254260.91268
1569254260.9283
1569254260.94393
1569254260.95955
1569254260.97518
1569254260.99081
1569254261.00643
1569254261.02206
1569254261.03768
1569254261.05331
1569254261.06894
1569254261.08456
1569254261.10019
1569254261.11581
1569254261.13144
1569254261.14706
1569254261.16269
1569254261.17832
1569254261.19394
1569254261.20957
1569254261.22519
1569254261.24082
1569254261.25644
1569254261.27207
1569254261.2877
1569254261.30332
1569254261.31895
1569254261.33457
1569254261.3502
1569254261.36582
1569254261.38145
1569254261.39708
1569254261.4127
1569254261.42833
1569254261.44395
1569254261.45958
1569254261.4752
1569254261.49083
1569254261.50646
1569254261.52208
1569254261.53771
1569254261.55333
1569254261.56896
1569254261.58458
1569254261.60021
1569254261.61584
1569254261.63146
1569254261.64709
1569254261.66271
1569254261.67834
1569254261.69396
1569254261.70959
1569254261.72522
1569254261.74084
1569254261.75647
1569254261.77209
1569254261.78772
1569254261.80334
1569254261.81897
1569254261.8346
1569254261.85022
1569254261.86585
1569254261.88147
1569254261.8971
1569254261.91272
1569254261.92835
1569254261.94398
1569254261.9596
1569254261.97523
1569254261.99085
1569254262.00648
1569254262.0221
1569254262.03773
1569254262.05336
1569254262.06898
1569254262.08461
1569254262.10023
1569254262.11586
1569254262.13148
1569254262.14711
1569254262.16274
1569254262.17836
1569254262.19399
1569254262.20961
1569254262.22524
1569254262.24086
1569254262.25649
1569254262.27212
1569254262.28774
1569254262.30337
1569254262.31899
1569254262.33462
1569254262.35024
1569254262.36587
1569254262.3815
1569254262.39712
1569254262.41275
1569254262.42837
1569254262.444
1569254262.45962
1569254262.47525
1569254262.49088
1569254262.5065
1569254262.52213
1569254262.53775
1569254262.55338
1569254262.569
1569254262.58463
1569254262.60026
1569254262.61588
1569254262.63151
1569254262.64713
1569254262.66276
1569254262.67838
1569254262.69401
1569254262.70964
1569254262.72526
1569254262.74089
1569254262.75651
1569254262.77214
1569254262.78776
1569254262.80339
1569254262.81902
1569254262.83464
1569254262.85027
1569254262.86589
1569254262.88152
1569254262.89714
1569254262.91277
1569254262.9284
1569254262.94402
1569254262.95965
1569254262.97527
1569254262.9909
1569254263.00652
1569254263.02215
1569254263.03778
1569254263.0534
1569254263.06903
1569254263.08465
1569254263.10028
1569254263.1159
1569254263.13153
1569254263.14716
1569254263.16278
1569254263.17841
1569254263.19403
1569254263.20966
1569254263.22528
1569254263.24091
1569254263.25654
1569254263.27216
1569254263.28779
1569254263.30341
1569254263.31904
1569254263.33467
1569254263.35029
1569254263.36592
1569254263.38154
1569254263.39717
1569254263.41279
1569254263.42842
1569254263.44405
1569254263.45967
1569254263.4753
1569254263.49092
1569254263.50655
1569254263.52217
1569254263.5378
1569254263.55343
1569254263.56905
1569254263.58468
1569254263.6003
1569254263.61593
1569254263.63155
1569254263.64718
1569254263.66281
1569254263.67843
1569254263.69406
1569254263.70968
1569254263.72531
1569254263.74093
1569254263.75656
1569254263.77219
1569254263.78781
1569254263.80344
1569254263.81906
1569254263.83469
1569254263.85031
1569254263.86594
1569254263.88157
1569254263.89719
1569254263.91282
1569254263.92844
1569254263.94407
1569254263.95969
1569254263.97532
1569254263.99095
1569254264.00657
1569254264.0222
1569254264.03782
1569254264.05345
1569254264.06907
1569254264.0847
1569254264.10033
1569254264.11595
1569254264.13158
1569254264.1472
1569254264.16283
1569254264.17845
1569254264.19408
1569254264.20971
1569254264.22533
1569254264.24096
1569254264.25658
1569254264.27221
1569254264.28783
1569254264.30346
1569254264.31909
1569254264.33471
1569254264.35034
1569254264.36596
1569254264.38159
1569254264.39721
1569254264.41284
1569254264.42847
1569254264.44409
1569254264.45972
1569254264.47534
1569254264.49097
1569254264.50659
1569254264.52222
1569254264.53785
1569254264.55347
1569254264.5691
1569254264.58472
1569254264.60035
1569254264.61597
1569254264.6316
1569254264.64723
1569254264.66285
1569254264.67848
1569254264.6941
1569254264.70973
1569254264.72535
1569254264.74098
1569254264.75661
1569254264.77223
1569254264.78786
1569254264.80348
1569254264.81911
1569254264.83473
1569254264.85036
1569254264.86599
1569254264.88161
1569254264.89724
1569254264.91286
1569254264.92849
1569254264.94411
1569254264.95974
1569254264.97537
1569254264.99099
1569254265.00662
1569254265.02224
1569254265.03787
1569254265.05349
1569254265.06912
1569254265.08475
1569254265.10037
1569254265.116
1569254265.13162
1569254265.14725
1569254265.16287
1569254265.1785
1569254265.19413
1569254265.20975
1569254265.22538
1569254265.241
1569254265.25663
1569254265.27225
1569254265.28788
1569254265.30351
1569254265.31913
1569254265.33476
1569254265.35038
1569254265.36601
1569254265.38163
1569254265.39726
1569254265.41289
1569254265.42851
1569254265.44414
1569254265.45976
1569254265.47539
1569254265.49101
1569254265.50664
1569254265.52227
1569254265.53789
1569254265.55352
1569254265.56914
1569254265.58477
1569254265.60039
1569254265.61602
1569254265.63165
1569254265.64727
1569254265.6629
1569254265.67852
1569254265.69415
1569254265.70977
1569254265.7254
1569254265.74103
1569254265.75665
1569254265.77228
1569254265.7879
1569254265.80353
1569254265.81915
1569254265.83478
1569254265.85041
1569254265.86603
1569254265.88166
1569254265.89728
1569254265.91291
1569254265.92853
1569254265.94416
1569254265.95979
1569254265.97541
1569254265.99104
1569254266.00666
1569254266.02229
1569254266.03792
1569254266.05354
1569254266.06917
1569254266.08479
1569254266.10042
1569254266.11604
1569254266.13167
1569254266.1473
1569254266.16292
1569254266.17855
1569254266.19417
1569254266.2098
1569254266.22542
1569254266.24105
1569254266.25668
1569254266.2723
1569254266.28793
1569254266.30355
1569254266.31918
1569254266.3348
1569254266.35043
1569254266.36606
1569254266.38168
1569254266.39731
1569254266.41293
1569254266.42856
1569254266.44418
1569254266.45981
1569254266.47544
1569254266.49106
1569254266.50669
1569254266.52231
1569254266.53794
1569254266.55356
1569254266.56919
1569254266.58482
1569254266.60044
1569254266.61607
1569254266.63169
1569254266.64732
1569254266.66294
1569254266.67857
1569254266.6942
1569254266.70982
1569254266.72545
1569254266.74107
1569254266.7567
1569254266.77232
1569254266.78795
1569254266.80358
1569254266.8192
1569254266.83483
1569254266.85045
1569254266.86608
1569254266.8817
1569254266.89733
1569254266.91296
1569254266.92858
1569254266.94421
1569254266.95983
1569254266.97546
1569254266.99108
1569254267.00671
1569254267.02234
1569254267.03796
1569254267.05359
1569254267.06921
1569254267.08484
1569254267.10046
1569254267.11609
1569254267.13172
1569254267.14734
1569254267.16297
1569254267.17859
1569254267.19422
1569254267.20984
1569254267.22547
1569254267.2411
1569254267.25672
1569254267.27235
1569254267.28797
1569254267.3036
1569254267.31922
1569254267.33485
1569254267.35048
1569254267.3661
1569254267.38173
1569254267.39735
1569254267.41298
1569254267.4286
1569254267.44423
1569254267.45986
1569254267.47548
1569254267.49111
1569254267.50673
1569254267.52236
1569254267.53798
1569254267.55361
1569254267.56924
1569254267.58486
1569254267.60049
1569254267.61611
1569254267.63174
1569254267.64736
1569254267.66299
1569254267.67862
1569254267.69424
1569254267.70987
1569254267.72549
1569254267.74112
1569254267.75674
1569254267.77237
1569254267.788
1569254267.80362
1569254267.81925
1569254267.83487
1569254267.8505
1569254267.86612
1569254267.88175
1569254267.89738
1569254267.913
1569254267.92863
1569254267.94425
1569254267.95988
1569254267.9755
1569254267.99113
1569254268.00676
1569254268.02238
1569254268.03801
1569254268.05363
1569254268.06926
1569254268.08488
1569254268.10051
1569254268.11614
1569254268.13176
1569254268.14739
1569254268.16301
1569254268.17864
1569254268.19427
1569254268.20989
1569254268.22552
1569254268.24114
1569254268.25677
1569254268.27239
1569254268.28802
1569254268.30365
1569254268.31927
1569254268.3349
1569254268.35052
1569254268.36615
1569254268.38177
1569254268.3974
1569254268.41303
1569254268.42865
1569254268.44428
1569254268.4599
1569254268.47553
1569254268.49115
1569254268.50678
1569254268.52241
1569254268.53803
1569254268.55366
1569254268.56928
1569254268.58491
1569254268.60053
1569254268.61616
1569254268.63179
1569254268.64741
1569254268.66304
1569254268.67866
1569254268.69429
1569254268.70991
1569254268.72554
1569254268.74117
1569254268.75679
1569254268.77242
1569254268.78804
1569254268.80367
1569254268.81929
1569254268.83492
1569254268.85055
1569254268.86617
1569254268.8818
1569254268.89742
1569254268.91305
1569254268.92867
1569254268.9443
1569254268.95993
1569254268.97555
1569254268.99118
1569254269.0068
1569254269.02243
1569254269.03805
1569254269.05368
1569254269.06931
1569254269.08493
1569254269.10056
1569254269.11618
1569254269.13181
1569254269.14743
1569254269.16306
1569254269.17869
1569254269.19431
1569254269.20994
1569254269.22556
1569254269.24119
1569254269.25681
1569254269.27244
1569254269.28807
1569254269.30369
1569254269.31932
1569254269.33494
1569254269.35057
1569254269.36619
1569254269.38182
1569254269.39745
1569254269.41307
1569254269.4287
1569254269.44432
1569254269.45995
1569254269.47557
1569254269.4912
1569254269.50683
1569254269.52245
1569254269.53808
1569254269.5537
1569254269.56933
1569254269.58495
1569254269.60058
1569254269.61621
1569254269.63183
1569254269.64746
1569254269.66308
1569254269.67871
1569254269.69433
1569254269.70996
1569254269.72559
1569254269.74121
1569254269.75684
1569254269.77246
1569254269.78809
1569254269.80371
1569254269.81934
1569254269.83497
1569254269.85059
1569254269.86622
1569254269.88184
1569254269.89747
1569254269.91309
1569254269.92872
1569254269.94435
1569254269.95997
1569254269.9756
1569254269.99122
1569254270.00685
1569254270.02247
1569254270.0381
1569254270.05373
1569254270.06935
1569254270.08498
1569254270.1006
1569254270.11623
1569254270.13185
1569254270.14748
1569254270.16311
1569254270.17873
1569254270.19436
1569254270.20998
1569254270.22561
1569254270.24123
1569254270.25686
1569254270.27249
1569254270.28811
1569254270.30374
1569254270.31936
1569254270.33499
1569254270.35061
1569254270.36624
1569254270.38187
1569254270.39749
1569254270.41312
1569254270.42874
1569254270.44437
1569254270.46
1569254270.47562
1569254270.49125
1569254270.50687
1569254270.5225
1569254270.53812
1569254270.55375
1569254270.56938
1569254270.585
1569254270.60063
1569254270.61625
1569254270.63188
1569254270.6475
1569254270.66313
1569254270.67876
1569254270.69438
1569254270.71001
1569254270.72563
1569254270.74126
1569254270.75688
1569254270.77251
1569254270.78814
1569254270.80376
1569254270.81939
1569254270.83501
1569254270.85064
1569254270.86626
1569254270.88189
1569254270.89752
1569254270.91314
1569254270.92877
1569254270.94439
1569254270.96002
1569254270.97564
1569254270.99127
1569254271.0069
1569254271.02252
1569254271.03815
1569254271.05377
1569254271.0694
1569254271.08502
1569254271.10065
1569254271.11628
1569254271.1319
1569254271.14753
1569254271.16315
1569254271.17878
1569254271.1944
1569254271.21003
1569254271.22566
1569254271.24128
1569254271.25691
1569254271.27253
1569254271.28816
1569254271.30378
1569254271.31941
1569254271.33504
1569254271.35066
1569254271.36629
1569254271.38191
1569254271.39754
1569254271.41316
1569254271.42879
1569254271.44442
1569254271.46004
1569254271.47567
1569254271.49129
1569254271.50692
1569254271.52254
1569254271.53817
1569254271.5538
1569254271.56942
1569254271.58505
1569254271.60067
1569254271.6163
1569254271.63192
1569254271.64755
1569254271.66318
1569254271.6788
1569254271.69443
1569254271.71005
1569254271.72568
1569254271.7413
1569254271.75693
1569254271.77256
1569254271.78818
1569254271.80381
1569254271.81943
1569254271.83506
1569254271.85068
1569254271.86631
1569254271.88194
1569254271.89756
1569254271.91319
1569254271.92881
1569254271.94444
1569254271.96006
1569254271.97569
1569254271.99132
1569254272.00694
1569254272.02257
1569254272.03819
1569254272.05382
1569254272.06944
1569254272.08507
1569254272.1007
1569254272.11632
1569254272.13195
1569254272.14757
1569254272.1632
1569254272.17882
1569254272.19445
1569254272.21008
1569254272.2257
1569254272.24133
1569254272.25695
1569254272.27258
1569254272.2882
1569254272.30383
1569254272.31946
1569254272.33508
1569254272.35071
1569254272.36633
1569254272.38196
1569254272.39758
1569254272.41321
1569254272.42884
1569254272.44446
1569254272.46009
1569254272.47571
1569254272.49134
1569254272.50696
1569254272.52259
1569254272.53822
1569254272.55384
1569254272.56947
1569254272.58509
1569254272.60072
1569254272.61634
1569254272.63197
1569254272.6476
1569254272.66322
1569254272.67885
1569254272.69447
1569254272.7101
1569254272.72572
1569254272.74135
1569254272.75698
1569254272.7726
1569254272.78823
1569254272.80385
1569254272.81948
1569254272.8351
1569254272.85073
1569254272.86636
1569254272.88198
1569254272.89761
1569254272.91323
1569254272.92886
1569254272.94448
1569254272.96011
1569254272.97574
1569254272.99136
1569254273.00699
1569254273.02261
1569254273.03824
1569254273.05387
1569254273.06949
1569254273.08512
1569254273.10074
1569254273.11637
1569254273.13199
1569254273.14762
1569254273.16325
1569254273.17887
1569254273.1945
1569254273.21012
1569254273.22575
1569254273.24137
1569254273.257
1569254273.27263
1569254273.28825
1569254273.30388
1569254273.3195
1569254273.33513
1569254273.35075
1569254273.36638
1569254273.38201
1569254273.39763
1569254273.41326
1569254273.42888
1569254273.44451
1569254273.46013
1569254273.47576
1569254273.49139
1569254273.50701
1569254273.52264
1569254273.53826
1569254273.55389
1569254273.56951
1569254273.58514
1569254273.60077
1569254273.61639
1569254273.63202
1569254273.64764
1569254273.66327
1569254273.67889
1569254273.69452
1569254273.71015
1569254273.72577
1569254273.7414
1569254273.75702
1569254273.77265
1569254273.78827
1569254273.8039
1569254273.81953
1569254273.83515
1569254273.85078
1569254273.8664
1569254273.88203
1569254273.89765
1569254273.91328
1569254273.92891
1569254273.94453
1569254273.96016
1569254273.97578
1569254273.99141
1569254274.00703
1569254274.02266
1569254274.03829
1569254274.05391
1569254274.06954
1569254274.08516
1569254274.10079
1569254274.11641
1569254274.13204
1569254274.14767
1569254274.16329
1569254274.17892
1569254274.19454
1569254274.21017
1569254274.22579
1569254274.24142
1569254274.25705
1569254274.27267
1569254274.2883
1569254274.30392
1569254274.31955
1569254274.33517
1569254274.3508
1569254274.36643
1569254274.38205
1569254274.39768
1569254274.4133
1569254274.42893
1569254274.44455
1569254274.46018
1569254274.47581
1569254274.49143
1569254274.50706
1569254274.52268
1569254274.53831
1569254274.55393
1569254274.56956
1569254274.58519
1569254274.60081
1569254274.61644
1569254274.63206
1569254274.64769
1569254274.66331
1569254274.67894
1569254274.69457
1569254274.71019
1569254274.72582
1569254274.74144
1569254274.75707
1569254274.77269
1569254274.78832
1569254274.80395
1569254274.81957
1569254274.8352
1569254274.85082
1569254274.86645
1569254274.88207
1569254274.8977
1569254274.91333
1569254274.92895
1569254274.94458
1569254274.9602
1569254274.97583
1569254274.99145
1569254275.00708
1569254275.02271
1569254275.03833
1569254275.05396
1569254275.06958
1569254275.08521
1569254275.10083
1569254275.11646
1569254275.13209
1569254275.14771
1569254275.16334
1569254275.17896
1569254275.19459
1569254275.21021
1569254275.22584
1569254275.24147
1569254275.25709
1569254275.27272
1569254275.28834
1569254275.30397
1569254275.3196
1569254275.33522
1569254275.35085
1569254275.36647
1569254275.3821
1569254275.39772
1569254275.41335
1569254275.42898
1569254275.4446
1569254275.46023
1569254275.47585
1569254275.49148
1569254275.5071
1569254275.52273
1569254275.53836
1569254275.55398
1569254275.56961
1569254275.58523
1569254275.60086
1569254275.61648
1569254275.63211
1569254275.64774
1569254275.66336
1569254275.67899
1569254275.69461
1569254275.71024
1569254275.72586
1569254275.74149
1569254275.75712
1569254275.77274
1569254275.78837
1569254275.80399
1569254275.81962
1569254275.83524
1569254275.85087
1569254275.8665
1569254275.88212
1569254275.89775
1569254275.91337
1569254275.929
1569254275.94462
1569254275.96025
1569254275.97588
1569254275.9915
1569254276.00713
1569254276.02275
1569254276.03838
1569254276.054
1569254276.06963
1569254276.08526
1569254276.10088
1569254276.11651
1569254276.13213
1569254276.14776
1569254276.16338
1569254276.17901
1569254276.19464
1569254276.21026
1569254276.22589
1569254276.24151
1569254276.25714
1569254276.27276
1569254276.28839
1569254276.30402
1569254276.31964
1569254276.33527
1569254276.35089
1569254276.36652
1569254276.38214
1569254276.39777
1569254276.4134
1569254276.42902
1569254276.44465
1569254276.46027
1569254276.4759
1569254276.49152
1569254276.50715
1569254276.52278
1569254276.5384
1569254276.55403
1569254276.56965
1569254276.58528
1569254276.6009
1569254276.61653
1569254276.63216
1569254276.64778
1569254276.66341
1569254276.67903
1569254276.69466
1569254276.71028
1569254276.72591
1569254276.74154
1569254276.75716
1569254276.77279
1569254276.78841
1569254276.80404
1569254276.81966
1569254276.83529
1569254276.85092
1569254276.86654
1569254276.88217
1569254276.89779
1569254276.91342
1569254276.92904
1569254276.94467
1569254276.9603
1569254276.97592
1569254276.99155
1569254277.00717
1569254277.0228
1569254277.03842
1569254277.05405
1569254277.06968
1569254277.0853
1569254277.10093
1569254277.11655
1569254277.13218
1569254277.1478
1569254277.16343
1569254277.17906
1569254277.19468
1569254277.21031
1569254277.22593
1569254277.24156
1569254277.25718
1569254277.27281
1569254277.28844
1569254277.30406
1569254277.31969
1569254277.33531
1569254277.35094
1569254277.36656
1569254277.38219
1569254277.39782
1569254277.41344
1569254277.42907
1569254277.44469
1569254277.46032
1569254277.47595
1569254277.49157
1569254277.5072
1569254277.52282
1569254277.53845
1569254277.55407
1569254277.5697
1569254277.58533
1569254277.60095
1569254277.61658
1569254277.6322
1569254277.64783
1569254277.66345
1569254277.67908
1569254277.69471
1569254277.71033
1569254277.72596
1569254277.74158
1569254277.75721
1569254277.77283
1569254277.78846
1569254277.80409
1569254277.81971
1569254277.83534
1569254277.85096
1569254277.86659
1569254277.88221
1569254277.89784
1569254277.91347
1569254277.92909
1569254277.94472
1569254277.96034
1569254277.97597
1569254277.99159
1569254278.00722
1569254278.02285
1569254278.03847
1569254278.0541
1569254278.06972
1569254278.08535
1569254278.10097
1569254278.1166
1569254278.13223
1569254278.14785
1569254278.16348
1569254278.1791
1569254278.19473
1569254278.21035
1569254278.22598
1569254278.24161
1569254278.25723
1569254278.27286
1569254278.28848
1569254278.30411
1569254278.31973
1569254278.33536
1569254278.35099
1569254278.36661
1569254278.38224
1569254278.39786
1569254278.41349
1569254278.42911
1569254278.44474
1569254278.46037
1569254278.47599
1569254278.49162
1569254278.50724
1569254278.52287
1569254278.53849
1569254278.55412
1569254278.56975
1569254278.58537
1569254278.601
1569254278.61662
1569254278.63225
1569254278.64787
1569254278.6635
1569254278.67913
1569254278.69475
1569254278.71038
1569254278.726
1569254278.74163
1569254278.75725
1569254278.77288
1569254278.78851
1569254278.80413
1569254278.81976
1569254278.83538
1569254278.85101
1569254278.86663
1569254278.88226
1569254278.89789
1569254278.91351
1569254278.92914
1569254278.94476
1569254278.96039
1569254278.97601
1569254278.99164
1569254279.00727
1569254279.02289
1569254279.03852
1569254279.05414
1569254279.06977
1569254279.08539
1569254279.10102
1569254279.11665
1569254279.13227
1569254279.1479
1569254279.16352
1569254279.17915
1569254279.19477
1569254279.2104
1569254279.22603
1569254279.24165
1569254279.25728
1569254279.2729
1569254279.28853
1569254279.30415
1569254279.31978
1569254279.33541
1569254279.35103
1569254279.36666
1569254279.38228
1569254279.39791
1569254279.41353
1569254279.42916
1569254279.44479
1569254279.46041
1569254279.47604
1569254279.49166
1569254279.50729
1569254279.52291
1569254279.53854
1569254279.55417
1569254279.56979
1569254279.58542
1569254279.60104
1569254279.61667
1569254279.63229
1569254279.64792
1569254279.66355
1569254279.67917
1569254279.6948
1569254279.71042
1569254279.72605
1569254279.74167
1569254279.7573
1569254279.77293
1569254279.78855
1569254279.80418
1569254279.8198
1569254279.83543
1569254279.85105
1569254279.86668
1569254279.88231
1569254279.89793
1569254279.91356
1569254279.92918
1569254279.94481
1569254279.96043
1569254279.97606
1569254279.99169
1569254280.00731
1569254280.02294
1569254280.03856
1569254280.05419
1569254280.06981
1569254280.08544
1569254280.10107
1569254280.11669
1569254280.13232
1569254280.14794
1569254280.16357
1569254280.1792
1569254280.19482
1569254280.21045
1569254280.22607
1569254280.2417
1569254280.25732
1569254280.27295
1569254280.28858
1569254280.3042
1569254280.31983
1569254280.33545
1569254280.35108
1569254280.3667
1569254280.38233
1569254280.39796
1569254280.41358
1569254280.42921
1569254280.44483
1569254280.46046
1569254280.47608
1569254280.49171
1569254280.50734
1569254280.52296
1569254280.53859
1569254280.55421
1569254280.56984
1569254280.58546
1569254280.60109
1569254280.61672
1569254280.63234
1569254280.64797
1569254280.66359
1569254280.67922
1569254280.69484
1569254280.71047
1569254280.7261
1569254280.74172
1569254280.75735
1569254280.77297
1569254280.7886
1569254280.80422
1569254280.81985
1569254280.83548
1569254280.8511
1569254280.86673
1569254280.88235
1569254280.89798
1569254280.9136
1569254280.92923
1569254280.94486
1569254280.96048
1569254280.97611
1569254280.99173
1569254281.00736
1569254281.02298
1569254281.03861
1569254281.05424
1569254281.06986
1569254281.08549
1569254281.10111
1569254281.11674
1569254281.13236
1569254281.14799
1569254281.16362
1569254281.17924
1569254281.19487
1569254281.21049
1569254281.22612
1569254281.24174
1569254281.25737
1569254281.273
1569254281.28862
1569254281.30425
1569254281.31987
1569254281.3355
1569254281.35112
1569254281.36675
1569254281.38238
1569254281.398
1569254281.41363
1569254281.42925
1569254281.44488
1569254281.4605
1569254281.47613
1569254281.49176
1569254281.50738
1569254281.52301
1569254281.53863
1569254281.55426
1569254281.56988
1569254281.58551
1569254281.60114
1569254281.61676
1569254281.63239
1569254281.64801
1569254281.66364
1569254281.67926
1569254281.69489
1569254281.71052
1569254281.72614
1569254281.74177
1569254281.75739
1569254281.77302
1569254281.78864
1569254281.80427
1569254281.8199
1569254281.83552
1569254281.85115
1569254281.86677
1569254281.8824
1569254281.89802
1569254281.91365
1569254281.92928
1569254281.9449
1569254281.96053
1569254281.97615
1569254281.99178
1569254282.0074
1569254282.02303
1569254282.03866
1569254282.05428
1569254282.06991
1569254282.08553
1569254282.10116
1569254282.11678
1569254282.13241
1569254282.14804
1569254282.16366
1569254282.17929
1569254282.19491
1569254282.21054
1569254282.22616
1569254282.24179
1569254282.25742
1569254282.27304
1569254282.28867
1569254282.30429
1569254282.31992
1569254282.33555
1569254282.35117
1569254282.3668
1569254282.38242
1569254282.39805
1569254282.41367
1569254282.4293
1569254282.44493
1569254282.46055
1569254282.47618
1569254282.4918
1569254282.50743
1569254282.52305
1569254282.53868
1569254282.55431
1569254282.56993
1569254282.58556
1569254282.60118
1569254282.61681
1569254282.63243
1569254282.64806
1569254282.66369
1569254282.67931
1569254282.69494
1569254282.71056
1569254282.72619
1569254282.74181
1569254282.75744
1569254282.77307
1569254282.78869
1569254282.80432
1569254282.81994
1569254282.83557
1569254282.85119
1569254282.86682
1569254282.88245
1569254282.89807
1569254282.9137
1569254282.92932
1569254282.94495
1569254282.96057
1569254282.9762
1569254282.99183
1569254283.00745
1569254283.02308
1569254283.0387
1569254283.05433
1569254283.06995
1569254283.08558
1569254283.10121
1569254283.11683
1569254283.13246
1569254283.14808
1569254283.16371
1569254283.17933
1569254283.19496
1569254283.21059
1569254283.22621
1569254283.24184
1569254283.25746
1569254283.27309
1569254283.28871
1569254283.30434
1569254283.31997
1569254283.33559
1569254283.35122
1569254283.36684
1569254283.38247
1569254283.39809
1569254283.41372
1569254283.42935
1569254283.44497
1569254283.4606
1569254283.47622
1569254283.49185
1569254283.50747
1569254283.5231
1569254283.53873
1569254283.55435
1569254283.56998
1569254283.5856
1569254283.60123
1569254283.61685
1569254283.63248
1569254283.64811
1569254283.66373
1569254283.67936
1569254283.69498
1569254283.71061
1569254283.72623
1569254283.74186
1569254283.75749
1569254283.77311
1569254283.78874
1569254283.80436
1569254283.81999
1569254283.83561
1569254283.85124
1569254283.86687
1569254283.88249
1569254283.89812
1569254283.91374
1569254283.92937
1569254283.94499
1569254283.96062
1569254283.97625
1569254283.99187
1569254284.0075
1569254284.02312
1569254284.03875
1569254284.05437
1569254284.07
1569254284.08563
1569254284.10125
1569254284.11688
1569254284.1325
1569254284.14813
1569254284.16375
1569254284.17938
1569254284.19501
1569254284.21063
1569254284.22626
1569254284.24188
1569254284.25751
1569254284.27313
1569254284.28876
1569254284.30439
1569254284.32001
1569254284.33564
1569254284.35126
1569254284.36689
1569254284.38251
1569254284.39814
1569254284.41377
1569254284.42939
1569254284.44502
1569254284.46064
1569254284.47627
1569254284.49189
1569254284.50752
1569254284.52315
1569254284.53877
1569254284.5544
1569254284.57002
1569254284.58565
1569254284.60127
1569254284.6169
1569254284.63253
1569254284.64815
1569254284.66378
1569254284.6794
1569254284.69503
1569254284.71065
1569254284.72628
1569254284.74191
1569254284.75753
1569254284.77316
1569254284.78878
1569254284.80441
1569254284.82003
1569254284.83566
1569254284.85129
1569254284.86691
1569254284.88254
1569254284.89816
1569254284.91379
1569254284.92941
1569254284.94504
1569254284.96067
1569254284.97629
1569254284.99192
1569254285.00754
1569254285.02317
1569254285.0388
1569254285.05442
1569254285.07005
1569254285.08567
1569254285.1013
1569254285.11692
1569254285.13255
1569254285.14818
1569254285.1638
1569254285.17943
1569254285.19505
1569254285.21068
1569254285.2263
1569254285.24193
1569254285.25756
1569254285.27318
1569254285.28881
1569254285.30443
1569254285.32006
1569254285.33568
1569254285.35131
1569254285.36694
1569254285.38256
1569254285.39819
1569254285.41381
1569254285.42944
1569254285.44506
1569254285.46069
1569254285.47632
1569254285.49194
1569254285.50757
1569254285.52319
1569254285.53882
1569254285.55444
1569254285.57007
1569254285.5857
1569254285.60132
1569254285.61695
1569254285.63257
1569254285.6482
1569254285.66382
1569254285.67945
1569254285.69508
1569254285.7107
1569254285.72633
1569254285.74195
1569254285.75758
1569254285.7732
1569254285.78883
1569254285.80446
1569254285.82008
1569254285.83571
1569254285.85133
1569254285.86696
1569254285.88258
1569254285.89821
1569254285.91384
1569254285.92946
1569254285.94509
1569254285.96071
1569254285.97634
1569254285.99196
1569254286.00759
1569254286.02322
1569254286.03884
1569254286.05447
1569254286.07009
1569254286.08572
1569254286.10134
1569254286.11697
1569254286.1326
1569254286.14822
1569254286.16385
1569254286.17947
1569254286.1951
1569254286.21072
1569254286.22635
1569254286.24198
1569254286.2576
1569254286.27323
1569254286.28885
1569254286.30448
1569254286.3201
1569254286.33573
1569254286.35136
1569254286.36698
1569254286.38261
1569254286.39823
1569254286.41386
1569254286.42948
1569254286.44511
1569254286.46074
1569254286.47636
1569254286.49199
1569254286.50761
1569254286.52324
1569254286.53886
1569254286.55449
1569254286.57012
1569254286.58574
1569254286.60137
1569254286.61699
1569254286.63262
1569254286.64824
1569254286.66387
1569254286.6795
1569254286.69512
1569254286.71075
1569254286.72637
1569254286.742
1569254286.75762
1569254286.77325
1569254286.78888
1569254286.8045
1569254286.82013
1569254286.83575
1569254286.85138
1569254286.867
1569254286.88263
1569254286.89826
1569254286.91388
1569254286.92951
1569254286.94513
1569254286.96076
1569254286.97638
1569254286.99201
1569254287.00764
1569254287.02326
1569254287.03889
1569254287.05451
1569254287.07014
1569254287.08576
1569254287.10139
1569254287.11702
1569254287.13264
1569254287.14827
1569254287.16389
1569254287.17952
1569254287.19515
1569254287.21077
1569254287.2264
1569254287.24202
1569254287.25765
1569254287.27327
1569254287.2889
1569254287.30453
1569254287.32015
1569254287.33578
1569254287.3514
1569254287.36703
1569254287.38265
1569254287.39828
1569254287.41391
1569254287.42953
1569254287.44516
1569254287.46078
1569254287.47641
1569254287.49203
1569254287.50766
1569254287.52329
1569254287.53891
1569254287.55454
1569254287.57016
1569254287.58579
1569254287.60141
1569254287.61704
1569254287.63267
1569254287.64829
1569254287.66392
1569254287.67954
1569254287.69517
1569254287.71079
1569254287.72642
1569254287.74205
1569254287.75767
1569254287.7733
1569254287.78892
1569254287.80455
1569254287.82017
1569254287.8358
1569254287.85143
1569254287.86705
1569254287.88268
1569254287.8983
1569254287.91393
1569254287.92955
1569254287.94518
1569254287.96081
1569254287.97643
1569254287.99206
1569254288.00768
1569254288.02331
1569254288.03893
1569254288.05456
1569254288.07019
1569254288.08581
1569254288.10144
1569254288.11706
1569254288.13269
1569254288.14831
1569254288.16394
1569254288.17957
1569254288.19519
1569254288.21082
1569254288.22644
1569254288.24207
1569254288.25769
1569254288.27332
1569254288.28895
1569254288.30457
1569254288.3202
1569254288.33582
1569254288.35145
1569254288.36707
1569254288.3827
1569254288.39833
1569254288.41395
1569254288.42958
1569254288.4452
1569254288.46083
1569254288.47645
1569254288.49208
1569254288.50771
1569254288.52333
1569254288.53896
1569254288.55458
1569254288.57021
1569254288.58583
1569254288.60146
1569254288.61709
1569254288.63271
1569254288.64834
1569254288.66396
1569254288.67959
1569254288.69521
1569254288.71084
1569254288.72647
1569254288.74209
1569254288.75772
1569254288.77334
1569254288.78897
1569254288.80459
1569254288.82022
1569254288.83585
1569254288.85147
1569254288.8671
1569254288.88272
1569254288.89835
1569254288.91397
1569254288.9296
1569254288.94523
1569254288.96085
1569254288.97648
1569254288.9921
1569254289.00773
1569254289.02335
1569254289.03898
1569254289.05461
1569254289.07023
1569254289.08586
1569254289.10148
1569254289.11711
1569254289.13273
1569254289.14836
1569254289.16399
1569254289.17961
1569254289.19524
1569254289.21086
1569254289.22649
1569254289.24211
1569254289.25774
1569254289.27337
1569254289.28899
1569254289.30462
1569254289.32024
1569254289.33587
1569254289.35149
1569254289.36712
1569254289.38275
1569254289.39837
1569254289.414
1569254289.42962
1569254289.44525
1569254289.46088
1569254289.4765
1569254289.49213
1569254289.50775
1569254289.52338
1569254289.539
1569254289.55463
1569254289.57026
1569254289.58588
1569254289.60151
1569254289.61713
1569254289.63276
1569254289.64838
1569254289.66401
1569254289.67964
1569254289.69526
1569254289.71089
1569254289.72651
1569254289.74214
1569254289.75776
1569254289.77339
1569254289.78902
1569254289.80464
1569254289.82027
1569254289.83589
1569254289.85152
1569254289.86714
1569254289.88277
1569254289.8984
1569254289.91402
1569254289.92965
1569254289.94527
1569254289.9609
1569254289.97652
1569254289.99215
1569254290.00778
1569254290.0234
1569254290.03903
1569254290.05465
1569254290.07028
1569254290.0859
1569254290.10153
1569254290.11716
1569254290.13278
1569254290.14841
1569254290.16403
1569254290.17966
1569254290.19528
1569254290.21091
1569254290.22654
1569254290.24216
1569254290.25779
1569254290.27341
1569254290.28904
1569254290.30466
1569254290.32029
1569254290.33592
1569254290.35154
1569254290.36717
1569254290.38279
1569254290.39842
1569254290.41404
1569254290.42967
1569254290.4453
1569254290.46092
1569254290.47655
1569254290.49217
1569254290.5078
1569254290.52342
1569254290.53905
1569254290.55468
1569254290.5703
1569254290.58593
1569254290.60155
1569254290.61718
1569254290.6328
1569254290.64843
1569254290.66406
1569254290.67968
1569254290.69531
1569254290.71093
1569254290.72656
1569254290.74218
1569254290.75781
1569254290.77344
1569254290.78906
1569254290.80469
1569254290.82031
1569254290.83594
1569254290.85156
1569254290.86719
1569254290.88282
1569254290.89844
1569254290.91407
1569254290.92969
1569254290.94532
1569254290.96094
1569254290.97657
1569254290.9922
1569254291.00782
1569254291.02345
1569254291.03907
1569254291.0547
1569254291.07032
1569254291.08595
1569254291.10158
1569254291.1172
1569254291.13283
1569254291.14845
1569254291.16408
1569254291.1797
1569254291.19533
1569254291.21096
1569254291.22658
1569254291.24221
1569254291.25783
1569254291.27346
1569254291.28908
1569254291.30471
1569254291.32034
1569254291.33596
1569254291.35159
1569254291.36721
1569254291.38284
1569254291.39846
1569254291.41409
1569254291.42972
1569254291.44534
1569254291.46097
1569254291.47659
1569254291.49222
1569254291.50784
1569254291.52347
1569254291.5391
1569254291.55472
1569254291.57035
1569254291.58597
1569254291.6016
1569254291.61722
1569254291.63285
1569254291.64848
1569254291.6641
1569254291.67973
1569254291.69535
1569254291.71098
1569254291.7266
1569254291.74223
1569254291.75786
1569254291.77348
1569254291.78911
1569254291.80473
1569254291.82036
1569254291.83598
1569254291.85161
1569254291.86724
1569254291.88286
1569254291.89849
1569254291.91411
1569254291.92974
1569254291.94536
1569254291.96099
1569254291.97662
1569254291.99224
1569254292.00787
1569254292.02349
1569254292.03912
1569254292.05475
1569254292.07037
1569254292.086
1569254292.10162
1569254292.11725
1569254292.13287
1569254292.1485
1569254292.16413
1569254292.17975
1569254292.19538
1569254292.211
1569254292.22663
1569254292.24225
1569254292.25788
1569254292.27351
1569254292.28913
1569254292.30476
1569254292.32038
1569254292.33601
1569254292.35163
1569254292.36726
1569254292.38289
1569254292.39851
1569254292.41414
1569254292.42976
1569254292.44539
1569254292.46101
1569254292.47664
1569254292.49227
1569254292.50789
1569254292.52352
1569254292.53914
1569254292.55477
1569254292.57039
1569254292.58602
1569254292.60165
1569254292.61727
1569254292.6329
1569254292.64852
1569254292.66415
1569254292.67977
1569254292.6954
1569254292.71103
1569254292.72665
1569254292.74228
1569254292.7579
1569254292.77353
1569254292.78915
1569254292.80478
1569254292.82041
1569254292.83603
1569254292.85166
1569254292.86728
1569254292.88291
1569254292.89853
1569254292.91416
1569254292.92979
1569254292.94541
1569254292.96104
1569254292.97666
1569254292.99229
1569254293.00791
1569254293.02354
1569254293.03917
1569254293.05479
1569254293.07042
1569254293.08604
1569254293.10167
1569254293.11729
1569254293.13292
1569254293.14855
1569254293.16417
1569254293.1798
1569254293.19542
1569254293.21105
1569254293.22667
1569254293.2423
1569254293.25793
1569254293.27355
1569254293.28918
1569254293.3048
1569254293.32043
1569254293.33605
1569254293.35168
1569254293.36731
1569254293.38293
1569254293.39856
1569254293.41418
1569254293.42981
1569254293.44543
1569254293.46106
1569254293.47669
1569254293.49231
1569254293.50794
1569254293.52356
1569254293.53919
1569254293.55481
1569254293.57044
1569254293.58607
1569254293.60169
1569254293.61732
1569254293.63294
1569254293.64857
1569254293.66419
1569254293.67982
1569254293.69545
1569254293.71107
1569254293.7267
1569254293.74232
1569254293.75795
1569254293.77357
1569254293.7892
1569254293.80483
1569254293.82045
1569254293.83608
1569254293.8517
1569254293.86733
1569254293.88295
1569254293.89858
1569254293.91421
1569254293.92983
1569254293.94546
1569254293.96108
1569254293.97671
1569254293.99233
1569254294.00796
1569254294.02359
1569254294.03921
1569254294.05484
1569254294.07046
1569254294.08609
1569254294.10171
1569254294.11734
1569254294.13297
1569254294.14859
1569254294.16422
1569254294.17984
1569254294.19547
1569254294.21109
1569254294.22672
1569254294.24235
1569254294.25797
1569254294.2736
1569254294.28922
1569254294.30485
1569254294.32048
1569254294.3361
1569254294.35173
1569254294.36735
1569254294.38298
1569254294.3986
1569254294.41423
1569254294.42986
1569254294.44548
1569254294.46111
1569254294.47673
1569254294.49236
1569254294.50798
1569254294.52361
1569254294.53924
1569254294.55486
1569254294.57049
1569254294.58611
1569254294.60174
1569254294.61736
1569254294.63299
1569254294.64862
1569254294.66424
1569254294.67987
1569254294.69549
1569254294.71112
1569254294.72674
1569254294.74237
1569254294.758
1569254294.77362
1569254294.78925
1569254294.80487
1569254294.8205
1569254294.83612
1569254294.85175
1569254294.86738
1569254294.883
1569254294.89863
1569254294.91425
1569254294.92988
1569254294.9455
1569254294.96113
1569254294.97676
1569254294.99238
1569254295.00801
1569254295.02363
1569254295.03926
1569254295.05488
1569254295.07051
1569254295.08614
1569254295.10176
1569254295.11739
1569254295.13301
1569254295.14864
1569254295.16426
1569254295.17989
1569254295.19552
1569254295.21114
1569254295.22677
1569254295.24239
1569254295.25802
1569254295.27364
1569254295.28927
1569254295.3049
1569254295.32052
1569254295.33615
1569254295.35177
1569254295.3674
1569254295.38302
1569254295.39865
1569254295.41428
1569254295.4299
1569254295.44553
1569254295.46115
1569254295.47678
1569254295.4924
1569254295.50803
1569254295.52366
1569254295.53928
1569254295.55491
1569254295.57053
1569254295.58616
1569254295.60178
1569254295.61741
1569254295.63304
1569254295.64866
1569254295.66429
1569254295.67991
1569254295.69554
1569254295.71116
1569254295.72679
1569254295.74242
1569254295.75804
1569254295.77367
1569254295.78929
1569254295.80492
1569254295.82054
1569254295.83617
1569254295.8518
1569254295.86742
1569254295.88305
1569254295.89867
1569254295.9143
1569254295.92992
1569254295.94555
1569254295.96118
1569254295.9768
1569254295.99243
1569254296.00805
1569254296.02368
1569254296.0393
1569254296.05493
1569254296.07056
1569254296.08618
1569254296.10181
1569254296.11743
1569254296.13306
1569254296.14868
1569254296.16431
1569254296.17994
1569254296.19556
1569254296.21119
1569254296.22681
1569254296.24244
1569254296.25806
1569254296.27369
1569254296.28932
1569254296.30494
1569254296.32057
1569254296.33619
1569254296.35182
1569254296.36744
1569254296.38307
1569254296.3987
1569254296.41432
1569254296.42995
1569254296.44557
1569254296.4612
1569254296.47683
1569254296.49245
1569254296.50808
1569254296.5237
1569254296.53933
1569254296.55495
1569254296.57058
1569254296.58621
1569254296.60183
1569254296.61746
1569254296.63308
1569254296.64871
1569254296.66433
1569254296.67996
1569254296.69559
1569254296.71121
1569254296.72684
1569254296.74246
1569254296.75809
1569254296.77371
1569254296.78934
1569254296.80497
1569254296.82059
1569254296.83622
1569254296.85184
1569254296.86747
1569254296.88309
1569254296.89872
1569254296.91435
1569254296.92997
1569254296.9456
1569254296.96122
1569254296.97685
1569254296.99247
1569254297.0081
1569254297.02373
1569254297.03935
1569254297.05498
1569254297.0706
1569254297.08623
1569254297.10185
1569254297.11748
1569254297.13311
1569254297.14873
1569254297.16436
1569254297.17998
1569254297.19561
1569254297.21123
1569254297.22686
1569254297.24249
1569254297.25811
1569254297.27374
1569254297.28936
1569254297.30499
1569254297.32061
1569254297.33624
1569254297.35187
1569254297.36749
1569254297.38312
1569254297.39874
1569254297.41437
1569254297.42999
1569254297.44562
1569254297.46125
1569254297.47687
1569254297.4925
1569254297.50812
1569254297.52375
1569254297.53937
1569254297.555
1569254297.57063
1569254297.58625
1569254297.60188
1569254297.6175
1569254297.63313
1569254297.64875
1569254297.66438
1569254297.68001
1569254297.69563
1569254297.71126
1569254297.72688
1569254297.74251
1569254297.75813
1569254297.77376
1569254297.78939
1569254297.80501
1569254297.82064
1569254297.83626
1569254297.85189
1569254297.86751
1569254297.88314
1569254297.89877
1569254297.91439
1569254297.93002
1569254297.94564
1569254297.96127
1569254297.97689
1569254297.99252
1569254298.00815
1569254298.02377
1569254298.0394
1569254298.05502
1569254298.07065
1569254298.08627
1569254298.1019
1569254298.11753
1569254298.13315
1569254298.14878
1569254298.1644
1569254298.18003
1569254298.19565
1569254298.21128
1569254298.22691
1569254298.24253
1569254298.25816
1569254298.27378
1569254298.28941
1569254298.30503
1569254298.32066
1569254298.33629
1569254298.35191
1569254298.36754
1569254298.38316
1569254298.39879
1569254298.41441
1569254298.43004
1569254298.44567
1569254298.46129
1569254298.47692
1569254298.49254
1569254298.50817
1569254298.52379
1569254298.53942
1569254298.55505
1569254298.57067
1569254298.5863
1569254298.60192
1569254298.61755
1569254298.63317
1569254298.6488
1569254298.66443
1569254298.68005
1569254298.69568
1569254298.7113
1569254298.72693
1569254298.74255
1569254298.75818
1569254298.77381
1569254298.78943
1569254298.80506
1569254298.82068
1569254298.83631
1569254298.85193
1569254298.86756
1569254298.88319
1569254298.89881
1569254298.91444
1569254298.93006
1569254298.94569
1569254298.96131
1569254298.97694
1569254298.99257
1569254299.00819
1569254299.02382
1569254299.03944
1569254299.05507
1569254299.07069
1569254299.08632
1569254299.10195
1569254299.11757
1569254299.1332
1569254299.14882
1569254299.16445
1569254299.18008
1569254299.1957
1569254299.21133
1569254299.22695
1569254299.24258
1569254299.2582
1569254299.27383
1569254299.28946
1569254299.30508
1569254299.32071
1569254299.33633
1569254299.35196
1569254299.36758
1569254299.38321
1569254299.39884
1569254299.41446
1569254299.43009
1569254299.44571
1569254299.46134
1569254299.47696
1569254299.49259
1569254299.50822
1569254299.52384
1569254299.53947
1569254299.55509
1569254299.57072
1569254299.58634
1569254299.60197
1569254299.6176
1569254299.63322
1569254299.64885
1569254299.66447
1569254299.6801
1569254299.69572
1569254299.71135
1569254299.72698
1569254299.7426
1569254299.75823
1569254299.77385
1569254299.78948
1569254299.8051
1569254299.82073
1569254299.83636
1569254299.85198
1569254299.86761
1569254299.88323
1569254299.89886
1569254299.91448
1569254299.93011
1569254299.94574
1569254299.96136
1569254299.97699
1569254299.99261
1569254300.00824
1569254300.02386
1569254300.03949
1569254300.05512
1569254300.07074
1569254300.08637
1569254300.10199
1569254300.11762
1569254300.13324
1569254300.14887
1569254300.1645
1569254300.18012
1569254300.19575
1569254300.21137
1569254300.227
1569254300.24262
1569254300.25825
1569254300.27388
1569254300.2895
1569254300.30513
1569254300.32075
1569254300.33638
1569254300.352
1569254300.36763
1569254300.38326
1569254300.39888
1569254300.41451
1569254300.43013
1569254300.44576
1569254300.46138
1569254300.47701
1569254300.49264
1569254300.50826
1569254300.52389
1569254300.53951
1569254300.55514
1569254300.57076
1569254300.58639
1569254300.60202
1569254300.61764
1569254300.63327
1569254300.64889
1569254300.66452
1569254300.68014
1569254300.69577
1569254300.7114
1569254300.72702
1569254300.74265
1569254300.75827
1569254300.7739
1569254300.78952
1569254300.80515
1569254300.82078
1569254300.8364
1569254300.85203
1569254300.86765
1569254300.88328
1569254300.8989
1569254300.91453
1569254300.93016
1569254300.94578
1569254300.96141
1569254300.97703
1569254300.99266
1569254301.00828
1569254301.02391
1569254301.03954
1569254301.05516
1569254301.07079
1569254301.08641
1569254301.10204
1569254301.11766
1569254301.13329
1569254301.14892
1569254301.16454
1569254301.18017
1569254301.19579
1569254301.21142
1569254301.22704
1569254301.24267
1569254301.2583
1569254301.27392
1569254301.28955
1569254301.30517
1569254301.3208
1569254301.33642
1569254301.35205
1569254301.36768
1569254301.3833
1569254301.39893
1569254301.41455
1569254301.43018
1569254301.44581
1569254301.46143
1569254301.47706
1569254301.49268
1569254301.50831
1569254301.52393
1569254301.53956
1569254301.55519
1569254301.57081
1569254301.58644
1569254301.60206
1569254301.61769
1569254301.63331
1569254301.64894
1569254301.66457
1569254301.68019
1569254301.69582
1569254301.71144
1569254301.72707
1569254301.74269
1569254301.75832
1569254301.77395
1569254301.78957
1569254301.8052
1569254301.82082
1569254301.83645
1569254301.85207
1569254301.8677
1569254301.88333
1569254301.89895
1569254301.91458
1569254301.9302
1569254301.94583
1569254301.96145
1569254301.97708
1569254301.99271
1569254302.00833
1569254302.02396
1569254302.03958
1569254302.05521
1569254302.07083
1569254302.08646
1569254302.10209
1569254302.11771
1569254302.13334
1569254302.14896
1569254302.16459
1569254302.18021
1569254302.19584
1569254302.21147
1569254302.22709
1569254302.24272
1569254302.25834
1569254302.27397
1569254302.28959
1569254302.30522
1569254302.32085
1569254302.33647
1569254302.3521
1569254302.36772
1569254302.38335
1569254302.39897
1569254302.4146
1569254302.43023
1569254302.44585
1569254302.46148
1569254302.4771
1569254302.49273
1569254302.50835
1569254302.52398
1569254302.53961
1569254302.55523
1569254302.57086
1569254302.58648
1569254302.60211
1569254302.61773
1569254302.63336
1569254302.64899
1569254302.66461
1569254302.68024
1569254302.69586
1569254302.71149
1569254302.72711
1569254302.74274
1569254302.75837
1569254302.77399
1569254302.78962
1569254302.80524
1569254302.82087
1569254302.83649
1569254302.85212
1569254302.86775
1569254302.88337
1569254302.899
1569254302.91462
1569254302.93025
1569254302.94587
1569254302.9615
1569254302.97713
1569254302.99275
1569254303.00838
1569254303.024
1569254303.03963
1569254303.05525
1569254303.07088
1569254303.08651
1569254303.10213
1569254303.11776
1569254303.13338
1569254303.14901
1569254303.16463
1569254303.18026
1569254303.19589
1569254303.21151
1569254303.22714
1569254303.24276
1569254303.25839
1569254303.27401
1569254303.28964
1569254303.30527
1569254303.32089
1569254303.33652
1569254303.35214
1569254303.36777
1569254303.38339
1569254303.39902
1569254303.41465
1569254303.43027
1569254303.4459
1569254303.46152
1569254303.47715
1569254303.49277
1569254303.5084
1569254303.52403
1569254303.53965
1569254303.55528
1569254303.5709
1569254303.58653
1569254303.60215
1569254303.61778
1569254303.63341
1569254303.64903
1569254303.66466
1569254303.68028
1569254303.69591
1569254303.71153
1569254303.72716
1569254303.74279
1569254303.75841
1569254303.77404
1569254303.78966
1569254303.80529
1569254303.82091
1569254303.83654
1569254303.85217
1569254303.86779
1569254303.88342
1569254303.89904
1569254303.91467
1569254303.93029
1569254303.94592
1569254303.96155
1569254303.97717
1569254303.9928
1569254304.00842
1569254304.02405
1569254304.03968
1569254304.0553
1569254304.07093
1569254304.08655
1569254304.10218
1569254304.1178
1569254304.13343
1569254304.14906
1569254304.16468
1569254304.18031
1569254304.19593
1569254304.21156
1569254304.22718
1569254304.24281
1569254304.25844
1569254304.27406
1569254304.28969
1569254304.30531
1569254304.32094
1569254304.33656
1569254304.35219
1569254304.36782
1569254304.38344
1569254304.39907
1569254304.41469
1569254304.43032
1569254304.44594
1569254304.46157
1569254304.4772
1569254304.49282
1569254304.50845
1569254304.52407
1569254304.5397
1569254304.55532
1569254304.57095
1569254304.58658
1569254304.6022
1569254304.61783
1569254304.63345
1569254304.64908
1569254304.6647
1569254304.68033
1569254304.69596
1569254304.71158
1569254304.72721
1569254304.74283
1569254304.75846
1569254304.77408
1569254304.78971
1569254304.80534
1569254304.82096
1569254304.83659
1569254304.85221
1569254304.86784
1569254304.88346
1569254304.89909
1569254304.91472
1569254304.93034
1569254304.94597
1569254304.96159
1569254304.97722
1569254304.99284
1569254305.00847
1569254305.0241
1569254305.03972
1569254305.05535
1569254305.07097
1569254305.0866
1569254305.10222
1569254305.11785
1569254305.13348
1569254305.1491
1569254305.16473
1569254305.18035
1569254305.19598
1569254305.2116
1569254305.22723
1569254305.24286
1569254305.25848
1569254305.27411
1569254305.28973
1569254305.30536
1569254305.32098
1569254305.33661
1569254305.35224
1569254305.36786
1569254305.38349
1569254305.39911
1569254305.41474
1569254305.43036
1569254305.44599
1569254305.46162
1569254305.47724
1569254305.49287
1569254305.50849
1569254305.52412
1569254305.53974
1569254305.55537
1569254305.571
1569254305.58662
1569254305.60225
1569254305.61787
1569254305.6335
1569254305.64912
1569254305.66475
1569254305.68038
1569254305.696
1569254305.71163
1569254305.72725
1569254305.74288
1569254305.7585
1569254305.77413
1569254305.78976
1569254305.80538
1569254305.82101
1569254305.83663
1569254305.85226
1569254305.86788
1569254305.88351
1569254305.89914
1569254305.91476
1569254305.93039
1569254305.94601
1569254305.96164
1569254305.97726
1569254305.99289
1569254306.00852
1569254306.02414
1569254306.03977
1569254306.05539
1569254306.07102
1569254306.08664
1569254306.10227
1569254306.1179
1569254306.13352
1569254306.14915
1569254306.16477
1569254306.1804
1569254306.19602
1569254306.21165
1569254306.22728
1569254306.2429
1569254306.25853
1569254306.27415
1569254306.28978
1569254306.30541
1569254306.32103
1569254306.33666
1569254306.35228
1569254306.36791
1569254306.38353
1569254306.39916
1569254306.41479
1569254306.43041
1569254306.44604
1569254306.46166
1569254306.47729
1569254306.49291
1569254306.50854
1569254306.52417
1569254306.53979
1569254306.55542
1569254306.57104
1569254306.58667
1569254306.60229
1569254306.61792
1569254306.63355
1569254306.64917
1569254306.6648
1569254306.68042
1569254306.69605
1569254306.71167
1569254306.7273
1569254306.74293
1569254306.75855
1569254306.77418
1569254306.7898
1569254306.80543
1569254306.82105
1569254306.83668
1569254306.85231
1569254306.86793
1569254306.88356
1569254306.89918
1569254306.91481
1569254306.93043
1569254306.94606
1569254306.96169
1569254306.97731
1569254306.99294
1569254307.00856
1569254307.02419
1569254307.03981
1569254307.05544
1569254307.07107
1569254307.08669
1569254307.10232
1569254307.11794
1569254307.13357
1569254307.14919
1569254307.16482
1569254307.18045
1569254307.19607
1569254307.2117
1569254307.22732
1569254307.24295
1569254307.25857
1569254307.2742
1569254307.28983
1569254307.30545
1569254307.32108
1569254307.3367
1569254307.35233
1569254307.36795
1569254307.38358
1569254307.39921
1569254307.41483
1569254307.43046
1569254307.44608
1569254307.46171
1569254307.47733
1569254307.49296
1569254307.50859
1569254307.52421
1569254307.53984
1569254307.55546
1569254307.57109
1569254307.58671
1569254307.60234
1569254307.61797
1569254307.63359
1569254307.64922
1569254307.66484
1569254307.68047
1569254307.69609
1569254307.71172
1569254307.72735
1569254307.74297
1569254307.7586
1569254307.77422
1569254307.78985
1569254307.80547
1569254307.8211
1569254307.83673
1569254307.85235
1569254307.86798
1569254307.8836
1569254307.89923
1569254307.91485
1569254307.93048
1569254307.94611
1569254307.96173
1569254307.97736
1569254307.99298
1569254308.00861
1569254308.02423
1569254308.03986
1569254308.05549
1569254308.07111
1569254308.08674
1569254308.10236
1569254308.11799
1569254308.13361
1569254308.14924
1569254308.16487
1569254308.18049
1569254308.19612
1569254308.21174
1569254308.22737
1569254308.24299
1569254308.25862
1569254308.27425
1569254308.28987
1569254308.3055
1569254308.32112
1569254308.33675
1569254308.35237
1569254308.368
1569254308.38363
1569254308.39925
1569254308.41488
1569254308.4305
1569254308.44613
1569254308.46176
1569254308.47738
1569254308.49301
1569254308.50863
1569254308.52426
1569254308.53988
1569254308.55551
1569254308.57114
1569254308.58676
1569254308.60239
1569254308.61801
1569254308.63364
1569254308.64926
1569254308.66489
1569254308.68052
1569254308.69614
1569254308.71177
1569254308.72739
1569254308.74302
1569254308.75864
1569254308.77427
1569254308.7899
1569254308.80552
1569254308.82115
1569254308.83677
1569254308.8524
1569254308.86802
1569254308.88365
1569254308.89928
1569254308.9149
1569254308.93053
1569254308.94615
1569254308.96178
1569254308.9774
1569254308.99303
1569254309.00866
1569254309.02428
1569254309.03991
1569254309.05553
1569254309.07116
1569254309.08678
1569254309.10241
1569254309.11804
1569254309.13366
1569254309.14929
1569254309.16491
1569254309.18054
1569254309.19616
1569254309.21179
1569254309.22742
1569254309.24304
1569254309.25867
1569254309.27429
1569254309.28992
1569254309.30554
1569254309.32117
1569254309.3368
1569254309.35242
1569254309.36805
1569254309.38367
1569254309.3993
1569254309.41492
1569254309.43055
1569254309.44618
1569254309.4618
1569254309.47743
1569254309.49305
1569254309.50868
1569254309.5243
1569254309.53993
1569254309.55556
1569254309.57118
1569254309.58681
1569254309.60243
1569254309.61806
1569254309.63368
1569254309.64931
1569254309.66494
1569254309.68056
1569254309.69619
1569254309.71181
1569254309.72744
1569254309.74306
1569254309.75869
1569254309.77432
1569254309.78994
1569254309.80557
1569254309.82119
1569254309.83682
1569254309.85244
1569254309.86807
1569254309.8837
1569254309.89932
1569254309.91495
1569254309.93057
1569254309.9462
1569254309.96182
1569254309.97745
1569254309.99308
1569254310.0087
1569254310.02433
1569254310.03995
1569254310.05558
1569254310.0712
1569254310.08683
1569254310.10246
1569254310.11808
1569254310.13371
1569254310.14933
1569254310.16496
1569254310.18058
1569254310.19621
1569254310.21184
1569254310.22746
1569254310.24309
1569254310.25871
1569254310.27434
1569254310.28996
1569254310.30559
1569254310.32122
1569254310.33684
1569254310.35247
1569254310.36809
1569254310.38372
1569254310.39934
1569254310.41497
1569254310.4306
1569254310.44622
1569254310.46185
1569254310.47747
1569254310.4931
1569254310.50872
1569254310.52435
1569254310.53998
1569254310.5556
1569254310.57123
1569254310.58685
1569254310.60248
1569254310.6181
1569254310.63373
1569254310.64936
1569254310.66498
1569254310.68061
1569254310.69623
1569254310.71186
1569254310.72748
1569254310.74311
1569254310.75874
1569254310.77436
1569254310.78999
1569254310.80561
1569254310.82124
1569254310.83686
1569254310.85249
1569254310.86812
1569254310.88374
1569254310.89937
1569254310.91499
1569254310.93062
1569254310.94624
1569254310.96187
1569254310.9775
1569254310.99312
1569254311.00875
1569254311.02437
1569254311.04
1569254311.05562
1569254311.07125
1569254311.08688
1569254311.1025
1569254311.11813
1569254311.13375
1569254311.14938
1569254311.16501
1569254311.18063
1569254311.19626
1569254311.21188
1569254311.22751
1569254311.24313
1569254311.25876
1569254311.27439
1569254311.29001
1569254311.30564
1569254311.32126
1569254311.33689
1569254311.35251
1569254311.36814
1569254311.38377
1569254311.39939
1569254311.41502
1569254311.43064
1569254311.44627
1569254311.46189
1569254311.47752
1569254311.49315
1569254311.50877
1569254311.5244
1569254311.54002
1569254311.55565
1569254311.57127
1569254311.5869
1569254311.60253
1569254311.61815
1569254311.63378
1569254311.6494
1569254311.66503
1569254311.68065
1569254311.69628
1569254311.71191
1569254311.72753
1569254311.74316
1569254311.75878
1569254311.77441
1569254311.79003
1569254311.80566
1569254311.82129
1569254311.83691
1569254311.85254
1569254311.86816
1569254311.88379
1569254311.89941
1569254311.91504
1569254311.93067
1569254311.94629
1569254311.96192
1569254311.97754
1569254311.99317
1569254312.00879
1569254312.02442
1569254312.04005
1569254312.05567
1569254312.0713
1569254312.08692
1569254312.10255
1569254312.11817
1569254312.1338
1569254312.14943
1569254312.16505
1569254312.18068
1569254312.1963
1569254312.21193
1569254312.22755
1569254312.24318
1569254312.25881
1569254312.27443
1569254312.29006
1569254312.30568
1569254312.32131
1569254312.33693
1569254312.35256
1569254312.36819
1569254312.38381
1569254312.39944
1569254312.41506
1569254312.43069
1569254312.44631
1569254312.46194
1569254312.47757
1569254312.49319
1569254312.50882
1569254312.52444
1569254312.54007
1569254312.55569
1569254312.57132
1569254312.58695
1569254312.60257
1569254312.6182
1569254312.63382
1569254312.64945
1569254312.66507
1569254312.6807
1569254312.69633
1569254312.71195
1569254312.72758
1569254312.7432
1569254312.75883
1569254312.77445
1569254312.79008
1569254312.80571
1569254312.82133
1569254312.83696
1569254312.85258
1569254312.86821
1569254312.88383
1569254312.89946
1569254312.91509
1569254312.93071
1569254312.94634
1569254312.96196
1569254312.97759
1569254312.99321
1569254313.00884
1569254313.02447
1569254313.04009
1569254313.05572
1569254313.07134
1569254313.08697
1569254313.10259
1569254313.11822
1569254313.13385
1569254313.14947
1569254313.1651
1569254313.18072
1569254313.19635
1569254313.21197
1569254313.2276
1569254313.24323
1569254313.25885
1569254313.27448
1569254313.2901
1569254313.30573
1569254313.32136
1569254313.33698
1569254313.35261
1569254313.36823
1569254313.38386
1569254313.39948
1569254313.41511
1569254313.43074
1569254313.44636
1569254313.46199
1569254313.47761
1569254313.49324
1569254313.50886
1569254313.52449
1569254313.54012
1569254313.55574
1569254313.57137
1569254313.58699
1569254313.60262
1569254313.61824
1569254313.63387
1569254313.6495
1569254313.66512
1569254313.68075
1569254313.69637
1569254313.712
1569254313.72762
1569254313.74325
1569254313.75888
1569254313.7745
1569254313.79013
1569254313.80575
1569254313.82138
1569254313.837
1569254313.85263
1569254313.86826
1569254313.88388
1569254313.89951
1569254313.91513
1569254313.93076
1569254313.94638
1569254313.96201
1569254313.97764
1569254313.99326
1569254314.00889
1569254314.02451
1569254314.04014
1569254314.05576
1569254314.07139
1569254314.08702
1569254314.10264
1569254314.11827
1569254314.13389
1569254314.14952
1569254314.16514
1569254314.18077
1569254314.1964
1569254314.21202
1569254314.22765
1569254314.24327
1569254314.2589
1569254314.27452
1569254314.29015
1569254314.30578
1569254314.3214
1569254314.33703
1569254314.35265
1569254314.36828
1569254314.3839
1569254314.39953
1569254314.41516
1569254314.43078
1569254314.44641
1569254314.46203
1569254314.47766
1569254314.49328
1569254314.50891
1569254314.52454
1569254314.54016
1569254314.55579
1569254314.57141
1569254314.58704
1569254314.60266
1569254314.61829
1569254314.63392
1569254314.64954
1569254314.66517
1569254314.68079
1569254314.69642
1569254314.71204
1569254314.72767
1569254314.7433
1569254314.75892
1569254314.77455
1569254314.79017
1569254314.8058
1569254314.82142
1569254314.83705
1569254314.85268
1569254314.8683
1569254314.88393
1569254314.89955
1569254314.91518
1569254314.9308
1569254314.94643
1569254314.96206
1569254314.97768
1569254314.99331
1569254315.00893
1569254315.02456
1569254315.04018
1569254315.05581
1569254315.07144
1569254315.08706
1569254315.10269
1569254315.11831
1569254315.13394
1569254315.14956
1569254315.16519
1569254315.18082
1569254315.19644
1569254315.21207
1569254315.22769
1569254315.24332
1569254315.25894
1569254315.27457
1569254315.2902
1569254315.30582
1569254315.32145
1569254315.33707
1569254315.3527
1569254315.36832
1569254315.38395
1569254315.39958
1569254315.4152
1569254315.43083
1569254315.44645
1569254315.46208
1569254315.4777
1569254315.49333
1569254315.50896
1569254315.52458
1569254315.54021
1569254315.55583
1569254315.57146
1569254315.58709
1569254315.60271
1569254315.61834
1569254315.63396
1569254315.64959
1569254315.66521
1569254315.68084
1569254315.69647
1569254315.71209
1569254315.72772
1569254315.74334
1569254315.75897
1569254315.77459
1569254315.79022
1569254315.80585
1569254315.82147
1569254315.8371
1569254315.85272
1569254315.86835
1569254315.88397
1569254315.8996
1569254315.91523
1569254315.93085
1569254315.94648
1569254315.9621
1569254315.97773
1569254315.99335
1569254316.00898
1569254316.02461
1569254316.04023
1569254316.05586
1569254316.07148
1569254316.08711
1569254316.10273
1569254316.11836
1569254316.13399
1569254316.14961
1569254316.16524
1569254316.18086
1569254316.19649
1569254316.21211
1569254316.22774
1569254316.24337
1569254316.25899
1569254316.27462
1569254316.29024
1569254316.30587
1569254316.32149
1569254316.33712
1569254316.35275
1569254316.36837
1569254316.384
1569254316.39962
1569254316.41525
1569254316.43087
1569254316.4465
1569254316.46213
1569254316.47775
1569254316.49338
1569254316.509
1569254316.52463
1569254316.54025
1569254316.55588
1569254316.57151
1569254316.58713
1569254316.60276
1569254316.61838
1569254316.63401
1569254316.64963
1569254316.66526
1569254316.68089
1569254316.69651
1569254316.71214
1569254316.72776
1569254316.74339
1569254316.75901
1569254316.77464
1569254316.79027
1569254316.80589
1569254316.82152
1569254316.83714
1569254316.85277
1569254316.86839
1569254316.88402
1569254316.89965
1569254316.91527
1569254316.9309
1569254316.94652
1569254316.96215
1569254316.97777
1569254316.9934
1569254317.00903
1569254317.02465
1569254317.04028
1569254317.0559
1569254317.07153
1569254317.08715
1569254317.10278
1569254317.11841
1569254317.13403
1569254317.14966
1569254317.16528
1569254317.18091
1569254317.19653
1569254317.21216
1569254317.22779
1569254317.24341
1569254317.25904
1569254317.27466
1569254317.29029
1569254317.30591
1569254317.32154
1569254317.33717
1569254317.35279
1569254317.36842
1569254317.38404
1569254317.39967
1569254317.41529
1569254317.43092
1569254317.44655
1569254317.46217
1569254317.4778
1569254317.49342
1569254317.50905
1569254317.52467
1569254317.5403
1569254317.55593
1569254317.57155
1569254317.58718
1569254317.6028
1569254317.61843
1569254317.63405
1569254317.64968
1569254317.66531
1569254317.68093
1569254317.69656
1569254317.71218
1569254317.72781
1569254317.74343
1569254317.75906
1569254317.77469
1569254317.79031
1569254317.80594
1569254317.82156
1569254317.83719
1569254317.85281
1569254317.86844
1569254317.88407
1569254317.89969
1569254317.91532
1569254317.93094
1569254317.94657
1569254317.96219
1569254317.97782
1569254317.99345
1569254318.00907
1569254318.0247
1569254318.04032
1569254318.05595
1569254318.07157
1569254318.0872
1569254318.10283
1569254318.11845
1569254318.13408
1569254318.1497
1569254318.16533
1569254318.18096
1569254318.19658
1569254318.21221
1569254318.22783
1569254318.24346
1569254318.25908
1569254318.27471
1569254318.29034
1569254318.30596
1569254318.32159
1569254318.33721
1569254318.35284
1569254318.36846
1569254318.38409
1569254318.39972
1569254318.41534
1569254318.43097
1569254318.44659
1569254318.46222
1569254318.47784
1569254318.49347
1569254318.5091
1569254318.52472
1569254318.54035
1569254318.55597
1569254318.5716
1569254318.58722
1569254318.60285
1569254318.61848
1569254318.6341
1569254318.64973
1569254318.66535
1569254318.68098
1569254318.6966
1569254318.71223
1569254318.72786
1569254318.74348
1569254318.75911
1569254318.77473
1569254318.79036
1569254318.80598
1569254318.82161
1569254318.83724
1569254318.85286
1569254318.86849
1569254318.88411
1569254318.89974
1569254318.91536
1569254318.93099
1569254318.94662
1569254318.96224
1569254318.97787
1569254318.99349
1569254319.00912
1569254319.02474
1569254319.04037
1569254319.056
1569254319.07162
1569254319.08725
1569254319.10287
1569254319.1185
1569254319.13412
1569254319.14975
1569254319.16538
1569254319.181
1569254319.19663
1569254319.21225
1569254319.22788
1569254319.2435
1569254319.25913
1569254319.27476
1569254319.29038
1569254319.30601
1569254319.32163
1569254319.33726
1569254319.35288
1569254319.36851
1569254319.38414
1569254319.39976
1569254319.41539
1569254319.43101
1569254319.44664
1569254319.46226
1569254319.47789
1569254319.49352
1569254319.50914
1569254319.52477
1569254319.54039
1569254319.55602
1569254319.57164
1569254319.58727
1569254319.6029
1569254319.61852
1569254319.63415
1569254319.64977
1569254319.6654
1569254319.68102
1569254319.69665
1569254319.71228
1569254319.7279
1569254319.74353
1569254319.75915
1569254319.77478
1569254319.7904
1569254319.80603
1569254319.82166
1569254319.83728
1569254319.85291
1569254319.86853
1569254319.88416
1569254319.89978
1569254319.91541
1569254319.93104
1569254319.94666
1569254319.96229
1569254319.97791
1569254319.99354
1569254320.00916
1569254320.02479
1569254320.04042
1569254320.05604
1569254320.07167
1569254320.08729
1569254320.10292
1569254320.11854
1569254320.13417
1569254320.1498
1569254320.16542
1569254320.18105
1569254320.19667
1569254320.2123
1569254320.22792
1569254320.24355
1569254320.25918
1569254320.2748
1569254320.29043
1569254320.30605
1569254320.32168
1569254320.3373
1569254320.35293
1569254320.36856
1569254320.38418
1569254320.39981
1569254320.41543
1569254320.43106
1569254320.44669
1569254320.46231
1569254320.47794
1569254320.49356
1569254320.50919
1569254320.52481
1569254320.54044
1569254320.55607
1569254320.57169
1569254320.58732
1569254320.60294
1569254320.61857
1569254320.63419
1569254320.64982
1569254320.66545
1569254320.68107
1569254320.6967
1569254320.71232
1569254320.72795
1569254320.74357
1569254320.7592
1569254320.77483
1569254320.79045
1569254320.80608
1569254320.8217
1569254320.83733
1569254320.85295
1569254320.86858
1569254320.88421
1569254320.89983
1569254320.91546
1569254320.93108
1569254320.94671
1569254320.96233
1569254320.97796
1569254320.99359
1569254321.00921
1569254321.02484
1569254321.04046
1569254321.05609
1569254321.07171
1569254321.08734
1569254321.10297
1569254321.11859
1569254321.13422
1569254321.14984
1569254321.16547
1569254321.18109
1569254321.19672
1569254321.21235
1569254321.22797
1569254321.2436
1569254321.25922
1569254321.27485
1569254321.29047
1569254321.3061
1569254321.32173
1569254321.33735
1569254321.35298
1569254321.3686
1569254321.38423
1569254321.39985
1569254321.41548
1569254321.43111
1569254321.44673
1569254321.46236
1569254321.47798
1569254321.49361
1569254321.50923
1569254321.52486
1569254321.54049
1569254321.55611
1569254321.57174
1569254321.58736
1569254321.60299
1569254321.61861
1569254321.63424
1569254321.64987
1569254321.66549
1569254321.68112
1569254321.69674
1569254321.71237
1569254321.72799
1569254321.74362
1569254321.75925
1569254321.77487
1569254321.7905
1569254321.80612
1569254321.82175
1569254321.83737
1569254321.853
1569254321.86863
1569254321.88425
1569254321.89988
1569254321.9155
1569254321.93113
1569254321.94675
1569254321.96238
1569254321.97801
1569254321.99363
1569254322.00926
1569254322.02488
1569254322.04051
1569254322.05613
1569254322.07176
1569254322.08739
1569254322.10301
1569254322.11864
1569254322.13426
1569254322.14989
1569254322.16551
1569254322.18114
1569254322.19677
1569254322.21239
1569254322.22802
1569254322.24364
1569254322.25927
1569254322.27489
1569254322.29052
1569254322.30615
1569254322.32177
1569254322.3374
1569254322.35302
1569254322.36865
1569254322.38427
1569254322.3999
1569254322.41553
1569254322.43115
1569254322.44678
1569254322.4624
1569254322.47803
1569254322.49365
1569254322.50928
1569254322.52491
1569254322.54053
1569254322.55616
1569254322.57178
1569254322.58741
1569254322.60303
1569254322.61866
1569254322.63429
1569254322.64991
1569254322.66554
1569254322.68116
1569254322.69679
1569254322.71241
1569254322.72804
1569254322.74367
1569254322.75929
1569254322.77492
1569254322.79054
1569254322.80617
1569254322.82179
1569254322.83742
1569254322.85305
1569254322.86867
1569254322.8843
1569254322.89992
1569254322.91555
1569254322.93117
1569254322.9468
1569254322.96243
1569254322.97805
1569254322.99368
1569254323.0093
1569254323.02493
1569254323.04056
1569254323.05618
1569254323.07181
1569254323.08743
1569254323.10306
1569254323.11868
1569254323.13431
1569254323.14994
1569254323.16556
1569254323.18119
1569254323.19681
1569254323.21244
1569254323.22806
1569254323.24369
1569254323.25932
1569254323.27494
1569254323.29057
1569254323.30619
1569254323.32182
1569254323.33744
1569254323.35307
1569254323.3687
1569254323.38432
1569254323.39995
1569254323.41557
1569254323.4312
1569254323.44682
1569254323.46245
1569254323.47808
1569254323.4937
1569254323.50933
1569254323.52495
1569254323.54058
1569254323.5562
1569254323.57183
1569254323.58746
1569254323.60308
1569254323.61871
1569254323.63433
1569254323.64996
1569254323.66558
1569254323.68121
1569254323.69684
1569254323.71246
1569254323.72809
1569254323.74371
1569254323.75934
1569254323.77496
1569254323.79059
1569254323.80622
1569254323.82184
1569254323.83747
1569254323.85309
1569254323.86872
1569254323.88434
1569254323.89997
1569254323.9156
1569254323.93122
1569254323.94685
1569254323.96247
1569254323.9781
1569254323.99372
1569254324.00935
1569254324.02498
1569254324.0406
1569254324.05623
1569254324.07185
1569254324.08748
1569254324.1031
1569254324.11873
1569254324.13436
1569254324.14998
1569254324.16561
1569254324.18123
1569254324.19686
1569254324.21248
1569254324.22811
1569254324.24374
1569254324.25936
1569254324.27499
1569254324.29061
1569254324.30624
1569254324.32186
1569254324.33749
1569254324.35312
1569254324.36874
1569254324.38437
1569254324.39999
1569254324.41562
1569254324.43124
1569254324.44687
1569254324.4625
1569254324.47812
1569254324.49375
1569254324.50937
1569254324.525
1569254324.54062
1569254324.55625
1569254324.57188
1569254324.5875
1569254324.60313
1569254324.61875
1569254324.63438
1569254324.65
1569254324.66563
1569254324.68126
1569254324.69688
1569254324.71251
1569254324.72813
1569254324.74376
1569254324.75938
1569254324.77501
1569254324.79064
1569254324.80626
1569254324.82189
1569254324.83751
1569254324.85314
1569254324.86876
1569254324.88439
1569254324.90002
1569254324.91564
1569254324.93127
1569254324.94689
1569254324.96252
1569254324.97814
1569254324.99377
1569254325.0094
1569254325.02502
1569254325.04065
1569254325.05627
1569254325.0719
1569254325.08752
1569254325.10315
1569254325.11878
1569254325.1344
1569254325.15003
1569254325.16565
1569254325.18128
1569254325.1969
1569254325.21253
1569254325.22816
1569254325.24378
1569254325.25941
1569254325.27503
1569254325.29066
1569254325.30629
1569254325.32191
1569254325.33754
1569254325.35316
1569254325.36879
1569254325.38441
1569254325.40004
1569254325.41567
1569254325.43129
1569254325.44692
1569254325.46254
1569254325.47817
1569254325.49379
1569254325.50942
1569254325.52505
1569254325.54067
1569254325.5563
1569254325.57192
1569254325.58755
1569254325.60317
1569254325.6188
1569254325.63443
1569254325.65005
1569254325.66568
1569254325.6813
1569254325.69693
1569254325.71255
1569254325.72818
1569254325.74381
1569254325.75943
1569254325.77506
1569254325.79068
1569254325.80631
1569254325.82193
1569254325.83756
1569254325.85319
1569254325.86881
1569254325.88444
1569254325.90006
1569254325.91569
1569254325.93131
1569254325.94694
1569254325.96257
1569254325.97819
1569254325.99382
1569254326.00944
1569254326.02507
1569254326.04069
1569254326.05632
1569254326.07195
1569254326.08757
1569254326.1032
1569254326.11882
1569254326.13445
1569254326.15007
1569254326.1657
1569254326.18133
1569254326.19695
1569254326.21258
1569254326.2282
1569254326.24383
1569254326.25945
1569254326.27508
1569254326.29071
1569254326.30633
1569254326.32196
1569254326.33758
1569254326.35321
1569254326.36883
1569254326.38446
1569254326.40009
1569254326.41571
1569254326.43134
1569254326.44696
1569254326.46259
1569254326.47821
1569254326.49384
1569254326.50947
1569254326.52509
1569254326.54072
1569254326.55634
1569254326.57197
1569254326.58759
1569254326.60322
1569254326.61885
1569254326.63447
1569254326.6501
1569254326.66572
1569254326.68135
1569254326.69697
1569254326.7126
1569254326.72823
1569254326.74385
1569254326.75948
1569254326.7751
1569254326.79073
1569254326.80635
1569254326.82198
1569254326.83761
1569254326.85323
1569254326.86886
1569254326.88448
1569254326.90011
1569254326.91573
1569254326.93136
1569254326.94699
1569254326.96261
1569254326.97824
1569254326.99386
1569254327.00949
1569254327.02511
1569254327.04074
1569254327.05637
1569254327.07199
1569254327.08762
1569254327.10324
1569254327.11887
1569254327.13449
1569254327.15012
1569254327.16575
1569254327.18137
1569254327.197
1569254327.21262
1569254327.22825
1569254327.24387
1569254327.2595
1569254327.27513
1569254327.29075
1569254327.30638
1569254327.322
1569254327.33763
1569254327.35325
1569254327.36888
1569254327.38451
1569254327.40013
1569254327.41576
1569254327.43138
1569254327.44701
1569254327.46263
1569254327.47826
1569254327.49389
1569254327.50951
1569254327.52514
1569254327.54076
1569254327.55639
1569254327.57202
1569254327.58764
1569254327.60327
1569254327.61889
1569254327.63452
1569254327.65014
1569254327.66577
1569254327.6814
1569254327.69702
1569254327.71265
1569254327.72827
1569254327.7439
1569254327.75952
1569254327.77515
1569254327.79078
1569254327.8064
1569254327.82203
1569254327.83765
1569254327.85328
1569254327.8689
1569254327.88453
1569254327.90016
1569254327.91578
1569254327.93141
1569254327.94703
1569254327.96266
1569254327.97828
1569254327.99391
1569254328.00954
1569254328.02516
1569254328.04079
1569254328.05641
1569254328.07204
1569254328.08766
1569254328.10329
1569254328.11892
1569254328.13454
1569254328.15017
1569254328.16579
1569254328.18142
1569254328.19704
1569254328.21267
1569254328.2283
1569254328.24392
1569254328.25955
1569254328.27517
1569254328.2908
1569254328.30642
1569254328.32205
1569254328.33768
1569254328.3533
1569254328.36893
1569254328.38455
1569254328.40018
1569254328.4158
1569254328.43143
1569254328.44706
1569254328.46268
1569254328.47831
1569254328.49393
1569254328.50956
1569254328.52518
1569254328.54081
1569254328.55644
1569254328.57206
1569254328.58769
1569254328.60331
1569254328.61894
1569254328.63456
1569254328.65019
1569254328.66582
1569254328.68144
1569254328.69707
1569254328.71269
1569254328.72832
1569254328.74394
1569254328.75957
1569254328.7752
1569254328.79082
1569254328.80645
1569254328.82207
1569254328.8377
1569254328.85332
1569254328.86895
1569254328.88458
1569254328.9002
1569254328.91583
1569254328.93145
1569254328.94708
1569254328.9627
1569254328.97833
1569254328.99396
1569254329.00958
1569254329.02521
1569254329.04083
1569254329.05646
1569254329.07208
1569254329.08771
1569254329.10334
1569254329.11896
1569254329.13459
1569254329.15021
1569254329.16584
1569254329.18146
1569254329.19709
1569254329.21272
1569254329.22834
1569254329.24397
1569254329.25959
1569254329.27522
1569254329.29084
1569254329.30647
1569254329.3221
1569254329.33772
1569254329.35335
1569254329.36897
1569254329.3846
1569254329.40022
1569254329.41585
1569254329.43148
1569254329.4471
1569254329.46273
1569254329.47835
1569254329.49398
1569254329.5096
1569254329.52523
1569254329.54086
1569254329.55648
1569254329.57211
1569254329.58773
1569254329.60336
1569254329.61898
1569254329.63461
1569254329.65024
1569254329.66586
1569254329.68149
1569254329.69711
1569254329.71274
1569254329.72836
1569254329.74399
1569254329.75962
1569254329.77524
1569254329.79087
1569254329.80649
1569254329.82212
1569254329.83774
1569254329.85337
1569254329.869
1569254329.88462
1569254329.90025
1569254329.91587
1569254329.9315
1569254329.94712
1569254329.96275
1569254329.97838
1569254329.994
1569254330.00963
1569254330.02525
1569254330.04088
1569254330.0565
1569254330.07213
1569254330.08776
1569254330.10338
1569254330.11901
1569254330.13463
1569254330.15026
1569254330.16589
1569254330.18151
1569254330.19714
1569254330.21276
1569254330.22839
1569254330.24401
1569254330.25964
1569254330.27527
1569254330.29089
1569254330.30652
1569254330.32214
1569254330.33777
1569254330.35339
1569254330.36902
1569254330.38465
1569254330.40027
1569254330.4159
1569254330.43152
1569254330.44715
1569254330.46277
1569254330.4784
1569254330.49403
1569254330.50965
1569254330.52528
1569254330.5409
1569254330.55653
1569254330.57215
1569254330.58778
1569254330.60341
1569254330.61903
1569254330.63466
1569254330.65028
1569254330.66591
1569254330.68153
1569254330.69716
1569254330.71279
1569254330.72841
1569254330.74404
1569254330.75966
1569254330.77529
1569254330.79091
1569254330.80654
1569254330.82217
1569254330.83779
1569254330.85342
1569254330.86904
1569254330.88467
1569254330.90029
1569254330.91592
1569254330.93155
1569254330.94717
1569254330.9628
1569254330.97842
1569254330.99405
1569254331.00967
1569254331.0253
1569254331.04093
1569254331.05655
1569254331.07218
1569254331.0878
1569254331.10343
1569254331.11905
1569254331.13468
1569254331.15031
1569254331.16593
1569254331.18156
1569254331.19718
1569254331.21281
1569254331.22843
1569254331.24406
1569254331.25969
1569254331.27531
1569254331.29094
1569254331.30656
1569254331.32219
1569254331.33781
1569254331.35344
1569254331.36907
1569254331.38469
1569254331.40032
1569254331.41594
1569254331.43157
1569254331.44719
1569254331.46282
1569254331.47845
1569254331.49407
1569254331.5097
1569254331.52532
1569254331.54095
1569254331.55657
1569254331.5722
1569254331.58783
1569254331.60345
1569254331.61908
1569254331.6347
1569254331.65033
1569254331.66595
1569254331.68158
1569254331.69721
1569254331.71283
1569254331.72846
1569254331.74408
1569254331.75971
1569254331.77533
1569254331.79096
1569254331.80659
1569254331.82221
1569254331.83784
1569254331.85346
1569254331.86909
1569254331.88471
1569254331.90034
1569254331.91597
1569254331.93159
1569254331.94722
1569254331.96284
1569254331.97847
1569254331.99409
1569254332.00972
1569254332.02535
1569254332.04097
1569254332.0566
1569254332.07222
1569254332.08785
1569254332.10347
1569254332.1191
1569254332.13473
1569254332.15035
1569254332.16598
1569254332.1816
1569254332.19723
1569254332.21285
1569254332.22848
1569254332.24411
1569254332.25973
1569254332.27536
1569254332.29098
1569254332.30661
1569254332.32223
1569254332.33786
1569254332.35349
1569254332.36911
1569254332.38474
1569254332.40036
1569254332.41599
1569254332.43162
1569254332.44724
1569254332.46287
1569254332.47849
1569254332.49412
1569254332.50974
1569254332.52537
1569254332.541
1569254332.55662
1569254332.57225
1569254332.58787
1569254332.6035
1569254332.61912
1569254332.63475
1569254332.65038
1569254332.666
1569254332.68163
1569254332.69725
1569254332.71288
1569254332.7285
1569254332.74413
1569254332.75976
1569254332.77538
1569254332.79101
1569254332.80663
1569254332.82226
1569254332.83788
1569254332.85351
1569254332.86914
1569254332.88476
1569254332.90039
1569254332.91601
1569254332.93164
1569254332.94726
1569254332.96289
1569254332.97852
1569254332.99414
1569254333.00977
1569254333.02539
1569254333.04102
1569254333.05664
1569254333.07227
1569254333.0879
1569254333.10352
1569254333.11915
1569254333.13477
1569254333.1504
1569254333.16602
1569254333.18165
1569254333.19728
1569254333.2129
1569254333.22853
1569254333.24415
1569254333.25978
1569254333.2754
1569254333.29103
1569254333.30666
1569254333.32228
1569254333.33791
1569254333.35353
1569254333.36916
1569254333.38478
1569254333.40041
1569254333.41604
1569254333.43166
1569254333.44729
1569254333.46291
1569254333.47854
1569254333.49416
1569254333.50979
1569254333.52542
1569254333.54104
1569254333.55667
1569254333.57229
1569254333.58792
1569254333.60354
1569254333.61917
1569254333.6348
1569254333.65042
1569254333.66605
1569254333.68167
1569254333.6973
1569254333.71292
1569254333.72855
1569254333.74418
1569254333.7598
1569254333.77543
1569254333.79105
1569254333.80668
1569254333.8223
1569254333.83793
1569254333.85356
1569254333.86918
1569254333.88481
1569254333.90043
1569254333.91606
1569254333.93168
1569254333.94731
1569254333.96294
1569254333.97856
1569254333.99419
1569254334.00981
1569254334.02544
1569254334.04106
1569254334.05669
1569254334.07232
1569254334.08794
1569254334.10357
1569254334.11919
1569254334.13482
1569254334.15044
1569254334.16607
1569254334.1817
1569254334.19732
1569254334.21295
1569254334.22857
1569254334.2442
1569254334.25982
1569254334.27545
1569254334.29108
1569254334.3067
1569254334.32233
1569254334.33795
1569254334.35358
1569254334.3692
1569254334.38483
1569254334.40046
1569254334.41608
1569254334.43171
1569254334.44733
1569254334.46296
1569254334.47858
1569254334.49421
1569254334.50984
1569254334.52546
1569254334.54109
1569254334.55671
1569254334.57234
1569254334.58797
1569254334.60359
1569254334.61922
1569254334.63484
1569254334.65047
1569254334.66609
1569254334.68172
1569254334.69735
1569254334.71297
1569254334.7286
1569254334.74422
1569254334.75985
1569254334.77547
1569254334.7911
1569254334.80673
1569254334.82235
1569254334.83798
1569254334.8536
1569254334.86923
1569254334.88485
1569254334.90048
1569254334.91611
1569254334.93173
1569254334.94736
1569254334.96298
1569254334.97861
1569254334.99423
1569254335.00986
1569254335.02549
1569254335.04111
1569254335.05674
1569254335.07236
1569254335.08799
1569254335.10361
1569254335.11924
1569254335.13487
1569254335.15049
1569254335.16612
1569254335.18174
1569254335.19737
1569254335.21299
1569254335.22862
1569254335.24425
1569254335.25987
1569254335.2755
1569254335.29112
1569254335.30675
1569254335.32237
1569254335.338
1569254335.35363
1569254335.36925
1569254335.38488
1569254335.4005
1569254335.41613
1569254335.43175
1569254335.44738
1569254335.46301
1569254335.47863
1569254335.49426
1569254335.50988
1569254335.52551
1569254335.54113
1569254335.55676
1569254335.57239
1569254335.58801
1569254335.60364
1569254335.61926
1569254335.63489
1569254335.65051
1569254335.66614
1569254335.68177
1569254335.69739
1569254335.71302
1569254335.72864
1569254335.74427
1569254335.75989
1569254335.77552
1569254335.79115
1569254335.80677
1569254335.8224
1569254335.83802
1569254335.85365
1569254335.86927
1569254335.8849
1569254335.90053
1569254335.91615
1569254335.93178
1569254335.9474
1569254335.96303
1569254335.97865
1569254335.99428
1569254336.00991
1569254336.02553
1569254336.04116
1569254336.05678
1569254336.07241
1569254336.08803
1569254336.10366
1569254336.11929
1569254336.13491
1569254336.15054
1569254336.16616
1569254336.18179
1569254336.19741
1569254336.21304
1569254336.22867
1569254336.24429
1569254336.25992
1569254336.27554
1569254336.29117
1569254336.30679
1569254336.32242
1569254336.33805
1569254336.35367
1569254336.3693
1569254336.38492
1569254336.40055
1569254336.41617
1569254336.4318
1569254336.44743
1569254336.46305
1569254336.47868
1569254336.4943
1569254336.50993
1569254336.52555
1569254336.54118
1569254336.55681
1569254336.57243
1569254336.58806
1569254336.60368
1569254336.61931
1569254336.63493
1569254336.65056
1569254336.66619
1569254336.68181
1569254336.69744
1569254336.71306
1569254336.72869
1569254336.74431
1569254336.75994
1569254336.77557
1569254336.79119
1569254336.80682
1569254336.82244
1569254336.83807
1569254336.85369
1569254336.86932
1569254336.88495
1569254336.90057
1569254336.9162
1569254336.93182
1569254336.94745
1569254336.96307
1569254336.9787
1569254336.99433
1569254337.00995
1569254337.02558
1569254337.0412
1569254337.05683
1569254337.07245
1569254337.08808
1569254337.10371
1569254337.11933
1569254337.13496
1569254337.15058
1569254337.16621
1569254337.18183
1569254337.19746
1569254337.21309
1569254337.22871
1569254337.24434
1569254337.25996
1569254337.27559
1569254337.29122
1569254337.30684
1569254337.32247
1569254337.33809
1569254337.35372
1569254337.36934
1569254337.38497
1569254337.4006
1569254337.41622
1569254337.43185
1569254337.44747
1569254337.4631
1569254337.47872
1569254337.49435
1569254337.50998
1569254337.5256
1569254337.54123
1569254337.55685
1569254337.57248
1569254337.5881
1569254337.60373
1569254337.61936
1569254337.63498
1569254337.65061
1569254337.66623
1569254337.68186
1569254337.69748
1569254337.71311
1569254337.72874
1569254337.74436
1569254337.75999
1569254337.77561
1569254337.79124
1569254337.80686
1569254337.82249
1569254337.83812
1569254337.85374
1569254337.86937
1569254337.88499
1569254337.90062
1569254337.91624
1569254337.93187
1569254337.9475
1569254337.96312
1569254337.97875
1569254337.99437
1569254338.01
1569254338.02562
1569254338.04125
1569254338.05688
1569254338.0725
1569254338.08813
1569254338.10375
1569254338.11938
1569254338.135
1569254338.15063
1569254338.16626
1569254338.18188
1569254338.19751
1569254338.21313
1569254338.22876
1569254338.24438
1569254338.26001
1569254338.27564
1569254338.29126
1569254338.30689
1569254338.32251
1569254338.33814
1569254338.35376
1569254338.36939
1569254338.38502
1569254338.40064
1569254338.41627
1569254338.43189
1569254338.44752
1569254338.46314
1569254338.47877
1569254338.4944
1569254338.51002
1569254338.52565
1569254338.54127
1569254338.5569
1569254338.57252
1569254338.58815
1569254338.60378
1569254338.6194
1569254338.63503
1569254338.65065
1569254338.66628
1569254338.6819
1569254338.69753
1569254338.71316
1569254338.72878
1569254338.74441
1569254338.76003
1569254338.77566
1569254338.79128
1569254338.80691
1569254338.82254
1569254338.83816
1569254338.85379
1569254338.86941
1569254338.88504
1569254338.90066
1569254338.91629
1569254338.93192
1569254338.94754
1569254338.96317
1569254338.97879
1569254338.99442
1569254339.01004
1569254339.02567
1569254339.0413
1569254339.05692
1569254339.07255
1569254339.08817
1569254339.1038
1569254339.11942
1569254339.13505
1569254339.15068
1569254339.1663
1569254339.18193
1569254339.19755
1569254339.21318
1569254339.2288
1569254339.24443
1569254339.26006
1569254339.27568
1569254339.29131
1569254339.30693
1569254339.32256
1569254339.33818
1569254339.35381
1569254339.36944
1569254339.38506
1569254339.40069
1569254339.41631
1569254339.43194
1569254339.44757
1569254339.46319
1569254339.47882
1569254339.49444
1569254339.51007
1569254339.52569
1569254339.54132
1569254339.55695
1569254339.57257
1569254339.5882
1569254339.60382
1569254339.61945
1569254339.63507
1569254339.6507
1569254339.66633
1569254339.68195
1569254339.69758
1569254339.7132
1569254339.72883
1569254339.74445
1569254339.76008
1569254339.77571
1569254339.79133
1569254339.80696
1569254339.82258
1569254339.83821
1569254339.85383
1569254339.86946
1569254339.88509
1569254339.90071
1569254339.91634
1569254339.93196
1569254339.94759
1569254339.96321
1569254339.97884
1569254339.99447
1569254340.01009
1569254340.02572
1569254340.04134
1569254340.05697
1569254340.07259
1569254340.08822
1569254340.10385
1569254340.11947
1569254340.1351
1569254340.15072
1569254340.16635
1569254340.18197
1569254340.1976
1569254340.21323
1569254340.22885
1569254340.24448
1569254340.2601
1569254340.27573
1569254340.29135
1569254340.30698
1569254340.32261
1569254340.33823
1569254340.35386
1569254340.36948
1569254340.38511
1569254340.40073
1569254340.41636
1569254340.43199
1569254340.44761
1569254340.46324
1569254340.47886
1569254340.49449
1569254340.51011
1569254340.52574
1569254340.54137
1569254340.55699
1569254340.57262
1569254340.58824
1569254340.60387
1569254340.61949
1569254340.63512
1569254340.65075
1569254340.66637
1569254340.682
1569254340.69762
1569254340.71325
1569254340.72887
1569254340.7445
1569254340.76013
1569254340.77575
1569254340.79138
1569254340.807
1569254340.82263
1569254340.83825
1569254340.85388
1569254340.86951
1569254340.88513
1569254340.90076
1569254340.91638
1569254340.93201
1569254340.94763
1569254340.96326
1569254340.97889
1569254340.99451
1569254341.01014
1569254341.02576
1569254341.04139
1569254341.05701
1569254341.07264
1569254341.08827
1569254341.10389
1569254341.11952
1569254341.13514
1569254341.15077
1569254341.16639
1569254341.18202
1569254341.19765
1569254341.21327
1569254341.2289
1569254341.24452
1569254341.26015
1569254341.27577
1569254341.2914
1569254341.30703
1569254341.32265
1569254341.33828
1569254341.3539
1569254341.36953
1569254341.38515
1569254341.40078
1569254341.41641
1569254341.43203
1569254341.44766
1569254341.46328
1569254341.47891
1569254341.49453
1569254341.51016
1569254341.52579
1569254341.54141
1569254341.55704
1569254341.57266
1569254341.58829
1569254341.60391
1569254341.61954
1569254341.63517
1569254341.65079
1569254341.66642
1569254341.68204
1569254341.69767
1569254341.71329
1569254341.72892
1569254341.74455
1569254341.76017
1569254341.7758
1569254341.79142
1569254341.80705
1569254341.82267
1569254341.8383
1569254341.85393
1569254341.86955
1569254341.88518
1569254341.9008
1569254341.91643
1569254341.93206
1569254341.94768
1569254341.96331
1569254341.97893
1569254341.99456
1569254342.01018
1569254342.02581
1569254342.04144
1569254342.05706
1569254342.07269
1569254342.08831
1569254342.10394
1569254342.11956
1569254342.13519
1569254342.15082
1569254342.16644
1569254342.18207
1569254342.19769
1569254342.21332
1569254342.22894
1569254342.24457
1569254342.2602
1569254342.27582
1569254342.29145
1569254342.30707
1569254342.3227
1569254342.33832
1569254342.35395
1569254342.36958
1569254342.3852
1569254342.40083
1569254342.41645
1569254342.43208
1569254342.4477
1569254342.46333
1569254342.47896
1569254342.49458
1569254342.51021
1569254342.52583
1569254342.54146
1569254342.55708
1569254342.57271
1569254342.58834
1569254342.60396
1569254342.61959
1569254342.63521
1569254342.65084
1569254342.66646
1569254342.68209
1569254342.69772
1569254342.71334
1569254342.72897
1569254342.74459
1569254342.76022
1569254342.77584
1569254342.79147
1569254342.8071
1569254342.82272
1569254342.83835
1569254342.85397
1569254342.8696
1569254342.88522
1569254342.90085
1569254342.91648
1569254342.9321
1569254342.94773
1569254342.96335
1569254342.97898
1569254342.9946
1569254343.01023
1569254343.02586
1569254343.04148
1569254343.05711
1569254343.07273
1569254343.08836
1569254343.10398
1569254343.11961
1569254343.13524
1569254343.15086
1569254343.16649
1569254343.18211
1569254343.19774
1569254343.21336
1569254343.22899
1569254343.24462
1569254343.26024
1569254343.27587
1569254343.29149
1569254343.30712
1569254343.32274
1569254343.33837
1569254343.354
1569254343.36962
1569254343.38525
1569254343.40087
1569254343.4165
1569254343.43212
1569254343.44775
1569254343.46338
1569254343.479
1569254343.49463
1569254343.51025
1569254343.52588
1569254343.5415
1569254343.55713
1569254343.57276
1569254343.58838
1569254343.60401
1569254343.61963
1569254343.63526
1569254343.65088
1569254343.66651
1569254343.68214
1569254343.69776
1569254343.71339
1569254343.72901
1569254343.74464
1569254343.76026
1569254343.77589
1569254343.79152
1569254343.80714
1569254343.82277
1569254343.83839
1569254343.85402
1569254343.86964
1569254343.88527
1569254343.9009
1569254343.91652
1569254343.93215
1569254343.94777
1569254343.9634
1569254343.97902
1569254343.99465
1569254344.01028
1569254344.0259
1569254344.04153
1569254344.05715
1569254344.07278
1569254344.0884
1569254344.10403
1569254344.11966
1569254344.13528
1569254344.15091
1569254344.16653
1569254344.18216
1569254344.19778
1569254344.21341
1569254344.22904
1569254344.24466
1569254344.26029
1569254344.27591
1569254344.29154
1569254344.30717
1569254344.32279
1569254344.33842
1569254344.35404
1569254344.36967
1569254344.38529
1569254344.40092
1569254344.41655
1569254344.43217
1569254344.4478
1569254344.46342
1569254344.47905
1569254344.49467
1569254344.5103
1569254344.52593
1569254344.54155
1569254344.55718
1569254344.5728
1569254344.58843
1569254344.60405
1569254344.61968
1569254344.63531
1569254344.65093
1569254344.66656
1569254344.68218
1569254344.69781
1569254344.71343
1569254344.72906
1569254344.74469
1569254344.76031
1569254344.77594
1569254344.79156
1569254344.80719
1569254344.82281
1569254344.83844
1569254344.85407
1569254344.86969
1569254344.88532
1569254344.90094
1569254344.91657
1569254344.93219
1569254344.94782
1569254344.96345
1569254344.97907
1569254344.9947
1569254345.01032
1569254345.02595
1569254345.04157
1569254345.0572
1569254345.07283
1569254345.08845
1569254345.10408
1569254345.1197
1569254345.13533
1569254345.15095
1569254345.16658
1569254345.18221
1569254345.19783
1569254345.21346
1569254345.22908
1569254345.24471
1569254345.26033
1569254345.27596
1569254345.29159
1569254345.30721
1569254345.32284
1569254345.33846
1569254345.35409
1569254345.36971
1569254345.38534
1569254345.40097
1569254345.41659
1569254345.43222
1569254345.44784
1569254345.46347
1569254345.47909
1569254345.49472
1569254345.51035
1569254345.52597
1569254345.5416
1569254345.55722
1569254345.57285
1569254345.58847
1569254345.6041
1569254345.61973
1569254345.63535
1569254345.65098
1569254345.6666
1569254345.68223
1569254345.69785
1569254345.71348
1569254345.72911
1569254345.74473
1569254345.76036
1569254345.77598
1569254345.79161
1569254345.80723
1569254345.82286
1569254345.83849
1569254345.85411
1569254345.86974
1569254345.88536
1569254345.90099
1569254345.91661
1569254345.93224
1569254345.94787
1569254345.96349
1569254345.97912
1569254345.99474
1569254346.01037
1569254346.02599
1569254346.04162
1569254346.05725
1569254346.07287
1569254346.0885
1569254346.10412
1569254346.11975
1569254346.13537
1569254346.151
1569254346.16663
1569254346.18225
1569254346.19788
1569254346.2135
1569254346.22913
1569254346.24475
1569254346.26038
1569254346.27601
1569254346.29163
1569254346.30726
1569254346.32288
1569254346.33851
1569254346.35413
1569254346.36976
1569254346.38539
1569254346.40101
1569254346.41664
1569254346.43226
1569254346.44789
1569254346.46351
1569254346.47914
1569254346.49477
1569254346.51039
1569254346.52602
1569254346.54164
1569254346.55727
1569254346.5729
1569254346.58852
1569254346.60415
1569254346.61977
1569254346.6354
1569254346.65102
1569254346.66665
1569254346.68228
1569254346.6979
1569254346.71353
1569254346.72915
1569254346.74478
1569254346.7604
1569254346.77603
1569254346.79166
1569254346.80728
1569254346.82291
1569254346.83853
1569254346.85416
1569254346.86978
1569254346.88541
1569254346.90104
1569254346.91666
1569254346.93229
1569254346.94791
1569254346.96354
1569254346.97916
1569254346.99479
1569254347.01042
1569254347.02604
1569254347.04167
1569254347.05729
1569254347.07292
1569254347.08854
1569254347.10417
1569254347.1198
1569254347.13542
1569254347.15105
1569254347.16667
1569254347.1823
1569254347.19792
1569254347.21355
1569254347.22918
1569254347.2448
1569254347.26043
1569254347.27605
1569254347.29168
1569254347.3073
1569254347.32293
1569254347.33856
1569254347.35418
1569254347.36981
1569254347.38543
1569254347.40106
1569254347.41668
1569254347.43231
1569254347.44794
1569254347.46356
1569254347.47919
1569254347.49481
1569254347.51044
1569254347.52606
1569254347.54169
1569254347.55732
1569254347.57294
1569254347.58857
1569254347.60419
1569254347.61982
1569254347.63544
1569254347.65107
1569254347.6667
1569254347.68232
1569254347.69795
1569254347.71357
1569254347.7292
1569254347.74482
1569254347.76045
1569254347.77608
1569254347.7917
1569254347.80733
1569254347.82295
1569254347.83858
1569254347.8542
1569254347.86983
1569254347.88546
1569254347.90108
1569254347.91671
1569254347.93233
1569254347.94796
1569254347.96358
1569254347.97921
1569254347.99484
1569254348.01046
1569254348.02609
1569254348.04171
1569254348.05734
1569254348.07296
1569254348.08859
1569254348.10422
1569254348.11984
1569254348.13547
1569254348.15109
1569254348.16672
1569254348.18234
1569254348.19797
1569254348.2136
1569254348.22922
1569254348.24485
1569254348.26047
1569254348.2761
1569254348.29172
1569254348.30735
1569254348.32298
1569254348.3386
1569254348.35423
1569254348.36985
1569254348.38548
1569254348.4011
1569254348.41673
1569254348.43236
1569254348.44798
1569254348.46361
1569254348.47923
1569254348.49486
1569254348.51048
1569254348.52611
1569254348.54174
1569254348.55736
1569254348.57299
1569254348.58861
1569254348.60424
1569254348.61986
1569254348.63549
1569254348.65112
1569254348.66674
1569254348.68237
1569254348.69799
1569254348.71362
1569254348.72924
1569254348.74487
1569254348.7605
1569254348.77612
1569254348.79175
1569254348.80737
1569254348.823
1569254348.83862
1569254348.85425
1569254348.86988
1569254348.8855
1569254348.90113
1569254348.91675
1569254348.93238
1569254348.948
1569254348.96363
1569254348.97926
1569254348.99488
1569254349.01051
1569254349.02613
1569254349.04176
1569254349.05738
1569254349.07301
1569254349.08864
1569254349.10426
1569254349.11989
1569254349.13551
1569254349.15114
1569254349.16677
1569254349.18239
1569254349.19802
1569254349.21364
1569254349.22927
1569254349.24489
1569254349.26052
1569254349.27615
1569254349.29177
1569254349.3074
1569254349.32302
1569254349.33865
1569254349.35427
1569254349.3699
1569254349.38553
1569254349.40115
1569254349.41678
1569254349.4324
1569254349.44803
1569254349.46365
1569254349.47928
1569254349.49491
1569254349.51053
1569254349.52616
1569254349.54178
1569254349.55741
1569254349.57303
1569254349.58866
1569254349.60429
1569254349.61991
1569254349.63554
1569254349.65116
1569254349.66679
1569254349.68241
1569254349.69804
1569254349.71367
1569254349.72929
1569254349.74492
1569254349.76054
1569254349.77617
1569254349.79179
1569254349.80742
1569254349.82305
1569254349.83867
1569254349.8543
1569254349.86992
1569254349.88555
1569254349.90117
1569254349.9168
1569254349.93243
1569254349.94805
1569254349.96368
1569254349.9793
1569254349.99493
1569254350.01055
1569254350.02618
1569254350.04181
1569254350.05743
1569254350.07306
1569254350.08868
1569254350.10431
1569254350.11993
1569254350.13556
1569254350.15119
1569254350.16681
1569254350.18244
1569254350.19806
1569254350.21369
1569254350.22931
1569254350.24494
1569254350.26057
1569254350.27619
1569254350.29182
1569254350.30744
1569254350.32307
1569254350.33869
1569254350.35432
1569254350.36995
1569254350.38557
1569254350.4012
1569254350.41682
1569254350.43245
1569254350.44807
1569254350.4637
1569254350.47933
1569254350.49495
1569254350.51058
1569254350.5262
1569254350.54183
1569254350.55745
1569254350.57308
1569254350.58871
1569254350.60433
1569254350.61996
1569254350.63558
1569254350.65121
1569254350.66683
1569254350.68246
1569254350.69809
1569254350.71371
1569254350.72934
1569254350.74496
1569254350.76059
1569254350.77621
1569254350.79184
1569254350.80747
1569254350.82309
1569254350.83872
1569254350.85434
1569254350.86997
1569254350.88559
1569254350.90122
1569254350.91685
1569254350.93247
1569254350.9481
1569254350.96372
1569254350.97935
1569254350.99497
1569254351.0106
1569254351.02623
1569254351.04185
1569254351.05748
1569254351.0731
1569254351.08873
1569254351.10435
1569254351.11998
1569254351.13561
1569254351.15123
1569254351.16686
1569254351.18248
1569254351.19811
1569254351.21373
1569254351.22936
1569254351.24499
1569254351.26061
1569254351.27624
1569254351.29186
1569254351.30749
1569254351.32311
1569254351.33874
1569254351.35437
1569254351.36999
1569254351.38562
1569254351.40124
1569254351.41687
1569254351.4325
1569254351.44812
1569254351.46375
1569254351.47937
1569254351.495
1569254351.51062
1569254351.52625
1569254351.54188
1569254351.5575
1569254351.57313
1569254351.58875
1569254351.60438
1569254351.62
1569254351.63563
1569254351.65126
1569254351.66688
1569254351.68251
1569254351.69813
1569254351.71376
1569254351.72938
1569254351.74501
1569254351.76064
1569254351.77626
1569254351.79189
1569254351.80751
1569254351.82314
1569254351.83876
1569254351.85439
1569254351.87002
1569254351.88564
1569254351.90127
1569254351.91689
1569254351.93252
1569254351.94814
1569254351.96377
1569254351.9794
1569254351.99502
1569254352.01065
1569254352.02627
1569254352.0419
1569254352.05752
1569254352.07315
1569254352.08878
1569254352.1044
1569254352.12003
1569254352.13565
1569254352.15128
1569254352.1669
1569254352.18253
1569254352.19816
1569254352.21378
1569254352.22941
1569254352.24503
1569254352.26066
1569254352.27628
1569254352.29191
1569254352.30754
1569254352.32316
1569254352.33879
1569254352.35441
1569254352.37004
1569254352.38566
1569254352.40129
1569254352.41692
1569254352.43254
1569254352.44817
1569254352.46379
1569254352.47942
1569254352.49504
1569254352.51067
1569254352.5263
1569254352.54192
1569254352.55755
1569254352.57317
1569254352.5888
1569254352.60442
1569254352.62005
1569254352.63568
1569254352.6513
1569254352.66693
1569254352.68255
1569254352.69818
1569254352.7138
1569254352.72943
1569254352.74506
1569254352.76068
1569254352.77631
1569254352.79193
1569254352.80756
1569254352.82318
1569254352.83881
1569254352.85444
1569254352.87006
1569254352.88569
1569254352.90131
1569254352.91694
1569254352.93256
1569254352.94819
1569254352.96382
1569254352.97944
1569254352.99507
1569254353.01069
1569254353.02632
1569254353.04194
1569254353.05757
1569254353.0732
1569254353.08882
1569254353.10445
1569254353.12007
1569254353.1357
1569254353.15132
1569254353.16695
1569254353.18258
1569254353.1982
1569254353.21383
1569254353.22945
1569254353.24508
1569254353.2607
1569254353.27633
1569254353.29196
1569254353.30758
1569254353.32321
1569254353.33883
1569254353.35446
1569254353.37008
1569254353.38571
1569254353.40134
1569254353.41696
1569254353.43259
1569254353.44821
1569254353.46384
1569254353.47946
1569254353.49509
1569254353.51072
1569254353.52634
1569254353.54197
1569254353.55759
1569254353.57322
1569254353.58885
1569254353.60447
1569254353.6201
1569254353.63572
1569254353.65135
1569254353.66697
1569254353.6826
1569254353.69823
1569254353.71385
1569254353.72948
1569254353.7451
1569254353.76073
1569254353.77635
1569254353.79198
1569254353.80761
1569254353.82323
1569254353.83886
1569254353.85448
1569254353.87011
1569254353.88573
1569254353.90136
1569254353.91699
1569254353.93261
1569254353.94824
1569254353.96386
1569254353.97949
1569254353.99511
1569254354.01074
1569254354.02637
1569254354.04199
1569254354.05762
1569254354.07324
1569254354.08887
1569254354.10449
1569254354.12012
1569254354.13575
1569254354.15137
1569254354.167
1569254354.18262
1569254354.19825
1569254354.21387
1569254354.2295
1569254354.24513
1569254354.26075
1569254354.27638
1569254354.292
1569254354.30763
1569254354.32325
1569254354.33888
1569254354.35451
1569254354.37013
1569254354.38576
1569254354.40138
1569254354.41701
1569254354.43263
1569254354.44826
1569254354.46389
1569254354.47951
1569254354.49514
1569254354.51076
1569254354.52639
1569254354.54201
1569254354.55764
1569254354.57327
1569254354.58889
1569254354.60452
1569254354.62014
1569254354.63577
1569254354.65139
1569254354.66702
1569254354.68265
1569254354.69827
1569254354.7139
1569254354.72952
1569254354.74515
1569254354.76077
1569254354.7764
1569254354.79203
1569254354.80765
1569254354.82328
1569254354.8389
1569254354.85453
1569254354.87015
1569254354.88578
1569254354.90141
1569254354.91703
1569254354.93266
1569254354.94828
1569254354.96391
1569254354.97953
1569254354.99516
1569254355.01079
1569254355.02641
1569254355.04204
1569254355.05766
1569254355.07329
1569254355.08891
1569254355.10454
1569254355.12017
1569254355.13579
1569254355.15142
1569254355.16704
1569254355.18267
1569254355.19829
1569254355.21392
1569254355.22955
1569254355.24517
1569254355.2608
1569254355.27642
1569254355.29205
1569254355.30767
1569254355.3233
1569254355.33893
1569254355.35455
1569254355.37018
1569254355.3858
1569254355.40143
1569254355.41705
1569254355.43268
1569254355.44831
1569254355.46393
1569254355.47956
1569254355.49518
1569254355.51081
1569254355.52643
1569254355.54206
1569254355.55769
1569254355.57331
1569254355.58894
1569254355.60456
1569254355.62019
1569254355.63581
1569254355.65144
1569254355.66707
1569254355.68269
1569254355.69832
1569254355.71394
1569254355.72957
1569254355.74519
1569254355.76082
1569254355.77645
1569254355.79207
1569254355.8077
1569254355.82332
1569254355.83895
1569254355.85457
1569254355.8702
1569254355.88583
1569254355.90145
1569254355.91708
1569254355.9327
1569254355.94833
1569254355.96395
1569254355.97958
1569254355.99521
1569254356.01083
1569254356.02646
1569254356.04208
1569254356.05771
1569254356.07333
1569254356.08896
1569254356.10459
1569254356.12021
1569254356.13584
1569254356.15146
1569254356.16709
1569254356.18271
1569254356.19834
1569254356.21397
1569254356.22959
1569254356.24522
1569254356.26084
1569254356.27647
1569254356.2921
1569254356.30772
1569254356.32335
1569254356.33897
1569254356.3546
1569254356.37022
1569254356.38585
1569254356.40148
1569254356.4171
1569254356.43273
1569254356.44835
1569254356.46398
1569254356.4796
1569254356.49523
1569254356.51086
1569254356.52648
1569254356.54211
1569254356.55773
1569254356.57336
1569254356.58898
1569254356.60461
1569254356.62024
1569254356.63586
1569254356.65149
1569254356.66711
1569254356.68274
1569254356.69836
1569254356.71399
1569254356.72962
1569254356.74524
1569254356.76087
1569254356.77649
1569254356.79212
1569254356.80774
1569254356.82337
1569254356.839
1569254356.85462
1569254356.87025
1569254356.88587
1569254356.9015
1569254356.91712
1569254356.93275
1569254356.94838
1569254356.964
1569254356.97963
1569254356.99525
1569254357.01088
1569254357.0265
1569254357.04213
1569254357.05776
1569254357.07338
1569254357.08901
1569254357.10463
1569254357.12026
1569254357.13588
1569254357.15151
1569254357.16714
1569254357.18276
1569254357.19839
1569254357.21401
1569254357.22964
1569254357.24526
1569254357.26089
1569254357.27652
1569254357.29214
1569254357.30777
1569254357.32339
1569254357.33902
1569254357.35464
1569254357.37027
1569254357.3859
1569254357.40152
1569254357.41715
1569254357.43277
1569254357.4484
1569254357.46402
1569254357.47965
1569254357.49528
1569254357.5109
1569254357.52653
1569254357.54215
1569254357.55778
1569254357.5734
1569254357.58903
1569254357.60466
1569254357.62028
1569254357.63591
1569254357.65153
1569254357.66716
1569254357.68278
1569254357.69841
1569254357.71404
1569254357.72966
1569254357.74529
1569254357.76091
1569254357.77654
1569254357.79216
1569254357.80779
1569254357.82342
1569254357.83904
1569254357.85467
1569254357.87029
1569254357.88592
1569254357.90154
1569254357.91717
1569254357.9328
1569254357.94842
1569254357.96405
1569254357.97967
1569254357.9953
1569254358.01092
1569254358.02655
1569254358.04218
1569254358.0578
1569254358.07343
1569254358.08905
1569254358.10468
1569254358.1203
1569254358.13593
1569254358.15156
1569254358.16718
1569254358.18281
1569254358.19843
1569254358.21406
1569254358.22968
1569254358.24531
1569254358.26094
1569254358.27656
1569254358.29219
1569254358.30781
1569254358.32344
1569254358.33906
1569254358.35469
1569254358.37032
1569254358.38594
1569254358.40157
1569254358.41719
1569254358.43282
1569254358.44844
1569254358.46407
1569254358.4797
1569254358.49532
1569254358.51095
1569254358.52657
1569254358.5422
1569254358.55783
1569254358.57345
1569254358.58908
1569254358.6047
1569254358.62033
1569254358.63595
1569254358.65158
1569254358.66721
1569254358.68283
1569254358.69846
1569254358.71408
1569254358.72971
1569254358.74533
1569254358.76096
1569254358.77659
1569254358.79221
1569254358.80784
1569254358.82346
1569254358.83909
1569254358.85471
1569254358.87034
1569254358.88597
1569254358.90159
1569254358.91722
1569254358.93284
1569254358.94847
1569254358.96409
1569254358.97972
1569254358.99535
1569254359.01097
1569254359.0266
1569254359.04222
1569254359.05785
1569254359.07347
1569254359.0891
1569254359.10473
1569254359.12035
1569254359.13598
1569254359.1516
1569254359.16723
1569254359.18285
1569254359.19848
1569254359.21411
1569254359.22973
1569254359.24536
1569254359.26098
1569254359.27661
1569254359.29223
1569254359.30786
1569254359.32349
1569254359.33911
1569254359.35474
1569254359.37036
1569254359.38599
1569254359.40161
1569254359.41724
1569254359.43287
1569254359.44849
1569254359.46412
1569254359.47974
1569254359.49537
1569254359.51099
1569254359.52662
1569254359.54225
1569254359.55787
1569254359.5735
1569254359.58912
1569254359.60475
1569254359.62037
1569254359.636
1569254359.65163
1569254359.66725
1569254359.68288
1569254359.6985
1569254359.71413
1569254359.72975
1569254359.74538
1569254359.76101
1569254359.77663
1569254359.79226
1569254359.80788
1569254359.82351
1569254359.83913
1569254359.85476
1569254359.87039
1569254359.88601
1569254359.90164
1569254359.91726
1569254359.93289
1569254359.94851
1569254359.96414
1569254359.97977
1569254359.99539
1569254360.01102
1569254360.02664
1569254360.04227
1569254360.05789
1569254360.07352
1569254360.08915
1569254360.10477
1569254360.1204
1569254360.13602
1569254360.15165
1569254360.16727
1569254360.1829
1569254360.19853
1569254360.21415
1569254360.22978
1569254360.2454
1569254360.26103
1569254360.27665
1569254360.29228
1569254360.30791
1569254360.32353
1569254360.33916
1569254360.35478
1569254360.37041
1569254360.38603
1569254360.40166
1569254360.41729
1569254360.43291
1569254360.44854
1569254360.46416
1569254360.47979
1569254360.49541
1569254360.51104
1569254360.52667
1569254360.54229
1569254360.55792
1569254360.57354
1569254360.58917
1569254360.60479
1569254360.62042
1569254360.63605
1569254360.65167
1569254360.6673
1569254360.68292
1569254360.69855
1569254360.71417
1569254360.7298
1569254360.74543
1569254360.76105
1569254360.77668
1569254360.7923
1569254360.80793
1569254360.82355
1569254360.83918
1569254360.85481
1569254360.87043
1569254360.88606
1569254360.90168
1569254360.91731
1569254360.93294
1569254360.94856
1569254360.96419
1569254360.97981
1569254360.99544
1569254361.01106
1569254361.02669
1569254361.04232
1569254361.05794
1569254361.07357
1569254361.08919
1569254361.10482
1569254361.12044
1569254361.13607
1569254361.1517
1569254361.16732
1569254361.18295
1569254361.19857
1569254361.2142
1569254361.22982
1569254361.24545
1569254361.26108
1569254361.2767
1569254361.29233
1569254361.30795
1569254361.32358
1569254361.3392
1569254361.35483
1569254361.37046
1569254361.38608
1569254361.40171
1569254361.41733
1569254361.43296
1569254361.44858
1569254361.46421
1569254361.47984
1569254361.49546
1569254361.51109
1569254361.52671
1569254361.54234
1569254361.55796
1569254361.57359
1569254361.58922
1569254361.60484
1569254361.62047
1569254361.63609
1569254361.65172
1569254361.66734
1569254361.68297
1569254361.6986
1569254361.71422
1569254361.72985
1569254361.74547
1569254361.7611
1569254361.77672
1569254361.79235
1569254361.80798
1569254361.8236
1569254361.83923
1569254361.85485
1569254361.87048
1569254361.8861
1569254361.90173
1569254361.91736
1569254361.93298
1569254361.94861
1569254361.96423
1569254361.97986
1569254361.99548
1569254362.01111
1569254362.02674
1569254362.04236
1569254362.05799
1569254362.07361
1569254362.08924
1569254362.10486
1569254362.12049
1569254362.13612
1569254362.15174
1569254362.16737
1569254362.18299
1569254362.19862
1569254362.21424
1569254362.22987
1569254362.2455
1569254362.26112
1569254362.27675
1569254362.29237
1569254362.308
1569254362.32362
1569254362.33925
1569254362.35488
1569254362.3705
1569254362.38613
1569254362.40175
1569254362.41738
1569254362.433
1569254362.44863
1569254362.46426
1569254362.47988
1569254362.49551
1569254362.51113
1569254362.52676
1569254362.54238
1569254362.55801
1569254362.57364
1569254362.58926
1569254362.60489
1569254362.62051
1569254362.63614
1569254362.65176
1569254362.66739
1569254362.68302
1569254362.69864
1569254362.71427
1569254362.72989
1569254362.74552
1569254362.76114
1569254362.77677
1569254362.7924
1569254362.80802
1569254362.82365
1569254362.83927
1569254362.8549
1569254362.87052
1569254362.88615
1569254362.90178
1569254362.9174
1569254362.93303
1569254362.94865
1569254362.96428
1569254362.9799
1569254362.99553
1569254363.01116
1569254363.02678
1569254363.04241
1569254363.05803
1569254363.07366
1569254363.08928
1569254363.10491
1569254363.12054
1569254363.13616
1569254363.15179
1569254363.16741
1569254363.18304
1569254363.19866
1569254363.21429
1569254363.22992
1569254363.24554
1569254363.26117
1569254363.27679
1569254363.29242
1569254363.30804
1569254363.32367
1569254363.3393
1569254363.35492
1569254363.37055
1569254363.38617
1569254363.4018
1569254363.41743
1569254363.43305
1569254363.44868
1569254363.4643
1569254363.47993
1569254363.49555
1569254363.51118
1569254363.52681
1569254363.54243
1569254363.55806
1569254363.57368
1569254363.58931
1569254363.60493
1569254363.62056
1569254363.63619
1569254363.65181
1569254363.66744
1569254363.68306
1569254363.69869
1569254363.71431
1569254363.72994
1569254363.74557
1569254363.76119
1569254363.77682
1569254363.79244
1569254363.80807
1569254363.82369
1569254363.83932
1569254363.85495
1569254363.87057
1569254363.8862
1569254363.90182
1569254363.91745
1569254363.93307
1569254363.9487
1569254363.96433
1569254363.97995
1569254363.99558
1569254364.0112
1569254364.02683
1569254364.04245
1569254364.05808
1569254364.07371
1569254364.08933
1569254364.10496
1569254364.12058
1569254364.13621
1569254364.15183
1569254364.16746
1569254364.18309
1569254364.19871
1569254364.21434
1569254364.22996
1569254364.24559
1569254364.26121
1569254364.27684
1569254364.29247
1569254364.30809
1569254364.32372
1569254364.33934
1569254364.35497
1569254364.37059
1569254364.38622
1569254364.40185
1569254364.41747
1569254364.4331
1569254364.44872
1569254364.46435
1569254364.47997
1569254364.4956
1569254364.51123
1569254364.52685
1569254364.54248
1569254364.5581
1569254364.57373
1569254364.58935
1569254364.60498
1569254364.62061
1569254364.63623
1569254364.65186
1569254364.66748
1569254364.68311
1569254364.69873
1569254364.71436
1569254364.72999
1569254364.74561
1569254364.76124
1569254364.77686
1569254364.79249
1569254364.80811
1569254364.82374
1569254364.83937
1569254364.85499
1569254364.87062
1569254364.88624
1569254364.90187
1569254364.91749
1569254364.93312
1569254364.94875
1569254364.96437
1569254364.98
1569254364.99562
1569254365.01125
1569254365.02687
1569254365.0425
1569254365.05813
1569254365.07375
1569254365.08938
1569254365.105
1569254365.12063
1569254365.13625
1569254365.15188
1569254365.16751
1569254365.18313
1569254365.19876
1569254365.21438
1569254365.23001
1569254365.24563
1569254365.26126
1569254365.27689
1569254365.29251
1569254365.30814
1569254365.32376
1569254365.33939
1569254365.35501
1569254365.37064
1569254365.38627
1569254365.40189
1569254365.41752
1569254365.43314
1569254365.44877
1569254365.46439
1569254365.48002
1569254365.49565
1569254365.51127
1569254365.5269
1569254365.54252
1569254365.55815
1569254365.57378
1569254365.5894
1569254365.60503
1569254365.62065
1569254365.63628
1569254365.6519
1569254365.66753
1569254365.68316
1569254365.69878
1569254365.71441
1569254365.73003
1569254365.74566
1569254365.76128
1569254365.77691
1569254365.79254
1569254365.80816
1569254365.82379
1569254365.83941
1569254365.85504
1569254365.87066
1569254365.88629
1569254365.90192
1569254365.91754
1569254365.93317
1569254365.94879
1569254365.96442
1569254365.98004
1569254365.99567
1569254366.0113
1569254366.02692
1569254366.04255
1569254366.05817
1569254366.0738
1569254366.08942
1569254366.10505
1569254366.12068
1569254366.1363
1569254366.15193
1569254366.16755
1569254366.18318
1569254366.1988
1569254366.21443
1569254366.23006
1569254366.24568
1569254366.26131
1569254366.27693
1569254366.29256
1569254366.30818
1569254366.32381
1569254366.33944
1569254366.35506
1569254366.37069
1569254366.38631
1569254366.40194
1569254366.41756
1569254366.43319
1569254366.44882
1569254366.46444
1569254366.48007
1569254366.49569
1569254366.51132
1569254366.52694
1569254366.54257
1569254366.5582
1569254366.57382
1569254366.58945
1569254366.60507
1569254366.6207
1569254366.63632
1569254366.65195
1569254366.66758
1569254366.6832
1569254366.69883
1569254366.71445
1569254366.73008
1569254366.7457
1569254366.76133
1569254366.77696
1569254366.79258
