7.710922
7.967743
8.238197
8.411232
8.378586
8.111717
7.636414
7.045639
6.432289
5.844673
5.282997
4.685608
3.992844
3.163361
2.212265
1.189606
0.1668243
-0.8061523
-1.710594
-2.559662
-3.391861
-4.233292
-5.100471
-6.022133
-7.04715
-8.242691
-9.666847
-11.27769
-12.87437
-14.12749
-14.66906
-14.24646
-12.84327
-10.69609
-8.188858
-5.711414
-3.530201
-1.717453
-0.2169342
1.077477
2.268471
3.417686
4.547993
5.644115
6.670307
7.542015
8.182259
8.55225
8.67239
8.624607
8.509453
8.395088
8.299152
8.215263
8.133526
8.042656
7.929504
7.753208
7.435459
6.879852
6.048367
4.973289
3.790199
2.654064
1.667858
0.83675
0.09568024
-0.6396027
-1.429035
-2.256512
-3.107948
-3.990986
-5.003368
-6.278648
-7.916153
-9.91523
-12.0778
-14.04429
-15.38638
-15.76995
-15.06992
-13.43552
-11.21976
-8.831917
-6.606934
-4.659592
-2.921032
-1.220562
0.5847321
2.521507
4.480816
6.26675
7.707367
8.716114
9.315422
9.624924
9.777729
9.880905
9.975361
10.05776
10.10551
10.12142
10.12576
10.15383
10.20013
10.19104
10.0219
9.585827
8.849594
7.882248
6.849403
5.938812
5.284422
4.893196
4.651316
4.367607
3.858707
3.033012
1.934124
0.7006569
-0.4911079
-1.550001
-2.481781
-3.382042
-4.356073
-5.453604
-6.669401
-7.966951
-9.325773
-10.74196
-12.20639
-13.6037
-14.70983
-15.22589
-14.8812
-13.57672
-11.44689
-8.823622
-6.11224
-3.636641
-1.555895
0.1705971
1.670429
3.072655
4.414234
5.632957
6.617498
7.333788
7.828541
8.235062
8.676105
9.174049
9.640703
9.908634
9.881243
9.583628
9.181166
8.882786
8.817581
8.95595
9.140654
9.174286
8.911779
8.3235
7.479355
6.475805
5.407513
4.328468
3.279509
2.293808
1.406382
0.6282387
-0.06928253
-0.7476196
-1.501839
-2.428707
-3.601307
-5.046144
-6.750967
-8.612047
-10.4845
-12.16102
-13.45131
-14.17847
-14.22354
-13.54517
-12.17247
-10.2257
-7.907146
-5.467226
-3.1367
-1.068735
0.6960621
2.215094
3.572243
4.811958
5.87812
6.674458
7.130869
7.282745
7.273731
7.289089
7.465475
7.824659
8.271378
8.663179
8.877127
8.849556
8.57855
8.091389
7.434322
6.663069
5.822132
4.974077
4.137247
3.302443
2.454529
1.573952
0.6726913
-0.2170143
-1.086096
-1.962214
-2.891941
-3.872005
-4.842228
-5.727421
-6.505062
-7.255711
-8.130936
-9.224442
-10.46253
-11.56836
-12.17059
-11.98579
-10.96888
-9.339409
-7.436348
-5.568966
-3.865963
-2.284775
-0.7132835
0.9036026
2.518097
3.973404
5.102436
5.800251
6.062935
6.001427
5.803108
5.668198
5.762753
6.148014
6.768391
7.475727
8.069592
8.393166
8.403397
8.150265
7.730667
7.218376
6.611938
5.880444
5.01635
4.083427
3.218063
2.573391
2.226772
2.114418
2.061771
1.810036
1.149677
0.01241302
-1.4856
-3.083038
-4.453964
-5.36779
-5.815742
-6.034222
-6.433834
-7.364506
-8.915352
-10.82647
-12.54852
-13.49641
-13.29219
-11.95061
-9.826939
-7.466122
-5.324177
-3.627792
-2.339401
-1.270222
-0.2421227
0.8382683
1.943901
3.006813
3.941174
4.689045
5.205521
5.481655
5.570709
5.584999
5.679218
5.961853
6.441036
6.968773
7.334988
7.364208
7.03096
6.482925
5.911655
5.46397
5.148121
4.852791
4.463528
3.938869
3.329624
2.710598
2.089577
1.379906
0.4725914
-0.6871681
-2.017982
-3.328907
-4.420044
-5.199245
-5.720661
-6.180054
-6.810665
-7.76437
-9.065773
-10.56785
-11.99694
-13.02354
-13.36801
-12.86939
-11.54411
-9.598541
-7.327671
-5.058491
-3.033886
-1.367569
-0.05768967
0.9684601
1.814651
2.577686
3.322819
4.104366
4.930401
5.761383
6.527424
7.159325
7.622547
7.925175
8.111858
8.233868
8.34325
8.460152
8.551525
8.566982
8.419796
8.044811
7.429424
6.620056
5.723442
4.857498
4.112564
3.53323
3.106136
2.755482
2.36834
1.82618
1.031872
-0.05283356
-1.37682
-2.808922
-4.169884
-5.300507
-6.116531
-6.644958
-6.995026
-7.330109
-7.833824
-8.63826
-9.765533
-11.07803
-12.29037
-13.05057
-13.07462
-12.263
-10.77357
-8.923225
-7.055153
-5.382294
-3.959587
-2.71595
-1.550499
-0.4184036
0.6788101
1.6959
2.598183
3.348167
3.928902
4.329254
4.592392
4.790245
4.98822
5.233086
5.504684
5.746796
5.908096
5.965752
5.92482
5.809395
5.635513
5.39888
5.101662
4.751022
4.369591
3.934639
3.390312
2.683258
1.803986
0.8142166
-0.1840973
-1.116699
-1.994232
-2.888588
-3.861908
-4.889076
-5.865723
-6.709724
-7.438995
-8.185684
-9.09449
-10.16928
-11.17062
-11.70763
-11.42105
-10.17841
-8.162498
-5.808868
-3.596451
-1.854561
-0.6894531
0.01760101
0.4886246
0.9449997
1.513702
2.213654
2.982979
3.723206
4.350128
4.832832
5.206276
5.534393
5.869942
6.209869
6.506187
6.67173
6.652847
6.442932
6.116837
5.759995
5.440186
5.162567
4.85714
4.405624
3.736931
2.855911
1.855446
0.8715591
0.02357483
-0.6792297
-1.317055
-2.01252
-2.848671
-3.802986
-4.779274
-5.691925
-6.544243
-7.427116
-8.471298
-9.697311
-10.96411
-11.99093
-12.45074
-12.13955
-11.05926
-9.409554
-7.463028
-5.463829
-3.540092
-1.723
-0.01868439
1.542755
2.849838
3.792511
4.295876
4.394264
4.220741
3.985641
3.873878
3.993286
4.343132
4.824913
5.314003
5.716866
6.013557
6.246864
6.470551
6.680573
6.770576
6.616608
6.13736
5.378098
4.498192
3.69989
3.123634
2.776474
2.532097
2.211906
1.682617
0.9106216
-0.02601624
-0.9961548
-1.890694
-2.665619
-3.383446
-4.181129
-5.253166
-6.744335
-8.695988
-10.95998
-13.20865
-15.02604
-16.02439
-15.97027
-14.86861
-12.94704
-10.57592
-8.148651
-5.968819
-4.165302
-2.700817
-1.432503
-0.1983871
1.095402
2.432087
3.700871
4.743
5.451977
5.813019
5.903759
5.840393
5.753304
5.720989
5.794643
6.00584
6.359684
6.82217
7.319241
7.723633
7.913982
7.822659
7.443676
6.861916
6.166512
5.430702
4.689014
3.923809
3.117908
2.261147
1.367374
0.4364929
-0.544075
-1.599773
-2.745529
-3.969742
-5.208691
-6.389679
-7.465649
-8.443356
-9.388531
-10.36221
-11.36467
-12.29458
-12.95786
-13.14806
-12.7099
-11.60698
-9.92778
-7.86327
-5.642868
-3.478447
-1.512333
0.1856422
1.594971
2.741104
3.650185
4.352467
4.88829
5.284794
5.580276
5.818542
6.019295
6.206749
6.37566
6.516415
6.618355
6.673298
6.682701
6.657673
6.592102
6.493103
6.374363
6.253738
6.126244
5.960552
5.686325
5.1982
4.421009
3.331413
1.985279
0.509079
-0.9415169
-2.248842
-3.381908
-4.382738
-5.340395
-6.351046
-7.487061
-8.810247
-10.34591
-12.05113
-13.76807
-15.19938
-15.96876
-15.75045
-14.41984
-12.11436
-9.201538
-6.125608
-3.264696
-0.831789
1.129351
2.673126
3.883799
4.84549
5.63872
6.3291
6.967701
7.55125
8.039459
8.367741
8.51017
8.489056
8.358454
8.189938
8.013567
7.842785
7.695413
7.611099
7.609748
7.668188
7.685018
7.509811
7.038912
6.251371
5.256371
4.223798
3.290801
2.481997
1.713302
0.8690634
-0.1216774
-1.227386
-2.37893
-3.507109
-4.612648
-5.751384
-6.974692
-8.301017
-9.726797
-11.2383
-12.81286
-14.41858
-15.91922
-17.06798
-17.5497
-17.07574
-15.52196
-13.02248
-9.9316
-6.682674
-3.675196
-1.135981
0.8800468
2.409051
3.559895
4.40837
5.023932
5.459472
5.791728
6.11555
6.515548
7.051302
7.724192
8.475897
9.190792
9.738826
10.00619
9.94493
9.599673
9.094211
8.569218
8.118049
7.749955
7.380951
6.895241
6.232086
5.421968
4.561595
3.76623
3.086857
2.468231
1.793541
0.939127
-0.1702728
-1.507074
-2.991861
-4.52187
-6.028223
-7.511015
-9.025858
-10.65848
-12.42965
-14.26158
-15.91422
-17.04469
-17.31355
-16.50966
-14.64881
-11.97637
-8.891497
-5.795866
-2.992765
-0.6230698
1.293005
2.795385
3.949059
4.800619
5.405788
5.85397
6.254765
6.711414
7.310459
8.081551
8.983032
9.905029
10.69855
11.20694
11.3267
11.04848
10.43384
9.599873
8.654411
7.68853
6.755184
5.893944
5.119972
4.42305
3.756275
3.005596
2.061363
0.8565102
-0.5765572
-2.11467
-3.591621
-4.900852
-6.063828
-7.198837
-8.47142
-9.987141
-11.72014
-13.50155
-15.06953
-16.12871
-16.45296
-15.92318
-14.53119
-12.41729
-9.789486
-6.916618
-4.053719
-1.405766
0.8949585
2.789543
4.269058
5.332508
5.999298
6.317192
6.374561
6.309151
6.274086
6.38298
6.681892
7.121407
7.579208
7.906357
8.00988
7.895386
7.655548
7.427078
7.305069
7.261383
7.16584
6.837914
6.145851
5.082474
3.753365
2.324608
0.9657364
-0.2445221
-1.303474
-2.281433
-3.265793
-4.351532
-5.618202
-7.113571
-8.843674
-10.73345
-12.62226
-14.26459
-15.38256
-15.72004
-15.12363
-13.56787
-11.19553
-8.295624
-5.218102
-2.317451
0.1586151
2.09066
3.480553
4.415451
5.007088
5.34642
5.513176
5.580826
5.617477
5.679718
5.789116
5.921646
6.034561
6.087456
6.076561
6.025635
5.962479
5.885132
5.741615
5.461983
4.986877
4.315491
3.502716
2.626869
1.761345
0.939682
0.1242065
-0.7562943
-1.810188
-3.137932
-4.794121
-6.78933
-9.030357
-11.31953
-13.37548
-14.83932
-15.35161
-14.67066
-12.76927
-9.893532
-6.520088
-3.219551
-0.45681
1.551483
2.882828
3.792923
4.542145
5.273911
5.968979
6.529236
6.866791
6.984222
6.94371
6.810089
6.627594
6.394699
6.1138
5.831558
5.620361
5.539658
5.588211
5.70047
5.755203
5.615646
5.167511
4.342087
3.123215
1.560593
-0.2388611
-2.145752
-4.069061
-5.995331
-7.95314
-9.945282
-11.86334
-13.44218
-14.3288
-14.20575
-12.93024
-10.60464
-7.544403
-4.189606
-0.9294434
1.967224
4.396957
6.343872
7.844208
8.920456
9.579086
9.851242
9.805145
9.573624
9.323715
9.206406
9.290817
9.52774
9.766235
9.816101
9.530182
8.859207
7.867538
6.686935
5.445374
4.210281
2.968536
1.675262
0.280838
-1.198608
-2.728287
-4.286362
-5.922089
-7.755692
-9.886185
-12.29082
-14.73593
-16.81427
-18.02966
-17.99785
-16.60721
-14.05251
-10.78746
-7.331161
-4.098495
-1.286194
1.119431
3.258606
5.249115
7.113174
8.75238
10.0302
10.85547
11.25122
11.32607
11.22469
11.06041
10.8791
10.67685
10.44548
10.17491
9.860931
9.461685
8.896484
8.080719
6.948257
5.505493
3.84433
2.108841
0.4449463
-1.077972
-2.482697
-3.896576
-5.473969
-7.349136
-9.554153
-11.97163
-14.31627
-16.19228
-17.20364
-17.0574
-15.67821
-13.21283
-9.984894
-6.395279
-2.81459
0.4883423
3.364441
5.760895
7.697784
9.220673
10.38828
11.26971
11.93628
12.44066
12.82207
13.07463
13.16397
13.04752
12.72351
12.24246
11.71465
11.27376
10.9782
10.78574
10.54332
10.06888
9.233673
8.020004
6.528656
4.912781
3.287445
1.721786
0.2318726
-1.19252
-2.587753
-4.036697
-5.683014
-7.691971
-10.14655
-12.9359
-15.68221
-17.84384
-18.89096
-18.48804
-16.63251
-13.65125
-10.05867
-6.39212
-3.044189
-0.1941833
2.188538
4.257706
6.199493
8.124954
10.02489
11.78157
13.21234
14.1925
14.72423
14.9301
14.99258
15.07356
15.19649
15.26811
15.16374
14.8138
14.25369
13.60243
12.96654
12.38992
11.81558
11.13161
10.25189
9.168076
7.920593
6.586365
5.220657
3.830658
2.403336
0.9070435
-0.6646729
-2.30162
-3.969482
-5.669464
-7.412415
-9.254211
-11.27496
-13.52057
-15.96251
-18.4342
-20.62993
-22.14792
-22.6362
-21.87738
-19.90262
-16.97269
-13.4958
-9.918945
-6.577225
-3.65361
-1.17009
0.9688416
2.88652
4.667633
6.305389
7.75058
8.954926
9.923325
10.72765
11.45534
12.14828
12.77733
13.25923
13.52869
13.61157
13.63644
13.77191
14.1189
14.62233
15.07629
15.22849
14.88983
14.01701
12.74144
11.26305
9.803543
8.523224
7.49826
6.705383
6.022583
5.277039
4.307465
3.048843
1.553619
-0.05731201
-1.641342
-3.136353
-4.563126
-5.980896
-7.402496
-8.802719
-10.13364
-11.4274
-12.81381
-14.43214
-16.29164
-18.19525
-19.73981
-20.47093
-20.07814
-18.53462
-16.0833
-13.1062
-9.97612
-6.940704
-4.109741
-1.517181
0.8040771
2.800552
4.403427
5.589432
6.40184
6.943726
7.351395
7.738205
8.148392
8.55069
8.87204
9.058563
9.127914
9.14975
9.227264
9.433212
9.770889
10.15199
10.42673
10.41306
9.994324
9.140717
7.935486
6.55188
5.184082
3.970978
2.964493
2.134277
1.385788
0.6257477
-0.2187042
-1.175491
-2.239853
-3.405518
-4.695999
-6.155991
-7.854584
-9.84343
-12.07568
-14.38455
-16.44173
-17.82695
-18.16496
-17.28043
-15.26773
-12.487
-9.428101
-6.527206
-4.047272
-2.046097
-0.445282
0.8870697
2.033691
3.031998
3.8965
4.669128
5.430298
6.27272
7.207245
8.143051
8.901733
9.31546
9.31752
9.011063
8.617752
8.381439
8.424301
8.700455
9.022705
9.146057
8.909683
8.270386
7.311508
6.167023
4.964478
3.805527
2.777985
1.941086
1.330017
0.8937378
0.4962311
-0.01750183
-0.7843933
-1.819794
-3.039902
-4.313599
-5.554596
-6.761932
-8.031219
-9.476776
-11.17268
-13.07079
-14.99043
-16.64583
-17.71504
-17.91507
-17.08043
-15.23238
-12.58432
-9.497467
-6.39238
-3.615677
-1.348831
0.4087982
1.792465
2.964767
4.040604
5.04483
5.92865
6.617447
7.072433
7.30661
7.36702
7.333771
7.233383
7.054291
6.761063
6.355408
5.89212
5.466248
5.154465
4.962952
4.802322
4.52507
4.025177
3.287994
2.407394
1.52124
0.7361145
0.04859924
-0.6395111
-1.436905
-2.408859
-3.533005
-4.726395
-5.9263
-7.123001
-8.371216
-9.723038
-11.15768
-12.53952
-13.64346
-14.22742
-14.13742
-13.34827
-11.94209
-10.06552
-7.845917
-5.39801
-2.820007
-0.2404022
2.157913
4.158188
5.588791
6.411896
6.718246
6.718307
6.643616
6.653046
6.794327
7.02887
7.275055
7.475616
7.627258
7.724548
7.750671
7.65715
7.38855
6.934738
6.353668
5.739761
5.165314
4.622009
4.011154
3.229324
2.227493
1.066788
-0.1173248
-1.184265
-2.063751
-2.793976
-3.458954
-4.142471
-4.883545
-5.680237
-6.567871
-7.645142
-9.042282
-10.82004
-12.86365
-14.82082
-16.2104
-16.56862
-15.67987
-13.65839
-10.90021
-7.925537
-5.169144
-2.835297
-0.8873901
0.8389893
2.490005
4.065643
5.45694
6.488358
7.058044
7.184891
7.027924
6.808136
6.715218
6.852646
7.192276
7.60157
7.926353
8.048393
7.935638
7.643417
7.259903
6.856178
6.440376
5.983086
5.434731
4.799179
4.108795
3.408607
2.70768
1.934471
0.9787979
-0.2369919
-1.702896
-3.311768
-4.897903
-6.339569
-7.634521
-8.900986
-10.28422
-11.85146
-13.50432
-14.97551
-15.90913
-16.01523
-15.16548
-13.47514
-11.2153
-8.722389
-6.254433
-3.945442
-1.801323
0.2153091
2.107246
3.82383
5.25473
6.314651
6.985886
7.342491
7.515419
7.65889
7.855507
8.096313
8.299614
8.347923
8.157921
7.707848
7.074348
6.381042
5.776985
5.370445
5.198082
5.220032
5.309273
5.282799
4.962479
4.223267
3.065887
1.604813
0.02406311
-1.501953
-2.876007
-4.103394
-5.251282
-6.400703
-7.614075
-8.924484
-10.32761
-11.80172
-13.24966
-14.47417
-15.19805
-15.11042
-14.02153
-11.97494
-9.259857
-6.325279
-3.584816
-1.285248
0.5557709
2.090225
3.506508
4.908623
6.253136
7.367279
8.069931
8.270203
8.061661
7.676277
7.415756
7.486206
7.914879
8.536942
9.088623
9.345558
9.233604
8.866135
8.464226
8.176834
8.00441
7.765366
7.200874
6.149239
4.642838
2.904251
1.256088
-0.0541687
-0.9455948
-1.533043
-2.028572
-2.666519
-3.569283
-4.728897
-6.090813
-7.568748
-9.134583
-10.78385
-12.47912
-14.07356
-15.33002
-15.9432
-15.67963
-14.4558
-12.39112
-9.783813
-7.014641
-4.416946
-2.189232
-0.3560028
1.190468
2.58152
3.914391
5.183167
6.320251
7.252014
7.968803
8.556808
9.128845
9.759079
10.41267
10.93149
11.14568
10.93012
10.2989
9.403633
8.44471
7.622795
7.043549
6.719315
6.5541
6.406143
6.102242
5.527565
4.629662
3.470421
2.156082
0.8050766
-0.5194092
-1.824722
-3.154198
-4.551674
-6.003227
-7.476578
-8.964134
-10.49743
-12.09574
-13.70194
-15.12458
-16.04053
-16.12913
-15.19814
-13.30337
-10.74522
-7.958473
-5.328056
-3.068344
-1.162125
0.5602112
2.257347
3.972404
5.558388
6.797615
7.509598
7.693031
7.526329
7.267876
7.156769
7.266937
7.532387
7.796272
7.943558
7.934067
7.829819
7.711243
7.62957
7.57
7.474602
7.278633
6.929451
6.403488
5.671059
4.71492
3.556152
2.258232
0.9406586
-0.2682953
-1.270439
-2.081039
-2.799644
-3.577881
-4.56176
-5.828323
-7.389473
-9.176392
-11.08811
-12.95049
-14.52824
-15.52953
-15.68411
-14.84548
-13.07012
-10.64268
-7.95948
-5.393234
-3.164284
-1.313164
0.2597504
1.660667
2.942673
4.060135
4.924629
5.485435
5.754974
5.835892
5.859085
5.930016
6.080284
6.268433
6.452286
6.604904
6.766769
6.996788
7.320885
7.689548
7.98819
8.062153
7.819092
7.26899
6.522598
5.762794
5.129578
4.660328
4.276752
3.823189
3.13829
2.187481
1.023327
-0.2152176
-1.417542
-2.561558
-3.721672
-5.009399
-6.482986
-8.125744
-9.854187
-11.59155
-13.29189
-14.90408
-16.28726
-17.1932
-17.30032
-16.36525
-14.3801
-11.60846
-8.514332
-5.583603
-3.109024
-1.162624
0.3777847
1.70557
2.943096
4.086704
5.032021
5.672283
5.974407
6.03569
6.010338
6.085373
6.357834
6.817543
7.365349
7.862167
8.198677
8.336899
8.329315
8.234043
8.086658
7.858635
7.455368
6.78627
5.821468
4.617607
3.299637
2.01778
0.8792305
-0.08237076
-0.8975677
-1.651119
-2.416168
-3.243553
-4.144253
-5.124756
-6.179028
-7.331135
-8.612545
-10.03106
-11.53847
-12.98439
-14.13
-14.7002
-14.48855
-13.44309
-11.68867
-9.48455
-7.110001
-4.803333
-2.676617
-0.7807159
0.8587952
2.211617
3.251888
3.973396
4.445152
4.781864
5.097443
5.483597
5.970215
6.51358
7.026993
7.405426
7.559338
7.447392
7.113903
6.679195
6.293262
6.055676
5.965374
5.891869
5.687244
5.222214
4.492878
3.60006
2.67625
1.815868
1.015236
0.1867256
-0.7488518
-1.814903
-2.957115
-4.092339
-5.208307
-6.4135
-7.878134
-9.737011
-11.9145
-14.08767
-15.74982
-16.42053
-15.82416
-14.03387
-11.43128
-8.538227
-5.820646
-3.535061
-1.702986
-0.1845169
1.187664
2.529305
3.849129
5.09041
6.176382
7.052027
7.70392
8.126364
8.328012
8.317635
8.116289
7.783718
7.41419
7.112671
6.953447
6.95368
7.05748
7.185257
7.271841
7.296947
7.262335
7.125601
6.803961
6.163168
5.098783
3.620478
1.885698
0.161129
-1.278505
-2.26741
-2.844389
-3.210848
-3.652081
-4.430805
-5.697716
-7.46545
-9.647461
-12.05822
-14.43678
-16.4944
-17.8968
-18.36399
-17.74726
-16.07794
-13.5822
-10.62838
-7.612743
-4.847734
-2.497797
-0.5608349
1.072342
2.532598
3.892605
5.114056
6.114035
6.812592
7.232475
7.500523
7.793114
8.238409
8.809414
9.358564
9.679726
9.616972
9.181915
8.537916
7.914131
7.513498
7.365269
7.372747
7.349264
7.104563
6.532633
5.61857
4.444912
3.121716
1.77537
0.4829979
-0.7094898
-1.817671
-2.881372
-3.973684
-5.179916
-6.595915
-8.300943
-10.32858
-12.58568
-14.82496
-16.64781
-17.60688
-17.35133
-15.78806
-13.13397
-9.854139
-6.477589
-3.439798
-0.9550953
0.9686241
2.442528
3.614664
4.584745
5.42592
6.168615
6.837576
7.438225
7.98189
8.473181
8.900143
9.240753
9.439262
9.437752
9.211563
8.798252
8.300348
7.868525
7.624586
7.598269
7.676207
7.636648
7.227444
6.277235
4.772787
2.885351
0.8984089
-0.8892765
-2.274021
-3.202555
-3.769601
-4.169156
-4.616106
-5.295427
-6.347476
-7.872759
-9.883965
-12.28595
-14.78445
-16.92526
-18.19449
-18.1791
-16.74423
-14.1101
-10.76557
-7.312632
-4.233204
-1.755762
0.1741056
1.764088
3.232798
4.646433
5.918818
6.880572
7.408121
7.516302
7.370338
7.227215
7.301008
7.683645
8.29674
8.945279
9.393946
9.478001
9.143833
8.471412
7.623202
6.779478
6.068406
5.510537
5.012428
4.440135
3.676455
2.675148
1.501895
0.2530012
-0.9711752
-2.121063
-3.190625
-4.200567
-5.190028
-6.215321
-7.346691
-8.660468
-10.17404
-11.80707
-13.34304
-14.48081
-14.92345
-14.47173
-13.11071
-10.99329
-8.397383
-5.63848
-3.006903
-0.6933393
1.230734
2.832356
4.223472
5.516846
6.73268
7.785249
8.540214
8.898697
8.885103
8.624432
8.266682
7.928969
7.624587
7.319077
6.995959
6.718574
6.575754
6.628269
6.805037
6.932861
6.782389
6.212268
5.238145
4.013445
2.743865
1.568928
0.5157738
-0.4799066
-1.486926
-2.533058
-3.573596
-4.55456
-5.48358
-6.431561
-7.545802
-8.915008
-10.49426
-12.07915
-13.35679
-14.01972
-13.83803
-12.73538
-10.79973
-8.250122
-5.396191
-2.571059
-0.05984354
1.986868
3.549998
4.755483
5.764017
6.696396
7.572858
8.327979
8.85495
9.105379
9.126292
9.04859
8.984331
8.978177
8.971803
8.849578
8.534402
8.030291
7.443065
6.913442
6.537534
6.295094
6.055004
5.635127
4.89492
3.801962
2.442622
1.005372
-0.3413386
-1.508353
-2.525386
-3.544498
-4.767127
-6.355446
-8.351017
-10.63958
-12.94063
-14.88292
-16.09796
-16.31712
-15.45029
-13.62521
-11.13686
-8.361757
-5.67107
-3.294846
-1.30579
0.3666515
1.8654
3.285326
4.628953
5.798124
6.651532
7.090464
7.162107
7.022982
6.905406
6.974412
7.270451
7.697778
8.072266
8.225521
8.081178
7.685483
7.155354
6.606962
6.097571
5.595517
5.001291
4.225677
3.248364
2.133043
1.007988
-0.008268356
-0.859766
-1.579924
-2.293028
-3.134062
-4.202116
-5.525158
-7.053671
-8.705793
-10.39091
-12.01099
-13.42382
-14.43996
-14.84963
-14.49234
-13.34088
-11.54692
-9.374414
-7.122519
-5.006596
-3.119156
-1.417454
0.1975079
1.801456
3.389877
4.88728
6.203247
7.255299
8.039474
8.583948
8.944294
9.16177
9.260653
9.248981
9.118937
8.876318
8.533625
8.131516
7.722172
7.365711
7.071369
6.795959
6.425507
5.84955
5.011446
3.931744
2.731371
1.537777
0.4188671
-0.6557064
-1.758974
-2.977245
-4.326382
-5.750668
-7.168861
-8.538952
-9.905674
-11.34139
-12.87542
-14.4207
-15.7332
-16.48229
-16.36407
-15.22817
-13.1571
-10.44652
-7.507084
-4.722908
-2.335175
-0.4214516
1.103882
2.349541
3.405128
4.304607
5.046524
5.645336
6.169464
6.676792
7.222542
7.797958
8.312878
8.652275
8.73238
8.556213
8.199429
7.774582
7.356071
6.947186
6.467346
5.840885
5.054272
4.204472
3.43499
2.851837
2.443722
2.042542
1.420177
0.4047203
-1.009796
-2.671406
-4.333858
-5.821815
-7.109211
-8.306938
-9.591091
-11.06339
-12.65973
-14.17706
-15.3141
-15.81303
-15.51725
-14.40219
-12.57747
-10.22154
-7.580109
-4.913963
-2.451229
-0.3744316
1.254837
2.476601
3.397266
4.122078
4.704254
5.155762
5.473358
5.705856
5.931412
6.214989
6.549999
6.834446
6.919403
6.699448
6.206402
5.572098
4.970028
4.497017
4.132282
3.762997
3.252644
2.534451
1.598061
0.4707603
-0.8189888
-2.226784
-3.678818
-5.05611
-6.24736
-7.203739
-7.977646
-8.737438
-9.655384
-10.79509
-12.03484
-13.07539
-13.54433
-13.15398
-11.82344
-9.694889
-7.076096
-4.339752
-1.811653
0.3136063
1.971981
3.194798
4.056892
4.629597
4.974464
5.142513
5.218048
5.292534
5.418274
5.604183
5.792599
5.893173
5.851143
5.665352
5.400349
5.150826
4.96666
4.838264
4.691254
4.43812
4.016785
3.425537
2.687304
1.825933
0.8409252
-0.2795773
-1.540329
-2.928837
-4.421534
-5.998262
-7.621489
-9.207867
-10.59689
-11.55461
-11.82761
-11.22984
-9.735491
-7.517805
-4.911509
-2.303118
-0.03700066
1.689417
2.85717
3.581429
4.053204
4.449856
4.879635
5.376587
5.916262
6.470436
7.015747
7.542299
7.997412
8.28525
8.28746
7.941898
7.282028
6.461447
5.6915
5.131504
4.815962
4.621716
4.338707
3.767
2.83568
1.582121
0.1372166
-1.359854
-2.849377
-4.354767
-5.953548
-7.702543
-9.559809
-11.33925
-12.74691
-13.48003
-13.32898
-12.28406
-10.51597
-8.303759
-5.930048
-3.609774
-1.471718
0.4257202
2.051308
3.391188
4.442385
5.264015
5.928566
6.512363
7.046999
7.508619
7.85828
8.045609
8.044712
7.864933
7.55699
7.179675
6.810619
6.514506
6.325912
6.203909
6.053142
5.75945
5.227476
4.443992
3.459538
2.353095
1.206807
0.02674675
-1.218175
-2.602588
-4.198365
-6.047327
-8.142477
-10.37413
-12.49889
-14.15701
-14.98714
-14.74811
-13.45231
-11.36881
-8.909851
-6.474106
-4.280188
-2.340307
-0.5201216
1.347732
3.327135
5.331775
7.150741
8.570094
9.477504
9.896914
9.985713
9.931548
9.881962
9.903097
9.962054
9.987034
9.941411
9.829185
9.703707
9.600498
9.487104
9.249159
8.739421
7.853226
6.574537
5.016595
3.372259
1.845804
0.5970497
-0.3344841
-1.026768
-1.636941
-2.333646
-3.248749
-4.466347
-5.991222
-7.788475
-9.764402
-11.75282
-13.49701
-14.66247
-14.95293
-14.16796
-12.36268
-9.818373
-6.975469
-4.261428
-1.945771
-0.08257103
1.463985
2.878986
4.311131
5.783123
7.228737
8.526365
9.585562
10.34403
10.79412
10.96218
10.89481
10.68146
10.43038
10.28318
10.37282
10.75026
11.36939
12.06451
12.61296
12.79001
12.44888
11.56429
10.24422
8.695667
7.139713
5.751766
4.587299
3.573046
2.558901
1.40678
0.07091331
-1.367538
-2.743073
-3.878727
-4.677921
-5.188473
-5.567341
-6.052177
-6.844601
-8.097805
-9.816399
-11.88824
-14.05651
-15.92985
-17.1156
-17.31372
-16.43362
-14.63874
-12.27411
-9.720856
-7.277855
-5.110352
-3.24789
-1.66721
-0.3118401
0.8783875
1.9758
3.042736
4.128693
5.224041
6.260014
7.132755
7.764244
8.129478
8.276176
8.291817
8.240299
8.149269
8.012779
7.798805
7.498573
7.104073
6.633335
6.094654
5.489693
4.792706
3.96727
2.980995
1.843449
0.6342239
-0.5619278
-1.637611
-2.559162
-3.34811
-4.084557
-4.826839
-5.596279
-6.380806
-7.172085
-8.027298
-9.030876
-10.25753
-11.65916
-13.01698
-13.98924
-14.2342
-13.56445
-12.00245
-9.808212
-7.323318
-4.885796
-2.718254
-0.9120255
0.5296631
1.64122
2.456291
3.007538
3.315102
3.443939
3.475761
3.527573
3.695068
4.013817
4.447289
4.881264
5.201508
5.303711
5.178215
4.893532
4.572708
4.327202
4.211159
4.190498
4.156746
3.963242
3.476143
2.664566
1.574158
0.3344345
-0.9004059
-2.022087
-2.98584
-3.826561
-4.58902
-5.334038
-6.107162
-6.961403
-7.944183
-9.05172
-10.19196
-11.15157
-11.64725
-11.42839
-10.39556
-8.630119
-6.388893
-3.982239
-1.677994
0.35746
2.068161
3.467308
4.571426
5.399902
5.945282
6.230629
6.324425
6.326744
6.314957
6.315254
6.274269
6.103935
5.75415
5.25856
4.745773
4.348579
4.163605
4.162247
4.196144
4.052887
3.521294
2.493324
1.015892
-0.6957245
-2.334351
-3.583458
-4.281151
-4.473671
-4.412949
-4.450523
-4.880226
-5.82766
-7.208183
-8.799309
-10.32715
-11.50556
-12.11704
-12.00001
-11.09464
-9.481712
-7.365997
-5.029099
-2.750641
-0.7225876
0.9584656
2.269653
3.242043
3.906929
4.314636
4.542702
4.683105
4.809464
4.951172
5.093941
5.187996
5.204575
5.139595
5.02639
4.908638
4.824654
4.78714
4.778481
4.760788
4.643547
4.345406
3.77565
2.891586
1.724251
0.3703766
-1.037399
-2.373848
-3.592209
-4.731468
-5.893379
-7.171242
-8.59301
-10.08991
-11.51865
-12.71745
-13.54131
-13.89671
-13.72818
-13.01701
-11.77434
-10.09747
-8.139297
-6.099236
-4.150253
-2.404167
-0.8759384
0.480957
1.726151
2.903397
4.021889
5.082695
6.043312
6.865585
7.477478
7.837578
7.954231
7.93026
7.895119
7.950119
8.100044
8.232483
8.19561
7.88192
7.313652
6.606064
5.902199
5.255241
4.608788
3.841576
2.845734
1.640411
0.3713684
-0.7610703
-1.607735
-2.169579
-2.626282
-3.239395
-4.23893
-5.724487
-7.611366
-9.669914
-11.60054
-13.11822
-14.0106
-14.14906
-13.5048
-12.12743
-10.16371
-7.810387
-5.295601
-2.842941
-0.6288147
1.22921
2.696289
3.80011
4.63446
5.320488
5.970161
6.650177
7.363937
8.055573
8.636124
9.022377
9.154182
8.997559
8.563324
7.909218
7.150223
6.438362
5.928848
5.703705
5.71904
5.827385
5.810257
5.486107
4.754623
3.642685
2.279999
0.8475037
-0.4715271
-1.562981
-2.406723
-3.085281
-3.717087
-4.452431
-5.394104
-6.60685
-8.099968
-9.808914
-11.58949
-13.18823
-14.29472
-14.63005
-14.05371
-12.62286
-10.5779
-8.243439
-5.885307
-3.667404
-1.626045
0.2376099
1.913612
3.382568
4.616287
5.631607
6.460617
7.150818
7.712196
8.128044
8.383064
8.485207
8.47966
8.447197
8.450745
8.500931
8.578636
8.622463
8.579617
8.416668
8.148296
7.799625
7.379539
6.864899
6.191227
5.292957
4.167259
2.908592
1.691265
0.6517677
-0.1652641
-0.8494186
-1.595165
-2.570244
-3.885273
-5.547821
-7.502525
-9.6623
-11.93011
-14.14322
-16.04945
-17.32655
-17.66647
-16.90933
-15.15064
-12.7078
-10.01823
-7.483528
-5.302471
-3.470745
-1.85593
-0.3176079
1.202244
2.621422
3.802757
4.637806
5.128975
5.388725
5.581272
5.816177
6.119926
6.442596
6.721386
6.932598
7.100178
7.262348
7.411106
7.488857
7.409618
7.115589
6.601803
5.918842
5.134911
4.31155
3.491753
2.708515
1.975361
1.270409
0.512825
-0.4322243
-1.696781
-3.36092
-5.371124
-7.556774
-9.66254
-11.42549
-12.63695
-13.16349
-12.94627
-11.98909
-10.35458
-8.165619
-5.627441
-2.996704
-0.5567245
1.460148
2.919937
3.834328
4.321388
4.556953
4.694656
4.834091
5.007813
5.221813
5.486256
5.816494
6.228657
6.685322
7.121967
7.469685
7.682571
7.763988
7.743568
7.644699
7.4496
7.122631
6.614735
5.910339
5.022808
4.010223
2.932209
1.857033
0.8496857
-0.04681396
-0.8265419
-1.56216
-2.394352
-3.501953
-4.99963
-6.826691
-8.732273
-10.32433
-11.22391
-11.21624
-10.32524
-8.771339
-6.854965
-4.825188
-2.809891
-0.8669052
0.943531
2.535839
3.788349
4.597916
4.947052
4.929443
4.731384
4.590294
4.691238
5.117031
5.807316
6.578915
7.19672
7.484001
7.389977
7.020393
6.590157
6.289745
6.195774
6.219456
6.13694
5.726379
4.894676
3.720787
2.428646
1.239693
0.3013115
-0.4181175
-1.070393
-1.863853
-2.955463
-4.400547
-6.165054
-8.14785
-10.20258
-12.11976
-13.62777
-14.41323
-14.24205
-13.04297
-11.00823
-8.537193
-6.091114
-4.015228
-2.43285
-1.281105
-0.3719673
0.4529305
1.29464
2.175274
3.072456
3.968315
4.818031
5.587612
6.215546
6.662041
6.935017
7.077148
7.155518
7.208942
7.232327
7.182499
7.018257
6.745106
6.398853
6.023785
5.642582
5.22337
4.725544
4.121117
3.401016
2.606983
1.779449
0.9614105
0.1581612
-0.6377678
-1.437695
-2.275734
-3.177094
-4.203617
-5.431358
-6.936012
-8.715145
-10.63995
-12.42652
-13.69959
-14.09722
-13.40612
-11.67104
-9.179798
-6.386951
-3.74662
-1.560078
0.1129227
1.399597
2.508316
3.608135
4.7285
5.778458
6.607208
7.111958
7.298954
7.279053
7.206944
7.162201
7.138004
7.02388
6.714264
6.19458
5.554749
4.964874
4.59584
4.547588
4.771954
5.105366
5.30611
5.150776
4.517044
3.439625
2.104427
0.7572479
-0.3946838
-1.285072
-1.970547
-2.62796
-3.403595
-4.388214
-5.572262
-6.881798
-8.232071
-9.517815
-10.62067
-11.36646
-11.58603
-11.14529
-10.03457
-8.373055
-6.368793
-4.25404
-2.203491
-0.3099136
1.383564
2.84798
4.07523
5.054916
5.790581
6.307861
6.660797
6.889538
7.052372
7.185162
7.330009
7.512756
7.724483
7.910358
7.974304
7.819607
7.415539
6.819653
6.175373
5.621727
5.232944
4.976166
4.709881
4.286228
3.593613
2.615891
1.420097
0.1234741
-1.134613
-2.267036
-3.219307
-3.996475
-4.675972
-5.369118
-6.199257
-7.273788
-8.638298
-10.26644
-12.03696
-13.74352
-15.1207
-15.88628
-15.80452
-14.79554
-12.9397
-10.49525
-7.799072
-5.171989
-2.836395
-0.874176
0.7377472
2.072281
3.188019
4.119286
4.867996
5.449738
5.885445
6.209488
6.459015
6.620628
6.683952
6.621063
6.439453
6.186302
5.930855
5.732567
5.606133
5.5177
5.390381
5.135483
4.693718
4.036591
3.18589
2.208572
1.198257
0.2284088
-0.6781769
-1.57325
-2.560837
-3.722267
-5.058594
-6.480865
-7.86068
-9.109016
-10.23518
-11.30206
-12.31831
-13.15965
-13.55749
-13.23962
-12.07841
-10.20646
-7.981186
-5.814766
-3.991005
-2.554138
-1.379578
-0.2895813
0.7790756
1.767624
2.56366
3.127548
3.540382
3.958954
4.513992
5.234497
6.005814
6.656517
7.040642
7.103912
6.908661
6.558861
6.158272
5.757362
5.340332
4.867058
4.287605
3.586708
2.773125
1.879608
0.9628448
0.09194183
-0.6927032
-1.36499
-1.938057
-2.472214
-3.077217
-3.893532
-5.027241
-6.495285
-8.150364
-9.691219
-10.72057
-10.90379
-10.07609
-8.353626
-6.068035
-3.633083
-1.410034
0.4200401
1.874657
3.074547
4.14048
5.098034
5.881691
6.393379
6.594967
6.552059
6.42384
6.394665
6.562088
6.904419
7.301884
7.603069
7.694183
7.551949
7.210255
6.732243
6.179741
5.588123
4.992508
4.414169
3.857471
3.278488
2.610294
1.773193
0.7502022
-0.3971443
-1.568474
-2.674091
-3.691364
-4.669868
-5.714195
-6.900597
-8.273735
-9.812397
-11.39761
-12.83508
-13.86512
-14.24654
-13.81876
-12.5817
-10.69429
-8.436844
-6.10675
-3.930729
-2.031338
-0.4154854
0.9605789
2.153004
3.208366
4.157352
5.002148
5.745972
6.385067
6.912361
7.352768
7.719955
8.038162
8.312038
8.531261
8.673843
8.727268
8.690273
8.551723
8.304363
7.928825
7.404724
6.750278
6.006592
5.24683
4.555187
3.96582
3.444454
2.888775
2.165756
1.17387
-0.07460403
-1.457409
-2.799244
-3.949314
-4.909584
-5.799026
-6.837029
-8.210945
-9.97921
-11.99634
-13.96613
-15.49937
-16.25297
-16.02726
-14.81273
-12.78428
-10.24732
-7.564865
-5.053581
-2.950802
-1.344498
-0.1931152
0.6458702
1.351318
2.079136
2.892803
3.780895
4.67659
5.499092
6.216335
6.855011
7.444424
7.988117
8.437275
8.704655
8.73798
8.532482
8.161503
7.739338
7.370289
7.108322
6.933319
6.754494
6.447205
5.896664
5.060844
4.001472
2.853657
1.766796
0.8215446
-0.01387024
-0.8725662
-1.884644
-3.120197
-4.536961
-6.035805
-7.544926
-9.081585
-10.69869
-12.3963
-14.00722
-15.20239
-15.59642
-14.93494
-13.23902
-10.83147
-8.189182
-5.762138
-3.787693
-2.230667
-0.8816338
0.4898453
1.977444
3.486195
4.804054
5.74297
6.25526
6.474506
6.640518
6.969761
7.542168
8.273476
8.984913
9.509907
9.785564
9.838795
9.767513
9.644039
9.479897
9.240292
8.880047
8.387802
7.801868
7.163383
6.489788
5.767036
4.945366
3.972946
2.858528
1.64642
0.4160233
-0.7533188
-1.831238
-2.808811
-3.714485
-4.602829
-5.51548
-6.497635
-7.59724
-8.865341
-10.3299
-11.95536
-13.60439
-15.02563
-15.89779
-15.91977
-14.93306
-13.02148
-10.46934
-7.692104
-5.085609
-2.881348
-1.125137
0.2914352
1.522766
2.657818
3.7019
4.60181
5.315468
5.838581
6.215214
6.502155
6.740349
6.940086
7.11554
7.274929
7.442024
7.630867
7.814384
7.928684
7.891289
7.644241
7.168243
6.518631
5.776726
5.0294
4.330566
3.702759
3.128963
2.573986
1.986229
1.333748
0.5942192
-0.2231865
-1.106621
-2.028049
-2.973415
-3.943169
-4.939819
-5.997482
-7.145546
-8.417629
-9.847191
-11.43324
-13.1259
-14.7998
-16.22874
-17.14792
-17.32632
-16.61467
-15.00751
-12.63724
-9.756603
-6.685555
-3.765556
-1.24707
0.7399139
2.226902
3.342087
4.220463
4.91814
5.398674
5.607697
5.552769
5.346645
5.180645
5.19099
5.3811
5.619354
5.74836
5.705772
5.580769
5.540756
5.710037
6.064678
6.421059
6.526979
6.200014
5.397076
4.219582
2.841557
1.45211
0.1886005
-0.8688946
-1.71224
-2.399448
-3.052195
-3.8242
-4.864717
-6.235088
-7.889263
-9.627104
-11.16269
-12.18692
-12.44868
-11.8224
-10.33877
-8.181599
-5.632093
-3.014338
-0.6124439
1.387936
2.911865
3.996593
4.725819
5.205355
5.532198
5.789677
6.057743
6.410192
6.875233
7.445507
8.014778
8.452099
8.619057
8.459545
8.003761
7.373027
6.739243
6.229854
5.874175
5.593635
5.206951
4.516786
3.40674
1.918604
0.2470512
-1.331796
-2.598095
-3.490585
-4.122501
-4.731291
-5.546988
-6.695978
-8.16354
-9.801559
-11.42419
-12.81999
-13.84338
-14.35524
-14.2639
-13.48325
-11.97989
-9.79425
-7.096079
-4.172538
-1.385158
0.9629662
2.721639
3.936027
4.81053
5.558772
6.286207
6.964531
7.478955
7.762266
7.853544
7.891443
8.005791
8.241341
8.503699
8.653998
8.569973
8.233805
7.713185
7.116351
6.514284
5.915272
5.276587
4.559392
3.731513
2.812099
1.830929
0.8226604
-0.1984816
-1.253129
-2.370879
-3.572482
-4.84965
-6.178311
-7.540833
-8.964085
-10.50121
-12.19894
-14.03339
-15.83647
-17.30503
-18.08398
-17.8865
-16.60854
-14.37669
-11.50159
-8.38055
-5.352022
-2.619184
-0.232954
1.843227
3.677374
5.286964
6.633856
7.654976
8.33353
8.732656
8.988529
9.260529
9.648472
10.14524
10.61991
10.90501
10.86695
10.48643
9.858969
9.140421
8.474472
7.918308
7.462294
7.029003
6.53525
5.935251
5.19309
4.31834
3.32502
2.241646
1.104111
-0.03530121
-1.156498
-2.244423
-3.312862
-4.422707
-5.673351
-7.193264
-9.0895
-11.39283
-13.94458
-16.39792
-18.25986
-19.05315
-18.49043
-16.58885
-13.68075
-10.286
-6.935276
-3.996185
-1.60759
0.3125763
1.965809
3.552204
5.173416
6.803101
8.319534
9.595116
10.57565
11.30088
11.8912
12.46749
13.08627
13.7314
14.30998
14.73014
14.92912
14.89417
14.63292
14.17841
13.55322
12.78586
11.92465
11.01092
10.07677
9.116714
8.10144
7.01228
5.87252
4.761955
3.778999
2.96048
2.237946
1.421684
0.2995949
-1.252625
-3.161259
-5.160469
-6.924805
-8.257439
-9.191879
-10.01685
-11.09898
-12.69963
-14.82617
-17.1965
-19.35265
-20.81769
-21.24944
-20.52703
-18.74777
-16.17316
-13.13097
-9.939659
-6.870392
-4.096447
-1.704124
0.3064232
1.996151
3.458508
4.787205
6.042004
7.25161
8.383614
9.381542
10.17487
10.71202
10.96341
10.92263
10.58791
9.989544
9.197838
8.341656
7.564419
6.989128
6.646557
6.471245
6.325001
6.064342
5.579823
4.853516
3.915482
2.854736
1.742241
0.6461639
-0.3855133
-1.346748
-2.258392
-3.168831
-4.148521
-5.257416
-6.539848
-8.013489
-9.635597
-11.31007
-12.86106
-14.02467
-14.51176
-14.09032
-12.69336
-10.45905
-7.70182
-4.813072
-2.104301
0.2586365
2.270897
3.992081
5.45919
6.643433
7.481216
7.956947
8.141266
8.230537
8.436684
8.920952
9.679222
10.55141
11.3039
11.72786
11.72804
11.35619
10.75095
10.05084
9.358917
8.691696
8.035759
7.335449
6.551361
5.659195
4.649773
3.546661
2.369415
1.151649
-0.09031677
-1.36013
-2.672012
-4.023468
-5.372208
-6.666405
-7.864944
-9.028915
-10.26922
-11.68029
-13.21921
-14.63512
-15.52503
-15.49232
-14.34743
-12.17125
-9.310852
-6.217117
-3.280434
-0.7320709
1.364296
3.044006
4.353157
5.304344
5.907791
6.19651
6.260948
6.237762
6.256805
6.401268
6.685898
7.067467
7.476585
7.830269
8.07708
8.181343
8.143898
7.989754
7.763252
7.495934
7.175301
6.766968
6.207581
5.455849
4.516304
3.464859
2.37455
1.31472
0.2909851
-0.7510529
-1.864807
-3.081116
-4.38459
-5.76857
-7.272446
-8.986931
-10.9791
-13.18758
-15.33056
-16.95573
-17.58711
-16.91463
-14.95045
-12.04868
-8.750122
-5.601334
-2.927834
-0.7985306
0.9121933
2.359383
3.623322
4.676781
5.446075
5.958717
6.371613
6.925179
7.791832
8.995476
10.33593
11.50332
12.22569
12.39185
12.11831
11.64362
11.21752
10.95747
10.83553
10.68639
10.33659
9.680168
8.717613
7.556702
6.305618
5.055641
3.832085
2.615974
1.396606
0.1760254
-1.004318
-2.097504
-3.078293
-3.986679
-4.918434
-5.968613
-7.22274
-8.734497
-10.5023
-12.45798
-14.46563
-16.27654
-17.57048
-18.02518
-17.42405
-15.7593
-13.25243
-10.27687
-7.236656
-4.416183
-1.933388
0.2170792
2.109283
3.779083
5.206993
6.336357
7.118431
7.557709
7.733055
7.75206
7.750473
7.843079
8.097324
8.511044
9.01429
9.480015
9.75983
9.757938
9.465599
8.941772
8.281029
7.587929
6.914654
6.281593
5.678699
5.075321
4.417374
3.661873
2.784107
1.802406
0.7798004
-0.1851578
-1.008091
-1.687122
-2.328011
-3.130714
-4.291523
-5.918324
-7.953014
-10.18329
-12.30215
-13.991
-14.99517
-15.15875
-14.44446
-12.92544
-10.77902
-8.246727
-5.622559
-3.175686
-1.087482
0.6021385
1.96685
3.137733
4.218235
5.22736
6.120392
6.840744
7.376492
7.77317
8.10548
8.436382
8.784771
9.145363
9.514862
9.90015
10.31962
10.74975
11.12402
11.32499
11.26624
10.93069
10.39912
9.792038
9.205341
8.681087
8.185474
7.652439
7.018482
6.259762
5.368305
4.364326
3.261509
2.092945
0.9066467
-0.2257957
-1.245152
-2.129948
-2.920082
-3.721945
-4.649967
-5.78676
-7.136053
-8.61454
-10.1096
-11.54365
-12.90545
-14.25447
-15.63815
-17.00721
-18.16776
-18.81776
-18.65527
-17.52518
-15.50659
-12.88304
-10.05618
-7.393036
-5.114502
-3.282299
-1.841764
-0.6812687
0.2943516
1.160492
1.964737
2.722271
3.434296
4.078091
4.637953
5.106717
5.498821
5.814929
6.025294
6.060499
5.849163
5.386624
4.76918
4.197561
3.857694
3.854263
4.133881
4.506505
4.72856
4.613151
4.083909
3.187532
2.040778
0.7768517
-0.4909859
-1.680077
-2.73132
-3.635985
-4.438506
-5.262526
-6.272316
-7.577444
-9.176214
-10.87431
-12.33654
-13.16465
-13.08228
-12.01364
-10.13395
-7.815309
-5.464672
-3.413018
-1.802306
-0.5985966
0.352087
1.209507
2.061156
2.904184
3.672698
4.30389
4.76632
5.074637
5.25829
5.364188
5.432207
5.516355
5.683543
5.99058
6.45758
7.042473
7.653648
8.160643
8.451069
8.456301
8.163918
7.593397
6.772134
5.737569
4.557174
3.336733
2.203279
1.251512
0.4743121
-0.225343
-0.9931525
-1.974696
-3.23997
-4.779863
-6.515497
-8.306505
-9.97733
-11.32403
-12.13394
-12.24411
-11.59641
-10.28374
-8.505997
-6.507881
-4.474267
-2.498172
-0.6188982
1.08828
2.500292
3.466662
3.902838
3.875571
3.583918
3.293
3.215373
3.41376
3.819978
4.285967
4.663228
4.868153
4.875859
4.709842
4.414203
4.04975
3.6711
3.316892
2.975951
2.582208
2.036624
1.26989
0.3047066
-0.7692099
-1.799886
-2.686495
-3.433718
-4.149958
-5.018382
-6.209802
-7.799704
-9.746502
-11.90917
-14.0473
-15.88836
-17.14996
-17.58958
-17.06148
-15.55876
-13.26343
-10.49365
-7.640403
-5.040312
-2.892993
-1.216079
0.1259956
1.32393
2.508657
3.709403
4.834944
5.760859
6.415686
6.806032
7.05012
7.282496
7.591603
7.969335
8.331347
8.559562
8.586233
8.409016
8.098574
7.746961
7.441451
7.197465
6.968072
6.646652
6.106856
5.262447
4.108423
2.745509
1.336195
0.04701424
-1.044704
-1.96983
-2.876688
-3.935827
-5.247018
-6.814937
-8.555292
-10.35435
-12.12088
-13.76322
-15.16395
-16.13267
-16.44489
-15.91788
-14.51643
-12.40121
-9.880011
-7.314705
-4.955361
-2.888327
-1.041117
0.7057207
2.410222
4.019663
5.412886
6.492043
7.257756
7.812881
8.305892
8.815973
9.332245
9.779065
10.06305
10.17274
10.16476
10.11847
10.09303
10.0928
10.09627
10.10221
10.13198
10.20239
10.28424
10.30096
10.13486
9.710517
9.014378
8.115699
7.112926
6.081986
5.072361
4.092064
3.133734
2.187385
1.241532
0.2858124
-0.6882386
-1.665505
-2.635329
-3.591786
-4.551522
-5.576035
-6.739061
-8.092329
-9.635403
-11.33123
-13.1294
-14.97545
-16.78723
-18.40806
-19.58506
-20.00476
-19.40952
-17.72493
-15.14791
-12.07028
-8.944653
-6.116382
-3.731651
-1.736148
0.02965832
1.664032
3.180264
4.491872
5.529505
6.284423
6.84367
7.335776
7.827155
8.311749
8.70821
8.965203
9.095772
9.20209
9.396935
9.724296
10.09754
10.32888
10.22647
9.700279
8.832506
7.814473
6.845727
6.014158
5.270257
4.495066
3.557061
2.423456
1.14618
-0.1533105
-1.349941
-2.358028
-3.144066
-3.757768
-4.304267
-4.941182
-5.820161
-7.045057
-8.604222
-10.34964
-12.03333
-13.34392
-14.00529
-13.83327
-12.7925
-10.99287
-8.669147
-6.126256
-3.673495
-1.559295
0.09946871
1.322309
2.23604
2.994736
3.689887
4.321275
4.820141
5.140448
5.293513
5.383193
5.536762
5.856441
6.3318
6.880865
7.370341
7.708764
7.851754
7.810508
7.605113
7.258745
6.811169
6.331258
5.894377
5.545703
5.250322
4.909039
4.401335
3.649546
2.682031
1.605869
0.5405369
-0.450995
-1.395918
-2.382229
-3.502636
-4.797282
-6.266859
-7.847344
-9.426121
-10.84244
-11.87217
-12.28769
-11.92078
-10.76734
-9.00284
-6.941048
-4.893108
-3.042599
-1.41786
0.07609081
1.527832
2.926575
4.139279
5.000556
5.418932
5.440503
5.248153
5.076143
5.120207
5.457313
6.039106
6.713675
7.295469
7.646551
7.69921
7.501281
7.159695
6.79744
6.465133
6.139337
5.723846
5.121871
4.297348
3.292582
2.207737
1.118382
0.0793066
-0.9146414
-1.876387
-2.797695
-3.641269
-4.400935
-5.139359
-5.979856
-7.081127
-8.519301
-10.22128
-11.93074
-13.28927
-13.93786
-13.662
-12.45497
-10.48243
-8.024231
-5.388494
-2.830133
-0.5675697
1.258654
2.615252
3.558473
4.213384
4.713917
5.143899
5.519254
5.810324
5.999536
6.098387
6.126911
6.110685
6.051532
5.956928
5.846921
5.770748
5.773119
5.841061
5.890511
5.780827
5.390205
4.694757
3.798775
2.872332
2.094435
1.540964
1.182526
0.9136429
0.6076126
0.1836128
-0.3610401
-0.9884434
-1.664928
-2.380913
-3.180529
-4.120527
-5.256948
-6.613455
-8.165918
-9.85564
-11.55342
-13.05445
-14.07744
-14.32852
-13.60599
-11.88485
-9.387932
-6.513618
-3.736376
-1.435667
0.2114677
1.267025
1.966398
2.594748
3.353586
4.277779
5.256014
6.099558
6.683012
6.991467
7.119619
7.181894
7.241816
7.297712
7.316263
7.306532
7.327826
7.454103
7.681152
7.902128
7.915653
7.555775
6.772367
5.651691
4.395538
3.158743
2.036566
1.017729
0.05044937
-0.8870907
-1.77323
-2.570169
-3.27088
-3.928137
-4.63199
-5.473883
-6.508718
-7.753555
-9.18
-10.73031
-12.27007
-13.59845
-14.46282
-14.64693
-14.07487
-12.82462
-11.10221
-9.132544
-7.066446
-4.975973
-2.893948
-0.8854637
0.9094982
2.341259
3.33082
3.925089
4.295938
4.626122
5.043571
5.578114
6.19471
6.850832
7.528482
8.199215
8.800888
9.224489
9.34367
9.091873
8.51437
7.763346
7.031206
6.472277
6.1154
5.876547
5.604086
5.170742
4.519234
3.686464
2.751358
1.796656
0.8842926
0.02733994
-0.7791309
-1.582727
-2.437286
-3.44326
-4.681759
-6.221462
-8.039682
-10.01727
-11.91856
-13.44876
-14.32966
-14.35568
-13.49037
-11.86065
-9.714203
-7.357082
-5.078403
-3.090206
-1.476843
-0.2331371
0.7235222
1.491611
2.130907
2.652271
3.060911
3.382809
3.68079
4.039537
4.508429
5.059792
5.584763
5.937782
6.019129
5.820572
5.438957
5.012455
4.64485
4.35194
4.101158
3.840956
3.551779
3.245693
2.925457
2.573395
2.131443
1.524719
0.7148857
-0.2993927
-1.467585
-2.705872
-3.92128
-5.054039
-6.089041
-7.06164
-8.016518
-8.98328
-9.896753
-10.56106
-10.71341
-10.12905
-8.74523
-6.72867
-4.415731
-2.158768
-0.1968594
1.422892
2.761353
3.907915
4.866039
5.560162
5.914278
5.943991
5.79792
5.685837
5.782238
6.124691
6.606699
7.04389
7.287294
7.292709
7.124191
6.898247
6.721661
6.615292
6.509226
6.264582
5.74151
4.871082
3.680901
2.30385
0.9158401
-0.3317509
-1.351583
-2.16139
-2.859451
-3.580193
-4.459574
-5.596027
-7.029837
-8.727627
-10.53782
-12.17501
-13.28834
-13.54223
-12.7587
-11.00629
-8.595364
-5.950907
-3.48822
-1.452034
0.09318733
1.213005
2.02367
2.597231
2.98362
3.227448
3.405033
3.615923
3.922195
4.323616
4.761763
5.160038
5.473049
5.698524
5.863102
5.98657
6.081892
6.148359
6.207531
6.298462
6.444857
6.607845
6.66666
6.460722
5.856945
4.831152
3.48074
1.978603
0.473299
-0.953392
-2.31773
-3.651886
-4.96685
-6.238691
-7.440517
-8.588911
-9.753138
-10.95968
-12.13546
-13.07253
-13.46545
-13.05911
-11.7706
-9.745193
-7.301365
-4.811291
-2.573109
-0.7360878
0.6853905
1.788883
2.697611
3.518215
4.282913
4.975582
5.541189
5.94994
6.209534
6.37595
6.525702
6.70043
6.911499
7.13131
7.340298
7.532413
7.705681
7.848713
7.907398
7.81213
7.518089
7.036083
6.434349
5.794327
5.190701
4.634979
4.126282
3.637123
3.128674
2.550426
1.831528
0.9178696
-0.2028923
-1.4729
-2.798767
-4.064766
-5.220371
-6.288715
-7.378784
-8.622833
-10.11038
-11.82373
-13.59389
-15.13255
-16.08955
-16.20232
-15.37437
-13.71178
-11.50709
-9.092403
-6.73526
-4.549953
-2.538418
-0.641674
1.167839
2.861435
4.396084
5.723076
6.825459
7.68684
8.294132
8.626865
8.700245
8.562908
8.304966
8.024738
7.797459
7.655437
7.600056
7.596718
7.597858
7.53677
7.34198
6.972427
6.437141
5.817314
5.215366
4.698055
4.258816
3.803551
3.196579
2.331593
1.177311
-0.1914825
-1.635201
-2.99184
-4.128845
-5.004078
-5.656338
-6.217079
-6.861954
-7.770515
-9.045223
-10.67875
-12.51767
-14.26132
-15.5378
-16.02209
-15.52752
-14.07632
-11.89873
-9.337914
-6.731548
-4.306667
-2.139297
-0.2070274
1.532684
3.086277
4.426888
5.513802
6.369434
7.058403
7.64669
8.155869
8.534672
8.710934
8.661865
8.462963
8.280319
8.26276
8.474155
8.812328
9.07132
9.024071
8.560116
7.721687
6.666168
5.586338
4.620281
3.813843
3.128437
2.500298
1.867279
1.190342
0.4690971
-0.3093224
-1.145939
-2.055149
-3.051495
-4.126484
-5.244419
-6.372265
-7.490959
-8.616398
-9.816486
-11.12595
-12.52487
-13.86453
-14.91006
-15.38285
-15.06957
-13.90525
-11.99973
-9.611069
-7.049789
-4.610847
-2.464401
-0.6609077
0.8436012
2.113594
3.168159
3.987251
4.515408
4.748272
4.767963
4.718536
4.770863
5.010258
5.421078
5.889816
6.275249
6.474445
6.484959
6.38081
6.28199
6.244343
6.226749
6.097641
5.693836
4.923904
3.821415
2.546093
1.331966
0.3724823
-0.2544136
-0.6283875
-0.9296303
-1.369305
-2.09528
-3.169399
-4.576397
-6.252136
-8.109997
-10.00091
-11.68978
-12.88634
-13.28931
-12.70284
-11.1194
-8.744778
-5.924103
-3.051384
-0.4342155
1.726898
3.350479
4.436592
5.059669
5.33041
5.416149
5.46479
5.595661
5.827114
6.103535
6.340145
6.480862
6.513954
6.461639
6.348469
6.193947
6.011333
5.829151
5.672668
5.53389
5.347363
4.989414
4.326803
3.319725
2.039997
0.6614437
-0.626133
-1.705574
-2.598537
-3.425875
-4.361225
-5.545036
-7.032064
-8.790892
-10.69331
-12.55892
-14.15315
-15.23057
-15.58109
-15.09172
-13.7745
-11.78731
-9.403574
-6.904442
-4.53553
-2.435381
-0.6371841
0.8984795
2.239965
3.441111
4.536219
5.532549
6.425909
7.196274
7.803381
8.211897
8.409012
8.424311
8.324583
8.197786
8.108543
8.093678
8.130583
8.15852
8.120157
7.979088
7.68965
7.220371
6.535271
5.603863
4.447775
3.11939
1.712181
0.2927303
-1.109085
-2.492619
-3.875687
-5.24964
-6.589149
-7.873713
-9.136662
-10.47297
-11.97715
-13.67515
-15.43665
-16.95114
-17.83321
-17.76523
-16.63743
-14.60866
-12.02775
-9.286418
-6.68184
-4.312686
-2.134422
-0.06520271
1.892547
3.657743
5.082352
6.0937
6.739663
7.173026
7.579261
8.063463
8.610024
9.099712
9.380795
9.404491
9.225582
8.996017
8.872482
8.924002
9.081629
9.176762
9.018965
8.492689
7.598315
6.439633
5.147809
3.829829
2.550416
1.317175
0.1320851
-0.9964159
-2.067509
-3.125149
-4.25144
-5.564388
-7.156559
-9.061876
-11.19612
-13.37852
-15.32893
-16.75517
-17.41557
-17.1736
-16.04849
-14.18222
-11.81098
-9.179807
-6.498517
-3.90444
-1.480654
0.7463231
2.787991
4.642425
6.309747
7.780613
9.03373
10.07076
10.93254
11.67351
12.35793
13.00225
13.56289
13.96149
14.12489
14.03527
13.73282
13.30101
12.80973
12.27834
11.67429
10.92865
9.977733
8.814423
7.465697
6.004363
4.506127
3.012746
1.550827
0.1641665
-1.099803
-2.163858
-2.981462
-3.584644
-4.116736
-4.792839
-5.82962
-7.340813
-9.287765
-11.50157
-13.71411
-15.64521
-17.01335
-17.59949
-17.26505
-15.99609
-13.95012
-11.40416
-8.711399
-6.158207
-3.896696
-1.919991
-0.118084
1.637138
3.381992
5.05365
6.522232
7.654503
8.401762
8.801016
8.976091
9.067579
9.175085
9.328821
9.488899
9.599377
9.599279
9.488438
9.29155
9.048462
8.762247
8.406048
7.927036
7.262012
6.394585
5.341133
4.146219
2.887096
1.633881
0.4209843
-0.7598934
-1.947121
-3.196699
-4.543882
-5.987392
-7.514669
-9.112051
-10.77289
-12.45138
-14.01123
-15.22115
-15.77928
-15.41876
-14.01452
-11.64563
-8.61138
-5.329193
-2.211308
0.4118633
2.380966
3.689537
4.468712
4.909927
5.232443
5.590469
6.059666
6.632902
7.253065
7.857794
8.38695
8.79686
9.025497
9.015169
8.727171
8.202114
7.5567
6.966795
6.588621
6.46615
6.492882
6.426306
5.995596
5.017637
3.497572
1.627907
-0.2898865
-1.96151
-3.220448
-4.049034
-4.537922
-4.845497
-5.136299
-5.56909
-6.281282
-7.371717
-8.816015
-10.41813
-11.80732
-12.55202
-12.31582
-11.00929
-8.826147
-6.172264
-3.464775
-1.004446
1.112919
2.931831
4.539309
5.975431
7.202036
8.142776
8.745291
9.02194
9.045589
8.91132
8.698441
8.449978
8.187202
7.956326
7.816706
7.836416
8.036846
8.349375
8.628059
8.683123
8.371359
7.644077
6.562946
5.267376
3.909277
2.602482
1.399464
0.2941608
-0.7554016
-1.800297
-2.890369
-4.06661
-5.368448
-6.80582
-8.370897
-10.01437
-11.67684
-13.27311
-14.70155
-15.83111
-16.48399
-16.47163
-15.63022
-13.90514
-11.41598
-8.448856
-5.391598
-2.600674
-0.2846851
1.556992
3.060881
4.390615
5.62196
6.732252
7.620695
8.219296
8.54188
8.653458
8.611504
8.42894
8.087208
7.602005
7.070076
6.650501
6.494177
6.636747
6.978291
7.315351
7.439701
7.245022
6.740623
6.007828
5.126634
4.128048
2.99483
1.722137
0.3616352
-0.979044
-2.163387
-3.133588
-3.926306
-4.691463
-5.646
-6.985793
-8.781754
-10.91478
-13.07445
-14.85243
-15.85532
-15.868
-14.8889
-13.12574
-10.88228
-8.445304
-5.996643
-3.634278
-1.392387
0.6698599
2.465704
3.908511
4.957299
5.662141
6.132257
6.493539
6.827979
7.159318
7.448272
7.64076
7.705767
7.652883
7.537067
7.428575
7.395787
7.47261
7.63521
7.817335
7.921133
7.849465
7.526293
6.907112
6.011974
4.900868
3.671391
2.431369
1.25357
0.1642179
-0.836834
-1.774438
-2.661931
-3.515217
-4.362899
-5.292906
-6.434626
-7.906192
-9.741598
-11.80877
-13.80436
-15.31868
-15.97766
-15.56867
-14.12741
-11.89673
-9.232552
-6.491374
-3.945575
-1.747366
0.05858278
1.505039
2.655021
3.604146
4.446885
5.258304
6.083498
6.919485
7.698999
8.346609
8.787472
8.98563
8.953621
8.750756
8.444574
8.114054
7.837149
7.649019
7.557918
7.512853
7.413218
7.159118
6.684304
5.978797
5.062621
3.991438
2.786811
1.458845
0.03875387
-1.390237
-2.702492
-3.785146
-4.608102
-5.272813
-5.986032
-6.984054
-8.40867
-10.24872
-12.30013
-14.24282
-15.71655
-16.43371
-16.24448
-15.16857
-13.36875
-11.07975
-8.555514
-5.998039
-3.550288
-1.316202
0.626858
2.206935
3.384
4.191063
4.743691
5.202549
5.699255
6.278345
6.89286
7.425165
7.765458
7.867968
7.743086
7.474013
7.132672
6.771622
6.413077
6.067286
5.754517
5.485885
5.251175
4.976744
4.540691
3.812936
2.719888
1.30498
-0.2924232
-1.865494
-3.236441
-4.342226
-5.267219
-6.192157
-7.315316
-8.745344
-10.43409
-12.18961
-13.71145
-14.71149
-14.97313
-14.42705
-13.1325
-11.25762
-9.009817
-6.582897
-4.14959
-1.819388
0.3028145
2.136949
3.616596
4.69922
5.405127
5.797398
5.975798
6.032886
6.033077
5.996597
5.946808
5.923138
5.966318
6.101297
6.297313
6.483657
6.567018
6.523368
6.386445
6.218554
6.04271
5.807477
5.391756
4.673832
3.620675
2.320471
0.9484435
-0.3263775
-1.429232
-2.42045
-3.438234
-4.625636
-6.045626
-7.657046
-9.330638
-10.90323
-12.17404
-12.9571
-13.08592
-12.47014
-11.1063
-9.12331
-6.746037
-4.232516
-1.808036
0.3885123
2.292057
3.890908
5.150454
6.040063
6.553159
6.758233
6.79075
6.80257
6.878492
7.003018
7.095181
7.084992
6.95904
6.775979
6.597857
6.431618
6.215695
5.870573
5.351216
4.720566
4.108577
3.604423
3.205325
2.794741
2.238909
1.46978
0.5469766
-0.404286
-1.281415
-2.067146
-2.847645
-3.742364
-4.848836
-6.186803
-7.71542
-9.351117
-10.98337
-12.44155
-13.51055
-13.94518
-13.57062
-12.3318
-10.36491
-7.935297
-5.334295
-2.816356
-0.5137851
1.527726
3.294423
4.773718
5.939293
6.783129
7.30866
7.562939
7.618097
7.568666
7.525134
7.569647
7.749091
8.024233
8.301468
8.449987
8.383739
8.092594
7.643672
7.136631
6.645487
6.183479
5.702735
5.141921
4.447963
3.631855
2.705411
1.714825
0.7036617
-0.2854307
-1.223552
-2.108262
-3.008636
-4.037551
-5.311131
-6.904468
-8.791041
-10.81375
-12.71654
-14.18802
-14.94316
-14.8072
-13.74762
-11.88877
-9.493673
-6.877568
-4.317477
-1.995199
0.04359099
1.834492
3.4575
4.954394
6.28961
7.365136
8.091106
8.436356
8.462826
8.329746
8.215487
8.249271
8.447701
8.701151
8.847867
8.771947
8.443132
7.941884
7.375303
6.854551
6.41702
6.060729
5.754627
5.463903
5.159864
4.789504
4.270858
3.534019
2.546584
1.346049
0.04776764
-1.220542
-2.371938
-3.406123
-4.398538
-5.430924
-6.580785
-7.874541
-9.348268
-10.99521
-12.75999
-14.47833
-15.85401
-16.53018
-16.19862
-14.76902
-12.39338
-9.445882
-6.357336
-3.472756
-0.9773798
1.112112
2.833002
4.227974
5.278451
5.994742
6.431316
6.725962
7.033446
7.448586
7.931252
8.345251
8.550313
8.485342
8.232032
7.943792
7.777379
7.793419
7.935657
8.060044
8.023611
7.733422
7.180191
6.411138
5.515959
4.592292
3.736208
3.03091
2.486053
2.029875
1.509201
0.7491093
-0.3605137
-1.811068
-3.456804
-5.090855
-6.512648
-7.623404
-8.436512
-9.072531
-9.694901
-10.44153
-11.37563
-12.43531
-13.45209
-14.17004
-14.3296
-13.75342
-12.41922
-10.47645
-8.195089
-5.882355
-3.77677
-2.001469
-0.5575256
0.6177349
1.615734
2.498419
3.289154
3.980005
4.540899
4.950516
5.20653
5.345387
5.408804
5.429089
5.401003
5.284477
5.034969
4.643116
4.163801
3.704018
3.409531
3.368885
3.553957
3.819271
3.919649
3.630487
2.851767
1.659315
0.2921429
-0.9631252
-1.912344
-2.536924
-2.980295
-3.453819
-4.116343
-4.999828
-6.031811
-7.120598
-8.218962
-9.305429
-10.33377
-11.15527
-11.55906
-11.33147
-10.35916
-8.700651
-6.571934
-4.249994
-2.001575
-0.0098629
1.621006
2.846771
3.649952
4.039948
4.083939
3.8972
3.64559
3.471254
3.48171
3.673637
3.965929
4.220409
4.312616
4.204006
3.931709
3.61948
3.384064
3.267956
3.223988
3.140253
2.911812
2.504786
1.940952
1.274293
0.5245619
-0.3385296
-1.370618
-2.599554
-3.986825
-5.430856
-6.841468
-8.173429
-9.421475
-10.56163
-11.47158
-11.9401
-11.7247
-10.68323
-8.874537
-6.563392
-4.118107
-1.891574
-0.06500435
1.352235
2.469749
3.406877
4.19239
4.76687
5.04898
5.028746
4.801179
4.54668
4.432957
4.532999
4.784675
5.051639
5.214478
5.244672
5.221718
5.266639
5.451772
5.744374
5.995017
6.019535
5.700166
5.00968
4.021555
2.850645
1.58985
0.3035533
-0.994067
-2.304446
-3.639415
-5.033031
-6.517798
-8.095037
-9.690727
-11.1308
-12.17833
-12.60225
-12.26712
-11.18434
-9.509799
-7.470078
-5.274199
-3.078626
-0.986274
0.9511294
2.701044
4.229539
5.49453
6.443182
7.03884
7.267604
7.17794
6.890093
6.560371
6.318198
6.220536
6.234266
6.260483
6.214849
6.090747
5.94466
5.854473
5.829745
5.79256
5.578255
5.025207
4.060825
2.746546
1.250546
-0.211442
-1.486923
-2.550811
-3.498541
-4.493583
-5.700421
-7.217782
-9.016082
-10.94263
-12.73153
-14.08828
-14.75864
-14.58315
-13.55088
-11.77065
-9.44326
-6.805096
-4.099697
-1.557579
0.6506882
2.42515
3.77059
4.793514
5.658106
6.489212
7.340919
8.162216
8.857958
9.352243
9.63632
9.754963
9.759657
9.690155
9.541853
9.298777
8.935314
8.466833
7.934189
7.402987
6.939632
6.549402
6.199196
5.778427
5.176916
4.314407
3.196936
1.90132
0.5314541
-0.824482
-2.139894
-3.440096
-4.770525
-6.159143
-7.639816
-9.254375
-11.04234
-12.96711
-14.85986
-16.38735
-17.14963
-16.84157
-15.3897
-13.0149
-10.11026
-7.085136
-4.216633
-1.609465
0.7392788
2.854065
4.720867
6.294447
7.543821
8.510935
9.271524
9.907352
10.45422
10.90649
11.2354
11.42051
11.45628
11.37351
11.22037
11.04873
10.91155
10.85176
10.86656
10.90232
10.82828
10.51072
9.866249
8.919817
7.793936
6.684458
5.780701
5.173908
4.830704
4.60298
4.296957
3.75354
2.899265
1.765825
0.4629421
-0.8791866
-2.159767
-3.33568
-4.42284
-5.471487
-6.568739
-7.817978
-9.312235
-11.09175
-13.08003
-15.04021
-16.61077
-17.40702
-17.18449
-15.9428
-13.93605
-11.5453
-9.131575
-6.876894
-4.787741
-2.768475
-0.7658463
1.145432
2.821472
4.104759
4.980057
5.549484
6.014061
6.55232
7.229506
7.983566
8.661821
9.093781
9.17857
8.913174
8.408588
7.857496
7.439922
7.26836
7.304621
7.379742
7.28532
6.876373
6.168074
5.307844
4.477184
3.77103
3.136272
2.425478
1.51009
0.3737564
-0.8557529
-2.00592
-2.966709
-3.747673
-4.450243
-5.179201
-5.971077
-6.809811
-7.681339
-8.628502
-9.756067
-11.13351
-12.68762
-14.18019
-15.2529
-15.57362
-14.96441
-13.47695
-11.33644
-8.854086
-6.299751
-3.8552
-1.623507
0.3388767
1.984312
3.256655
4.155975
4.747286
5.179951
5.649046
6.310112
7.192566
8.193487
9.103888
9.720911
9.943048
9.820137
9.537186
9.288273
9.192286
9.200314
9.158962
8.849909
8.152897
7.108405
5.900241
4.78048
3.929795
3.375152
2.999493
2.608415
2.030298
1.192487
0.1442099
-1.005575
-2.124993
-3.126943
-3.996001
-4.754314
-5.443727
-6.110647
-6.790667
-7.550318
-8.480945
-9.635406
-10.96566
-12.28163
-13.26226
-13.55391
-12.92154
-11.34287
-9.031444
-6.372477
-3.749194
-1.421879
0.5402098
2.217003
3.718304
5.108122
6.356858
7.375359
8.078103
8.442628
8.504476
8.360811
8.126387
7.922411
7.85011
7.973853
8.300526
8.765772
9.245551
9.549665
9.518043
9.076386
8.250391
7.173848
6.017165
4.910553
3.896713
2.950693
2.009548
1.037582
0.04915237
-0.9061415
-1.792341
-2.585473
-3.311315
-4.015478
-4.756532
-5.600029
-6.628468
-7.895044
-9.414865
-11.10689
-12.75832
-14.0751
-14.762
-14.65132
-13.74818
-12.23691
-10.36157
-8.345839
-6.327254
-4.35145
-2.42659
-0.5858302
1.107691
2.548021
3.652226
4.380463
4.764604
4.910967
4.953876
5.023623
5.201549
5.516407
5.917597
6.319732
6.613903
6.732197
6.658096
6.431214
6.103984
5.741031
5.381291
5.031781
4.662301
4.23513
3.701427
3.036767
2.22095
1.251504
0.1349483
-1.112828
-2.439203
-3.767215
-4.998241
-6.066595
-6.989079
-7.898058
-8.97777
-10.3621
-12.02146
-13.70798
-15.03685
-15.63198
-15.30978
-14.13321
-12.33686
-10.19827
-7.914623
-5.580717
-3.261999
-1.070365
0.8121939
2.223903
3.113422
3.584854
3.856792
4.149316
4.587787
5.169086
5.784617
6.310282
6.665344
6.831759
6.854751
6.794811
6.705156
6.613414
6.518353
6.41472
6.297067
6.168709
6.031413
5.851295
5.565407
5.084358
4.34471
3.331766
2.102685
0.7560229
-0.6357231
-2.024812
-3.401125
-4.726404
-5.945099
-6.993049
-7.856884
-8.619402
-9.458277
-10.58947
-12.16744
-14.17875
-16.39875
-18.42451
-19.78248
-20.06802
-19.06721
-16.80079
-13.50918
-9.55052
-5.34909
-1.287685
2.322705
5.286284
7.542654
9.136079
10.18641
10.83779
11.21855
11.4279
11.53701
11.61622
11.72273
11.86963
12.02628
12.1254
12.08737
11.8841
11.53783
11.10632
10.64603
10.16967
9.635479
8.988568
8.203285
7.302015
6.337745
5.34391
4.302493
3.170654
1.899551
0.499198
-0.9625306
-2.355888
-3.594
-4.644656
-5.555879
-6.428814
-7.351258
-8.392561
-9.57295
-10.90166
-12.32719
-13.73551
-14.89165
-15.50929
-15.33045
-14.24102
-12.33347
-9.868433
-7.206385
-4.646037
-2.370749
-0.4334841
1.206695
2.619596
3.833638
4.839025
5.596409
6.071524
6.304129
6.389657
6.487369
6.725044
7.122131
7.578592
7.924137
8.027554
7.859291
7.528889
7.182421
6.890442
6.61792
6.240477
5.646428
4.812045
3.831092
2.823004
1.893922
1.062177
0.2685242
-0.5464735
-1.442189
-2.424563
-3.489454
-4.637534
-5.879025
-7.222895
-8.657781
-10.12919
-11.5252
-12.65398
-13.28266
-13.16207
-12.17109
-10.33616
-7.878589
-5.151374
-2.492497
-0.10818
1.943856
3.707437
5.228861
6.461727
7.297849
7.663884
7.59657
7.278831
6.967087
6.84011
6.951719
7.24304
7.607868
8.016121
8.49764
9.093861
9.780559
10.42065
10.82451
10.8366
10.41268
9.641232
8.672565
7.637321
6.579339
5.482066
4.276011
2.944942
1.538043
0.1685829
-1.050627
-2.031649
-2.772422
-3.364336
-3.944762
-4.690209
-5.735472
-7.135819
-8.849576
-10.73265
-12.55639
-14.04396
-14.93511
-15.0355
-14.26656
-12.70992
-10.5914
-8.210224
-5.868825
-3.787146
-2.063667
-0.6671219
0.4972844
1.527896
2.462395
3.260969
3.883162
4.30165
4.547869
4.716585
4.909304
5.199931
5.587644
6.036526
6.478021
6.853975
7.136649
7.334808
7.484108
7.594011
7.654127
7.592974
7.316157
6.736858
5.84908
4.732939
3.533963
2.396405
1.380274
0.4635415
-0.4508848
-1.434177
-2.528891
-3.733487
-5.037615
-6.470787
-8.089661
-9.934019
-11.92902
-13.89161
-15.5075
-16.44905
-16.48001
-15.52684
-13.73514
-11.38095
-8.817346
-6.320868
-4.061527
-2.067171
-0.2917695
1.321671
2.791907
4.063669
5.080508
5.809426
6.294655
6.636595
6.981585
7.446622
8.07651
8.837158
9.59952
10.23564
10.65449
10.85717
10.90518
10.86626
10.73304
10.42548
9.85071
8.958298
7.827915
6.639407
5.609035
4.866885
4.389278
4.015036
3.505009
2.67649
1.460492
-0.06379396
-1.719646
-3.323742
-4.738241
-5.927674
-6.943519
-7.888582
-8.851916
-9.914859
-11.12579
-12.51632
-14.06689
-15.64526
-16.98363
-17.71704
-17.51586
-16.22816
-13.97748
-11.11273
-8.064591
-5.180984
-2.606614
-0.3282505
1.714193
3.524827
5.020383
6.08807
6.69022
6.919498
6.962568
7.021652
7.218984
7.573298
7.999837
8.385688
8.620979
8.647885
8.455774
8.082187
7.59285
7.067579
6.559101
6.091681
5.651678
5.190419
4.662879
4.028687
3.295972
2.495729
1.665624
0.8302455
-0.01617599
-0.8937798
-1.820393
-2.802215
-3.831724
-4.918494
-6.100565
-7.438143
-8.988754
-10.75599
-12.64643
-14.47116
-15.97308
-16.87985
-16.97773
-16.15999
-14.43201
-11.93591
-8.927373
-5.736343
-2.675484
0.01316369
2.217548
3.957599
5.31896
6.411465
7.310073
8.043178
8.608352
9.006737
9.26046
9.411426
9.527804
9.65831
9.820402
9.974445
10.04162
9.922645
9.557458
8.959769
8.219989
7.484261
6.858735
6.378291
5.997524
5.611428
5.123093
4.464211
3.622232
2.61921
1.486877
0.2569482
-1.021337
-2.296328
-3.533146
-4.69981
-5.804085
-6.865708
-7.939569
-9.0751
-10.33909
-11.77127
-13.3453
-14.94218
-16.311
-17.13223
-17.11651
-16.11346
-14.17016
-11.55916
-8.662698
-5.871257
-3.457854
-1.507645
0.01320744
1.224541
2.236751
3.116266
3.875614
4.526988
5.087806
5.610565
6.144068
6.710411
7.285648
7.79462
8.167984
8.360353
8.406594
8.383646
8.368875
8.380173
8.352484
8.156952
7.661682
6.818031
5.668917
4.360787
3.052261
1.840766
0.7337344
-0.353143
-1.492
-2.693811
-3.872879
-4.924923
-5.798245
-6.595275
-7.527212
-8.833002
-10.59808
-12.67307
-14.66881
-16.09535
-16.57768
-15.99802
-14.53472
-12.52341
-10.29747
-8.069796
-5.865589
-3.640201
-1.375758
0.8538942
2.895416
4.587714
5.859379
6.768859
7.453606
8.067295
8.667583
9.200539
9.552752
9.642735
9.501568
9.2506
9.067571
9.050805
9.178184
9.326061
9.32622
9.052595
8.46628
7.586672
6.479492
5.208044
3.85048
2.493117
1.232968
0.1541367
-0.7205029
-1.446428
-2.118959
-2.840755
-3.667601
-4.616533
-5.707475
-6.979772
-8.470482
-10.14816
-11.87621
-13.38361
-14.3528
-14.51075
-13.73414
-12.10089
-9.844711
-7.286068
-4.709732
-2.317019
-0.2114754
1.572201
3.028543
4.170033
5.022249
5.628647
6.062765
6.391733
6.672052
6.941912
7.222221
7.524036
7.832766
8.101568
8.27774
8.310452
8.17783
7.89205
7.478508
6.956175
6.308577
5.500748
4.517029
3.413006
2.293869
1.287355
0.4925747
-0.0867157
-0.5167236
-0.9240379
-1.457544
-2.227375
-3.292112
-4.660301
-6.300406
-8.135593
-10.05144
-11.88477
-13.39934
-14.33444
-14.46329
-13.67424
-12.05959
-9.888988
-7.485247
-5.106941
-2.857079
-0.7232876
1.312233
3.179987
4.706593
5.718195
6.194853
6.310917
6.373714
6.671289
7.318153
8.222206
9.174381
9.958925
10.479
10.74368
10.80272
10.67043
10.32357
9.736788
8.926237
8.001616
7.09564
6.323284
5.708803
5.153675
4.463083
3.444376
2.023666
0.2864933
-1.532608
-3.16478
-4.447052
-5.416651
-6.291145
-7.346239
-8.777185
-10.61171
-12.67171
-14.65763
-16.23522
-17.12042
-17.135
-16.23547
-14.48968
-12.09342
-9.320259
-6.476469
-3.823742
-1.524448
0.3842793
1.963745
3.298395
4.476112
5.550001
6.534611
7.423367
8.207504
8.870396
9.412144
9.85323
10.22702
10.56311
10.87083
11.12768
11.29543
11.33543
11.2351
11.01847
10.70369
10.29558
9.745232
8.975609
7.908199
6.522724
4.88327
3.115261
1.3871
-0.1618652
-1.450191
-2.483215
-3.332237
-4.13158
-5.033756
-6.193535
-7.711388
-9.581604
-11.66763
-13.71031
-15.38599
-16.40844
-16.5994
-15.92154
-14.46763
-12.42862
-10.02874
-7.470695
-4.905914
-2.443821
-0.1502419
1.925797
3.743176
5.246733
6.413944
7.267286
7.889614
8.420851
8.99169
9.661367
10.3941
11.06262
11.52736
11.70337
11.60762
11.32653
10.94781
10.53625
10.09057
9.581741
8.962074
8.202118
7.32163
6.37636
5.450193
4.592129
3.847431
3.183474
2.536081
1.826412
0.9959335
0.02027512
-1.076117
-2.252926
-3.467268
-4.684711
-5.884911
-7.066929
-8.275152
-9.590195
-11.11925
-12.90903
-14.85829
-16.68162
-17.9749
-18.34976
-17.59979
-15.78296
-13.21609
-10.34939
-7.598669
-5.237019
-3.346037
-1.889164
-0.7675533
0.1097317
0.8424129
1.52984
2.31004
3.301619
4.555058
6.009895
7.496252
8.82196
9.83601
10.49319
10.85241
11.02059
11.0911
11.08687
10.97236
10.67039
10.12165
9.305685
8.250418
7.039976
5.769972
4.546383
3.42564
2.420525
1.471973
0.5100594
-0.513546
-1.611227
-2.738092
-3.839674
-4.85441
-5.759325
-6.563116
-7.34417
-8.224325
-9.346783
-10.80197
-12.51967
-14.25206
-15.58304
-16.08699
-15.51184
-13.89827
-11.56383
-8.950039
-6.419107
-4.144632
-2.118551
-0.270752
1.394585
2.780661
3.761295
4.284462
4.458
4.528542
4.74581
5.224977
5.889118
6.51939
6.882309
6.875593
6.579552
6.175283
5.853617
5.671553
5.548639
5.321722
4.847427
4.09251
3.130016
2.084906
1.056822
0.09328842
-0.8242378
-1.708384
-2.551331
-3.343929
-4.117805
-4.983595
-6.065063
-7.447737
-9.046034
-10.58413
-11.64516
-11.8672
-11.09219
-9.43919
-7.248693
-4.924494
-2.78281
-0.9396877
0.6371803
2.053316
3.382072
4.592203
5.591312
6.27165
6.595728
6.615677
6.449177
6.235094
6.061689
5.974318
5.935511
5.902369
5.826067
5.696583
5.539085
5.400803
5.307854
5.214172
5.054707
4.740232
4.222103
3.506308
2.666317
1.787449
0.948122
0.175396
-0.5654545
-1.358545
-2.345112
-3.651011
-5.339212
-7.332146
-9.380077
-11.10489
-12.11249
-12.12624
-11.10823
-9.261717
-6.951443
-4.549765
-2.335033
-0.4189396
1.201834
2.562082
3.686308
4.577745
5.231316
5.675526
5.972813
6.182301
6.350145
6.480202
6.550234
6.530598
6.422728
6.258644
6.094231
5.986921
5.931332
5.871031
5.689625
5.262224
4.526258
3.50602
2.314348
1.090881
-0.05772781
-1.108583
-2.095354
-3.09531
-4.153177
-5.299902
-6.557871
-7.961597
-9.543583
-11.29002
-13.0977
-14.72503
-15.85275
-16.17148
-15.50736
-13.89951
-11.58642
-8.922255
-6.230045
-3.73587
-1.523287
0.4198437
2.127075
3.601036
4.818066
5.742487
6.367317
6.743219
6.949327
7.070927
7.145144
7.188551
7.188259
7.137121
7.051828
6.946943
6.842808
6.74061
6.633545
6.489285
6.262814
5.898746
5.368574
4.669905
3.822138
2.861198
1.816854
0.7156086
-0.4126167
-1.525143
-2.557848
-3.487137
-4.354265
-5.305561
-6.508635
-8.118038
-10.12444
-12.33597
-14.37973
-15.82943
-16.34094
-15.769
-14.23501
-12.02581
-9.502979
-6.944666
-4.498909
-2.185055
0.02108192
2.108879
4.00209
5.593674
6.82004
7.705179
8.380882
9.008326
9.713179
10.50614
11.30314
11.98114
12.44157
12.68131
12.76905
12.78745
12.77598
12.69549
12.44607
11.92006
11.08524
9.991167
8.776901
7.603563
6.575838
5.729971
5.031927
4.426483
3.843533
3.223135
2.477898
1.532728
0.3441219
-1.055313
-2.556417
-4.001669
-5.270193
-6.333355
-7.27877
-8.286901
-9.53171
-11.13297
-13.09539
-15.29394
-17.45647
-19.21973
-20.19325
-20.06709
-18.74339
-16.35275
-13.26453
-9.918953
-6.691162
-3.773779
-1.212204
1.042776
3.019472
4.685892
5.984922
6.902668
7.492899
7.886028
8.207823
8.533707
8.894785
9.29612
9.715645
10.1324
10.50718
10.80347
10.97517
10.98957
10.83587
10.49915
9.996656
9.349268
8.604118
7.807802
6.987131
6.137648
5.209576
4.176756
3.044239
1.859655
0.6777649
-0.463295
-1.584265
-2.726828
-3.925976
-5.170534
-6.422758
-7.652786
-8.866768
-10.10127
-11.35645
-12.53136
-13.4356
-13.81574
-13.48605
-12.38298
-10.59517
-8.308649
-5.786211
-3.29549
-1.067255
0.7275143
2.033989
2.929787
3.593771
4.206356
4.892675
5.657307
6.397303
6.981636
7.337733
7.48042
7.494212
7.475868
7.461543
7.433617
7.355015
7.211385
7.016256
6.778632
6.491043
6.117901
5.636189
5.066138
4.471786
3.924471
3.432504
2.916907
2.228856
1.227278
-0.1359777
-1.778081
-3.479521
-4.980007
-6.068734
-6.68061
-6.925823
-7.046499
-7.334457
-8.039916
-9.280194
-10.97038
-12.83732
-14.47983
-15.46849
-15.4906
-14.442
-12.42918
-9.750763
-6.766535
-3.811207
-1.156001
1.039592
2.706326
3.851912
4.548338
4.916505
5.09184
5.185142
5.276234
5.390086
5.531752
5.721283
5.98055
6.317043
6.697386
7.034899
7.233195
7.226677
7.021151
6.676654
6.263611
5.806577
5.288429
4.661101
3.909147
3.076475
2.231977
1.44048
0.7090399
-0.009057045
-0.7740681
-1.613784
-2.511022
-3.414457
-4.301707
-5.217304
-6.23966
-7.444951
-8.836051
-10.32576
-11.72453
-12.79637
-13.31091
-13.08528
-12.0485
-10.2603
-7.916101
-5.305276
-2.75752
-0.5362124
1.228839
2.550883
3.528102
4.284612
4.901586
5.413755
5.828899
6.152138
6.400856
6.620058
6.844608
7.088023
7.347921
7.585131
7.720487
7.675475
7.400714
6.917191
6.316596
5.716383
5.188976
4.700221
4.107495
3.257152
2.086641
0.6789628
-0.7568377
-2.000583
-2.940182
-3.608033
-4.143809
-4.715537
-5.439971
-6.373692
-7.547984
-8.981013
-10.68587
-12.58579
-14.46226
-15.97431
-16.74375
-16.50525
-15.20273
-13.04068
-10.36775
-7.565726
-4.886593
-2.439173
-0.2030646
1.865136
3.742966
5.341533
6.533072
7.261662
7.563603
7.599233
7.565829
7.612868
7.803761
8.109154
8.462939
8.812359
9.167322
9.579842
10.07934
10.63952
11.13906
11.42884
11.35743
10.85342
9.946789
8.74757
7.415608
6.098216
4.890558
3.824107
2.843168
1.857742
0.7911594
-0.3826699
-1.608285
-2.789058
-3.851575
-4.780856
-5.655938
-6.587388
-7.661009
-8.893969
-10.23962
-11.65016
-13.09506
-14.54543
-15.92712
-17.07508
-17.76468
-17.7812
-17.02093
-15.51044
-13.4045
-10.89141
-8.153603
-5.351708
-2.62971
-0.1369767
2.005167
3.712547
4.985937
5.904585
6.5939
7.183923
7.758846
8.323686
8.836562
9.225281
9.410574
9.376298
9.156046
8.856325
8.611092
8.524599
8.632071
8.885075
9.146115
9.268472
9.104524
8.575987
7.685164
6.521011
5.215964
3.895037
2.640307
1.476792
0.3874757
-0.6187129
-1.504499
-2.224136
-2.769534
-3.201616
-3.657549
-4.287474
-5.205286
-6.427692
-7.885754
-9.475042
-11.09533
-12.65986
-14.07794
-15.22906
-15.94061
-16.03077
-15.36065
-13.89317
-11.72599
-9.085258
-6.258563
-3.526131
-1.092706
0.933672
2.559044
3.858285
4.926784
5.859582
6.71128
7.492965
8.192091
8.78597
9.261425
9.633074
9.936954
10.19851
10.43274
10.6398
10.80401
10.93186
11.02795
11.09386
11.10726
11.00033
10.7009
10.17087
9.440644
8.626064
7.874359
7.287342
6.862193
6.498619
6.046334
5.387814
4.50141
3.443407
2.288541
1.090155
-0.1481133
-1.427942
-2.704187
-3.897448
-4.927347
-5.796847
-6.623197
-7.605271
-8.921408
-10.64059
-12.67867
-14.80989
-16.75449
-18.22291
-18.9743
-18.87276
-17.88277
-16.09192
-13.66242
-10.79594
-7.730228
-4.699675
-1.961864
0.2613459
1.808508
2.680879
3.061337
3.25931
3.60939
4.310754
5.346417
6.488029
7.455503
8.033426
8.178129
8.022262
7.77046
7.621884
7.680059
7.916447
8.207041
8.396445
8.377071
8.126721
7.694096
7.167814
6.612008
6.044648
5.459792
4.848675
4.219744
3.574465
2.867897
2.027113
0.9481373
-0.3821678
-1.890581
-3.400135
-4.724035
-5.749704
-6.515377
-7.192213
-8.017435
-9.202145
-10.80842
-12.72508
-14.65915
-16.21592
-17.02061
-16.8423
-15.65339
-13.63753
-11.11464
-8.421488
-5.826319
-3.463884
-1.375076
0.4428902
1.960241
3.109802
3.830839
4.099537
4.005327
3.733868
3.535772
3.614761
4.02149
4.645887
5.238729
5.568726
5.541954
5.277775
5.009747
4.944527
5.113157
5.352711
5.403534
5.057762
4.288269
3.245512
2.172663
1.249594
0.532402
-0.05612373
-0.6479273
-1.334545
-2.124793
-2.981795
-3.867472
-4.782161
-5.784651
-6.939311
-8.275321
-9.710615
-11.03298
-11.93444
-12.09061
-11.2964
-9.559776
-7.117516
-4.355763
-1.666593
0.6628761
2.521745
3.95349
5.055302
5.902836
6.52575
6.910081
7.08716
7.141213
7.201282
7.356886
7.608754
7.850581
7.95478
7.838826
7.520701
7.111131
6.731806
6.449963
6.229698
5.958582
5.498984
4.764187
3.731054
2.443254
0.9993849
-0.4933453
-1.919204
-3.206113
-4.302479
-5.228445
-6.046296
-6.876072
-7.858014
-9.090508
-10.59598
-12.24712
-13.77366
-14.82485
-15.0586
-14.26976
-12.47935
-9.923617
-7.001449
-4.144031
-1.678946
0.2282324
1.605317
2.574853
3.307013
3.946594
4.561918
5.183566
5.781134
6.326564
6.796543
7.182973
7.482857
7.671008
7.727952
7.635233
7.425107
7.162801
6.94581
6.843157
6.840601
6.823745
6.597908
5.991245
4.923338
3.471579
1.852112
0.3173206
-0.9736466
-1.994228
-2.855683
-3.713488
-4.687719
-5.858562
-7.253916
-8.903533
-10.8278
-12.9498
-15.06949
-16.85077
-17.93121
-18.0476
-17.15985
-15.442
-13.20594
-10.76724
-8.336156
-6.006999
-3.785142
-1.666573
0.3519082
2.239861
3.936889
5.369885
6.472762
7.248772
7.769155
8.172624
8.613791
9.165062
9.806332
10.41096
10.84722
11.02432
10.95272
10.70271
10.34293
9.895524
9.340803
8.657485
7.862189
7.024745
6.180916
5.311302
4.345745
3.193562
1.822244
0.2963772
-1.275692
-2.79425
-4.205597
-5.566114
-6.999439
-8.651268
-10.60103
-12.79826
-15.0254
-16.94019
-18.18505
-18.49748
-17.80693
-16.24435
-14.04799
-11.47311
-8.708179
-5.881739
-3.110943
-0.5249538
1.734236
3.576345
5.003345
6.111902
7.007582
7.774641
8.457338
9.054203
9.604069
10.16323
10.76991
11.42963
12.07724
12.60264
12.93762
13.06668
13.01945
12.8279
12.46715
11.8585
10.915
9.627846
8.110363
6.589678
5.31036
4.409424
3.852203
3.431526
2.858616
1.918564
0.5595398
-1.103142
-2.837162
-4.447388
-5.842068
-7.044781
-8.175934
-9.369816
-10.71698
-12.24759
-13.90918
-15.55185
-16.96833
-17.89655
-18.10345
-17.45419
-15.95961
-13.76685
-11.10906
-8.238705
-5.353363
-2.601803
-0.06536484
2.192059
4.127563
5.716824
6.977894
7.941978
8.662827
9.205147
9.630527
10.01056
10.39742
10.7909
11.15831
11.43629
11.57669
11.58869
11.51807
11.41633
11.28825
11.06473
10.64021
9.925396
8.927017
7.743042
6.513054
5.357574
4.302715
3.290672
2.223843
1.029751
-0.3233795
-1.804474
-3.342102
-4.842655
-6.201942
-7.342892
-8.241409
-8.974224
-9.717701
-10.68662
-12.03255
-13.74293
-15.57424
-17.11578
-17.9076
-17.62671
-16.20926
-13.8599
-10.95228
-7.882553
-4.943844
-2.253212
0.1766129
2.355114
4.252018
5.791241
6.890808
7.565018
7.923702
8.143929
8.384468
8.719116
9.100029
9.398216
9.523987
9.442883
9.234856
9.008018
8.843853
8.75124
8.658272
8.47002
8.107437
7.539906
6.763298
5.788731
4.64463
3.367111
2.030186
0.7366142
-0.404335
-1.326225
-2.071407
-2.783085
-3.630676
-4.765575
-6.243538
-8.012737
-9.936306
-11.81743
-13.39891
-14.40013
-14.55807
-13.69426
-11.82472
-9.178432
-6.151386
-3.174767
-0.5711136
1.559113
3.314209
4.886314
6.438217
7.994484
9.44606
10.61755
11.38163
11.71224
11.72648
11.61684
11.56504
11.66072
11.86523
12.06752
12.16541
12.11208
11.92659
11.63677
11.21288
10.58117
9.671825
8.495068
7.175877
5.881371
4.73716
3.758991
2.85564
1.898827
0.818615
-0.3789215
-1.63694
-2.886028
-4.104065
-5.316845
-6.562069
-7.895695
-9.371323
-11.02188
-12.84594
-14.72006
-16.40555
-17.57656
-17.94994
-17.37657
-15.92565
-13.84656
-11.45728
-9.023304
-6.685326
-4.450493
-2.258915
-0.05786896
2.128014
4.183872
5.937927
7.247097
8.057178
8.433201
8.559799
8.613995
8.726917
8.904339
9.06284
9.115902
9.036999
8.872002
8.701134
8.552486
8.346897
7.95718
7.257343
6.235123
5.001816
3.73856
2.614841
1.710064
0.9824257
0.3176041
-0.4134064
-1.28989
-2.325394
-3.496294
-4.775841
-6.160885
-7.693333
-9.415745
-11.32256
-13.2771
-15.02336
-16.23665
-16.64248
-16.15697
-14.90127
-13.13864
-11.16389
-9.169466
-7.20817
-5.263681
-3.290562
-1.303301
0.6523647
2.515682
4.255203
5.860491
7.336996
8.648464
9.749491
10.59817
11.18035
11.51692
11.6276
11.52773
11.23394
10.7965
10.30946
9.85668
9.490274
9.177858
8.810205
8.273113
7.49291
6.482439
5.330059
4.13069
2.954155
1.822309
0.7095833
-0.4247036
-1.613773
-2.864445
-4.158705
-5.46232
-6.749636
-8.030582
-9.364124
-10.83538
-12.50894
-14.35135
-16.16966
-17.6296
-18.35506
-18.08284
-16.76119
-14.59971
-11.97325
-9.274103
-6.763939
-4.536814
-2.539959
-0.6716385
1.117294
2.787315
4.239779
5.378031
6.182931
6.715816
7.090768
7.431004
7.791282
8.175302
8.5176
8.737345
8.765157
8.571336
8.191553
7.708578
7.219846
6.810366
6.514676
6.285165
6.021256
5.599569
4.924698
3.962795
2.737252
1.330277
-0.1576977
-1.630867
-3.024725
-4.304722
-5.494112
-6.64085
-7.820562
-9.117192
-10.5824
-12.22046
-13.92216
-15.4743
-16.58528
-16.98011
-16.4808
-15.08776
-12.99095
-10.46225
-7.80628
-5.24144
-2.857577
-0.6326714
1.500221
3.572419
5.521376
7.197218
8.421471
9.057027
9.129292
8.813186
8.393614
8.133723
8.158634
8.431293
8.781947
9.039594
9.099043
8.943011
8.612014
8.150455
7.577606
6.90383
6.147019
5.334046
4.493511
3.606304
2.655799
1.638859
0.5689678
-0.5024395
-1.537748
-2.54408
-3.562462
-4.649222
-5.842337
-7.131364
-8.501844
-9.930752
-11.41061
-12.89302
-14.25917
-15.28887
-15.73265
-15.3763
-14.13235
-12.07123
-9.416177
-6.497697
-3.663074
-1.218982
0.6664429
1.977633
2.863856
3.559209
4.272355
5.091725
5.961177
6.739344
7.301968
7.655785
7.89827
8.142939
8.408068
8.569897
8.476265
8.042955
7.353191
6.629965
6.104639
5.875771
5.825554
5.707729
5.283178
4.471962
3.369951
2.172194
1.04508
0.0367775
-0.9267788
-1.957394
-3.139631
-4.502352
-6.01948
-7.655254
-9.345049
-10.97063
-12.35226
-13.26543
-13.52472
-13.03807
-11.83078
-10.00552
-7.690929
-5.019373
-2.133604
0.7495537
3.360872
5.427969
6.779976
7.422115
7.52882
7.36043
7.139433
6.983519
6.910801
6.902594
6.95788
7.109694
7.378668
7.701576
7.932169
7.897438
7.514656
6.830458
6.033018
5.346331
4.909267
4.699856
4.520153
4.120758
3.316935
2.096695
0.6284542
-0.8265648
-2.054766
-2.992683
-3.736856
-4.482096
-5.40876
-6.624945
-8.134127
-9.890997
-11.79352
-13.6852
-15.34835
-16.47982
-16.74926
-15.92012
-13.95814
-11.11012
-7.814095
-4.55854
-1.719128
0.5440273
2.278393
3.640596
4.770666
5.743357
6.558022
7.216108
7.739258
8.202728
8.703005
9.268927
9.849005
10.31816
10.54681
10.48816
10.21523
9.857912
9.535749
9.280407
9.024605
8.649443
8.069838
7.278284
6.317223
5.237892
4.051792
2.758537
1.383329
0.009487152
-1.233171
-2.240664
-3.015291
-3.683292
-4.4347
-5.422903
-6.715422
-8.273161
-10.01087
-11.82448
-13.63179
-15.29924
-16.6366
-17.40511
-17.38059
-16.45044
-14.6647
-12.2279
-9.424154
-6.537235
-3.771374
-1.248339
0.9791927
2.905704
4.542461
5.88409
6.931444
7.694944
8.205563
8.534054
8.770401
9.0014
9.284248
9.624729
9.978693
10.28438
10.47987
10.52349
10.39995
10.10992
9.650627
9.036623
8.282097
7.403299
6.441727
5.445974
4.481312
3.592863
2.77766
1.974333
1.070076
-0.0480938
-1.422857
-2.991226
-4.60243
-6.084009
-7.327805
-8.357376
-9.321423
-10.42151
-11.80987
-13.47503
-15.2091
-16.65211
-17.39801
-17.14454
-15.81227
-13.55946
-10.73539
-7.742586
-4.914772
-2.438154
-0.3657341
1.352102
2.789558
3.998463
5.016674
5.872324
6.594698
7.207136
7.724695
8.144876
8.43931
8.582811
8.55781
8.395788
8.172583
7.992542
7.930292
7.997967
8.118769
8.160425
7.978546
7.475977
6.634418
5.501717
4.147263
2.653383
1.100529
-0.4211693
-1.801682
-2.925718
-3.735579
-4.279125
-4.707653
-5.224165
-6.018694
-7.191374
-8.741077
-10.56811
-12.50464
-14.33365
-15.78605
-16.58455
-16.50675
-15.4604
-13.5365
-10.99166
-8.179132
-5.407398
-2.880421
-0.6712704
1.226486
2.846344
4.183155
5.210344
5.897118
6.262924
6.38423
6.402636
6.482866
6.719803
7.112925
7.565271
7.942585
8.143543
8.164442
8.067902
7.91597
7.712103
7.359732
6.714224
5.687366
4.324165
2.803833
1.381514
0.2574234
-0.5147877
-1.020004
-1.458073
-2.042028
-2.920586
-4.1647
-5.734879
-7.490442
-9.206211
-10.60847
-11.4184
-11.41078
-10.48681
-8.706276
-6.281567
-3.52376
-0.7591782
1.760473
3.893801
5.609791
6.915554
7.829515
8.366644
8.545498
8.417141
8.096907
7.71575
7.418221
7.28437
7.319376
7.449718
7.562597
7.584169
7.498394
7.348318
7.191109
7.034842
6.823853
6.444481
5.798077
4.846252
3.6367
2.261623
0.8221703
-0.6266556
-2.06645
-3.494413
-4.899616
-6.286346
-7.68582
-9.180758
-10.86
-12.7142
-14.56784
-16.08565
-16.88865
-16.71272
-15.52885
-13.55244
-11.13442
-8.601307
-6.134434
-3.783194
-1.528044
0.6075916
2.512518
4.034849
5.06838
5.633276
5.90317
6.122343
6.503674
7.124405
7.911762
8.672544
9.205791
9.378283
9.192778
8.760038
8.236198
7.756907
7.390186
7.123117
6.865015
6.486378
5.882656
5.006647
3.880499
2.612036
1.327641
0.1311989
-0.9492779
-1.968214
-3.031424
-4.229521
-5.592625
-7.103008
-8.705008
-10.37129
-12.08487
-13.79915
-15.36537
-16.52432
-16.9889
-16.54673
-15.16803
-13.01019
-10.35579
-7.498976
-4.64646
-1.899206
0.6960793
3.095291
5.22155
6.988892
8.335875
9.249063
9.762365
9.961679
9.957756
9.878836
9.861092
9.969349
10.19673
10.45449
10.60933
10.58303
10.36193
9.99436
9.535894
9.01763
8.434122
7.779213
7.078367
6.385088
5.752979
5.163116
4.53088
3.734781
2.696716
1.408434
-0.05154991
-1.565947
-3.04689
-4.437317
-5.739662
-7.001152
-8.285526
-9.660393
-11.1706
-12.79404
-14.41661
-15.85897
-16.88867
-17.28109
-16.87884
-15.61275
-13.55634
-10.91761
-7.97967
-5.057388
-2.417818
-0.2120247
1.549734
2.962482
4.170382
5.292776
6.348576
7.27775
7.985699
8.415545
8.601948
8.649565
8.679201
8.76018
8.895094
9.022795
9.093073
9.093842
9.060204
9.041145
9.039972
8.996315
8.793352
8.328764
7.547728
6.484425
5.237425
3.920492
2.635124
1.419689
0.2917042
-0.7601471
-1.750273
-2.693153
-3.604435
-4.525333
-5.519787
-6.694221
-8.150217
-9.950008
-12.01102
-14.10194
-15.87336
-16.97176
-17.1605
-16.41236
-14.86275
-12.73632
-10.24421
-7.523401
-4.682518
-1.837944
0.8366222
3.131438
4.883884
6.069789
6.787267
7.202851
7.490002
7.727625
7.925728
8.047385
8.109262
8.146358
8.221536
8.364461
8.538736
8.676251
8.703873
8.606312
8.416831
8.207731
8.005641
7.78721
7.459487
6.919366
6.110062
5.0288
3.743508
2.350243
0.9646339
-0.3083448
-1.367468
-2.168372
-2.749908
-3.247629
-3.850326
-4.694101
-5.838388
-7.220001
-8.749683
-10.35912
-12.02985
-13.73709
-15.34138
-16.56636
-17.02163
-16.4025
-14.65509
-12.05961
-9.125247
-6.373757
-4.118699
-2.347462
-0.8197985
0.7553244
2.483668
4.229842
5.692133
6.613828
6.947471
6.881818
6.735453
6.740561
6.939848
7.171254
7.216223
6.959623
6.490462
6.04952
5.877188
6.076766
6.501419
6.850344
6.804143
6.175143
4.985686
3.439409
1.834373
0.4283476
-0.6151414
-1.279127
-1.655462
-1.898008
-2.183416
-2.681831
-3.527915
-4.79367
-6.442613
-8.291561
-10.04726
-11.34075
-11.85003
-11.38816
-9.96596
-7.799747
-5.249434
-2.692743
-0.432364
1.376004
2.732426
3.754498
4.579722
5.328825
6.034548
6.657955
7.136442
7.402785
7.418907
7.186782
6.773042
6.270816
5.783494
5.3913
5.126336
4.963228
4.846049
4.720795
4.552822
4.317673
3.973522
3.457804
2.693484
1.649801
0.3911386
-0.9494629
-2.214963
-3.306706
-4.231251
-5.082367
-5.959461
-6.936291
-8.045084
-9.289958
-10.66943
-12.12094
-13.50099
-14.56473
-15.02643
-14.66385
-13.4211
-11.44969
-9.025656
-6.44686
-3.935345
-1.607504
0.4790288
2.27173
3.692724
4.688616
5.26942
5.537784
5.659093
5.807868
6.088541
6.514651
7.00677
7.447948
7.723957
7.762498
7.562428
7.174092
6.71111
6.283024
5.976796
5.793118
5.640375
5.350533
4.755876
3.769557
2.439887
0.9235759
-0.5651894
-1.861486
-2.914747
-3.809152
-4.72302
-5.833525
-7.249609
-8.973699
-10.90345
-12.85927
-14.63848
-16.03071
-16.85025
-16.94816
-16.23034
-14.69012
-12.44363
-9.723581
-6.84622
-4.134191
-1.810367
0.05597687
1.578388
2.94018
4.304859
5.705996
7.04626
8.164356
8.935055
9.340639
9.481816
9.515776
9.567601
9.665643
9.756691
9.752277
9.587811
9.288422
8.936027
8.595531
8.28189
7.932078
7.427685
6.688488
5.715731
4.597584
3.47895
2.483566
1.639318
0.866869
0.01463985
-1.054427
-2.390324
-3.924619
-5.510247
-7.008591
-8.392639
-9.776057
-11.34647
-13.21921
-15.29384
-17.23254
-18.53649
-18.75811
-17.67113
-15.40627
-12.35735
-9.026994
-5.847401
-3.048926
-0.6730919
1.342994
3.075191
4.570242
5.833176
6.876977
7.74824
8.501081
9.17029
9.761112
10.23068
10.53859
10.69214
10.76375
10.86387
11.11165
11.51992
12.01054
12.4209
12.57218
12.35402
11.77126
10.94205
10.02263
9.153469
8.363596
7.61216
6.772392
5.729486
4.413618
2.852684
1.130772
-0.6465321
-2.371126
-3.971327
-5.384399
-6.58058
-7.574356
-8.46166
-9.399277
-10.57989
-12.11254
-13.92506
-15.75393
-17.20641
-17.9067
-17.64213
-16.41978
-14.45513
-12.06095
-9.536797
-7.079416
-4.767975
-2.600195
-0.5263081
1.484217
3.423605
5.198093
6.678024
7.741364
8.3489
8.569357
8.573862
8.550257
8.607134
8.744293
8.879194
8.91548
8.80772
8.591644
8.323118
8.048885
7.776123
7.459261
7.056503
6.554607
5.990099
5.407272
4.82593
4.211805
3.470053
2.475315
1.148956
-0.4924526
-2.318535
-4.118271
-5.705828
-7.009266
-8.112129
-9.206253
-10.45792
-11.89777
-13.36656
-14.56661
-15.18193
-15.00066
-13.97191
-12.22353
-9.968386
-7.459286
-4.930538
-2.539391
-0.363842
1.568167
3.261984
4.709988
5.869541
6.700661
7.202002
7.458338
7.637167
7.91588
8.398506
9.056627
9.723213
10.18123
10.27108
9.962818
9.352718
8.607584
7.862656
7.1702
6.508814
5.814348
5.044588
4.185688
3.252457
2.264473
1.235561
0.1763592
-0.8988647
-1.95532
-2.978354
-3.981541
-5.013554
-6.151688
-7.457804
-8.944328
-10.54618
-12.10811
-13.40866
-14.20394
-14.28649
-13.55199
-12.04489
-9.943647
-7.495481
-4.937988
-2.44236
-0.09245491
2.052624
3.947371
5.518797
6.721374
7.575159
8.188771
8.705078
9.212318
9.701361
10.04879
10.12203
9.867004
9.351043
8.749266
8.252552
7.933626
7.721382
7.454741
6.978886
6.246656
5.329561
4.358422
3.412954
2.471776
1.417982
0.1470699
-1.344914
-2.951184
-4.497324
-5.85934
-7.052355
-8.219015
-9.538218
-11.10504
-12.83116
-14.45531
-15.65382
-16.14019
-15.78263
-14.62714
-12.84823
-10.6646
-8.265733
-5.777598
-3.280781
-0.8594532
1.395682
3.364779
4.93467
6.059357
6.765248
7.145752
7.328821
7.421673
7.496916
7.611678
7.804253
8.081494
8.413162
8.722069
8.915505
8.920866
8.750333
8.466824
8.153639
7.841331
7.46699
6.921115
6.116707
5.05079
3.820783
2.573809
1.404928
0.3271456
-0.7241058
-1.845589
-3.060392
-4.33201
-5.577046
-6.730969
-7.811514
-8.922235
-10.21409
-11.76995
-13.53124
-15.24694
-16.54974
-17.07988
-16.61418
-15.16189
-12.9449
-10.29354
-7.535561
-4.926204
-2.564924
-0.4801207
1.34353
2.929633
4.291046
5.419539
6.331265
7.060736
7.664772
8.214598
8.766062
9.318138
9.810052
10.14152
10.22756
10.04269
9.640581
9.127069
8.588922
8.056025
7.508082
6.918262
6.295436
5.689008
5.140594
4.641747
4.118259
3.461443
2.581116
1.465802
0.150496
-1.297657
-2.787711
-4.242095
-5.600503
-6.840281
-7.986813
-9.123289
-10.37819
-11.83773
-13.46549
-15.05694
-16.25761
-16.69889
-16.13321
-14.53883
-12.12665
-9.245634
-6.248022
-3.37631
-0.7744851
1.490602
3.38097
4.871258
5.985246
6.822246
7.543582
8.277356
9.072166
9.844427
10.44752
10.77829
10.82318
10.67826
10.45251
10.22212
9.968457
9.631151
9.184252
8.673058
8.173822
7.744264
7.362287
6.92909
6.354206
5.584514
4.646559
3.619434
2.565489
1.487822
0.3327959
-0.9438004
-2.353686
-3.838682
-5.28334
-6.583534
-7.711912
-8.74181
-9.8279
-11.15221
-12.80567
-14.70426
-16.56242
-17.95221
-18.45587
-17.81951
-16.06999
-13.48182
-10.50078
-7.547622
-4.89606
-2.630757
-0.7247061
0.8909089
2.237681
3.322812
4.161013
4.809615
5.354866
5.868384
6.374784
6.856492
7.266267
7.597615
7.859399
8.067316
8.234015
8.341857
8.362997
8.255343
8.002908
7.598158
7.047791
6.370014
5.563309
4.642256
3.630751
2.568302
1.503605
0.4918448
-0.457183
-1.367141
-2.296394
-3.308009
-4.442867
-5.703693
-7.078919
-8.539603
-10.05657
-11.57573
-12.98843
-14.12913
-14.79329
-14.78747
-14.01166
-12.47881
-10.30408
-7.696876
-4.90618
-2.16515
0.3274567
2.422156
4.068505
5.27073
6.090164
6.5897
6.829282
6.885825
6.865312
6.895057
7.082551
7.457304
7.935469
8.345481
8.522149
8.393517
8.013414
7.531744
7.081692
6.716643
6.360915
5.885504
5.168368
4.179881
2.982945
1.699794
0.43506
-0.752409
-1.835306
-2.828128
-3.746152
-4.614883
-5.460959
-6.354398
-7.359807
-8.52704
-9.825218
-11.11138
-12.15999
-12.68998
-12.45463
-11.3421
-9.418719
-6.929846
-4.208266
-1.584136
0.7168202
2.606406
4.107283
5.282939
6.168857
6.778127
7.116646
7.233535
7.224443
7.19637
7.219674
7.29723
7.362201
7.345812
7.248173
7.129271
7.088825
7.167508
7.326165
7.409508
7.229745
6.64001
5.615048
4.249239
2.731874
1.238609
-0.09303904
-1.192626
-2.07326
-2.801716
-3.496346
-4.321737
-5.447759
-7.013012
-9.066153
-11.48119
-13.95399
-16.03873
-17.27863
-17.3618
-16.23977
-14.15575
-11.51999
-8.762289
-6.135225
-3.694462
-1.360053
0.9401269
3.138158
5.011525
6.308656
6.895993
6.851277
6.458838
6.064113
5.92583
6.138282
6.621717
7.201617
7.71344
8.044167
8.168361
8.145741
8.055475
7.977496
7.956126
7.927565
7.756185
7.256146
6.296478
4.869982
3.1205
1.283871
-0.4208193
-1.868615
-3.110239
-4.288128
-5.557977
-7.006526
-8.649679
-10.44075
-12.33554
-14.27554
-16.13598
-17.67944
-18.54392
-18.38592
-17.02451
-14.5541
-11.34447
-7.897341
-4.656384
-1.853235
0.4755726
2.437499
4.144038
5.635058
6.876806
7.826833
8.502818
8.993818
9.435694
9.907268
10.39512
10.77929
10.9276
10.78293
10.40477
9.940081
9.539539
9.268184
9.075151
8.844069
8.480528
7.972294
7.363055
6.697124
5.983948
5.162272
4.170533
3.015665
1.779869
0.5653858
-0.5774393
-1.681604
-2.850621
-4.175266
-5.684341
-7.339788
-9.093408
-10.91486
-12.80215
-14.70057
-16.43454
-17.71185
-18.17798
-17.57839
-15.86345
-13.22132
-10.00892
-6.620984
-3.376559
-0.4723215
2.01459
4.075795
5.722582
7.002046
7.964233
8.668802
9.169714
9.509628
9.706127
9.766556
9.719435
9.616037
9.53826
9.553144
9.683193
9.874429
9.996411
9.896384
9.476042
8.74229
7.823277
6.898032
6.101737
5.429965
4.750846
3.888006
2.717239
1.246055
-0.40662
-2.082487
-3.647331
-5.074366
-6.393409
-7.682456
-9.031047
-10.50471
-12.12136
-13.80872
-15.39871
-16.64649
-17.31184
-17.20251
-16.28732
-14.67393
-12.56752
-10.18117
-7.651491
-5.058912
-2.460409
0.04200649
2.305697
4.160046
5.49291
6.312093
6.739304
6.974903
7.184272
7.455586
7.765783
8.035979
8.195696
8.24126
8.218706
8.163168
8.085186
7.962292
7.763368
7.492388
7.175036
6.812417
6.385725
5.822179
5.042251
4.027841
2.837294
1.595665
0.4038305
-0.6983232
-1.764631
-2.880048
-4.099556
-5.408702
-6.757613
-8.107542
-9.482037
-10.9227
-12.41815
-13.84061
-14.92871
-15.38557
-14.98426
-13.68086
-11.60825
-9.025686
-6.205961
-3.349792
-0.5909948
1.982531
4.286831
6.225739
7.711265
8.69168
9.186149
9.259199
9.025356
8.617257
8.194377
7.894463
7.785408
7.858211
8.012524
8.107252
8.036633
7.774766
7.354205
6.862188
6.343241
5.818942
5.272702
4.686739
4.058533
3.388396
2.684281
1.925304
1.080181
0.1120548
-1.024902
-2.372994
-3.976904
-5.870211
-8.016401
-10.25221
-12.30466
-13.84007
-14.56796
-14.33259
-13.17158
-11.27723
-8.920801
-6.351656
-3.744144
-1.19978
1.209785
3.389119
5.221031
6.581333
7.397504
7.687235
7.562679
7.206959
6.819155
6.558008
6.475562
6.536834
6.642674
6.693757
6.643538
6.522504
6.401929
6.33094
6.282503
6.133495
5.706822
4.884265
3.670046
2.223153
0.764699
-0.5100393
-1.555145
-2.47043
-3.422978
-4.541303
-5.854537
-7.309695
-8.836105
-10.42353
-12.09464
-13.85131
-15.56335
-16.95742
-17.66486
-17.38453
-16.0227
-13.74195
-10.89521
-7.887354
-5.025202
-2.435615
-0.1479321
1.891126
3.712751
5.302035
6.644677
7.725651
8.580999
9.262282
9.815766
10.25607
10.56374
10.72393
10.75602
10.71964
10.68171
10.67873
10.69264
10.65523
10.47972
10.10875
9.532518
8.792643
7.965449
7.086536
6.170269
5.187786
4.091688
2.83721
1.419418
-0.1392536
-1.774036
-3.380961
-4.865544
-6.158782
-7.24141
-8.164914
-9.032004
-9.973406
-11.10677
-12.50371
-14.12455
-15.80643
-17.26153
-18.14449
-18.16607
-17.16756
-15.21113
-12.53537
-9.505526
-6.458751
-3.640879
-1.163509
0.9706335
2.806502
4.390205
5.759706
6.935008
7.954598
8.861121
9.682263
10.42427
11.0431
11.49089
11.73723
11.81065
11.79709
11.80412
11.91803
12.14298
12.38453
12.48619
12.27416
11.65299
10.62799
9.31668
7.903252
6.546705
5.333094
4.242593
3.188966
2.083954
0.9005122
-0.3196235
-1.514136
-2.649697
-3.761796
-4.923573
-6.194378
-7.592917
-9.107138
-10.73454
-12.49872
-14.40085
-16.34407
-18.06808
-19.18223
-19.30937
-18.25758
-16.13443
-13.30134
-10.23118
-7.30943
-4.721045
-2.486021
-0.513366
1.274757
2.914315
4.397465
5.72478
6.914425
8.00037
9.011729
9.922602
10.65625
11.12538
11.25765
11.05066
10.58851
10.01659
9.520486
9.239175
9.200387
9.286327
9.282586
8.979087
8.277992
7.255638
6.087126
4.969976
4.018609
3.228555
2.514509
1.794302
1.024533
0.214268
-0.6151476
-1.484791
-2.448482
-3.577034
-4.910986
-6.424966
-8.089725
-9.87805
-11.77228
-13.70087
-15.50914
-16.92676
-17.63678
-17.3965
-16.1446
-14.05073
-11.44249
-8.681623
-6.02655
-3.573036
-1.29123
0.86868
2.88087
4.622733
5.905384
6.621357
6.803068
6.663775
6.509358
6.610011
7.062213
7.732042
8.3337
8.54888
8.227485
7.453557
6.506406
5.728867
5.33945
5.344357
5.534202
5.612423
5.329467
4.59218
3.497543
2.22026
0.9409084
-0.2559786
-1.393916
-2.536285
-3.722417
-4.937633
-6.092118
-7.10682
-7.974343
-8.774605
-9.665325
-10.7551
-12.02617
-13.2639
-14.12088
-14.21416
-13.28614
-11.30797
-8.46923
-5.148024
-1.768843
1.294866
3.839804
5.806601
7.262431
8.320311
9.057661
9.51143
9.675576
9.589198
9.330135
9.024408
8.77704
8.641596
8.565997
8.451673
8.202054
7.774121
7.219924
6.637814
6.125614
5.700961
5.291619
4.766414
4.012051
3.011671
1.824924
0.5735283
-0.6461582
-1.804911
-2.931078
-4.077236
-5.294216
-6.617222
-8.094028
-9.803514
-11.77789
-13.94058
-16.02198
-17.61589
-18.28962
-17.76899
-16.06452
-13.43291
-10.29141
-7.051649
-4.020945
-1.373756
0.8184052
2.541033
3.825697
4.730057
5.334595
5.750038
6.107697
6.529226
7.093258
7.802053
8.558699
9.174585
9.45199
9.290049
8.739809
8.000198
7.329268
6.918322
6.822819
6.901196
6.923429
6.667002
5.978487
4.82979
3.30043
1.543489
-0.2732353
-1.989573
-3.507164
-4.784817
-5.858347
-6.800039
-7.68017
-8.593742
-9.622269
-10.84422
-12.30267
-13.97071
-15.66323
-17.1024
-17.94234
-17.91232
-16.92579
-15.11865
-12.78401
-10.2543
-7.780401
-5.448198
-3.247759
-1.110989
1.012461
3.077829
4.990444
6.631466
7.885698
8.691727
9.072903
9.147432
9.111584
9.15637
9.391541
9.781595
10.16974
10.33941
10.14323
9.592126
8.828824
8.073025
7.493938
7.122665
6.856562
6.517926
5.929988
5.012588
3.799131
2.391011
0.936636
-0.4498434
-1.698229
-2.793701
-3.77932
-4.72951
-5.739755
-6.927674
-8.385893
-10.12707
-12.02766
-13.80153
-15.056
-15.42151
-14.70371
-12.96999
-10.54312
-7.854357
-5.304548
-3.137978
-1.404514
-0.03126812
1.088041
2.045807
2.867549
3.579621
4.214836
4.809913
5.395187
5.978938
6.525516
6.965738
7.243718
7.338241
7.279425
7.159369
7.067444
7.099001
7.288878
7.605554
7.963759
8.248379
8.348385
8.17896
7.703687
6.952702
6.029947
5.058974
4.156764
3.36895
2.64797
1.864737
0.8882179
-0.3517408
-1.803184
-3.308793
-4.702287
-5.886809
-6.904476
-7.895861
-9.061348
-10.55578
-12.41689
-14.51466
-16.56726
-18.20429
-19.05059
-18.82904
-17.45975
-15.07969
-12.00103
-8.620237
-5.297791
-2.283622
0.3125625
2.504341
4.316666
5.769452
6.837793
7.496954
7.77187
7.77143
7.680941
7.686448
7.90651
8.324573
8.81774
9.238317
9.498877
9.613112
9.640016
9.638337
9.588833
9.412821
9.040282
8.461735
7.747962
6.980874
6.189891
5.3147
4.278662
3.051625
1.693613
0.3437457
-0.8814611
-1.958472
-2.94569
-3.943444
-5.032906
-6.231615
-7.553752
-9.017978
-10.65799
-12.47999
-14.37872
-16.11549
-17.35999
-17.78706
-17.20385
-15.613
-13.21854
-10.33388
-7.304606
-4.392855
-1.761182
0.5607681
2.582701
4.32977
5.790991
6.900143
7.603703
7.89242
7.849169
7.630946
7.426838
7.388171
7.572721
7.948936
8.418757
8.867505
9.240504
9.523995
9.739716
9.882123
9.902575
9.696836
9.177242
8.324093
7.223
6.039753
4.943096
3.999391
3.160277
2.286362
1.25418
0.01818943
-1.384285
-2.871289
-4.432945
-6.14828
-8.122967
-10.38901
-12.78041
-14.93305
-16.3768
-16.72639
-15.832
-13.82483
-11.05717
-7.961909
-4.90807
-2.118431
0.3408117
2.493008
4.372436
5.968121
7.223609
8.075295
8.521529
8.654103
8.633244
8.614495
8.705222
8.905388
9.149925
9.347956
9.445335
9.386812
9.125769
8.599596
7.760389
6.640743
5.37203
4.153973
3.13811
2.344194
1.653459
0.8813486
-0.08822155
-1.247056
-2.454739
-3.573736
-4.549794
-5.443982
-6.371312
-7.439704
-8.734895
-10.3074
-12.19541
-14.36583
-16.62496
-18.58267
-19.71728
-19.56371
-17.9493
-15.08833
-11.50544
-7.809002
-4.434725
-1.524361
1.00935
3.300749
5.365608
7.084949
8.305868
8.989346
9.280626
9.447647
9.75227
10.28316
10.96384
11.58645
11.97148
12.05681
11.92774
11.74195
11.60113
11.48483
11.24413
10.71511
9.814936
8.613264
7.279161
5.990709
4.833483
3.766605
2.684427
1.487963
0.1737957
-1.177589
-2.471642
-3.66848
-4.814093
-5.980509
-7.243364
-8.625332
-10.14014
-11.81252
-13.67951
-15.70714
-17.71098
-19.3339
-20.12895
-19.77127
-18.1839
-15.60287
-12.46302
-9.204498
-6.128754
-3.334677
-0.7940044
1.539536
3.646338
5.45759
6.937284
8.092497
9.002708
9.738832
10.30002
10.64095
10.70654
10.54591
10.30547
10.19389
10.35859
10.81648
11.41655
11.92366
12.1111
11.87312
11.23071
10.27971
9.137392
7.86245
6.500364
5.070993
3.626268
2.220715
0.8826008
-0.3900814
-1.624741
-2.851257
-4.084911
-5.321379
-6.56407
-7.856876
-9.29447
-10.99109
-12.99108
-15.22377
-17.44161
-19.26461
-20.2868
-20.21553
-18.97974
-16.74361
-13.84929
-10.68321
-7.548386
-4.580994
-1.807337
0.7995243
3.206276
5.286118
6.882843
7.892977
8.340471
8.382294
8.267305
8.215935
8.330128
8.548782
8.730722
8.754936
8.613884
8.415586
8.317654
8.419641
8.644957
8.790085
8.620253
8.020365
7.056496
5.960188
4.976656
4.222322
3.61867
2.945093
1.99135
0.6739693
-0.9131241
-2.581369
-4.150187
-5.530546
-6.739845
-7.861998
-8.993198
-10.22758
-11.65372
-13.3279
-15.20669
-17.06651
-18.49228
-18.97457
-18.11811
-15.82982
-12.40587
-8.442842
-4.617359
-1.418589
0.9767704
2.681021
3.95326
4.987799
5.868925
6.574516
7.094156
7.504801
7.937025
8.507067
9.215164
9.920942
10.41114
10.51305
10.18639
9.554699
8.831684
8.225613
7.842846
7.66737
7.580376
7.40052
6.969414
6.159264
4.950954
3.430599
1.786755
0.2391739
-1.041946
-1.982025
-2.674507
-3.298199
-4.080345
-5.202961
-6.742737
-8.644619
-10.7058
-12.62017
-14.02649
-14.61212
-14.16255
-12.62173
-10.10696
-6.884937
-3.345352
0.08751297
3.023075
5.224751
6.649162
7.46344
7.942158
8.337265
8.752048
9.130112
9.353745
9.344032
9.182449
9.056068
9.155949
9.505207
9.928875
10.1445
9.902561
9.171059
8.137699
7.114044
6.348099
5.884525
5.544605
5.027847
4.094719
2.682575
0.9388504
-0.8737907
-2.476746
-3.743141
-4.731743
-5.629539
-6.655861
-7.951618
-9.560055
-11.39381
-13.34071
-15.24529
-16.93779
-18.19589
-18.7588
-18.38502
-16.95345
-14.55597
-11.4799
-8.142864
-4.932487
-2.086594
0.3582039
2.506363
4.472061
6.287758
7.864662
9.063377
9.772308
9.991905
9.847523
9.550125
9.316807
9.275585
9.446201
9.73101
9.983559
10.08099
9.977066
9.705658
9.334324
8.905025
8.390774
7.7113
6.772682
5.547657
4.084034
2.523182
1.024399
-0.2906075
-1.406895
-2.402672
-3.430775
-4.653927
-6.165031
-7.991997
-10.06335
-12.25529
-14.41844
-16.41096
-18.09795
-19.32684
-19.89169
-19.5714
-18.22096
-15.8606
-12.74664
-9.310909
-6.023159
-3.185417
-0.8478813
1.16169
3.096203
5.085804
7.065121
8.829983
10.16254
10.97767
11.35743
11.49851
11.56746
11.66554
11.77829
11.88124
11.93858
11.95211
11.93381
11.86617
11.69776
11.34303
10.7425
9.91346
8.952015
8.004101
7.205013
6.580456
6.029644
5.355919
4.366802
2.98381
1.313274
-0.4189415
-1.976585
-3.257568
-4.352856
-5.506565
-6.985657
-8.931637
-11.29522
-13.82939
-16.18208
-17.97778
-18.94055
-18.90263
-17.84405
-15.87431
-13.2198
-10.17382
-7.029808
-4.042011
-1.390682
0.8351231
2.605776
3.962004
5.001904
5.844131
6.631567
7.461508
8.34543
9.212654
9.956596
10.46783
10.73857
10.85561
10.98146
11.2365
11.63673
12.04384
12.24588
12.06503
11.41598
10.3679
9.076118
7.736429
6.487284
5.382971
4.396112
3.44231
2.432978
1.28441
-0.01988602
-1.436644
-2.869917
-4.216244
-5.430727
-6.554955
-7.714071
-9.05089
-10.66017
-12.52026
-14.47977
-16.26082
-17.54498
-18.03186
-17.53627
-16.03875
-13.70504
-10.8379
-7.795036
-4.895744
-2.339079
-0.1888199
1.569422
2.988495
4.106176
4.94136
5.511366
5.87207
6.10655
6.314697
6.567703
6.8929
7.255341
7.587578
7.813043
7.881925
7.785828
7.562836
7.261635
6.937415
6.619994
6.309975
5.950873
5.479393
4.840086
4.02141
3.075089
2.111134
1.234108
0.4885406
-0.1552935
-0.8161669
-1.640073
-2.715437
-4.085361
-5.705542
-7.521133
-9.503789
-11.62271
-13.79156
-15.82118
-17.41166
-18.2178
-17.9897
-16.67515
-14.45147
-11.64975
-8.629827
-5.656093
-2.875321
-0.3438816
1.890839
3.732252
5.072393
5.844214
6.111012
6.074353
5.99181
6.075447
6.401093
6.919791
7.500339
8.012276
8.368606
8.52804
8.487481
8.261406
7.893832
7.456973
7.006987
6.566277
6.068031
5.40017
4.470697
3.285336
1.945238
0.6379547
-0.5029998
-1.471951
-2.396221
-3.478753
-4.879285
-6.637586
-8.621536
-10.59583
-12.26724
-13.38482
-13.77889
-13.39551
-12.29719
-10.63512
-8.590264
-6.332675
-4.002613
-1.702847
0.4511642
2.330432
3.800733
4.770721
5.242629
5.318821
5.169099
4.99235
4.929597
5.01714
5.199955
5.322189
5.214982
4.736728
3.869099
2.739979
1.602482
0.7744203
0.5056152
0.9040794
1.86022
3.113935
4.332264
5.230007
5.635479
5.507534
4.901161
3.88976
2.565326
1.021919
-0.6404715
-2.345923
-4.062863
-5.839472
-7.760668
-9.865036
-12.04911
-14.03374
-15.4235
-15.85922
-15.18019
-13.4677
-11.02468
-8.235563
-5.429148
-2.803231
-0.4486003
1.610023
3.352119
4.773119
5.909875
6.845802
7.66127
8.403223
9.048743
9.529181
9.780091
9.80237
9.664036
9.485266
9.376747
9.379416
9.456898
9.535806
9.529087
9.381395
9.067032
8.563716
7.845685
6.903753
5.747478
4.433165
3.033954
1.622314
0.2250469
-1.141329
-2.48344
-3.758338
-4.904188
-5.864466
-6.644634
-7.351101
-8.172276
-9.30264
-10.8694
-12.86347
-15.10432
-17.27178
-18.97211
-19.81228
-19.53278
-18.06511
-15.54392
-12.30587
-8.793646
-5.432208
-2.532089
-0.2265513
1.537207
2.90686
4.042992
5.061037
6.013836
6.912988
7.773479
8.628695
9.490951
10.31136
10.98339
11.36759
11.40726
11.18535
10.90135
10.76759
10.88299
11.15568
11.34869
11.21525
10.63256
9.670269
8.533422
7.446629
6.525932
5.731109
4.918673
3.933951
2.713038
1.31609
-0.1097972
-1.408794
-2.523959
-3.522037
-4.566148
-5.861434
-7.539042
-9.615237
-11.97285
-14.36617
-16.48029
-17.98588
-18.59667
-18.16008
-16.71316
-14.44707
-11.67597
-8.73097
-5.876487
-3.270175
-0.954433
1.085542
2.866412
4.384106
5.619716
6.574786
7.282299
7.816573
8.260343
8.684151
9.107464
9.474124
9.682512
9.656584
9.397509
9.041891
8.796753
8.825415
9.149281
9.582037
9.820357
9.591547
8.800524
7.561557
6.162865
4.899335
3.925419
3.212888
2.587515
1.86517
0.9519911
-0.1443529
-1.338207
-2.53771
-3.686963
-4.772196
-5.809135
-6.800855
-7.77349
-8.766831
-9.893438
-11.28842
-13.03324
-15.06051
-17.09479
-18.67673
-19.33946
-18.79655
-17.07165
-14.50651
-11.5832
-8.740399
-6.206038
-4.000682
-2.032763
-0.23734
1.34401
2.595933
3.421189
3.843611
3.980342
4.021626
4.105291
4.267577
4.457592
4.57387
4.576624
4.492356
4.418678
4.473936
4.701898
5.078157
5.479867
5.751679
5.749824
5.418514
4.769595
3.906824
2.949269
1.980036
1.046226
0.1469336
-0.7419872
-1.619406
-2.449475
-3.202171
-3.880744
-4.552014
-5.347567
-6.405148
-7.80159
-9.468542
-11.20709
-12.7084
-13.67903
-13.90974
-13.3148
-11.97598
-10.08655
-7.905579
-5.691594
-3.629909
-1.81316
-0.2265668
1.169751
2.414969
3.48773
4.364626
5.017518
5.492513
5.876728
6.242723
6.610255
6.926333
7.107933
7.105305
6.971119
6.789588
6.632396
6.495798
6.29428
5.944134
5.438478
4.856866
4.28895
3.770871
3.212035
2.439798
1.325287
-0.1278539
-1.780121
-3.428458
-4.957988
-6.385483
-7.798326
-9.222872
-10.50813
-11.32575
-11.32133
-10.30368
-8.366185
-5.847645
-3.177228
-0.6983347
1.440556
3.252254
4.825636
6.194077
7.331197
8.150066
8.592975
8.669222
8.460207
8.072892
7.619964
7.184772
6.822237
6.558872
6.405037
6.349281
6.364653
6.386185
6.329912
6.089414
5.553981
4.641065
3.34318
1.72251
-0.1016941
-1.979346
-3.771423
-5.405571
-6.88308
-8.296986
-9.793093
-11.47565
-13.34739
-15.23643
-16.82994
-17.77639
-17.80151
-16.81876
-14.9426
-12.43849
-9.610649
-6.725496
-3.956886
-1.41144
0.8472805
2.77589
4.364325
5.633101
6.646357
7.482454
8.184219
8.756939
9.1814
9.426401
9.471062
9.334202
9.050371
8.674026
8.239748
7.74651
7.164883
6.475937
5.690905
4.866549
4.074173
3.357914
2.683334
1.937487
0.9830284
-0.2787495
-1.860172
-3.689358
-5.641975
-7.565311
-9.293533
-10.64151
-11.38817
-11.35775
-10.4606
-8.78175
-6.55788
-4.07708
-1.576027
0.8198166
3.081177
5.19754
7.092503
8.643616
9.73196
10.35305
10.60773
10.66125
10.63478
10.5256
10.27615
9.831631
9.232166
8.598267
8.052128
7.600407
7.140186
6.486557
5.500977
4.19746
2.709923
1.220428
-0.1574364
-1.415539
-2.671772
-4.051506
-5.646458
-7.458485
-9.437218
-11.49068
-13.48668
-15.23811
-16.51608
-17.09943
-16.82145
-15.63786
-13.66084
-11.10086
-8.222794
-5.261501
-2.391907
0.2686806
2.654911
4.750309
6.562767
8.132385
9.497543
10.65297
11.53722
12.02952
12.03075
11.52163
10.64995
9.673462
8.875885
8.444088
8.356564
8.405697
8.288101
7.765022
6.743404
5.307835
3.625431
1.85569
0.09859085
-1.606331
-3.246338
-4.817505
-6.33498
-7.850517
-9.454506
-11.1803
-12.92918
-14.42415
-15.27998
-15.13055
-13.80584
-11.3974
-8.220329
-4.693802
-1.205219
1.973797
4.684361
6.853382
8.452198
9.493496
10.03421
10.20032
10.15803
10.04624
9.95752
9.896755
9.793434
9.573116
9.19706
8.685196
8.123875
7.61393
7.239037
7.014801
6.893795
6.755527
6.455723
5.888233
5.01638
3.905815
2.674339
1.44783
0.3056717
-0.7700043
-1.862957
-3.093651
-4.549915
-6.286293
-8.27523
-10.42543
-12.57227
-14.48806
-15.91415
-16.59799
-16.36948
-15.22329
-13.3187
-10.9078
-8.257454
-5.537949
-2.811867
-0.08022308
2.620628
5.169514
7.37167
9.05006
10.13857
10.72549
11.02411
11.25755
11.55296
11.88831
12.16905
12.27566
12.17253
11.92826
11.65597
11.43842
11.27182
11.0611
10.67042
9.991512
8.995693
7.75676
6.406086
5.061001
3.797756
2.589981
1.362522
0.03998947
-1.399609
-2.905254
-4.373163
-5.699697
-6.839937
-7.854094
-8.878992
-10.05989
-11.49831
-13.16106
-14.87024
-16.31772
-17.16946
-17.17248
-16.23028
-14.43878
-12.01438
-9.227665
-6.3092
-3.437452
-0.7540607
1.621395
3.583004
5.088367
6.172741
6.957508
7.577164
8.117998
8.604275
9.034431
9.404984
9.750858
10.09176
10.38792
10.53352
10.40987
9.98088
9.330578
8.633357
8.039383
7.580025
7.162146
6.63486
5.909174
4.988371
3.956546
2.884208
1.755459
0.521492
-0.8394146
-2.265559
-3.613441
-4.746778
-5.621397
-6.329939
-7.067404
-8.065868
-9.483027
-11.33425
-13.43702
-15.45654
-16.96683
-17.58709
-17.10606
-15.56322
-13.25378
-10.59298
-7.94775
-5.535922
-3.391548
-1.451237
0.3196213
1.881797
3.169802
4.164285
4.950696
5.68253
6.491101
7.389653
8.279861
8.983946
9.368288
9.411713
9.212147
8.917582
8.660774
8.487196
8.35225
8.154549
7.784769
7.180972
6.357258
5.381371
4.366645
3.390284
2.485214
1.629692
0.7530756
-0.2089233
-1.256162
-2.345195
-3.420157
-4.461943
-5.520917
-6.685369
-8.04427
-9.609091
-11.30432
-12.96992
-14.40028
-15.36841
-15.6574
-15.10513
-13.65003
-11.38426
-8.56114
-5.551029
-2.727421
-0.3500652
1.487368
2.856625
3.885633
4.666292
5.219221
5.523079
5.595236
5.514343
5.412535
5.39996
5.514103
5.708399
5.901981
6.029737
6.078554
6.080294
6.073004
6.082752
6.096748
6.061935
5.892075
5.470449
4.703535
3.578346
2.195408
0.7506599
-0.5262051
-1.4967
-2.154305
-2.628664
-3.105877
-3.754883
-4.67765
-5.89933
-7.399231
-9.091316
-10.80976
-12.30401
-13.27436
-13.45988
-12.73056
-11.13901
-8.907089
-6.323833
-3.676994
-1.204765
0.9336624
2.645191
3.897388
4.709942
5.178955
5.419003
5.563534
5.710449
5.907448
6.147423
6.373768
6.502258
6.448109
6.179386
5.715191
5.131248
4.538788
4.0238
3.62442
3.311882
3.014503
2.657036
2.201302
1.64254
1.005367
0.2830582
-0.5535011
-1.562531
-2.801422
-4.284649
-5.942307
-7.685173
-9.427094
-11.10939
-12.70541
-14.1663
-15.34622
-16.01432
-15.9173
-14.88132
-12.93369
-10.31853
-7.398476
-4.521736
-1.9226
0.3342171
2.274559
3.914589
5.226757
6.141796
6.625011
6.758568
6.717434
6.692509
6.814716
7.088547
7.404499
7.612591
7.59951
7.359146
6.989685
6.618443
6.349266
6.182396
6.023895
5.704815
5.086193
4.105576
2.810455
1.341434
-0.1207962
-1.437355
-2.534027
-3.426041
-4.178253
-4.873196
-5.628426
-6.57851
-7.848461
-9.517773
-11.50998
-13.5852
-15.38942
-16.57748
-16.912
-16.33263
-14.92914
-12.8768
-10.36143
-7.558292
-4.626686
-1.72451
0.9720993
3.306313
5.177685
6.548325
7.463085
8.006168
8.299244
8.474674
8.636314
8.832523
9.026104
9.123028
9.064278
8.860867
8.596798
8.389889
8.284008
8.216736
8.048611
7.65099
7.000397
6.187798
5.380943
4.684467
4.082718
3.430519
2.541969
1.322235
-0.1692352
-1.762993
-3.256126
-4.519028
-5.587063
-6.620388
-7.829983
-9.38641
-11.30654
-13.44048
-15.48343
-17.05936
-17.84307
-17.64193
-16.45264
-14.45736
-11.92871
-9.148678
-6.327629
-3.593307
-1.038654
1.249985
3.17086
4.641781
5.683697
6.407894
7.014832
7.673302
8.442848
9.254177
9.956043
10.42111
10.6134
10.59317
10.47883
10.3593
10.26608
10.17274
10.03739
9.802097
9.436424
8.900307
8.163593
7.203865
6.027916
4.685856
3.256039
1.825371
0.4719124
-0.7509193
-1.817505
-2.731754
-3.514145
-4.242638
-5.021534
-5.977852
-7.208241
-8.759895
-10.59328
-12.58448
-14.54227
-16.2249
-17.40592
-17.89674
-17.61998
-16.61671
-14.99339
-12.90498
-10.46547
-7.761448
-4.868652
-1.892918
0.9923553
3.58799
5.723167
7.316727
8.398613
9.093342
9.531796
9.817417
10.01157
10.14784
10.27151
10.40848
10.57455
10.7435
10.86105
10.87598
10.77836
10.59539
10.35023
10.05231
9.669441
9.155499
8.47879
7.640293
6.678047
5.63382
4.534451
3.377411
2.160606
0.8840294
-0.4305077
-1.744812
-3.055119
-4.361084
-5.687485
-7.05378
-8.463272
-9.898849
-11.38017
-12.9251
-14.53402
-16.14366
-17.56601
-18.55159
-18.82859
-18.20513
-16.65156
-14.3271
-11.51617
-8.542854
-5.689049
-3.121445
-0.9033165
0.967804
2.510857
3.721478
4.583099
5.088146
5.288155
5.297192
5.314098
5.521046
6.01223
6.744915
7.549896
8.20079
8.53046
8.477413
8.101845
7.552269
6.93721
6.299759
5.590172
4.714745
3.621353
2.329498
0.9389992
-0.4070396
-1.575457
-2.524084
-3.283413
-3.957628
-4.659508
-5.49147
-6.524307
-7.811588
-9.38072
-11.17761
-13.01349
-14.5501
-15.36691
-15.13875
-13.75728
-11.39177
-8.446751
-5.369314
-2.507296
-0.01724434
2.113941
3.973528
5.628754
7.06358
8.202187
8.971554
9.359964
9.41728
9.247616
8.947039
8.566227
8.11235
7.58366
7.012621
6.499485
6.190783
6.180277
6.434381
6.758501
6.869322
6.518103
5.637619
4.367989
2.974592
1.708652
0.6661453
-0.225647
-1.137106
-2.198438
-3.410952
-4.667884
-5.851116
-6.941272
-8.033933
-9.249749
-10.60512
-11.94355
-12.94013
-13.24839
-12.66769
-11.20526
-9.068025
-6.550347
-3.895634
-1.260222
1.269034
3.593268
5.560597
7.00869
7.844821
8.112034
8.006819
7.803949
7.737484
7.89511
8.210829
8.519225
8.657429
8.571121
8.325771
8.049963
7.85269
7.728739
7.563073
7.208622
6.54739
5.58625
4.431343
3.20345
1.999473
0.8195791
-0.4104142
-1.761254
-3.235417
-4.768908
-6.25165
-7.616547
-8.888673
-10.18359
-11.64818
-13.36249
-15.25715
-17.08747
-18.52613
-19.23298
-18.99122
-17.77411
-15.74368
-13.17271
-10.34884
-7.500477
-4.748887
-2.146795
0.2807019
2.503692
4.459798
6.094755
7.375336
8.317744
8.98394
9.452183
9.813543
10.13487
10.441
10.69745
10.82506
10.74947
10.43225
9.919927
9.324747
8.763307
8.289829
7.865766
7.366224
6.666363
5.682674
4.425065
2.972676
1.434855
-0.08094978
-1.494514
-2.755537
-3.857059
-4.823837
-5.756197
-6.818478
-8.20591
-10.07418
-12.44675
-15.13179
-17.72246
-19.68819
-20.5156
-19.91776
-17.93856
-14.93271
-11.4331
-7.937254
-4.724716
-1.851397
0.7737083
3.249512
5.581297
7.665953
9.370047
10.60283
11.36234
11.76162
11.9485
12.08613
12.2637
12.49973
12.7512
12.92429
12.94201
12.76616
12.43177
12.00605
11.52784
10.97658
10.26833
9.328678
8.158703
6.857193
5.580814
4.462898
3.518394
2.64753
1.679127
0.4611168
-1.042278
-2.759724
-4.53009
-6.210018
-7.744312
-9.216629
-10.80862
-12.70008
-14.97113
-17.46395
-19.83215
-21.5784
-22.26976
-21.65911
-19.79021
-16.93794
-13.47337
-9.751038
-5.996681
-2.362095
1.05587
4.130482
6.728462
8.754963
10.20689
11.1951
11.88093
12.4398
12.98269
13.56734
14.1693
14.72753
15.17471
15.43333
15.46572
15.27684
14.90427
14.38886
13.752
12.96349
11.98084
10.79498
9.466232
8.109371
6.822086
5.655991
4.588577
3.55101
2.471733
1.306908
0.07090378
-1.219719
-2.543694
-3.889709
-5.239208
-6.58279
-7.931736
-9.361046
-11.02545
-13.06101
-15.46925
-18.01247
-20.22681
-21.55639
-21.58171
-20.1673
-17.52199
-14.07658
-10.30613
-6.597256
-3.176487
-0.1425629
2.468182
4.64846
6.439148
7.921131
9.194988
10.32505
11.30407
12.04818
12.47764
12.60008
12.52808
12.43546
12.46503
12.65923
12.9245
13.10615
13.0513
12.69019
12.05807
11.24995
10.37625
9.497128
8.593632
7.588531
6.373878
4.879669
3.111332
1.159538
-0.8488312
-2.789745
-4.570797
-6.148907
-7.515816
-8.715233
-9.837852
-11.04292
-12.52343
-14.40707
-16.66243
-19.02683
-21.0423
-22.18771
-22.07721
-20.59378
-17.92918
-14.49434
-10.75513
-7.088654
-3.693428
-0.6232681
2.133511
4.578175
6.64473
8.252422
9.345615
9.959846
10.22239
10.31505
10.40694
10.59202
10.87862
11.19547
11.45456
11.5817
11.54222
11.31813
10.91758
10.33192
9.560608
8.635345
7.579071
6.455334
5.308319
4.161243
3.012947
1.851582
0.6610756
-0.5494728
-1.75964
-2.953793
-4.13707
-5.356647
-6.675232
-8.169243
-9.885098
-11.83017
-13.92197
-15.97902
-17.72382
-18.8142
-18.95417
-17.96968
-15.90502
-13.00689
-9.647289
-6.192192
-2.912815
0.05282211
2.674446
4.93792
6.824741
8.326305
9.439575
10.22786
10.77833
11.18333
11.5211
11.82093
12.07187
12.23999
12.25882
12.06097
11.62926
11.00041
10.29702
9.669754
9.229446
8.946651
8.666122
8.171677
7.293083
6.010155
4.420486
2.707367
1.009644
-0.6208992
-2.212006
-3.78112
-5.317596
-6.762344
-8.078693
-9.32766
-10.66303
-12.24481
-14.1273
-16.15834
-17.99994
-19.23727
-19.52132
-18.70306
-16.86256
-14.23412
-11.1166
-7.775288
-4.396648
-1.123199
1.912968
4.567822
6.690323
8.16309
8.950691
9.14735
8.949146
8.627274
8.411327
8.427113
8.652435
8.950428
9.150623
9.140263
8.918114
8.573307
8.225697
7.935619
7.647804
7.244999
6.597385
5.64719
4.443462
3.085724
1.666004
0.262455
-1.11097
-2.451675
-3.747608
-4.991241
-6.218479
-7.549374
-9.14706
-11.15401
-13.56586
-16.1902
-18.63458
-20.41814
-21.12955
-20.55548
-18.74268
-15.95896
-12.61467
-9.109047
-5.738895
-2.665592
0.08677673
2.526886
4.664337
6.470783
7.915039
8.976894
9.689026
10.13567
10.41289
10.59779
10.75045
10.90925
11.12409
11.42579
11.78588
12.1077
12.22607
11.98676
11.33683
10.36035
9.265881
8.299938
7.622093
7.209087
6.884411
6.392265
5.533031
4.248444
2.635601
0.859169
-0.9457588
-2.714294
-4.467976
-6.231506
-8.022522
-9.810631
-11.57267
-13.33024
-15.16313
-17.12982
-19.17514
-21.06416
-22.37085
-22.67578
-21.70482
-19.4791
-16.30167
-12.62833
-8.881298
-5.320862
-2.03878
0.968586
3.636833
5.825706
7.372669
8.214668
8.517067
8.643269
8.978844
9.738594
10.85271
11.97715
12.71057
12.81223
12.31001
11.52076
10.83927
10.55177
10.67881
10.99514
11.16379
10.93233
10.24703
9.278828
8.309181
7.574833
7.152225
6.934002
6.699745
6.211193
5.332962
4.079876
2.562939
0.9541359
-0.6413879
-2.198696
-3.790226
-5.533871
-7.555397
-9.908424
-12.57093
-15.4116
-18.18861
-20.59711
-22.29857
-22.99738
-22.51252
-20.8284
-18.14767
-14.80716
-11.22116
-7.760101
-4.670803
-2.038494
0.16856
2.038322
3.642181
5.020473
6.171593
7.097755
7.833359
8.442719
8.988071
9.488773
9.899292
10.12991
10.10099
9.802181
9.324936
8.823826
8.439064
8.243526
8.173084
8.068802
7.739033
7.04422
5.942043
4.502323
2.858177
1.181633
-0.4206581
-1.892525
-3.242283
-4.508217
-5.720669
-6.896267
-8.038647
-9.187527
-10.43923
-11.90005
-13.60064
-15.41462
-17.01108
-17.9496
-17.84721
-16.53127
-14.12035
-10.97053
-7.531738
-4.192715
-1.174217
1.468227
3.769348
5.769402
7.451424
8.739906
9.554764
9.904598
9.890656
9.706257
9.56065
9.579746
9.771835
10.05164
10.28352
10.39688
10.37739
10.27374
10.12746
9.940044
9.646347
9.157578
8.408073
7.368698
6.07164
4.595448
3.06002
1.593616
0.2979431
-0.7991257
-1.751129
-2.706631
-3.825882
-5.257938
-7.070934
-9.220707
-11.54023
-13.75231
-15.53212
-16.5657
-16.66698
-15.7954
-14.06654
-11.68122
-8.85376
-5.783787
-2.636837
0.4297447
3.253853
5.669601
7.551037
8.841579
9.570629
9.844101
9.806801
9.603142
9.351006
9.12207
8.957722
8.877575
8.891907
8.998802
9.185688
9.395794
9.533817
9.489605
9.168941
8.543423
7.657059
6.595745
5.436588
4.227577
2.961807
1.630291
0.2253876
-1.2351
-2.72435
-4.223663
-5.730602
-7.275211
-8.888897
-10.63097
-12.55201
-14.66148
-16.89101
-19.06598
-20.89543
-22.03281
-22.17484
-21.16279
-19.0337
-16.00495
-12.39612
-8.536587
-4.728649
-1.200867
1.861588
4.331417
6.140278
7.313274
7.984844
8.381897
8.751343
9.269993
9.976818
10.76997
11.44127
11.80676
11.79253
11.45782
10.95809
10.44358
9.983795
9.538097
9.036911
8.428005
7.731503
7.029297
6.36132
5.679585
4.844349
3.68993
2.141712
0.2807579
-1.684879
-3.489422
-4.957394
-6.080624
-7.028912
-8.086433
-9.526539
-11.50522
-13.94569
-16.55214
-18.88205
-20.47441
-21.01041
-20.38258
-18.70166
-16.21792
-13.21996
-9.963089
-6.638298
-3.38448
-0.3015633
2.535538
5.081337
7.297016
9.141369
10.56213
11.50762
11.97577
12.06696
11.96816
11.90009
12.02884
12.38382
12.88794
13.38363
13.7342
13.84992
13.706
13.32279
12.72453
11.96842
11.12472
10.24968
9.37677
8.503513
7.567093
6.49921
5.24807
3.800152
2.19862
0.5254173
-1.114433
-2.624866
-3.957668
-5.132477
-6.239677
-7.408852
-8.760075
-10.37265
-12.26518
-14.40392
-16.70297
-18.96598
-20.90081
-22.1263
-22.26297
-21.08599
-18.60466
-15.10809
-11.04819
-6.903435
-3.045849
0.3385201
3.217636
5.654137
7.701286
9.36726
10.60453
11.3735
11.71175
11.71853
11.57668
11.47372
11.51555
11.70808
11.96753
12.19039
12.31216
12.35362
12.34633
12.28842
12.1139
11.71026
11.01313
10.05789
8.963387
7.880299
6.910923
6.055138
5.226501
4.292522
3.129284
1.680138
-0.01690292
-1.846233
-3.681259
-5.409729
-6.970772
-8.366417
-9.652382
-10.93034
-12.33012
-13.96473
-15.86484
-17.91369
-19.83178
-21.21381
-21.65214
-20.89249
-18.93922
-16.05792
-12.67808
-9.227768
-5.983875
-3.061043
-0.435627
1.928326
4.015537
5.753254
7.077621
7.996304
8.612854
9.091011
9.539009
9.96833
10.27178
10.30757
10.01696
9.477837
8.898685
8.504204
8.396694
8.493973
8.571888
8.388626
7.810265
6.877499
5.760185
4.636692
3.604733
2.642551
1.655838
0.5725861
-0.619133
-1.866478
-3.104286
-4.312511
-5.510429
-6.746513
-8.045067
-9.40387
-10.80101
-12.22753
-13.69191
-15.202
-16.70217
-18.01993
-18.90645
-19.08679
-18.37257
-16.72329
-14.25794
-11.22239
-7.933456
-4.710381
-1.807682
0.6204872
2.564251
4.113033
5.395435
6.501049
7.448833
8.186577
8.672253
8.886551
8.88129
8.749004
8.592072
8.448719
8.309708
8.133404
7.893436
7.589558
7.268089
6.965069
6.684654
6.348106
5.836006
5.034397
3.913902
2.564663
1.160088
-0.1313286
-1.242691
-2.247303
-3.327282
-4.664692
-6.351238
-8.318874
-10.36049
-12.18398
-13.47462
-13.96861
-13.50842
-12.08387
-9.830734
-7.00082
-3.915241
-0.8794327
1.864975
4.162994
5.936867
7.20245
8.039604
8.56625
8.902367
9.118183
9.210743
9.13966
8.897953
8.52166
8.114742
7.778347
7.565723
7.441994
7.31686
7.104214
6.756516
6.277489
5.682907
4.983192
4.165718
3.219196
2.157181
1.021683
-0.1311722
-1.260204
-2.366482
-3.501297
-4.740818
-6.171173
-7.825836
-9.654518
-11.47572
-13.01815
-13.97135
-14.08251
-13.27153
-11.61322
-9.306267
-6.590092
-3.652561
-0.6190872
2.406273
5.294361
7.82457
9.729729
10.76121
10.8216
10.02155
8.68092
7.234425
6.07893
5.456257
5.363735
5.600414
5.86832
5.922096
5.666542
5.177094
4.604733
4.071991
3.611305
3.169273
2.662109
2.052788
1.355728
0.5954323
-0.2126236
-1.096176
-2.104271
-3.274357
-4.589565
-6.000549
-7.468983
-8.995716
-10.62786
-12.40152
-14.26369
-16.03068
-17.41019
-18.08506
-17.80767
-16.48714
-14.22438
-11.26183
-7.930882
-4.581867
-1.488537
1.200047
3.452518
5.319244
6.863152
8.095833
8.995663
9.553299
9.826473
9.982681
10.22698
10.69269
11.36612
12.07937
12.59046
12.73049
12.51192
12.09554
11.67713
11.33216
10.95781
10.31522
9.189674
7.537258
5.531425
3.494946
1.747444
0.4632874
-0.4147453
-1.10421
-1.889889
-2.992073
-4.514057
-6.413857
-8.574543
-10.84784
-13.08987
-15.15194
-16.85703
-18.01461
-18.42476
-17.92883
-16.47459
-14.17658
-11.29303
-8.175247
-5.157673
-2.467182
-0.162159
1.837891
3.648773
5.335392
6.880398
8.193031
9.194527
9.866009
10.27069
10.5076
10.67491
10.82275
10.94717
11.0267
11.02584
10.93127
10.73747
10.4572
10.11079
9.714474
9.271183
8.763924
8.16153
7.396523
6.407001
5.153305
3.664982
2.029228
0.3761063
-1.180584
-2.589497
-3.863926
-5.07589
-6.285282
-7.547089
-8.895905
-10.39146
-12.12308
-14.15345
-16.4282
-18.71003
-20.58555
-21.60313
-21.45303
-20.08803
-17.73919
-14.79377
-11.63294
-8.502136
-5.504906
-2.65089
0.05728149
2.561733
4.789024
6.687325
8.238277
9.481197
10.49141
11.33224
12.02
12.53576
12.81785
12.81573
12.55742
12.16143
11.82824
11.74418
11.99566
12.48613
12.98557
13.23317
13.05414
12.44009
11.50191
10.37013
9.122986
7.781948
6.378567
5.017738
3.850952
2.986809
2.372519
1.767952
0.8582382
-0.5957031
-2.57966
-4.853882
-7.057356
-8.922028
-10.39267
-11.60264
-12.79922
-14.17954
-15.81904
-17.62611
-19.38249
-20.77657
-21.49672
-21.29265
-20.04096
-17.81532
-14.84781
-11.48935
-8.086304
-4.903095
-2.046974
0.4819527
2.748507
4.781393
6.560226
8.023113
9.097122
9.758064
10.05954
10.11028
10.06475
10.03601
10.08633
10.20569
10.33817
10.43931
10.48977
10.47439
10.38418
10.16273
9.751778
