1569258328.97608
1569258328.99171
1569258329.00733
1569258329.02296
1569258329.03858
1569258329.05421
1569258329.06984
1569258329.08546
1569258329.10109
1569258329.11671
1569258329.13234
1569258329.14796
1569258329.16359
1569258329.17922
1569258329.19484
1569258329.21047
1569258329.22609
1569258329.24172
1569258329.25734
1569258329.27297
1569258329.2886
1569258329.30422
1569258329.31985
1569258329.33547
1569258329.3511
1569258329.36672
1569258329.38235
1569258329.39798
1569258329.4136
1569258329.42923
1569258329.44485
1569258329.46048
1569258329.4761
1569258329.49173
1569258329.50736
1569258329.52298
1569258329.53861
1569258329.55423
1569258329.56986
1569258329.58548
1569258329.60111
1569258329.61674
1569258329.63236
1569258329.64799
1569258329.66361
1569258329.67924
1569258329.69486
1569258329.71049
1569258329.72612
1569258329.74174
1569258329.75737
1569258329.77299
1569258329.78862
1569258329.80424
1569258329.81987
1569258329.8355
1569258329.85112
1569258329.86675
1569258329.88237
1569258329.898
1569258329.91362
1569258329.92925
1569258329.94488
1569258329.9605
1569258329.97613
1569258329.99175
1569258330.00738
1569258330.023
1569258330.03863
1569258330.05426
1569258330.06988
1569258330.08551
1569258330.10113
1569258330.11676
1569258330.13238
1569258330.14801
1569258330.16364
1569258330.17926
1569258330.19489
1569258330.21051
1569258330.22614
1569258330.24176
1569258330.25739
1569258330.27302
1569258330.28864
1569258330.30427
1569258330.31989
1569258330.33552
1569258330.35115
1569258330.36677
1569258330.3824
1569258330.39802
1569258330.41365
1569258330.42927
1569258330.4449
1569258330.46053
1569258330.47615
1569258330.49178
1569258330.5074
1569258330.52303
1569258330.53865
1569258330.55428
1569258330.56991
1569258330.58553
1569258330.60116
1569258330.61678
1569258330.63241
1569258330.64803
1569258330.66366
1569258330.67929
1569258330.69491
1569258330.71054
1569258330.72616
1569258330.74179
1569258330.75741
1569258330.77304
1569258330.78867
1569258330.80429
1569258330.81992
1569258330.83554
1569258330.85117
1569258330.86679
1569258330.88242
1569258330.89805
1569258330.91367
1569258330.9293
1569258330.94492
1569258330.96055
1569258330.97617
1569258330.9918
1569258331.00743
1569258331.02305
1569258331.03868
1569258331.0543
1569258331.06993
1569258331.08555
1569258331.10118
1569258331.11681
1569258331.13243
1569258331.14806
1569258331.16368
1569258331.17931
1569258331.19493
1569258331.21056
1569258331.22619
1569258331.24181
1569258331.25744
1569258331.27306
1569258331.28869
1569258331.30431
1569258331.31994
1569258331.33557
1569258331.35119
1569258331.36682
1569258331.38244
1569258331.39807
1569258331.41369
1569258331.42932
1569258331.44495
1569258331.46057
1569258331.4762
1569258331.49182
1569258331.50745
1569258331.52307
1569258331.5387
1569258331.55433
1569258331.56995
1569258331.58558
1569258331.6012
1569258331.61683
1569258331.63245
1569258331.64808
1569258331.66371
1569258331.67933
1569258331.69496
1569258331.71058
1569258331.72621
1569258331.74183
1569258331.75746
1569258331.77309
1569258331.78871
1569258331.80434
1569258331.81996
1569258331.83559
1569258331.85121
1569258331.86684
1569258331.88247
1569258331.89809
1569258331.91372
1569258331.92934
1569258331.94497
1569258331.96059
1569258331.97622
1569258331.99185
1569258332.00747
1569258332.0231
1569258332.03872
1569258332.05435
1569258332.06997
1569258332.0856
1569258332.10123
1569258332.11685
1569258332.13248
1569258332.1481
1569258332.16373
1569258332.17935
1569258332.19498
1569258332.21061
1569258332.22623
1569258332.24186
1569258332.25748
1569258332.27311
1569258332.28873
1569258332.30436
1569258332.31999
1569258332.33561
1569258332.35124
1569258332.36686
1569258332.38249
1569258332.39811
1569258332.41374
1569258332.42937
1569258332.44499
1569258332.46062
1569258332.47624
1569258332.49187
1569258332.50749
1569258332.52312
1569258332.53875
1569258332.55437
1569258332.57
1569258332.58562
1569258332.60125
1569258332.61687
1569258332.6325
1569258332.64813
1569258332.66375
1569258332.67938
1569258332.695
1569258332.71063
1569258332.72625
1569258332.74188
1569258332.75751
1569258332.77313
1569258332.78876
1569258332.80438
1569258332.82001
1569258332.83563
1569258332.85126
1569258332.86689
1569258332.88251
1569258332.89814
1569258332.91376
1569258332.92939
1569258332.94501
1569258332.96064
1569258332.97627
1569258332.99189
1569258333.00752
1569258333.02314
1569258333.03877
1569258333.0544
1569258333.07002
1569258333.08565
1569258333.10127
1569258333.1169
1569258333.13252
1569258333.14815
1569258333.16378
1569258333.1794
1569258333.19503
1569258333.21065
1569258333.22628
1569258333.2419
1569258333.25753
1569258333.27316
1569258333.28878
1569258333.30441
1569258333.32003
1569258333.33566
1569258333.35128
1569258333.36691
1569258333.38254
1569258333.39816
1569258333.41379
1569258333.42941
1569258333.44504
1569258333.46066
1569258333.47629
1569258333.49192
1569258333.50754
1569258333.52317
1569258333.53879
1569258333.55442
1569258333.57004
1569258333.58567
1569258333.6013
1569258333.61692
1569258333.63255
1569258333.64817
1569258333.6638
1569258333.67942
1569258333.69505
1569258333.71068
1569258333.7263
1569258333.74193
1569258333.75755
1569258333.77318
1569258333.7888
1569258333.80443
1569258333.82006
1569258333.83568
1569258333.85131
1569258333.86693
1569258333.88256
1569258333.89818
1569258333.91381
1569258333.92944
1569258333.94506
1569258333.96069
1569258333.97631
1569258333.99194
1569258334.00756
1569258334.02319
1569258334.03882
1569258334.05444
1569258334.07007
1569258334.08569
1569258334.10132
1569258334.11694
1569258334.13257
1569258334.1482
1569258334.16382
1569258334.17945
1569258334.19507
1569258334.2107
1569258334.22632
1569258334.24195
1569258334.25758
1569258334.2732
1569258334.28883
1569258334.30445
1569258334.32008
1569258334.3357
1569258334.35133
1569258334.36696
1569258334.38258
1569258334.39821
1569258334.41383
1569258334.42946
1569258334.44508
1569258334.46071
1569258334.47634
1569258334.49196
1569258334.50759
1569258334.52321
1569258334.53884
1569258334.55446
1569258334.57009
1569258334.58572
1569258334.60134
1569258334.61697
1569258334.63259
1569258334.64822
1569258334.66384
1569258334.67947
1569258334.6951
1569258334.71072
1569258334.72635
1569258334.74197
1569258334.7576
1569258334.77322
1569258334.78885
1569258334.80448
1569258334.8201
1569258334.83573
1569258334.85135
1569258334.86698
1569258334.8826
1569258334.89823
1569258334.91386
1569258334.92948
1569258334.94511
1569258334.96073
1569258334.97636
1569258334.99198
1569258335.00761
1569258335.02324
1569258335.03886
1569258335.05449
1569258335.07011
1569258335.08574
1569258335.10136
1569258335.11699
1569258335.13262
1569258335.14824
1569258335.16387
1569258335.17949
1569258335.19512
1569258335.21075
1569258335.22637
1569258335.242
1569258335.25762
1569258335.27325
1569258335.28887
1569258335.3045
1569258335.32013
1569258335.33575
1569258335.35138
1569258335.367
1569258335.38263
1569258335.39825
1569258335.41388
1569258335.42951
1569258335.44513
1569258335.46076
1569258335.47638
1569258335.49201
1569258335.50763
1569258335.52326
1569258335.53889
1569258335.55451
1569258335.57014
1569258335.58576
1569258335.60139
1569258335.61701
1569258335.63264
1569258335.64827
1569258335.66389
1569258335.67952
1569258335.69514
1569258335.71077
1569258335.72639
1569258335.74202
1569258335.75765
1569258335.77327
1569258335.7889
1569258335.80452
1569258335.82015
1569258335.83577
1569258335.8514
1569258335.86703
1569258335.88265
1569258335.89828
1569258335.9139
1569258335.92953
1569258335.94515
1569258335.96078
1569258335.97641
1569258335.99203
1569258336.00766
1569258336.02328
1569258336.03891
1569258336.05453
1569258336.07016
1569258336.08579
1569258336.10141
1569258336.11704
1569258336.13266
1569258336.14829
1569258336.16391
1569258336.17954
1569258336.19517
1569258336.21079
1569258336.22642
1569258336.24204
1569258336.25767
1569258336.27329
1569258336.28892
1569258336.30455
1569258336.32017
1569258336.3358
1569258336.35142
1569258336.36705
1569258336.38267
1569258336.3983
1569258336.41393
1569258336.42955
1569258336.44518
1569258336.4608
1569258336.47643
1569258336.49205
1569258336.50768
1569258336.52331
1569258336.53893
1569258336.55456
1569258336.57018
1569258336.58581
1569258336.60143
1569258336.61706
1569258336.63269
1569258336.64831
1569258336.66394
1569258336.67956
1569258336.69519
1569258336.71081
1569258336.72644
1569258336.74207
1569258336.75769
1569258336.77332
1569258336.78894
1569258336.80457
1569258336.82019
1569258336.83582
1569258336.85145
1569258336.86707
1569258336.8827
1569258336.89832
1569258336.91395
1569258336.92957
1569258336.9452
1569258336.96083
1569258336.97645
1569258336.99208
1569258337.0077
1569258337.02333
1569258337.03895
1569258337.05458
1569258337.07021
1569258337.08583
1569258337.10146
1569258337.11708
1569258337.13271
1569258337.14833
1569258337.16396
1569258337.17959
1569258337.19521
1569258337.21084
1569258337.22646
1569258337.24209
1569258337.25771
1569258337.27334
1569258337.28897
1569258337.30459
1569258337.32022
1569258337.33584
1569258337.35147
1569258337.36709
1569258337.38272
1569258337.39835
1569258337.41397
1569258337.4296
1569258337.44522
1569258337.46085
1569258337.47648
1569258337.4921
1569258337.50773
1569258337.52335
1569258337.53898
1569258337.5546
1569258337.57023
1569258337.58586
1569258337.60148
1569258337.61711
1569258337.63273
1569258337.64836
1569258337.66398
1569258337.67961
1569258337.69524
1569258337.71086
1569258337.72649
1569258337.74211
1569258337.75774
1569258337.77336
1569258337.78899
1569258337.80462
1569258337.82024
1569258337.83587
1569258337.85149
1569258337.86712
1569258337.88274
1569258337.89837
1569258337.914
1569258337.92962
1569258337.94525
1569258337.96087
1569258337.9765
1569258337.99212
1569258338.00775
1569258338.02338
1569258338.039
1569258338.05463
1569258338.07025
1569258338.08588
1569258338.1015
1569258338.11713
1569258338.13276
1569258338.14838
1569258338.16401
1569258338.17963
1569258338.19526
1569258338.21088
1569258338.22651
1569258338.24214
1569258338.25776
1569258338.27339
1569258338.28901
1569258338.30464
1569258338.32026
1569258338.33589
1569258338.35152
1569258338.36714
1569258338.38277
1569258338.39839
1569258338.41402
1569258338.42964
1569258338.44527
1569258338.4609
1569258338.47652
1569258338.49215
1569258338.50777
1569258338.5234
1569258338.53902
1569258338.55465
1569258338.57028
1569258338.5859
1569258338.60153
1569258338.61715
1569258338.63278
1569258338.6484
1569258338.66403
1569258338.67966
1569258338.69528
1569258338.71091
1569258338.72653
1569258338.74216
1569258338.75778
1569258338.77341
1569258338.78904
1569258338.80466
1569258338.82029
1569258338.83591
1569258338.85154
1569258338.86716
1569258338.88279
1569258338.89842
1569258338.91404
1569258338.92967
1569258338.94529
1569258338.96092
1569258338.97654
1569258338.99217
1569258339.0078
1569258339.02342
1569258339.03905
1569258339.05467
1569258339.0703
1569258339.08592
1569258339.10155
1569258339.11718
1569258339.1328
1569258339.14843
1569258339.16405
1569258339.17968
1569258339.1953
1569258339.21093
1569258339.22656
1569258339.24218
1569258339.25781
1569258339.27343
1569258339.28906
1569258339.30468
1569258339.32031
1569258339.33594
1569258339.35156
1569258339.36719
1569258339.38281
1569258339.39844
1569258339.41406
1569258339.42969
1569258339.44532
1569258339.46094
1569258339.47657
1569258339.49219
1569258339.50782
1569258339.52344
1569258339.53907
1569258339.5547
1569258339.57032
1569258339.58595
1569258339.60157
1569258339.6172
1569258339.63282
1569258339.64845
1569258339.66408
1569258339.6797
1569258339.69533
1569258339.71095
1569258339.72658
1569258339.7422
1569258339.75783
1569258339.77346
1569258339.78908
1569258339.80471
1569258339.82033
1569258339.83596
1569258339.85158
1569258339.86721
1569258339.88284
1569258339.89846
1569258339.91409
1569258339.92971
1569258339.94534
1569258339.96096
1569258339.97659
1569258339.99222
1569258340.00784
1569258340.02347
1569258340.03909
1569258340.05472
1569258340.07035
1569258340.08597
1569258340.1016
1569258340.11722
1569258340.13285
1569258340.14847
1569258340.1641
1569258340.17973
1569258340.19535
1569258340.21098
1569258340.2266
1569258340.24223
1569258340.25785
1569258340.27348
1569258340.28911
1569258340.30473
1569258340.32036
1569258340.33598
1569258340.35161
1569258340.36723
1569258340.38286
1569258340.39849
1569258340.41411
1569258340.42974
1569258340.44536
1569258340.46099
1569258340.47661
1569258340.49224
1569258340.50787
1569258340.52349
1569258340.53912
1569258340.55474
1569258340.57037
1569258340.58599
1569258340.60162
1569258340.61725
1569258340.63287
1569258340.6485
1569258340.66412
1569258340.67975
1569258340.69537
1569258340.711
1569258340.72663
1569258340.74225
1569258340.75788
1569258340.7735
1569258340.78913
1569258340.80475
1569258340.82038
1569258340.83601
1569258340.85163
1569258340.86726
1569258340.88288
1569258340.89851
1569258340.91413
1569258340.92976
1569258340.94539
1569258340.96101
1569258340.97664
1569258340.99226
1569258341.00789
1569258341.02351
1569258341.03914
1569258341.05477
1569258341.07039
1569258341.08602
1569258341.10164
1569258341.11727
1569258341.13289
1569258341.14852
1569258341.16415
1569258341.17977
1569258341.1954
1569258341.21102
1569258341.22665
1569258341.24227
1569258341.2579
1569258341.27353
1569258341.28915
1569258341.30478
1569258341.3204
1569258341.33603
1569258341.35165
1569258341.36728
1569258341.38291
1569258341.39853
1569258341.41416
1569258341.42978
1569258341.44541
1569258341.46103
1569258341.47666
1569258341.49229
1569258341.50791
1569258341.52354
1569258341.53916
1569258341.55479
1569258341.57041
1569258341.58604
1569258341.60167
1569258341.61729
1569258341.63292
1569258341.64854
1569258341.66417
1569258341.67979
1569258341.69542
1569258341.71105
1569258341.72667
1569258341.7423
1569258341.75792
1569258341.77355
1569258341.78917
1569258341.8048
1569258341.82043
1569258341.83605
1569258341.85168
1569258341.8673
1569258341.88293
1569258341.89855
1569258341.91418
1569258341.92981
1569258341.94543
1569258341.96106
1569258341.97668
1569258341.99231
1569258342.00793
1569258342.02356
1569258342.03919
1569258342.05481
1569258342.07044
1569258342.08606
1569258342.10169
1569258342.11731
1569258342.13294
1569258342.14857
1569258342.16419
1569258342.17982
1569258342.19544
1569258342.21107
1569258342.22669
1569258342.24232
1569258342.25795
1569258342.27357
1569258342.2892
1569258342.30482
1569258342.32045
1569258342.33608
1569258342.3517
1569258342.36733
1569258342.38295
1569258342.39858
1569258342.4142
1569258342.42983
1569258342.44546
1569258342.46108
1569258342.47671
1569258342.49233
1569258342.50796
1569258342.52358
1569258342.53921
1569258342.55484
1569258342.57046
1569258342.58609
1569258342.60171
1569258342.61734
1569258342.63296
1569258342.64859
1569258342.66422
1569258342.67984
1569258342.69547
1569258342.71109
1569258342.72672
1569258342.74234
1569258342.75797
1569258342.7736
1569258342.78922
1569258342.80485
1569258342.82047
1569258342.8361
1569258342.85172
1569258342.86735
1569258342.88298
1569258342.8986
1569258342.91423
1569258342.92985
1569258342.94548
1569258342.9611
1569258342.97673
1569258342.99236
1569258343.00798
1569258343.02361
1569258343.03923
1569258343.05486
1569258343.07048
1569258343.08611
1569258343.10174
1569258343.11736
1569258343.13299
1569258343.14861
1569258343.16424
1569258343.17986
1569258343.19549
1569258343.21112
1569258343.22674
1569258343.24237
1569258343.25799
1569258343.27362
1569258343.28924
1569258343.30487
1569258343.3205
1569258343.33612
1569258343.35175
1569258343.36737
1569258343.383
1569258343.39862
1569258343.41425
1569258343.42988
1569258343.4455
1569258343.46113
1569258343.47675
1569258343.49238
1569258343.508
1569258343.52363
1569258343.53926
1569258343.55488
1569258343.57051
1569258343.58613
1569258343.60176
1569258343.61738
1569258343.63301
1569258343.64864
1569258343.66426
1569258343.67989
1569258343.69551
1569258343.71114
1569258343.72676
1569258343.74239
1569258343.75802
1569258343.77364
1569258343.78927
1569258343.80489
1569258343.82052
1569258343.83614
1569258343.85177
1569258343.8674
1569258343.88302
1569258343.89865
1569258343.91427
1569258343.9299
1569258343.94552
1569258343.96115
1569258343.97678
1569258343.9924
1569258344.00803
1569258344.02365
1569258344.03928
1569258344.0549
1569258344.07053
1569258344.08616
1569258344.10178
1569258344.11741
1569258344.13303
1569258344.14866
1569258344.16428
1569258344.17991
1569258344.19554
1569258344.21116
1569258344.22679
1569258344.24241
1569258344.25804
1569258344.27366
1569258344.28929
1569258344.30492
1569258344.32054
1569258344.33617
1569258344.35179
1569258344.36742
1569258344.38304
1569258344.39867
1569258344.4143
1569258344.42992
1569258344.44555
1569258344.46117
1569258344.4768
1569258344.49242
1569258344.50805
1569258344.52368
1569258344.5393
1569258344.55493
1569258344.57055
1569258344.58618
1569258344.6018
1569258344.61743
1569258344.63306
1569258344.64868
1569258344.66431
1569258344.67993
1569258344.69556
1569258344.71118
1569258344.72681
1569258344.74244
1569258344.75806
1569258344.77369
1569258344.78931
1569258344.80494
1569258344.82056
1569258344.83619
1569258344.85182
1569258344.86744
1569258344.88307
1569258344.89869
1569258344.91432
1569258344.92995
1569258344.94557
1569258344.9612
1569258344.97682
1569258344.99245
1569258345.00807
1569258345.0237
1569258345.03933
1569258345.05495
1569258345.07058
1569258345.0862
1569258345.10183
1569258345.11745
1569258345.13308
1569258345.14871
1569258345.16433
1569258345.17996
1569258345.19558
1569258345.21121
1569258345.22683
1569258345.24246
1569258345.25809
1569258345.27371
1569258345.28934
1569258345.30496
1569258345.32059
1569258345.33621
1569258345.35184
1569258345.36747
1569258345.38309
1569258345.39872
1569258345.41434
1569258345.42997
1569258345.44559
1569258345.46122
1569258345.47685
1569258345.49247
1569258345.5081
1569258345.52372
1569258345.53935
1569258345.55497
1569258345.5706
1569258345.58623
1569258345.60185
1569258345.61748
1569258345.6331
1569258345.64873
1569258345.66435
1569258345.67998
1569258345.69561
1569258345.71123
1569258345.72686
1569258345.74248
1569258345.75811
1569258345.77373
1569258345.78936
1569258345.80499
1569258345.82061
1569258345.83624
1569258345.85186
1569258345.86749
1569258345.88311
1569258345.89874
1569258345.91437
1569258345.92999
1569258345.94562
1569258345.96124
1569258345.97687
1569258345.99249
1569258346.00812
1569258346.02375
1569258346.03937
1569258346.055
1569258346.07062
1569258346.08625
1569258346.10187
1569258346.1175
1569258346.13313
1569258346.14875
1569258346.16438
1569258346.18
1569258346.19563
1569258346.21125
1569258346.22688
1569258346.24251
1569258346.25813
1569258346.27376
1569258346.28938
1569258346.30501
1569258346.32063
1569258346.33626
1569258346.35189
1569258346.36751
1569258346.38314
1569258346.39876
1569258346.41439
1569258346.43001
1569258346.44564
1569258346.46127
1569258346.47689
1569258346.49252
1569258346.50814
1569258346.52377
1569258346.53939
1569258346.55502
1569258346.57065
1569258346.58627
1569258346.6019
1569258346.61752
1569258346.63315
1569258346.64877
1569258346.6644
1569258346.68003
1569258346.69565
1569258346.71128
1569258346.7269
1569258346.74253
1569258346.75815
1569258346.77378
1569258346.78941
1569258346.80503
1569258346.82066
1569258346.83628
1569258346.85191
1569258346.86753
1569258346.88316
1569258346.89879
1569258346.91441
1569258346.93004
1569258346.94566
1569258346.96129
1569258346.97691
1569258346.99254
1569258347.00817
1569258347.02379
1569258347.03942
1569258347.05504
1569258347.07067
1569258347.08629
1569258347.10192
1569258347.11755
1569258347.13317
1569258347.1488
1569258347.16442
1569258347.18005
1569258347.19568
1569258347.2113
1569258347.22693
1569258347.24255
1569258347.25818
1569258347.2738
1569258347.28943
1569258347.30506
1569258347.32068
1569258347.33631
1569258347.35193
1569258347.36756
1569258347.38318
1569258347.39881
1569258347.41444
1569258347.43006
1569258347.44569
1569258347.46131
1569258347.47694
1569258347.49256
1569258347.50819
1569258347.52382
1569258347.53944
1569258347.55507
1569258347.57069
1569258347.58632
1569258347.60194
1569258347.61757
1569258347.6332
1569258347.64882
1569258347.66445
1569258347.68007
1569258347.6957
1569258347.71132
1569258347.72695
1569258347.74258
1569258347.7582
1569258347.77383
1569258347.78945
1569258347.80508
1569258347.8207
1569258347.83633
1569258347.85196
1569258347.86758
1569258347.88321
1569258347.89883
1569258347.91446
1569258347.93008
1569258347.94571
1569258347.96134
1569258347.97696
1569258347.99259
1569258348.00821
1569258348.02384
1569258348.03946
1569258348.05509
1569258348.07072
1569258348.08634
1569258348.10197
1569258348.11759
1569258348.13322
1569258348.14884
1569258348.16447
1569258348.1801
1569258348.19572
1569258348.21135
1569258348.22697
1569258348.2426
1569258348.25822
1569258348.27385
1569258348.28948
1569258348.3051
1569258348.32073
1569258348.33635
1569258348.35198
1569258348.3676
1569258348.38323
1569258348.39886
1569258348.41448
1569258348.43011
1569258348.44573
1569258348.46136
1569258348.47698
1569258348.49261
1569258348.50824
1569258348.52386
1569258348.53949
1569258348.55511
1569258348.57074
1569258348.58636
1569258348.60199
1569258348.61762
1569258348.63324
1569258348.64887
1569258348.66449
1569258348.68012
1569258348.69574
1569258348.71137
1569258348.727
1569258348.74262
1569258348.75825
1569258348.77387
1569258348.7895
1569258348.80512
1569258348.82075
1569258348.83638
1569258348.852
1569258348.86763
1569258348.88325
1569258348.89888
1569258348.9145
1569258348.93013
1569258348.94576
1569258348.96138
1569258348.97701
1569258348.99263
1569258349.00826
1569258349.02388
1569258349.03951
1569258349.05514
1569258349.07076
1569258349.08639
1569258349.10201
1569258349.11764
1569258349.13326
1569258349.14889
1569258349.16452
1569258349.18014
1569258349.19577
1569258349.21139
1569258349.22702
1569258349.24264
1569258349.25827
1569258349.2739
1569258349.28952
1569258349.30515
1569258349.32077
1569258349.3364
1569258349.35203
1569258349.36765
1569258349.38328
1569258349.3989
1569258349.41453
1569258349.43015
1569258349.44578
1569258349.46141
1569258349.47703
1569258349.49266
1569258349.50828
1569258349.52391
1569258349.53953
1569258349.55516
1569258349.57079
1569258349.58641
1569258349.60204
1569258349.61766
1569258349.63329
1569258349.64891
1569258349.66454
1569258349.68017
1569258349.69579
1569258349.71142
1569258349.72704
1569258349.74267
1569258349.75829
1569258349.77392
1569258349.78955
1569258349.80517
1569258349.8208
1569258349.83642
1569258349.85205
1569258349.86767
1569258349.8833
1569258349.89893
1569258349.91455
1569258349.93018
1569258349.9458
1569258349.96143
1569258349.97705
1569258349.99268
1569258350.00831
1569258350.02393
1569258350.03956
1569258350.05518
1569258350.07081
1569258350.08643
1569258350.10206
1569258350.11769
1569258350.13331
1569258350.14894
1569258350.16456
1569258350.18019
1569258350.19581
1569258350.21144
1569258350.22707
1569258350.24269
1569258350.25832
1569258350.27394
1569258350.28957
1569258350.30519
1569258350.32082
1569258350.33645
1569258350.35207
1569258350.3677
1569258350.38332
1569258350.39895
1569258350.41457
1569258350.4302
1569258350.44583
1569258350.46145
1569258350.47708
1569258350.4927
1569258350.50833
1569258350.52395
1569258350.53958
1569258350.55521
1569258350.57083
1569258350.58646
1569258350.60208
1569258350.61771
1569258350.63333
1569258350.64896
1569258350.66459
1569258350.68021
1569258350.69584
1569258350.71146
1569258350.72709
1569258350.74271
1569258350.75834
1569258350.77397
1569258350.78959
1569258350.80522
1569258350.82084
1569258350.83647
1569258350.85209
1569258350.86772
1569258350.88335
1569258350.89897
1569258350.9146
1569258350.93022
1569258350.94585
1569258350.96147
1569258350.9771
1569258350.99273
1569258351.00835
1569258351.02398
1569258351.0396
1569258351.05523
1569258351.07085
1569258351.08648
1569258351.10211
1569258351.11773
1569258351.13336
1569258351.14898
1569258351.16461
1569258351.18023
1569258351.19586
1569258351.21149
1569258351.22711
1569258351.24274
1569258351.25836
1569258351.27399
1569258351.28961
1569258351.30524
1569258351.32087
1569258351.33649
1569258351.35212
1569258351.36774
1569258351.38337
1569258351.39899
1569258351.41462
1569258351.43025
1569258351.44587
1569258351.4615
1569258351.47712
1569258351.49275
1569258351.50837
1569258351.524
1569258351.53963
1569258351.55525
1569258351.57088
1569258351.5865
1569258351.60213
1569258351.61775
1569258351.63338
1569258351.64901
1569258351.66463
1569258351.68026
1569258351.69588
1569258351.71151
1569258351.72713
1569258351.74276
1569258351.75839
1569258351.77401
1569258351.78964
1569258351.80526
1569258351.82089
1569258351.83651
1569258351.85214
1569258351.86777
1569258351.88339
1569258351.89902
1569258351.91464
1569258351.93027
1569258351.94589
1569258351.96152
1569258351.97715
1569258351.99277
1569258352.0084
1569258352.02402
1569258352.03965
1569258352.05528
1569258352.0709
1569258352.08653
1569258352.10215
1569258352.11778
1569258352.1334
1569258352.14903
1569258352.16466
1569258352.18028
1569258352.19591
1569258352.21153
1569258352.22716
1569258352.24278
1569258352.25841
1569258352.27404
1569258352.28966
1569258352.30529
1569258352.32091
1569258352.33654
1569258352.35216
1569258352.36779
1569258352.38342
1569258352.39904
1569258352.41467
1569258352.43029
1569258352.44592
1569258352.46154
1569258352.47717
1569258352.4928
1569258352.50842
1569258352.52405
1569258352.53967
1569258352.5553
1569258352.57092
1569258352.58655
1569258352.60218
1569258352.6178
1569258352.63343
1569258352.64905
1569258352.66468
1569258352.6803
1569258352.69593
1569258352.71156
1569258352.72718
1569258352.74281
1569258352.75843
1569258352.77406
1569258352.78968
1569258352.80531
1569258352.82094
1569258352.83656
1569258352.85219
1569258352.86781
1569258352.88344
1569258352.89906
1569258352.91469
1569258352.93032
1569258352.94594
1569258352.96157
1569258352.97719
1569258352.99282
1569258353.00844
1569258353.02407
1569258353.0397
1569258353.05532
1569258353.07095
1569258353.08657
1569258353.1022
1569258353.11782
1569258353.13345
1569258353.14908
1569258353.1647
1569258353.18033
1569258353.19595
1569258353.21158
1569258353.2272
1569258353.24283
1569258353.25846
1569258353.27408
1569258353.28971
1569258353.30533
1569258353.32096
1569258353.33658
1569258353.35221
1569258353.36784
1569258353.38346
1569258353.39909
1569258353.41471
1569258353.43034
1569258353.44596
1569258353.46159
1569258353.47722
1569258353.49284
1569258353.50847
1569258353.52409
1569258353.53972
1569258353.55534
1569258353.57097
1569258353.5866
1569258353.60222
1569258353.61785
1569258353.63347
1569258353.6491
1569258353.66472
1569258353.68035
1569258353.69598
1569258353.7116
1569258353.72723
1569258353.74285
1569258353.75848
1569258353.7741
1569258353.78973
1569258353.80536
1569258353.82098
1569258353.83661
1569258353.85223
1569258353.86786
1569258353.88348
1569258353.89911
1569258353.91474
1569258353.93036
1569258353.94599
1569258353.96161
1569258353.97724
1569258353.99286
1569258354.00849
1569258354.02412
1569258354.03974
1569258354.05537
1569258354.07099
1569258354.08662
1569258354.10224
1569258354.11787
1569258354.1335
1569258354.14912
1569258354.16475
1569258354.18037
1569258354.196
1569258354.21162
1569258354.22725
1569258354.24288
1569258354.2585
1569258354.27413
1569258354.28975
1569258354.30538
1569258354.32101
1569258354.33663
1569258354.35226
1569258354.36788
1569258354.38351
1569258354.39913
1569258354.41476
1569258354.43039
1569258354.44601
1569258354.46164
1569258354.47726
1569258354.49289
1569258354.50851
1569258354.52414
1569258354.53977
1569258354.55539
1569258354.57102
1569258354.58664
1569258354.60227
1569258354.61789
1569258354.63352
1569258354.64915
1569258354.66477
1569258354.6804
1569258354.69602
1569258354.71165
1569258354.72727
1569258354.7429
1569258354.75853
1569258354.77415
1569258354.78978
1569258354.8054
1569258354.82103
1569258354.83665
1569258354.85228
1569258354.86791
1569258354.88353
1569258354.89916
1569258354.91478
1569258354.93041
1569258354.94603
1569258354.96166
1569258354.97729
1569258354.99291
1569258355.00854
1569258355.02416
1569258355.03979
1569258355.05541
1569258355.07104
1569258355.08667
1569258355.10229
1569258355.11792
1569258355.13354
1569258355.14917
1569258355.16479
1569258355.18042
1569258355.19605
1569258355.21167
1569258355.2273
1569258355.24292
1569258355.25855
1569258355.27417
1569258355.2898
1569258355.30543
1569258355.32105
1569258355.33668
1569258355.3523
1569258355.36793
1569258355.38355
1569258355.39918
1569258355.41481
1569258355.43043
1569258355.44606
1569258355.46168
1569258355.47731
1569258355.49293
1569258355.50856
1569258355.52419
1569258355.53981
1569258355.55544
1569258355.57106
1569258355.58669
1569258355.60231
1569258355.61794
1569258355.63357
1569258355.64919
1569258355.66482
1569258355.68044
1569258355.69607
1569258355.71169
1569258355.72732
1569258355.74295
1569258355.75857
1569258355.7742
1569258355.78982
1569258355.80545
1569258355.82107
1569258355.8367
1569258355.85233
1569258355.86795
1569258355.88358
1569258355.8992
1569258355.91483
1569258355.93045
1569258355.94608
1569258355.96171
1569258355.97733
1569258355.99296
1569258356.00858
1569258356.02421
1569258356.03983
1569258356.05546
1569258356.07109
1569258356.08671
1569258356.10234
1569258356.11796
1569258356.13359
1569258356.14921
1569258356.16484
1569258356.18047
1569258356.19609
1569258356.21172
1569258356.22734
1569258356.24297
1569258356.25859
1569258356.27422
1569258356.28985
1569258356.30547
1569258356.3211
1569258356.33672
1569258356.35235
1569258356.36797
1569258356.3836
1569258356.39923
1569258356.41485
1569258356.43048
1569258356.4461
1569258356.46173
1569258356.47736
1569258356.49298
1569258356.50861
1569258356.52423
1569258356.53986
1569258356.55548
1569258356.57111
1569258356.58674
1569258356.60236
1569258356.61799
1569258356.63361
1569258356.64924
1569258356.66486
1569258356.68049
1569258356.69612
1569258356.71174
1569258356.72737
1569258356.74299
1569258356.75862
1569258356.77424
1569258356.78987
1569258356.8055
1569258356.82112
1569258356.83675
1569258356.85237
1569258356.868
1569258356.88362
1569258356.89925
1569258356.91488
1569258356.9305
1569258356.94613
1569258356.96175
1569258356.97738
1569258356.993
1569258357.00863
1569258357.02426
1569258357.03988
1569258357.05551
1569258357.07113
1569258357.08676
1569258357.10238
1569258357.11801
1569258357.13364
1569258357.14926
1569258357.16489
1569258357.18051
1569258357.19614
1569258357.21176
1569258357.22739
1569258357.24302
1569258357.25864
1569258357.27427
1569258357.28989
1569258357.30552
1569258357.32114
1569258357.33677
1569258357.3524
1569258357.36802
1569258357.38365
1569258357.39927
1569258357.4149
1569258357.43052
1569258357.44615
1569258357.46178
1569258357.4774
1569258357.49303
1569258357.50865
1569258357.52428
1569258357.5399
1569258357.55553
1569258357.57116
1569258357.58678
1569258357.60241
1569258357.61803
1569258357.63366
1569258357.64928
1569258357.66491
1569258357.68054
1569258357.69616
1569258357.71179
1569258357.72741
1569258357.74304
1569258357.75866
1569258357.77429
1569258357.78992
1569258357.80554
1569258357.82117
1569258357.83679
1569258357.85242
1569258357.86804
1569258357.88367
1569258357.8993
1569258357.91492
1569258357.93055
1569258357.94617
1569258357.9618
1569258357.97742
1569258357.99305
1569258358.00868
1569258358.0243
1569258358.03993
1569258358.05555
1569258358.07118
1569258358.0868
1569258358.10243
1569258358.11806
1569258358.13368
1569258358.14931
1569258358.16493
1569258358.18056
1569258358.19618
1569258358.21181
1569258358.22744
1569258358.24306
1569258358.25869
1569258358.27431
1569258358.28994
1569258358.30556
1569258358.32119
1569258358.33682
1569258358.35244
1569258358.36807
1569258358.38369
1569258358.39932
1569258358.41494
1569258358.43057
1569258358.4462
1569258358.46182
1569258358.47745
1569258358.49307
1569258358.5087
1569258358.52432
1569258358.53995
1569258358.55558
1569258358.5712
1569258358.58683
1569258358.60245
1569258358.61808
1569258358.6337
1569258358.64933
1569258358.66496
1569258358.68058
1569258358.69621
1569258358.71183
1569258358.72746
1569258358.74308
1569258358.75871
1569258358.77434
1569258358.78996
1569258358.80559
1569258358.82121
1569258358.83684
1569258358.85246
1569258358.86809
1569258358.88372
1569258358.89934
1569258358.91497
1569258358.93059
1569258358.94622
1569258358.96184
1569258358.97747
1569258358.9931
1569258359.00872
1569258359.02435
1569258359.03997
1569258359.0556
1569258359.07122
1569258359.08685
1569258359.10248
1569258359.1181
1569258359.13373
1569258359.14935
1569258359.16498
1569258359.18061
1569258359.19623
1569258359.21186
1569258359.22748
1569258359.24311
1569258359.25873
1569258359.27436
1569258359.28999
1569258359.30561
1569258359.32124
1569258359.33686
1569258359.35249
1569258359.36811
1569258359.38374
1569258359.39937
1569258359.41499
1569258359.43062
1569258359.44624
1569258359.46187
1569258359.47749
1569258359.49312
1569258359.50875
1569258359.52437
1569258359.54
1569258359.55562
1569258359.57125
1569258359.58687
1569258359.6025
1569258359.61813
1569258359.63375
1569258359.64938
1569258359.665
1569258359.68063
1569258359.69625
1569258359.71188
1569258359.72751
1569258359.74313
1569258359.75876
1569258359.77438
1569258359.79001
1569258359.80563
1569258359.82126
1569258359.83689
1569258359.85251
1569258359.86814
1569258359.88376
1569258359.89939
1569258359.91501
1569258359.93064
1569258359.94627
1569258359.96189
1569258359.97752
1569258359.99314
1569258360.00877
1569258360.02439
1569258360.04002
1569258360.05565
1569258360.07127
1569258360.0869
1569258360.10252
1569258360.11815
1569258360.13377
1569258360.1494
1569258360.16503
1569258360.18065
1569258360.19628
1569258360.2119
1569258360.22753
1569258360.24315
1569258360.25878
1569258360.27441
1569258360.29003
1569258360.30566
1569258360.32128
1569258360.33691
1569258360.35253
1569258360.36816
1569258360.38379
1569258360.39941
1569258360.41504
1569258360.43066
1569258360.44629
1569258360.46191
1569258360.47754
1569258360.49317
1569258360.50879
1569258360.52442
1569258360.54004
1569258360.55567
1569258360.57129
1569258360.58692
1569258360.60255
1569258360.61817
1569258360.6338
1569258360.64942
1569258360.66505
1569258360.68067
1569258360.6963
1569258360.71193
1569258360.72755
1569258360.74318
1569258360.7588
1569258360.77443
1569258360.79005
1569258360.80568
1569258360.82131
1569258360.83693
1569258360.85256
1569258360.86818
1569258360.88381
1569258360.89943
1569258360.91506
1569258360.93069
1569258360.94631
1569258360.96194
1569258360.97756
1569258360.99319
1569258361.00881
1569258361.02444
1569258361.04007
1569258361.05569
1569258361.07132
1569258361.08694
1569258361.10257
1569258361.11819
1569258361.13382
1569258361.14945
1569258361.16507
1569258361.1807
1569258361.19632
1569258361.21195
1569258361.22757
1569258361.2432
1569258361.25883
1569258361.27445
1569258361.29008
1569258361.3057
1569258361.32133
1569258361.33696
1569258361.35258
1569258361.36821
1569258361.38383
1569258361.39946
1569258361.41508
1569258361.43071
1569258361.44634
1569258361.46196
1569258361.47759
1569258361.49321
1569258361.50884
1569258361.52446
1569258361.54009
1569258361.55572
1569258361.57134
1569258361.58697
1569258361.60259
1569258361.61822
1569258361.63384
1569258361.64947
1569258361.6651
1569258361.68072
1569258361.69635
1569258361.71197
1569258361.7276
1569258361.74322
1569258361.75885
1569258361.77448
1569258361.7901
1569258361.80573
1569258361.82135
1569258361.83698
1569258361.8526
1569258361.86823
1569258361.88386
1569258361.89948
1569258361.91511
1569258361.93073
1569258361.94636
1569258361.96198
1569258361.97761
1569258361.99324
1569258362.00886
1569258362.02449
1569258362.04011
1569258362.05574
1569258362.07136
1569258362.08699
1569258362.10262
1569258362.11824
1569258362.13387
1569258362.14949
1569258362.16512
1569258362.18074
1569258362.19637
1569258362.212
1569258362.22762
1569258362.24325
1569258362.25887
1569258362.2745
1569258362.29012
1569258362.30575
1569258362.32138
1569258362.337
1569258362.35263
1569258362.36825
1569258362.38388
1569258362.3995
1569258362.41513
1569258362.43076
1569258362.44638
1569258362.46201
1569258362.47763
1569258362.49326
1569258362.50888
1569258362.52451
1569258362.54014
1569258362.55576
1569258362.57139
1569258362.58701
1569258362.60264
1569258362.61826
1569258362.63389
1569258362.64952
1569258362.66514
1569258362.68077
1569258362.69639
1569258362.71202
1569258362.72764
1569258362.74327
1569258362.7589
1569258362.77452
1569258362.79015
1569258362.80577
1569258362.8214
1569258362.83702
1569258362.85265
1569258362.86828
1569258362.8839
1569258362.89953
1569258362.91515
1569258362.93078
1569258362.9464
1569258362.96203
1569258362.97766
1569258362.99328
1569258363.00891
1569258363.02453
1569258363.04016
1569258363.05578
1569258363.07141
1569258363.08704
1569258363.10266
1569258363.11829
1569258363.13391
1569258363.14954
1569258363.16516
1569258363.18079
1569258363.19642
1569258363.21204
1569258363.22767
1569258363.24329
1569258363.25892
1569258363.27454
1569258363.29017
1569258363.3058
1569258363.32142
1569258363.33705
1569258363.35267
1569258363.3683
1569258363.38392
1569258363.39955
1569258363.41518
1569258363.4308
1569258363.44643
1569258363.46205
1569258363.47768
1569258363.4933
1569258363.50893
1569258363.52456
1569258363.54018
1569258363.55581
1569258363.57143
1569258363.58706
1569258363.60268
1569258363.61831
1569258363.63394
1569258363.64956
1569258363.66519
1569258363.68081
1569258363.69644
1569258363.71206
1569258363.72769
1569258363.74332
1569258363.75894
1569258363.77457
1569258363.79019
1569258363.80582
1569258363.82144
1569258363.83707
1569258363.8527
1569258363.86832
1569258363.88395
1569258363.89957
1569258363.9152
1569258363.93083
1569258363.94645
1569258363.96208
1569258363.9777
1569258363.99333
1569258364.00895
1569258364.02458
1569258364.04021
1569258364.05583
1569258364.07146
1569258364.08708
1569258364.10271
1569258364.11833
1569258364.13396
1569258364.14959
1569258364.16521
1569258364.18084
1569258364.19646
1569258364.21209
1569258364.22771
1569258364.24334
1569258364.25897
1569258364.27459
1569258364.29022
1569258364.30584
1569258364.32147
1569258364.33709
1569258364.35272
1569258364.36835
1569258364.38397
1569258364.3996
1569258364.41522
1569258364.43085
1569258364.44647
1569258364.4621
1569258364.47773
1569258364.49335
1569258364.50898
1569258364.5246
1569258364.54023
1569258364.55585
1569258364.57148
1569258364.58711
1569258364.60273
1569258364.61836
1569258364.63398
1569258364.64961
1569258364.66523
1569258364.68086
1569258364.69649
1569258364.71211
1569258364.72774
1569258364.74336
1569258364.75899
1569258364.77461
1569258364.79024
1569258364.80587
1569258364.82149
1569258364.83712
1569258364.85274
1569258364.86837
1569258364.88399
1569258364.89962
1569258364.91525
1569258364.93087
1569258364.9465
1569258364.96212
1569258364.97775
1569258364.99337
1569258365.009
1569258365.02463
1569258365.04025
1569258365.05588
1569258365.0715
1569258365.08713
1569258365.10275
1569258365.11838
1569258365.13401
1569258365.14963
1569258365.16526
1569258365.18088
1569258365.19651
1569258365.21213
1569258365.22776
1569258365.24339
1569258365.25901
1569258365.27464
1569258365.29026
1569258365.30589
1569258365.32151
1569258365.33714
1569258365.35277
1569258365.36839
1569258365.38402
1569258365.39964
1569258365.41527
1569258365.43089
1569258365.44652
1569258365.46215
1569258365.47777
1569258365.4934
1569258365.50902
1569258365.52465
1569258365.54027
1569258365.5559
1569258365.57153
1569258365.58715
1569258365.60278
1569258365.6184
1569258365.63403
1569258365.64965
1569258365.66528
1569258365.68091
1569258365.69653
1569258365.71216
1569258365.72778
1569258365.74341
1569258365.75903
1569258365.77466
1569258365.79029
1569258365.80591
1569258365.82154
1569258365.83716
1569258365.85279
1569258365.86841
1569258365.88404
1569258365.89967
1569258365.91529
1569258365.93092
1569258365.94654
1569258365.96217
1569258365.97779
1569258365.99342
1569258366.00905
1569258366.02467
1569258366.0403
1569258366.05592
1569258366.07155
1569258366.08717
1569258366.1028
1569258366.11843
1569258366.13405
1569258366.14968
1569258366.1653
1569258366.18093
1569258366.19656
1569258366.21218
1569258366.22781
1569258366.24343
1569258366.25906
1569258366.27468
1569258366.29031
1569258366.30594
1569258366.32156
1569258366.33719
1569258366.35281
1569258366.36844
1569258366.38406
1569258366.39969
1569258366.41532
1569258366.43094
1569258366.44657
1569258366.46219
1569258366.47782
1569258366.49344
1569258366.50907
1569258366.5247
1569258366.54032
1569258366.55595
1569258366.57157
1569258366.5872
1569258366.60282
1569258366.61845
1569258366.63408
1569258366.6497
1569258366.66533
1569258366.68095
1569258366.69658
1569258366.7122
1569258366.72783
1569258366.74346
1569258366.75908
1569258366.77471
1569258366.79033
1569258366.80596
1569258366.82158
1569258366.83721
1569258366.85284
1569258366.86846
1569258366.88409
1569258366.89971
1569258366.91534
1569258366.93096
1569258366.94659
1569258366.96222
1569258366.97784
1569258366.99347
1569258367.00909
1569258367.02472
1569258367.04034
1569258367.05597
1569258367.0716
1569258367.08722
1569258367.10285
1569258367.11847
1569258367.1341
1569258367.14972
1569258367.16535
1569258367.18098
1569258367.1966
1569258367.21223
1569258367.22785
1569258367.24348
1569258367.2591
1569258367.27473
1569258367.29036
1569258367.30598
1569258367.32161
1569258367.33723
1569258367.35286
1569258367.36848
1569258367.38411
1569258367.39974
1569258367.41536
1569258367.43099
1569258367.44661
1569258367.46224
1569258367.47786
1569258367.49349
1569258367.50912
1569258367.52474
1569258367.54037
1569258367.55599
1569258367.57162
1569258367.58724
1569258367.60287
1569258367.6185
1569258367.63412
1569258367.64975
1569258367.66537
1569258367.681
1569258367.69662
1569258367.71225
1569258367.72788
1569258367.7435
1569258367.75913
1569258367.77475
1569258367.79038
1569258367.806
1569258367.82163
1569258367.83726
1569258367.85288
1569258367.86851
1569258367.88413
1569258367.89976
1569258367.91538
1569258367.93101
1569258367.94664
1569258367.96226
1569258367.97789
1569258367.99351
1569258368.00914
1569258368.02476
1569258368.04039
1569258368.05602
1569258368.07164
1569258368.08727
1569258368.10289
1569258368.11852
1569258368.13414
1569258368.14977
1569258368.1654
1569258368.18102
1569258368.19665
1569258368.21227
1569258368.2279
1569258368.24352
1569258368.25915
1569258368.27478
1569258368.2904
1569258368.30603
1569258368.32165
1569258368.33728
1569258368.3529
1569258368.36853
1569258368.38416
1569258368.39978
1569258368.41541
1569258368.43103
1569258368.44666
1569258368.46229
1569258368.47791
1569258368.49354
1569258368.50916
1569258368.52479
1569258368.54041
1569258368.55604
1569258368.57167
1569258368.58729
1569258368.60292
1569258368.61854
1569258368.63417
1569258368.64979
1569258368.66542
1569258368.68105
1569258368.69667
1569258368.7123
1569258368.72792
1569258368.74355
1569258368.75917
1569258368.7748
1569258368.79043
1569258368.80605
1569258368.82168
1569258368.8373
1569258368.85293
1569258368.86855
1569258368.88418
1569258368.89981
1569258368.91543
1569258368.93106
1569258368.94668
1569258368.96231
1569258368.97793
1569258368.99356
1569258369.00919
1569258369.02481
1569258369.04044
1569258369.05606
1569258369.07169
1569258369.08731
1569258369.10294
1569258369.11857
1569258369.13419
1569258369.14982
1569258369.16544
1569258369.18107
1569258369.19669
1569258369.21232
1569258369.22795
1569258369.24357
1569258369.2592
1569258369.27482
1569258369.29045
1569258369.30607
1569258369.3217
1569258369.33733
1569258369.35295
1569258369.36858
1569258369.3842
1569258369.39983
1569258369.41545
1569258369.43108
1569258369.44671
1569258369.46233
1569258369.47796
1569258369.49358
1569258369.50921
1569258369.52483
1569258369.54046
1569258369.55609
1569258369.57171
1569258369.58734
1569258369.60296
1569258369.61859
1569258369.63421
1569258369.64984
1569258369.66547
1569258369.68109
1569258369.69672
1569258369.71234
1569258369.72797
1569258369.74359
1569258369.75922
1569258369.77485
1569258369.79047
1569258369.8061
1569258369.82172
1569258369.83735
1569258369.85297
1569258369.8686
1569258369.88423
1569258369.89985
1569258369.91548
1569258369.9311
1569258369.94673
1569258369.96235
1569258369.97798
1569258369.99361
1569258370.00923
1569258370.02486
1569258370.04048
1569258370.05611
1569258370.07173
1569258370.08736
1569258370.10299
1569258370.11861
1569258370.13424
1569258370.14986
1569258370.16549
1569258370.18111
1569258370.19674
1569258370.21237
1569258370.22799
1569258370.24362
1569258370.25924
1569258370.27487
1569258370.29049
1569258370.30612
1569258370.32175
1569258370.33737
1569258370.353
1569258370.36862
1569258370.38425
1569258370.39987
1569258370.4155
1569258370.43113
1569258370.44675
1569258370.46238
1569258370.478
1569258370.49363
1569258370.50925
1569258370.52488
1569258370.54051
1569258370.55613
1569258370.57176
1569258370.58738
1569258370.60301
1569258370.61863
1569258370.63426
1569258370.64989
1569258370.66551
1569258370.68114
1569258370.69676
1569258370.71239
1569258370.72801
1569258370.74364
1569258370.75927
1569258370.77489
1569258370.79052
1569258370.80614
1569258370.82177
1569258370.83739
1569258370.85302
1569258370.86865
1569258370.88427
1569258370.8999
1569258370.91552
1569258370.93115
1569258370.94677
1569258370.9624
1569258370.97803
1569258370.99365
1569258371.00928
1569258371.0249
1569258371.04053
1569258371.05616
1569258371.07178
1569258371.08741
1569258371.10303
1569258371.11866
1569258371.13428
1569258371.14991
1569258371.16554
1569258371.18116
1569258371.19679
1569258371.21241
1569258371.22804
1569258371.24366
1569258371.25929
1569258371.27492
1569258371.29054
1569258371.30617
1569258371.32179
1569258371.33742
1569258371.35304
1569258371.36867
1569258371.3843
1569258371.39992
1569258371.41555
1569258371.43117
1569258371.4468
1569258371.46242
1569258371.47805
1569258371.49368
1569258371.5093
1569258371.52493
1569258371.54055
1569258371.55618
1569258371.5718
1569258371.58743
1569258371.60306
1569258371.61868
1569258371.63431
1569258371.64993
1569258371.66556
1569258371.68118
1569258371.69681
1569258371.71244
1569258371.72806
1569258371.74369
1569258371.75931
1569258371.77494
1569258371.79056
1569258371.80619
1569258371.82182
1569258371.83744
1569258371.85307
1569258371.86869
1569258371.88432
1569258371.89994
1569258371.91557
1569258371.9312
1569258371.94682
1569258371.96245
1569258371.97807
1569258371.9937
1569258372.00932
1569258372.02495
1569258372.04058
1569258372.0562
1569258372.07183
1569258372.08745
1569258372.10308
1569258372.1187
1569258372.13433
1569258372.14996
1569258372.16558
1569258372.18121
1569258372.19683
1569258372.21246
1569258372.22808
1569258372.24371
1569258372.25934
1569258372.27496
1569258372.29059
1569258372.30621
1569258372.32184
1569258372.33746
1569258372.35309
1569258372.36872
1569258372.38434
1569258372.39997
1569258372.41559
1569258372.43122
1569258372.44684
1569258372.46247
1569258372.4781
1569258372.49372
1569258372.50935
1569258372.52497
1569258372.5406
1569258372.55622
1569258372.57185
1569258372.58748
1569258372.6031
1569258372.61873
1569258372.63435
1569258372.64998
1569258372.6656
1569258372.68123
1569258372.69686
1569258372.71248
1569258372.72811
1569258372.74373
1569258372.75936
1569258372.77498
1569258372.79061
1569258372.80624
1569258372.82186
1569258372.83749
1569258372.85311
1569258372.86874
1569258372.88436
1569258372.89999
1569258372.91562
1569258372.93124
1569258372.94687
1569258372.96249
1569258372.97812
1569258372.99374
1569258373.00937
1569258373.025
1569258373.04062
1569258373.05625
1569258373.07187
1569258373.0875
1569258373.10312
1569258373.11875
1569258373.13438
1569258373.15
1569258373.16563
1569258373.18125
1569258373.19688
1569258373.2125
1569258373.22813
1569258373.24376
1569258373.25938
1569258373.27501
1569258373.29063
1569258373.30626
1569258373.32189
1569258373.33751
1569258373.35314
1569258373.36876
1569258373.38439
1569258373.40001
1569258373.41564
1569258373.43127
1569258373.44689
1569258373.46252
1569258373.47814
1569258373.49377
1569258373.50939
1569258373.52502
1569258373.54065
1569258373.55627
1569258373.5719
1569258373.58752
1569258373.60315
1569258373.61877
1569258373.6344
1569258373.65003
1569258373.66565
1569258373.68128
1569258373.6969
1569258373.71253
1569258373.72815
1569258373.74378
1569258373.75941
1569258373.77503
1569258373.79066
1569258373.80628
1569258373.82191
1569258373.83753
1569258373.85316
1569258373.86879
1569258373.88441
1569258373.90004
1569258373.91566
1569258373.93129
1569258373.94691
1569258373.96254
1569258373.97817
1569258373.99379
1569258374.00942
1569258374.02504
1569258374.04067
1569258374.05629
1569258374.07192
1569258374.08755
1569258374.10317
1569258374.1188
1569258374.13442
1569258374.15005
1569258374.16567
1569258374.1813
1569258374.19693
1569258374.21255
1569258374.22818
1569258374.2438
1569258374.25943
1569258374.27505
1569258374.29068
1569258374.30631
1569258374.32193
1569258374.33756
1569258374.35318
1569258374.36881
1569258374.38443
1569258374.40006
1569258374.41569
1569258374.43131
1569258374.44694
1569258374.46256
1569258374.47819
1569258374.49381
1569258374.50944
1569258374.52507
1569258374.54069
1569258374.55632
1569258374.57194
1569258374.58757
1569258374.60319
1569258374.61882
1569258374.63445
1569258374.65007
1569258374.6657
1569258374.68132
1569258374.69695
1569258374.71257
1569258374.7282
1569258374.74383
1569258374.75945
1569258374.77508
1569258374.7907
1569258374.80633
1569258374.82195
1569258374.83758
1569258374.85321
1569258374.86883
1569258374.88446
1569258374.90008
1569258374.91571
1569258374.93133
1569258374.94696
1569258374.96259
1569258374.97821
1569258374.99384
1569258375.00946
1569258375.02509
1569258375.04071
1569258375.05634
1569258375.07197
1569258375.08759
1569258375.10322
1569258375.11884
1569258375.13447
1569258375.15009
1569258375.16572
1569258375.18135
1569258375.19697
1569258375.2126
1569258375.22822
1569258375.24385
1569258375.25947
1569258375.2751
1569258375.29073
1569258375.30635
1569258375.32198
1569258375.3376
1569258375.35323
1569258375.36885
1569258375.38448
1569258375.40011
1569258375.41573
1569258375.43136
1569258375.44698
1569258375.46261
1569258375.47824
1569258375.49386
1569258375.50949
1569258375.52511
1569258375.54074
1569258375.55636
1569258375.57199
1569258375.58762
1569258375.60324
1569258375.61887
1569258375.63449
1569258375.65012
1569258375.66574
1569258375.68137
1569258375.697
1569258375.71262
1569258375.72825
1569258375.74387
1569258375.7595
1569258375.77512
1569258375.79075
1569258375.80638
1569258375.822
1569258375.83763
1569258375.85325
1569258375.86888
1569258375.8845
1569258375.90013
1569258375.91576
1569258375.93138
1569258375.94701
1569258375.96263
1569258375.97826
1569258375.99388
1569258376.00951
1569258376.02514
1569258376.04076
1569258376.05639
1569258376.07201
1569258376.08764
1569258376.10326
1569258376.11889
1569258376.13452
1569258376.15014
1569258376.16577
1569258376.18139
1569258376.19702
1569258376.21264
1569258376.22827
1569258376.2439
1569258376.25952
1569258376.27515
1569258376.29077
1569258376.3064
1569258376.32202
1569258376.33765
1569258376.35328
1569258376.3689
1569258376.38453
1569258376.40015
1569258376.41578
1569258376.4314
1569258376.44703
1569258376.46266
1569258376.47828
1569258376.49391
1569258376.50953
1569258376.52516
1569258376.54078
1569258376.55641
1569258376.57204
1569258376.58766
1569258376.60329
1569258376.61891
1569258376.63454
1569258376.65016
1569258376.66579
1569258376.68142
1569258376.69704
1569258376.71267
1569258376.72829
1569258376.74392
1569258376.75954
1569258376.77517
1569258376.7908
1569258376.80642
1569258376.82205
1569258376.83767
1569258376.8533
1569258376.86892
1569258376.88455
1569258376.90018
1569258376.9158
1569258376.93143
1569258376.94705
1569258376.96268
1569258376.9783
1569258376.99393
1569258377.00956
1569258377.02518
1569258377.04081
1569258377.05643
1569258377.07206
1569258377.08768
1569258377.10331
1569258377.11894
1569258377.13456
1569258377.15019
1569258377.16581
1569258377.18144
1569258377.19706
1569258377.21269
1569258377.22832
1569258377.24394
1569258377.25957
1569258377.27519
1569258377.29082
1569258377.30644
1569258377.32207
1569258377.3377
1569258377.35332
1569258377.36895
1569258377.38457
1569258377.4002
1569258377.41582
1569258377.43145
1569258377.44708
1569258377.4627
1569258377.47833
1569258377.49395
1569258377.50958
1569258377.5252
1569258377.54083
1569258377.55646
1569258377.57208
1569258377.58771
1569258377.60333
1569258377.61896
1569258377.63458
1569258377.65021
1569258377.66584
1569258377.68146
1569258377.69709
1569258377.71271
1569258377.72834
1569258377.74396
1569258377.75959
1569258377.77522
1569258377.79084
1569258377.80647
1569258377.82209
1569258377.83772
1569258377.85334
1569258377.86897
1569258377.8846
1569258377.90022
1569258377.91585
1569258377.93147
1569258377.9471
1569258377.96272
1569258377.97835
1569258377.99398
1569258378.0096
1569258378.02523
1569258378.04085
1569258378.05648
1569258378.0721
1569258378.08773
1569258378.10336
1569258378.11898
1569258378.13461
1569258378.15023
1569258378.16586
1569258378.18149
1569258378.19711
1569258378.21274
1569258378.22836
1569258378.24399
1569258378.25961
1569258378.27524
1569258378.29087
1569258378.30649
1569258378.32212
1569258378.33774
1569258378.35337
1569258378.36899
1569258378.38462
1569258378.40025
1569258378.41587
1569258378.4315
1569258378.44712
1569258378.46275
1569258378.47837
1569258378.494
1569258378.50963
1569258378.52525
1569258378.54088
1569258378.5565
1569258378.57213
1569258378.58775
1569258378.60338
1569258378.61901
1569258378.63463
1569258378.65026
1569258378.66588
1569258378.68151
1569258378.69713
1569258378.71276
1569258378.72839
1569258378.74401
1569258378.75964
1569258378.77526
1569258378.79089
1569258378.80651
1569258378.82214
1569258378.83777
1569258378.85339
1569258378.86902
1569258378.88464
1569258378.90027
1569258378.91589
1569258378.93152
1569258378.94715
1569258378.96277
1569258378.9784
1569258378.99402
1569258379.00965
1569258379.02527
1569258379.0409
1569258379.05653
1569258379.07215
1569258379.08778
1569258379.1034
1569258379.11903
1569258379.13465
1569258379.15028
1569258379.16591
1569258379.18153
1569258379.19716
1569258379.21278
1569258379.22841
1569258379.24403
1569258379.25966
1569258379.27529
1569258379.29091
1569258379.30654
1569258379.32216
1569258379.33779
1569258379.35341
1569258379.36904
1569258379.38467
1569258379.40029
1569258379.41592
1569258379.43154
1569258379.44717
1569258379.46279
1569258379.47842
1569258379.49405
1569258379.50967
1569258379.5253
1569258379.54092
1569258379.55655
1569258379.57217
1569258379.5878
1569258379.60343
1569258379.61905
1569258379.63468
1569258379.6503
1569258379.66593
1569258379.68155
1569258379.69718
1569258379.71281
1569258379.72843
1569258379.74406
1569258379.75968
1569258379.77531
1569258379.79093
1569258379.80656
1569258379.82219
1569258379.83781
1569258379.85344
1569258379.86906
1569258379.88469
1569258379.90031
1569258379.91594
1569258379.93157
1569258379.94719
1569258379.96282
1569258379.97844
1569258379.99407
1569258380.00969
1569258380.02532
1569258380.04095
1569258380.05657
1569258380.0722
1569258380.08782
1569258380.10345
1569258380.11907
1569258380.1347
1569258380.15033
1569258380.16595
1569258380.18158
1569258380.1972
1569258380.21283
1569258380.22845
1569258380.24408
1569258380.25971
1569258380.27533
1569258380.29096
1569258380.30658
1569258380.32221
1569258380.33784
1569258380.35346
1569258380.36909
1569258380.38471
1569258380.40034
1569258380.41596
1569258380.43159
1569258380.44722
1569258380.46284
1569258380.47847
1569258380.49409
1569258380.50972
1569258380.52534
1569258380.54097
1569258380.5566
1569258380.57222
1569258380.58785
1569258380.60347
1569258380.6191
1569258380.63472
1569258380.65035
1569258380.66598
1569258380.6816
1569258380.69723
1569258380.71285
1569258380.72848
1569258380.7441
1569258380.75973
1569258380.77536
1569258380.79098
1569258380.80661
1569258380.82223
1569258380.83786
1569258380.85348
1569258380.86911
1569258380.88474
1569258380.90036
1569258380.91599
1569258380.93161
1569258380.94724
1569258380.96286
1569258380.97849
1569258380.99412
1569258381.00974
1569258381.02537
1569258381.04099
1569258381.05662
1569258381.07224
1569258381.08787
1569258381.1035
1569258381.11912
1569258381.13475
1569258381.15037
1569258381.166
1569258381.18162
1569258381.19725
1569258381.21288
1569258381.2285
1569258381.24413
1569258381.25975
1569258381.27538
1569258381.291
1569258381.30663
1569258381.32226
1569258381.33788
1569258381.35351
1569258381.36913
1569258381.38476
1569258381.40038
1569258381.41601
1569258381.43164
1569258381.44726
1569258381.46289
1569258381.47851
1569258381.49414
1569258381.50976
1569258381.52539
1569258381.54102
1569258381.55664
1569258381.57227
1569258381.58789
1569258381.60352
1569258381.61914
1569258381.63477
1569258381.6504
1569258381.66602
1569258381.68165
1569258381.69727
1569258381.7129
1569258381.72852
1569258381.74415
1569258381.75978
1569258381.7754
1569258381.79103
1569258381.80665
1569258381.82228
1569258381.8379
1569258381.85353
1569258381.86916
1569258381.88478
1569258381.90041
1569258381.91603
1569258381.93166
1569258381.94728
1569258381.96291
1569258381.97854
1569258381.99416
1569258382.00979
1569258382.02541
1569258382.04104
1569258382.05666
1569258382.07229
1569258382.08792
1569258382.10354
1569258382.11917
1569258382.13479
1569258382.15042
1569258382.16604
1569258382.18167
1569258382.1973
1569258382.21292
1569258382.22855
1569258382.24417
1569258382.2598
1569258382.27542
1569258382.29105
1569258382.30668
1569258382.3223
1569258382.33793
1569258382.35355
1569258382.36918
1569258382.3848
1569258382.40043
1569258382.41606
1569258382.43168
1569258382.44731
1569258382.46293
1569258382.47856
1569258382.49418
1569258382.50981
1569258382.52544
1569258382.54106
1569258382.55669
1569258382.57231
1569258382.58794
1569258382.60356
1569258382.61919
1569258382.63482
1569258382.65044
1569258382.66607
1569258382.68169
1569258382.69732
1569258382.71294
1569258382.72857
1569258382.7442
1569258382.75982
1569258382.77545
1569258382.79107
1569258382.8067
1569258382.82232
1569258382.83795
1569258382.85358
1569258382.8692
1569258382.88483
1569258382.90045
1569258382.91608
1569258382.93171
1569258382.94733
1569258382.96296
1569258382.97858
1569258382.99421
1569258383.00983
1569258383.02546
1569258383.04109
1569258383.05671
1569258383.07234
1569258383.08796
1569258383.10359
1569258383.11921
1569258383.13484
1569258383.15047
1569258383.16609
1569258383.18172
1569258383.19734
1569258383.21297
1569258383.22859
1569258383.24422
1569258383.25985
1569258383.27547
1569258383.2911
1569258383.30672
1569258383.32235
1569258383.33797
1569258383.3536
1569258383.36923
1569258383.38485
1569258383.40048
1569258383.4161
1569258383.43173
1569258383.44735
1569258383.46298
1569258383.47861
1569258383.49423
1569258383.50986
1569258383.52548
1569258383.54111
1569258383.55673
1569258383.57236
1569258383.58799
1569258383.60361
1569258383.61924
1569258383.63486
1569258383.65049
1569258383.66611
1569258383.68174
1569258383.69737
1569258383.71299
1569258383.72862
1569258383.74424
1569258383.75987
1569258383.77549
1569258383.79112
1569258383.80675
1569258383.82237
1569258383.838
1569258383.85362
1569258383.86925
1569258383.88487
1569258383.9005
1569258383.91613
1569258383.93175
1569258383.94738
1569258383.963
1569258383.97863
1569258383.99425
1569258384.00988
1569258384.02551
1569258384.04113
1569258384.05676
1569258384.07238
1569258384.08801
1569258384.10363
1569258384.11926
1569258384.13489
1569258384.15051
1569258384.16614
1569258384.18176
1569258384.19739
1569258384.21301
1569258384.22864
1569258384.24427
1569258384.25989
1569258384.27552
1569258384.29114
1569258384.30677
1569258384.32239
1569258384.33802
1569258384.35365
1569258384.36927
1569258384.3849
1569258384.40052
1569258384.41615
1569258384.43177
1569258384.4474
1569258384.46303
1569258384.47865
1569258384.49428
1569258384.5099
1569258384.52553
1569258384.54115
1569258384.55678
1569258384.57241
1569258384.58803
1569258384.60366
1569258384.61928
1569258384.63491
1569258384.65053
1569258384.66616
1569258384.68179
1569258384.69741
1569258384.71304
1569258384.72866
1569258384.74429
1569258384.75991
1569258384.77554
1569258384.79117
1569258384.80679
1569258384.82242
1569258384.83804
1569258384.85367
1569258384.86929
1569258384.88492
1569258384.90055
1569258384.91617
1569258384.9318
1569258384.94742
1569258384.96305
1569258384.97867
1569258384.9943
1569258385.00993
1569258385.02555
1569258385.04118
1569258385.0568
1569258385.07243
1569258385.08805
1569258385.10368
1569258385.11931
1569258385.13493
1569258385.15056
1569258385.16618
1569258385.18181
1569258385.19743
1569258385.21306
1569258385.22869
1569258385.24431
1569258385.25994
1569258385.27556
1569258385.29119
1569258385.30682
1569258385.32244
1569258385.33807
1569258385.35369
1569258385.36932
1569258385.38494
1569258385.40057
1569258385.4162
1569258385.43182
1569258385.44745
1569258385.46307
1569258385.4787
1569258385.49432
1569258385.50995
1569258385.52558
1569258385.5412
1569258385.55683
1569258385.57245
1569258385.58808
1569258385.6037
1569258385.61933
1569258385.63496
1569258385.65058
1569258385.66621
1569258385.68183
1569258385.69746
1569258385.71308
1569258385.72871
1569258385.74434
1569258385.75996
1569258385.77559
1569258385.79121
1569258385.80684
1569258385.82246
1569258385.83809
1569258385.85372
1569258385.86934
1569258385.88497
1569258385.90059
1569258385.91622
1569258385.93184
1569258385.94747
1569258385.9631
1569258385.97872
1569258385.99435
1569258386.00997
1569258386.0256
1569258386.04122
1569258386.05685
1569258386.07248
1569258386.0881
1569258386.10373
1569258386.11935
1569258386.13498
1569258386.1506
1569258386.16623
1569258386.18186
1569258386.19748
1569258386.21311
1569258386.22873
1569258386.24436
1569258386.25998
1569258386.27561
1569258386.29124
1569258386.30686
1569258386.32249
1569258386.33811
1569258386.35374
1569258386.36936
1569258386.38499
1569258386.40062
1569258386.41624
1569258386.43187
1569258386.44749
1569258386.46312
1569258386.47874
1569258386.49437
1569258386.51
1569258386.52562
1569258386.54125
1569258386.55687
1569258386.5725
1569258386.58812
1569258386.60375
1569258386.61938
1569258386.635
1569258386.65063
1569258386.66625
1569258386.68188
1569258386.6975
1569258386.71313
1569258386.72876
1569258386.74438
1569258386.76001
1569258386.77563
1569258386.79126
1569258386.80688
1569258386.82251
1569258386.83814
1569258386.85376
1569258386.86939
1569258386.88501
1569258386.90064
1569258386.91626
1569258386.93189
1569258386.94752
1569258386.96314
1569258386.97877
1569258386.99439
1569258387.01002
1569258387.02564
1569258387.04127
1569258387.0569
1569258387.07252
1569258387.08815
1569258387.10377
1569258387.1194
1569258387.13502
1569258387.15065
1569258387.16628
1569258387.1819
1569258387.19753
1569258387.21315
1569258387.22878
1569258387.2444
1569258387.26003
1569258387.27566
1569258387.29128
1569258387.30691
1569258387.32253
1569258387.33816
1569258387.35378
1569258387.36941
1569258387.38504
1569258387.40066
1569258387.41629
1569258387.43191
1569258387.44754
1569258387.46317
1569258387.47879
1569258387.49442
1569258387.51004
1569258387.52567
1569258387.54129
1569258387.55692
1569258387.57255
1569258387.58817
1569258387.6038
1569258387.61942
1569258387.63505
1569258387.65067
1569258387.6663
1569258387.68193
1569258387.69755
1569258387.71318
1569258387.7288
1569258387.74443
1569258387.76005
1569258387.77568
1569258387.79131
1569258387.80693
1569258387.82256
1569258387.83818
1569258387.85381
1569258387.86943
1569258387.88506
1569258387.90069
1569258387.91631
1569258387.93194
1569258387.94756
1569258387.96319
1569258387.97881
1569258387.99444
1569258388.01007
1569258388.02569
1569258388.04132
1569258388.05694
1569258388.07257
1569258388.08819
1569258388.10382
1569258388.11945
1569258388.13507
1569258388.1507
1569258388.16632
1569258388.18195
1569258388.19757
1569258388.2132
1569258388.22883
1569258388.24445
1569258388.26008
1569258388.2757
1569258388.29133
1569258388.30695
1569258388.32258
1569258388.33821
1569258388.35383
1569258388.36946
1569258388.38508
1569258388.40071
1569258388.41633
1569258388.43196
1569258388.44759
1569258388.46321
1569258388.47884
1569258388.49446
1569258388.51009
1569258388.52571
1569258388.54134
1569258388.55697
1569258388.57259
1569258388.58822
1569258388.60384
1569258388.61947
1569258388.63509
1569258388.65072
1569258388.66635
1569258388.68197
1569258388.6976
1569258388.71322
1569258388.72885
1569258388.74447
1569258388.7601
1569258388.77573
1569258388.79135
1569258388.80698
1569258388.8226
1569258388.83823
1569258388.85385
1569258388.86948
1569258388.88511
1569258388.90073
1569258388.91636
1569258388.93198
1569258388.94761
1569258388.96323
1569258388.97886
1569258388.99449
1569258389.01011
1569258389.02574
1569258389.04136
1569258389.05699
1569258389.07261
1569258389.08824
1569258389.10387
1569258389.11949
1569258389.13512
1569258389.15074
1569258389.16637
1569258389.18199
1569258389.19762
1569258389.21325
1569258389.22887
1569258389.2445
1569258389.26012
1569258389.27575
1569258389.29137
1569258389.307
1569258389.32263
1569258389.33825
1569258389.35388
1569258389.3695
1569258389.38513
1569258389.40075
1569258389.41638
1569258389.43201
1569258389.44763
1569258389.46326
1569258389.47888
1569258389.49451
1569258389.51013
1569258389.52576
1569258389.54139
1569258389.55701
1569258389.57264
1569258389.58826
1569258389.60389
1569258389.61951
1569258389.63514
1569258389.65077
1569258389.66639
1569258389.68202
1569258389.69764
1569258389.71327
1569258389.72889
1569258389.74452
1569258389.76015
1569258389.77577
1569258389.7914
1569258389.80702
1569258389.82265
1569258389.83827
1569258389.8539
1569258389.86953
1569258389.88515
1569258389.90078
1569258389.9164
1569258389.93203
1569258389.94765
1569258389.96328
1569258389.97891
1569258389.99453
1569258390.01016
1569258390.02578
1569258390.04141
1569258390.05703
1569258390.07266
1569258390.08829
1569258390.10391
1569258390.11954
1569258390.13516
1569258390.15079
1569258390.16642
1569258390.18204
1569258390.19767
1569258390.21329
1569258390.22892
1569258390.24454
1569258390.26017
1569258390.2758
1569258390.29142
1569258390.30705
1569258390.32267
1569258390.3383
1569258390.35392
1569258390.36955
1569258390.38518
1569258390.4008
1569258390.41643
1569258390.43205
1569258390.44768
1569258390.4633
1569258390.47893
1569258390.49456
1569258390.51018
1569258390.52581
1569258390.54143
1569258390.55706
1569258390.57268
1569258390.58831
1569258390.60394
1569258390.61956
1569258390.63519
1569258390.65081
1569258390.66644
1569258390.68206
1569258390.69769
1569258390.71332
1569258390.72894
1569258390.74457
1569258390.76019
1569258390.77582
1569258390.79144
1569258390.80707
1569258390.8227
1569258390.83832
1569258390.85395
1569258390.86957
1569258390.8852
1569258390.90082
1569258390.91645
1569258390.93208
1569258390.9477
1569258390.96333
1569258390.97895
1569258390.99458
1569258391.0102
1569258391.02583
1569258391.04146
1569258391.05708
1569258391.07271
1569258391.08833
1569258391.10396
1569258391.11958
1569258391.13521
1569258391.15084
1569258391.16646
1569258391.18209
1569258391.19771
1569258391.21334
1569258391.22896
1569258391.24459
1569258391.26022
1569258391.27584
1569258391.29147
1569258391.30709
1569258391.32272
1569258391.33834
1569258391.35397
1569258391.3696
1569258391.38522
1569258391.40085
1569258391.41647
1569258391.4321
1569258391.44772
1569258391.46335
1569258391.47898
1569258391.4946
1569258391.51023
1569258391.52585
1569258391.54148
1569258391.5571
1569258391.57273
1569258391.58836
1569258391.60398
1569258391.61961
1569258391.63523
1569258391.65086
1569258391.66648
1569258391.68211
1569258391.69774
1569258391.71336
1569258391.72899
1569258391.74461
1569258391.76024
1569258391.77586
1569258391.79149
1569258391.80712
1569258391.82274
1569258391.83837
1569258391.85399
1569258391.86962
1569258391.88524
1569258391.90087
1569258391.9165
1569258391.93212
1569258391.94775
1569258391.96337
1569258391.979
1569258391.99462
1569258392.01025
1569258392.02588
1569258392.0415
1569258392.05713
1569258392.07275
1569258392.08838
1569258392.104
1569258392.11963
1569258392.13526
1569258392.15088
1569258392.16651
1569258392.18213
1569258392.19776
1569258392.21338
1569258392.22901
1569258392.24464
1569258392.26026
1569258392.27589
1569258392.29151
1569258392.30714
1569258392.32277
1569258392.33839
1569258392.35402
1569258392.36964
1569258392.38527
1569258392.40089
1569258392.41652
1569258392.43215
1569258392.44777
1569258392.4634
1569258392.47902
1569258392.49465
1569258392.51027
1569258392.5259
1569258392.54153
1569258392.55715
1569258392.57278
1569258392.5884
1569258392.60403
1569258392.61965
1569258392.63528
1569258392.65091
1569258392.66653
1569258392.68216
1569258392.69778
1569258392.71341
1569258392.72903
1569258392.74466
1569258392.76029
1569258392.77591
1569258392.79154
1569258392.80716
1569258392.82279
1569258392.83841
1569258392.85404
1569258392.86967
1569258392.88529
1569258392.90092
1569258392.91654
1569258392.93217
1569258392.94779
1569258392.96342
1569258392.97905
1569258392.99467
1569258393.0103
1569258393.02592
1569258393.04155
1569258393.05717
1569258393.0728
1569258393.08843
1569258393.10405
1569258393.11968
1569258393.1353
1569258393.15093
1569258393.16655
1569258393.18218
1569258393.19781
1569258393.21343
1569258393.22906
1569258393.24468
1569258393.26031
1569258393.27593
1569258393.29156
1569258393.30719
1569258393.32281
1569258393.33844
1569258393.35406
1569258393.36969
1569258393.38531
1569258393.40094
1569258393.41657
1569258393.43219
1569258393.44782
1569258393.46344
1569258393.47907
1569258393.49469
1569258393.51032
1569258393.52595
1569258393.54157
1569258393.5572
1569258393.57282
1569258393.58845
1569258393.60407
1569258393.6197
1569258393.63533
1569258393.65095
1569258393.66658
1569258393.6822
1569258393.69783
1569258393.71345
1569258393.72908
1569258393.74471
1569258393.76033
1569258393.77596
1569258393.79158
1569258393.80721
1569258393.82283
1569258393.83846
1569258393.85409
1569258393.86971
1569258393.88534
1569258393.90096
1569258393.91659
1569258393.93221
1569258393.94784
1569258393.96347
1569258393.97909
1569258393.99472
1569258394.01034
1569258394.02597
1569258394.04159
1569258394.05722
1569258394.07285
1569258394.08847
1569258394.1041
1569258394.11972
1569258394.13535
1569258394.15097
1569258394.1666
1569258394.18223
1569258394.19785
1569258394.21348
1569258394.2291
1569258394.24473
1569258394.26035
1569258394.27598
1569258394.29161
1569258394.30723
1569258394.32286
1569258394.33848
1569258394.35411
1569258394.36973
1569258394.38536
1569258394.40099
1569258394.41661
1569258394.43224
1569258394.44786
1569258394.46349
1569258394.47911
1569258394.49474
1569258394.51037
1569258394.52599
1569258394.54162
1569258394.55724
1569258394.57287
1569258394.5885
1569258394.60412
1569258394.61975
1569258394.63537
1569258394.651
1569258394.66662
1569258394.68225
1569258394.69788
1569258394.7135
1569258394.72913
1569258394.74475
1569258394.76038
1569258394.776
1569258394.79163
1569258394.80726
1569258394.82288
1569258394.83851
1569258394.85413
1569258394.86976
1569258394.88538
1569258394.90101
1569258394.91664
1569258394.93226
1569258394.94789
1569258394.96351
1569258394.97914
1569258394.99476
1569258395.01039
1569258395.02602
1569258395.04164
1569258395.05727
1569258395.07289
1569258395.08852
1569258395.10414
1569258395.11977
1569258395.1354
1569258395.15102
1569258395.16665
1569258395.18227
1569258395.1979
1569258395.21352
1569258395.22915
1569258395.24478
1569258395.2604
1569258395.27603
1569258395.29165
1569258395.30728
1569258395.3229
1569258395.33853
1569258395.35416
1569258395.36978
1569258395.38541
1569258395.40103
1569258395.41666
1569258395.43228
1569258395.44791
1569258395.46354
1569258395.47916
1569258395.49479
1569258395.51041
1569258395.52604
1569258395.54166
1569258395.55729
1569258395.57292
1569258395.58854
1569258395.60417
1569258395.61979
1569258395.63542
1569258395.65104
1569258395.66667
1569258395.6823
1569258395.69792
1569258395.71355
1569258395.72917
1569258395.7448
1569258395.76042
1569258395.77605
1569258395.79168
1569258395.8073
1569258395.82293
1569258395.83855
1569258395.85418
1569258395.8698
1569258395.88543
1569258395.90106
1569258395.91668
1569258395.93231
1569258395.94793
1569258395.96356
1569258395.97918
1569258395.99481
1569258396.01044
1569258396.02606
1569258396.04169
1569258396.05731
1569258396.07294
1569258396.08856
1569258396.10419
1569258396.11982
1569258396.13544
1569258396.15107
1569258396.16669
1569258396.18232
1569258396.19794
1569258396.21357
1569258396.2292
1569258396.24482
1569258396.26045
1569258396.27607
1569258396.2917
1569258396.30732
1569258396.32295
1569258396.33858
1569258396.3542
1569258396.36983
1569258396.38545
1569258396.40108
1569258396.4167
1569258396.43233
1569258396.44796
1569258396.46358
1569258396.47921
1569258396.49483
1569258396.51046
1569258396.52608
1569258396.54171
1569258396.55734
1569258396.57296
1569258396.58859
1569258396.60421
1569258396.61984
1569258396.63546
1569258396.65109
1569258396.66672
1569258396.68234
1569258396.69797
1569258396.71359
1569258396.72922
1569258396.74484
1569258396.76047
1569258396.7761
1569258396.79172
1569258396.80735
1569258396.82297
1569258396.8386
1569258396.85422
1569258396.86985
1569258396.88548
1569258396.9011
1569258396.91673
1569258396.93235
1569258396.94798
1569258396.9636
1569258396.97923
1569258396.99486
1569258397.01048
1569258397.02611
1569258397.04173
1569258397.05736
1569258397.07298
1569258397.08861
1569258397.10424
1569258397.11986
1569258397.13549
1569258397.15111
1569258397.16674
1569258397.18237
1569258397.19799
1569258397.21362
1569258397.22924
1569258397.24487
1569258397.26049
1569258397.27612
1569258397.29175
1569258397.30737
1569258397.323
1569258397.33862
1569258397.35425
1569258397.36987
1569258397.3855
1569258397.40113
1569258397.41675
1569258397.43238
1569258397.448
1569258397.46363
1569258397.47925
1569258397.49488
1569258397.51051
1569258397.52613
1569258397.54176
1569258397.55738
1569258397.57301
1569258397.58863
1569258397.60426
1569258397.61989
1569258397.63551
1569258397.65114
1569258397.66676
1569258397.68239
1569258397.69801
1569258397.71364
1569258397.72927
1569258397.74489
1569258397.76052
1569258397.77614
1569258397.79177
1569258397.80739
1569258397.82302
1569258397.83865
1569258397.85427
1569258397.8699
1569258397.88552
1569258397.90115
1569258397.91677
1569258397.9324
1569258397.94803
1569258397.96365
1569258397.97928
1569258397.9949
1569258398.01053
1569258398.02615
1569258398.04178
1569258398.05741
1569258398.07303
1569258398.08866
1569258398.10428
1569258398.11991
1569258398.13553
1569258398.15116
1569258398.16679
1569258398.18241
1569258398.19804
1569258398.21366
1569258398.22929
1569258398.24491
1569258398.26054
1569258398.27617
1569258398.29179
1569258398.30742
1569258398.32304
1569258398.33867
1569258398.35429
1569258398.36992
1569258398.38555
1569258398.40117
1569258398.4168
1569258398.43242
1569258398.44805
1569258398.46367
1569258398.4793
1569258398.49493
1569258398.51055
1569258398.52618
1569258398.5418
1569258398.55743
1569258398.57305
1569258398.58868
1569258398.60431
1569258398.61993
1569258398.63556
1569258398.65118
1569258398.66681
1569258398.68243
1569258398.69806
1569258398.71369
1569258398.72931
1569258398.74494
1569258398.76056
1569258398.77619
1569258398.79181
1569258398.80744
1569258398.82307
1569258398.83869
1569258398.85432
1569258398.86994
1569258398.88557
1569258398.90119
1569258398.91682
1569258398.93245
1569258398.94807
1569258398.9637
1569258398.97932
1569258398.99495
1569258399.01057
1569258399.0262
1569258399.04183
1569258399.05745
1569258399.07308
1569258399.0887
1569258399.10433
1569258399.11995
1569258399.13558
1569258399.15121
1569258399.16683
1569258399.18246
1569258399.19808
1569258399.21371
1569258399.22933
1569258399.24496
1569258399.26059
1569258399.27621
1569258399.29184
1569258399.30746
1569258399.32309
1569258399.33871
1569258399.35434
1569258399.36997
1569258399.38559
1569258399.40122
1569258399.41684
1569258399.43247
1569258399.4481
1569258399.46372
1569258399.47935
1569258399.49497
1569258399.5106
1569258399.52622
1569258399.54185
1569258399.55748
1569258399.5731
1569258399.58873
1569258399.60435
1569258399.61998
1569258399.6356
1569258399.65123
1569258399.66686
1569258399.68248
1569258399.69811
1569258399.71373
1569258399.72936
1569258399.74498
1569258399.76061
1569258399.77624
1569258399.79186
1569258399.80749
1569258399.82311
1569258399.83874
1569258399.85436
1569258399.86999
1569258399.88562
1569258399.90124
1569258399.91687
1569258399.93249
1569258399.94812
1569258399.96374
1569258399.97937
1569258399.995
1569258400.01062
1569258400.02625
1569258400.04187
1569258400.0575
1569258400.07312
1569258400.08875
1569258400.10438
1569258400.12
1569258400.13563
1569258400.15125
1569258400.16688
1569258400.1825
1569258400.19813
1569258400.21376
1569258400.22938
1569258400.24501
1569258400.26063
1569258400.27626
1569258400.29188
1569258400.30751
1569258400.32314
1569258400.33876
1569258400.35439
1569258400.37001
1569258400.38564
1569258400.40126
1569258400.41689
1569258400.43252
1569258400.44814
1569258400.46377
1569258400.47939
1569258400.49502
1569258400.51064
1569258400.52627
1569258400.5419
1569258400.55752
1569258400.57315
1569258400.58877
1569258400.6044
1569258400.62002
1569258400.63565
1569258400.65128
1569258400.6669
1569258400.68253
1569258400.69815
1569258400.71378
1569258400.7294
1569258400.74503
1569258400.76066
1569258400.77628
1569258400.79191
1569258400.80753
1569258400.82316
1569258400.83878
1569258400.85441
1569258400.87004
1569258400.88566
1569258400.90129
1569258400.91691
1569258400.93254
1569258400.94816
1569258400.96379
1569258400.97942
1569258400.99504
1569258401.01067
1569258401.02629
1569258401.04192
1569258401.05754
1569258401.07317
1569258401.0888
1569258401.10442
1569258401.12005
1569258401.13567
1569258401.1513
1569258401.16692
1569258401.18255
1569258401.19818
1569258401.2138
1569258401.22943
1569258401.24505
1569258401.26068
1569258401.2763
1569258401.29193
1569258401.30756
1569258401.32318
1569258401.33881
1569258401.35443
1569258401.37006
1569258401.38568
1569258401.40131
1569258401.41694
1569258401.43256
1569258401.44819
1569258401.46381
1569258401.47944
1569258401.49506
1569258401.51069
1569258401.52632
1569258401.54194
1569258401.55757
1569258401.57319
1569258401.58882
1569258401.60444
1569258401.62007
1569258401.6357
1569258401.65132
1569258401.66695
1569258401.68257
1569258401.6982
1569258401.71382
1569258401.72945
1569258401.74508
1569258401.7607
1569258401.77633
1569258401.79195
1569258401.80758
1569258401.8232
1569258401.83883
1569258401.85446
1569258401.87008
1569258401.88571
1569258401.90133
1569258401.91696
1569258401.93259
1569258401.94821
1569258401.96384
1569258401.97946
1569258401.99509
1569258402.01071
1569258402.02634
1569258402.04197
1569258402.05759
1569258402.07322
1569258402.08884
1569258402.10447
1569258402.12009
1569258402.13572
1569258402.15135
1569258402.16697
1569258402.1826
1569258402.19822
1569258402.21385
1569258402.22947
1569258402.2451
1569258402.26073
1569258402.27635
1569258402.29198
1569258402.3076
1569258402.32323
1569258402.33885
1569258402.35448
1569258402.37011
1569258402.38573
1569258402.40136
1569258402.41698
1569258402.43261
1569258402.44823
1569258402.46386
1569258402.47949
1569258402.49511
1569258402.51074
1569258402.52636
1569258402.54199
1569258402.55761
1569258402.57324
1569258402.58887
1569258402.60449
1569258402.62012
1569258402.63574
1569258402.65137
1569258402.66699
1569258402.68262
1569258402.69825
1569258402.71387
1569258402.7295
1569258402.74512
1569258402.76075
1569258402.77637
1569258402.792
1569258402.80763
1569258402.82325
1569258402.83888
1569258402.8545
1569258402.87013
1569258402.88575
1569258402.90138
1569258402.91701
1569258402.93263
1569258402.94826
1569258402.96388
1569258402.97951
1569258402.99513
1569258403.01076
1569258403.02639
1569258403.04201
1569258403.05764
1569258403.07326
1569258403.08889
1569258403.10451
1569258403.12014
1569258403.13577
1569258403.15139
1569258403.16702
1569258403.18264
1569258403.19827
1569258403.21389
1569258403.22952
1569258403.24515
1569258403.26077
1569258403.2764
1569258403.29202
1569258403.30765
1569258403.32327
1569258403.3389
1569258403.35453
1569258403.37015
1569258403.38578
1569258403.4014
1569258403.41703
1569258403.43265
1569258403.44828
1569258403.46391
1569258403.47953
1569258403.49516
1569258403.51078
1569258403.52641
1569258403.54203
1569258403.55766
1569258403.57329
1569258403.58891
1569258403.60454
1569258403.62016
1569258403.63579
1569258403.65141
1569258403.66704
1569258403.68267
1569258403.69829
1569258403.71392
1569258403.72954
1569258403.74517
1569258403.76079
1569258403.77642
1569258403.79205
1569258403.80767
1569258403.8233
1569258403.83892
1569258403.85455
1569258403.87017
1569258403.8858
1569258403.90143
1569258403.91705
1569258403.93268
1569258403.9483
1569258403.96393
1569258403.97955
1569258403.99518
1569258404.01081
1569258404.02643
1569258404.04206
1569258404.05768
1569258404.07331
1569258404.08893
1569258404.10456
1569258404.12019
1569258404.13581
1569258404.15144
1569258404.16706
1569258404.18269
1569258404.19831
1569258404.21394
1569258404.22957
1569258404.24519
1569258404.26082
1569258404.27644
1569258404.29207
1569258404.3077
1569258404.32332
1569258404.33895
1569258404.35457
1569258404.3702
1569258404.38582
1569258404.40145
1569258404.41708
1569258404.4327
1569258404.44833
1569258404.46395
1569258404.47958
1569258404.4952
1569258404.51083
1569258404.52646
1569258404.54208
1569258404.55771
1569258404.57333
1569258404.58896
1569258404.60458
1569258404.62021
1569258404.63584
1569258404.65146
1569258404.66709
1569258404.68271
1569258404.69834
1569258404.71396
1569258404.72959
1569258404.74522
1569258404.76084
1569258404.77647
1569258404.79209
1569258404.80772
1569258404.82334
1569258404.83897
1569258404.8546
1569258404.87022
1569258404.88585
1569258404.90147
1569258404.9171
1569258404.93272
1569258404.94835
1569258404.96398
1569258404.9796
1569258404.99523
1569258405.01085
1569258405.02648
1569258405.0421
1569258405.05773
1569258405.07336
1569258405.08898
1569258405.10461
1569258405.12023
1569258405.13586
1569258405.15148
1569258405.16711
1569258405.18274
1569258405.19836
1569258405.21399
1569258405.22961
1569258405.24524
1569258405.26086
1569258405.27649
1569258405.29212
1569258405.30774
1569258405.32337
1569258405.33899
1569258405.35462
1569258405.37024
1569258405.38587
1569258405.4015
1569258405.41712
1569258405.43275
1569258405.44837
1569258405.464
1569258405.47962
1569258405.49525
1569258405.51088
1569258405.5265
1569258405.54213
1569258405.55775
1569258405.57338
1569258405.589
1569258405.60463
1569258405.62026
1569258405.63588
1569258405.65151
1569258405.66713
1569258405.68276
1569258405.69838
1569258405.71401
1569258405.72964
1569258405.74526
1569258405.76089
1569258405.77651
1569258405.79214
1569258405.80776
1569258405.82339
1569258405.83902
1569258405.85464
1569258405.87027
1569258405.88589
1569258405.90152
1569258405.91714
1569258405.93277
1569258405.9484
1569258405.96402
1569258405.97965
1569258405.99527
1569258406.0109
1569258406.02652
1569258406.04215
1569258406.05778
1569258406.0734
1569258406.08903
1569258406.10465
1569258406.12028
1569258406.1359
1569258406.15153
1569258406.16716
1569258406.18278
1569258406.19841
1569258406.21403
1569258406.22966
1569258406.24528
1569258406.26091
1569258406.27654
1569258406.29216
1569258406.30779
1569258406.32341
1569258406.33904
1569258406.35466
1569258406.37029
1569258406.38592
1569258406.40154
1569258406.41717
1569258406.43279
1569258406.44842
1569258406.46405
1569258406.47967
1569258406.4953
1569258406.51092
1569258406.52655
1569258406.54217
1569258406.5578
1569258406.57343
1569258406.58905
1569258406.60468
1569258406.6203
1569258406.63593
1569258406.65155
1569258406.66718
1569258406.68281
1569258406.69843
1569258406.71406
1569258406.72968
1569258406.74531
1569258406.76093
1569258406.77656
1569258406.79219
1569258406.80781
1569258406.82344
1569258406.83906
1569258406.85469
1569258406.87031
1569258406.88594
1569258406.90157
1569258406.91719
1569258406.93282
1569258406.94844
1569258406.96407
1569258406.97969
1569258406.99532
1569258407.01095
1569258407.02657
1569258407.0422
1569258407.05782
1569258407.07345
1569258407.08907
1569258407.1047
1569258407.12033
1569258407.13595
1569258407.15158
1569258407.1672
1569258407.18283
1569258407.19845
1569258407.21408
1569258407.22971
1569258407.24533
1569258407.26096
1569258407.27658
1569258407.29221
1569258407.30783
1569258407.32346
1569258407.33909
1569258407.35471
1569258407.37034
1569258407.38596
1569258407.40159
1569258407.41721
1569258407.43284
1569258407.44847
1569258407.46409
1569258407.47972
1569258407.49534
1569258407.51097
1569258407.52659
1569258407.54222
1569258407.55785
1569258407.57347
1569258407.5891
1569258407.60472
1569258407.62035
1569258407.63597
1569258407.6516
1569258407.66723
1569258407.68285
1569258407.69848
1569258407.7141
1569258407.72973
1569258407.74535
1569258407.76098
1569258407.77661
1569258407.79223
1569258407.80786
1569258407.82348
1569258407.83911
1569258407.85473
1569258407.87036
1569258407.88599
1569258407.90161
1569258407.91724
1569258407.93286
1569258407.94849
1569258407.96411
1569258407.97974
1569258407.99537
1569258408.01099
1569258408.02662
1569258408.04224
1569258408.05787
1569258408.07349
1569258408.08912
1569258408.10475
1569258408.12037
1569258408.136
1569258408.15162
1569258408.16725
1569258408.18287
1569258408.1985
1569258408.21413
1569258408.22975
1569258408.24538
1569258408.261
1569258408.27663
1569258408.29225
1569258408.30788
1569258408.32351
1569258408.33913
1569258408.35476
1569258408.37038
1569258408.38601
1569258408.40163
1569258408.41726
1569258408.43289
1569258408.44851
1569258408.46414
1569258408.47976
1569258408.49539
1569258408.51101
1569258408.52664
1569258408.54227
1569258408.55789
1569258408.57352
1569258408.58914
1569258408.60477
1569258408.62039
1569258408.63602
1569258408.65165
1569258408.66727
1569258408.6829
1569258408.69852
1569258408.71415
1569258408.72977
1569258408.7454
1569258408.76103
1569258408.77665
1569258408.79228
1569258408.8079
1569258408.82353
1569258408.83915
1569258408.85478
1569258408.87041
1569258408.88603
1569258408.90166
1569258408.91728
1569258408.93291
1569258408.94853
1569258408.96416
1569258408.97979
1569258408.99541
1569258409.01104
1569258409.02666
1569258409.04229
1569258409.05791
1569258409.07354
1569258409.08917
1569258409.10479
1569258409.12042
1569258409.13604
1569258409.15167
1569258409.1673
1569258409.18292
1569258409.19855
1569258409.21417
1569258409.2298
1569258409.24542
1569258409.26105
1569258409.27668
1569258409.2923
1569258409.30793
1569258409.32355
1569258409.33918
1569258409.3548
1569258409.37043
1569258409.38606
1569258409.40168
1569258409.41731
1569258409.43293
1569258409.44856
1569258409.46418
1569258409.47981
1569258409.49544
1569258409.51106
1569258409.52669
1569258409.54231
1569258409.55794
1569258409.57356
1569258409.58919
1569258409.60482
1569258409.62044
1569258409.63607
1569258409.65169
1569258409.66732
1569258409.68294
1569258409.69857
1569258409.7142
1569258409.72982
1569258409.74545
1569258409.76107
1569258409.7767
1569258409.79232
1569258409.80795
1569258409.82358
1569258409.8392
1569258409.85483
1569258409.87045
1569258409.88608
1569258409.9017
1569258409.91733
1569258409.93296
1569258409.94858
1569258409.96421
1569258409.97983
1569258409.99546
1569258410.01108
1569258410.02671
1569258410.04234
1569258410.05796
1569258410.07359
1569258410.08921
1569258410.10484
1569258410.12046
1569258410.13609
1569258410.15172
1569258410.16734
1569258410.18297
1569258410.19859
1569258410.21422
1569258410.22984
1569258410.24547
1569258410.2611
1569258410.27672
1569258410.29235
1569258410.30797
1569258410.3236
1569258410.33922
1569258410.35485
1569258410.37048
1569258410.3861
1569258410.40173
1569258410.41735
1569258410.43298
1569258410.4486
1569258410.46423
1569258410.47986
1569258410.49548
1569258410.51111
1569258410.52673
1569258410.54236
1569258410.55798
1569258410.57361
1569258410.58924
1569258410.60486
1569258410.62049
1569258410.63611
1569258410.65174
1569258410.66736
1569258410.68299
1569258410.69862
1569258410.71424
1569258410.72987
1569258410.74549
1569258410.76112
1569258410.77674
1569258410.79237
1569258410.808
1569258410.82362
1569258410.83925
1569258410.85487
1569258410.8705
1569258410.88612
1569258410.90175
1569258410.91738
1569258410.933
1569258410.94863
1569258410.96425
1569258410.97988
1569258410.9955
1569258411.01113
1569258411.02676
1569258411.04238
1569258411.05801
1569258411.07363
1569258411.08926
1569258411.10488
1569258411.12051
1569258411.13614
1569258411.15176
1569258411.16739
1569258411.18301
1569258411.19864
1569258411.21426
1569258411.22989
1569258411.24552
1569258411.26114
1569258411.27677
1569258411.29239
1569258411.30802
1569258411.32364
1569258411.33927
1569258411.3549
1569258411.37052
1569258411.38615
1569258411.40177
1569258411.4174
1569258411.43303
1569258411.44865
1569258411.46428
1569258411.4799
1569258411.49553
1569258411.51115
1569258411.52678
1569258411.54241
1569258411.55803
1569258411.57366
1569258411.58928
1569258411.60491
1569258411.62053
1569258411.63616
1569258411.65179
1569258411.66741
1569258411.68304
1569258411.69866
1569258411.71429
1569258411.72991
1569258411.74554
1569258411.76117
1569258411.77679
1569258411.79242
1569258411.80804
1569258411.82367
1569258411.83929
1569258411.85492
1569258411.87055
1569258411.88617
1569258411.9018
1569258411.91742
1569258411.93305
1569258411.94867
1569258411.9643
1569258411.97993
1569258411.99555
1569258412.01118
1569258412.0268
1569258412.04243
1569258412.05805
1569258412.07368
1569258412.08931
1569258412.10493
1569258412.12056
1569258412.13618
1569258412.15181
1569258412.16743
1569258412.18306
1569258412.19869
1569258412.21431
1569258412.22994
1569258412.24556
1569258412.26119
1569258412.27681
1569258412.29244
1569258412.30807
1569258412.32369
1569258412.33932
1569258412.35494
1569258412.37057
1569258412.38619
1569258412.40182
1569258412.41745
1569258412.43307
1569258412.4487
1569258412.46432
1569258412.47995
1569258412.49557
1569258412.5112
1569258412.52683
1569258412.54245
1569258412.55808
1569258412.5737
1569258412.58933
1569258412.60495
1569258412.62058
1569258412.63621
1569258412.65183
1569258412.66746
1569258412.68308
1569258412.69871
1569258412.71433
1569258412.72996
1569258412.74559
1569258412.76121
1569258412.77684
1569258412.79246
1569258412.80809
1569258412.82371
1569258412.83934
1569258412.85497
1569258412.87059
1569258412.88622
1569258412.90184
1569258412.91747
1569258412.93309
1569258412.94872
1569258412.96435
1569258412.97997
1569258412.9956
1569258413.01122
1569258413.02685
1569258413.04247
1569258413.0581
1569258413.07373
1569258413.08935
1569258413.10498
1569258413.1206
1569258413.13623
1569258413.15185
1569258413.16748
1569258413.18311
1569258413.19873
1569258413.21436
1569258413.22998
1569258413.24561
1569258413.26123
1569258413.27686
1569258413.29249
1569258413.30811
1569258413.32374
1569258413.33936
1569258413.35499
1569258413.37061
1569258413.38624
1569258413.40187
1569258413.41749
1569258413.43312
1569258413.44874
1569258413.46437
1569258413.47999
1569258413.49562
1569258413.51125
1569258413.52687
1569258413.5425
1569258413.55812
1569258413.57375
1569258413.58938
1569258413.605
1569258413.62063
1569258413.63625
1569258413.65188
1569258413.6675
1569258413.68313
1569258413.69876
1569258413.71438
1569258413.73001
1569258413.74563
1569258413.76126
1569258413.77688
1569258413.79251
1569258413.80814
1569258413.82376
1569258413.83939
1569258413.85501
1569258413.87064
1569258413.88626
1569258413.90189
1569258413.91752
1569258413.93314
1569258413.94877
1569258413.96439
1569258413.98002
1569258413.99564
1569258414.01127
1569258414.0269
1569258414.04252
1569258414.05815
1569258414.07377
1569258414.0894
1569258414.10502
1569258414.12065
1569258414.13628
1569258414.1519
1569258414.16753
1569258414.18315
1569258414.19878
1569258414.2144
1569258414.23003
1569258414.24566
1569258414.26128
1569258414.27691
1569258414.29253
1569258414.30816
1569258414.32378
1569258414.33941
1569258414.35504
1569258414.37066
1569258414.38629
1569258414.40191
1569258414.41754
1569258414.43316
1569258414.44879
1569258414.46442
1569258414.48004
1569258414.49567
1569258414.51129
1569258414.52692
1569258414.54254
1569258414.55817
1569258414.5738
1569258414.58942
1569258414.60505
1569258414.62067
1569258414.6363
1569258414.65192
1569258414.66755
1569258414.68318
1569258414.6988
1569258414.71443
1569258414.73005
1569258414.74568
1569258414.7613
1569258414.77693
1569258414.79256
1569258414.80818
1569258414.82381
1569258414.83943
1569258414.85506
1569258414.87068
1569258414.88631
1569258414.90194
1569258414.91756
1569258414.93319
1569258414.94881
1569258414.96444
1569258414.98006
1569258414.99569
1569258415.01132
1569258415.02694
1569258415.04257
1569258415.05819
1569258415.07382
1569258415.08944
1569258415.10507
1569258415.1207
1569258415.13632
1569258415.15195
1569258415.16757
1569258415.1832
1569258415.19882
1569258415.21445
1569258415.23008
1569258415.2457
1569258415.26133
1569258415.27695
1569258415.29258
1569258415.3082
1569258415.32383
1569258415.33946
1569258415.35508
1569258415.37071
1569258415.38633
1569258415.40196
1569258415.41758
1569258415.43321
1569258415.44884
1569258415.46446
1569258415.48009
1569258415.49571
1569258415.51134
1569258415.52696
1569258415.54259
1569258415.55822
1569258415.57384
1569258415.58947
1569258415.60509
1569258415.62072
1569258415.63634
1569258415.65197
1569258415.6676
1569258415.68322
1569258415.69885
1569258415.71447
1569258415.7301
1569258415.74572
1569258415.76135
1569258415.77698
1569258415.7926
1569258415.80823
1569258415.82385
1569258415.83948
1569258415.8551
1569258415.87073
1569258415.88636
1569258415.90198
1569258415.91761
1569258415.93323
1569258415.94886
1569258415.96448
1569258415.98011
1569258415.99574
1569258416.01136
1569258416.02699
1569258416.04261
1569258416.05824
1569258416.07386
1569258416.08949
1569258416.10512
1569258416.12074
1569258416.13637
1569258416.15199
1569258416.16762
1569258416.18324
1569258416.19887
1569258416.2145
1569258416.23012
1569258416.24575
1569258416.26137
1569258416.277
1569258416.29263
1569258416.30825
1569258416.32388
1569258416.3395
1569258416.35513
1569258416.37075
1569258416.38638
1569258416.40201
1569258416.41763
1569258416.43326
1569258416.44888
1569258416.46451
1569258416.48013
1569258416.49576
1569258416.51139
1569258416.52701
1569258416.54264
1569258416.55826
1569258416.57389
1569258416.58951
1569258416.60514
1569258416.62077
1569258416.63639
1569258416.65202
1569258416.66764
1569258416.68327
1569258416.69889
1569258416.71452
1569258416.73015
1569258416.74577
1569258416.7614
1569258416.77702
1569258416.79265
1569258416.80827
1569258416.8239
1569258416.83953
1569258416.85515
1569258416.87078
1569258416.8864
1569258416.90203
1569258416.91765
1569258416.93328
1569258416.94891
1569258416.96453
1569258416.98016
1569258416.99578
1569258417.01141
1569258417.02703
1569258417.04266
1569258417.05829
1569258417.07391
1569258417.08954
1569258417.10516
1569258417.12079
1569258417.13641
1569258417.15204
1569258417.16767
1569258417.18329
1569258417.19892
1569258417.21454
1569258417.23017
1569258417.24579
1569258417.26142
1569258417.27705
1569258417.29267
1569258417.3083
1569258417.32392
1569258417.33955
1569258417.35517
1569258417.3708
1569258417.38643
1569258417.40205
1569258417.41768
1569258417.4333
1569258417.44893
1569258417.46455
1569258417.48018
1569258417.49581
1569258417.51143
1569258417.52706
1569258417.54268
1569258417.55831
1569258417.57393
1569258417.58956
1569258417.60519
1569258417.62081
1569258417.63644
1569258417.65206
1569258417.66769
1569258417.68331
1569258417.69894
1569258417.71457
1569258417.73019
1569258417.74582
1569258417.76144
1569258417.77707
1569258417.79269
1569258417.80832
1569258417.82395
1569258417.83957
1569258417.8552
1569258417.87082
1569258417.88645
1569258417.90207
1569258417.9177
1569258417.93333
1569258417.94895
1569258417.96458
1569258417.9802
1569258417.99583
1569258418.01145
1569258418.02708
1569258418.04271
1569258418.05833
1569258418.07396
1569258418.08958
1569258418.10521
1569258418.12083
1569258418.13646
1569258418.15209
1569258418.16771
1569258418.18334
1569258418.19896
1569258418.21459
1569258418.23021
1569258418.24584
1569258418.26147
1569258418.27709
1569258418.29272
1569258418.30834
1569258418.32397
1569258418.33959
1569258418.35522
1569258418.37085
1569258418.38647
1569258418.4021
1569258418.41772
1569258418.43335
1569258418.44898
1569258418.4646
1569258418.48023
1569258418.49585
1569258418.51148
1569258418.5271
1569258418.54273
1569258418.55836
1569258418.57398
1569258418.58961
1569258418.60523
1569258418.62086
1569258418.63648
1569258418.65211
1569258418.66774
1569258418.68336
1569258418.69899
1569258418.71461
1569258418.73024
1569258418.74586
1569258418.76149
1569258418.77712
1569258418.79274
1569258418.80837
1569258418.82399
1569258418.83962
1569258418.85524
1569258418.87087
1569258418.8865
1569258418.90212
1569258418.91775
1569258418.93337
1569258418.949
1569258418.96462
1569258418.98025
1569258418.99588
1569258419.0115
1569258419.02713
1569258419.04275
1569258419.05838
1569258419.074
1569258419.08963
1569258419.10526
1569258419.12088
1569258419.13651
1569258419.15213
1569258419.16776
1569258419.18338
1569258419.19901
1569258419.21464
1569258419.23026
1569258419.24589
1569258419.26151
1569258419.27714
1569258419.29276
1569258419.30839
1569258419.32402
1569258419.33964
1569258419.35527
1569258419.37089
1569258419.38652
1569258419.40214
1569258419.41777
1569258419.4334
1569258419.44902
1569258419.46465
1569258419.48027
1569258419.4959
1569258419.51152
1569258419.52715
1569258419.54278
1569258419.5584
1569258419.57403
1569258419.58965
1569258419.60528
1569258419.6209
1569258419.63653
1569258419.65216
1569258419.66778
1569258419.68341
1569258419.69903
1569258419.71466
1569258419.73028
1569258419.74591
1569258419.76154
1569258419.77716
1569258419.79279
1569258419.80841
1569258419.82404
1569258419.83966
1569258419.85529
1569258419.87092
1569258419.88654
1569258419.90217
1569258419.91779
1569258419.93342
1569258419.94904
1569258419.96467
1569258419.9803
1569258419.99592
1569258420.01155
1569258420.02717
1569258420.0428
1569258420.05842
1569258420.07405
1569258420.08968
1569258420.1053
1569258420.12093
1569258420.13655
1569258420.15218
1569258420.1678
1569258420.18343
1569258420.19906
1569258420.21468
1569258420.23031
1569258420.24593
1569258420.26156
1569258420.27718
1569258420.29281
1569258420.30844
1569258420.32406
1569258420.33969
1569258420.35531
1569258420.37094
1569258420.38656
1569258420.40219
1569258420.41782
1569258420.43344
1569258420.44907
1569258420.46469
1569258420.48032
1569258420.49594
1569258420.51157
1569258420.5272
1569258420.54282
1569258420.55845
1569258420.57407
1569258420.5897
1569258420.60532
1569258420.62095
1569258420.63658
1569258420.6522
1569258420.66783
1569258420.68345
1569258420.69908
1569258420.7147
1569258420.73033
1569258420.74596
1569258420.76158
1569258420.77721
1569258420.79283
1569258420.80846
1569258420.82409
1569258420.83971
1569258420.85534
1569258420.87096
1569258420.88659
1569258420.90221
1569258420.91784
1569258420.93347
1569258420.94909
1569258420.96472
1569258420.98034
1569258420.99597
1569258421.01159
1569258421.02722
1569258421.04285
1569258421.05847
1569258421.0741
1569258421.08972
1569258421.10535
1569258421.12097
1569258421.1366
1569258421.15223
1569258421.16785
1569258421.18348
1569258421.1991
1569258421.21473
1569258421.23035
1569258421.24598
1569258421.26161
1569258421.27723
1569258421.29286
1569258421.30848
1569258421.32411
1569258421.33973
1569258421.35536
1569258421.37099
1569258421.38661
1569258421.40224
1569258421.41786
1569258421.43349
1569258421.44911
1569258421.46474
1569258421.48037
1569258421.49599
1569258421.51162
1569258421.52724
1569258421.54287
1569258421.55849
1569258421.57412
1569258421.58975
1569258421.60537
1569258421.621
1569258421.63662
1569258421.65225
1569258421.66787
1569258421.6835
1569258421.69913
1569258421.71475
1569258421.73038
1569258421.746
1569258421.76163
1569258421.77725
1569258421.79288
1569258421.80851
1569258421.82413
1569258421.83976
1569258421.85538
1569258421.87101
1569258421.88663
1569258421.90226
1569258421.91789
1569258421.93351
1569258421.94914
1569258421.96476
1569258421.98039
1569258421.99601
1569258422.01164
1569258422.02727
1569258422.04289
1569258422.05852
1569258422.07414
1569258422.08977
1569258422.10539
1569258422.12102
1569258422.13665
1569258422.15227
1569258422.1679
1569258422.18352
1569258422.19915
1569258422.21477
1569258422.2304
1569258422.24603
1569258422.26165
1569258422.27728
1569258422.2929
1569258422.30853
1569258422.32415
1569258422.33978
1569258422.35541
1569258422.37103
1569258422.38666
1569258422.40228
1569258422.41791
1569258422.43353
1569258422.44916
1569258422.46479
1569258422.48041
1569258422.49604
1569258422.51166
1569258422.52729
1569258422.54291
1569258422.55854
1569258422.57417
1569258422.58979
1569258422.60542
1569258422.62104
1569258422.63667
1569258422.65229
1569258422.66792
1569258422.68355
1569258422.69917
1569258422.7148
1569258422.73042
1569258422.74605
1569258422.76167
1569258422.7773
1569258422.79293
1569258422.80855
1569258422.82418
1569258422.8398
1569258422.85543
1569258422.87105
1569258422.88668
1569258422.90231
1569258422.91793
1569258422.93356
1569258422.94918
1569258422.96481
1569258422.98043
1569258422.99606
1569258423.01169
1569258423.02731
1569258423.04294
1569258423.05856
1569258423.07419
1569258423.08981
1569258423.10544
1569258423.12107
1569258423.13669
1569258423.15232
1569258423.16794
1569258423.18357
1569258423.19919
1569258423.21482
1569258423.23045
1569258423.24607
1569258423.2617
1569258423.27732
1569258423.29295
1569258423.30858
1569258423.3242
1569258423.33983
1569258423.35545
1569258423.37108
1569258423.3867
1569258423.40233
1569258423.41796
1569258423.43358
1569258423.44921
1569258423.46483
1569258423.48046
1569258423.49608
1569258423.51171
1569258423.52734
1569258423.54296
1569258423.55859
1569258423.57421
1569258423.58984
1569258423.60546
1569258423.62109
1569258423.63672
1569258423.65234
1569258423.66797
1569258423.68359
1569258423.69922
1569258423.71484
1569258423.73047
1569258423.7461
1569258423.76172
1569258423.77735
1569258423.79297
1569258423.8086
1569258423.82422
1569258423.83985
1569258423.85548
1569258423.8711
1569258423.88673
1569258423.90235
1569258423.91798
1569258423.9336
1569258423.94923
1569258423.96486
1569258423.98048
1569258423.99611
1569258424.01173
1569258424.02736
1569258424.04298
1569258424.05861
1569258424.07424
1569258424.08986
1569258424.10549
1569258424.12111
1569258424.13674
1569258424.15236
1569258424.16799
1569258424.18362
1569258424.19924
1569258424.21487
1569258424.23049
1569258424.24612
1569258424.26174
1569258424.27737
1569258424.293
1569258424.30862
1569258424.32425
1569258424.33987
1569258424.3555
1569258424.37112
1569258424.38675
1569258424.40238
1569258424.418
1569258424.43363
1569258424.44925
1569258424.46488
1569258424.4805
1569258424.49613
1569258424.51176
1569258424.52738
1569258424.54301
1569258424.55863
1569258424.57426
1569258424.58988
1569258424.60551
1569258424.62114
1569258424.63676
1569258424.65239
1569258424.66801
1569258424.68364
1569258424.69926
1569258424.71489
1569258424.73052
1569258424.74614
1569258424.76177
1569258424.77739
1569258424.79302
1569258424.80864
1569258424.82427
1569258424.8399
1569258424.85552
1569258424.87115
1569258424.88677
1569258424.9024
1569258424.91802
1569258424.93365
1569258424.94928
1569258424.9649
1569258424.98053
1569258424.99615
1569258425.01178
1569258425.0274
1569258425.04303
1569258425.05866
1569258425.07428
1569258425.08991
1569258425.10553
1569258425.12116
1569258425.13678
1569258425.15241
1569258425.16804
1569258425.18366
1569258425.19929
1569258425.21491
1569258425.23054
1569258425.24616
1569258425.26179
1569258425.27742
1569258425.29304
1569258425.30867
1569258425.32429
1569258425.33992
1569258425.35554
1569258425.37117
1569258425.3868
1569258425.40242
1569258425.41805
1569258425.43367
1569258425.4493
1569258425.46492
1569258425.48055
1569258425.49618
1569258425.5118
1569258425.52743
1569258425.54305
1569258425.55868
1569258425.57431
1569258425.58993
1569258425.60556
1569258425.62118
1569258425.63681
1569258425.65243
1569258425.66806
1569258425.68369
1569258425.69931
1569258425.71494
1569258425.73056
1569258425.74619
1569258425.76181
1569258425.77744
1569258425.79307
1569258425.80869
1569258425.82432
1569258425.83994
1569258425.85557
1569258425.87119
1569258425.88682
1569258425.90245
1569258425.91807
1569258425.9337
1569258425.94932
1569258425.96495
1569258425.98057
1569258425.9962
1569258426.01183
1569258426.02745
1569258426.04308
1569258426.0587
1569258426.07433
1569258426.08995
1569258426.10558
1569258426.12121
1569258426.13683
1569258426.15246
1569258426.16808
1569258426.18371
1569258426.19933
1569258426.21496
1569258426.23059
1569258426.24621
1569258426.26184
1569258426.27746
1569258426.29309
1569258426.30871
1569258426.32434
1569258426.33997
1569258426.35559
1569258426.37122
1569258426.38684
1569258426.40247
1569258426.41809
1569258426.43372
1569258426.44935
1569258426.46497
1569258426.4806
1569258426.49622
1569258426.51185
1569258426.52747
1569258426.5431
1569258426.55873
1569258426.57435
1569258426.58998
1569258426.6056
1569258426.62123
1569258426.63685
1569258426.65248
1569258426.66811
1569258426.68373
1569258426.69936
1569258426.71498
1569258426.73061
1569258426.74623
1569258426.76186
1569258426.77749
1569258426.79311
1569258426.80874
1569258426.82436
1569258426.83999
1569258426.85561
1569258426.87124
1569258426.88687
1569258426.90249
1569258426.91812
1569258426.93374
1569258426.94937
1569258426.96499
1569258426.98062
1569258426.99625
1569258427.01187
1569258427.0275
1569258427.04312
1569258427.05875
1569258427.07437
1569258427.09
1569258427.10563
1569258427.12125
1569258427.13688
1569258427.1525
1569258427.16813
1569258427.18375
1569258427.19938
1569258427.21501
1569258427.23063
1569258427.24626
1569258427.26188
1569258427.27751
1569258427.29313
1569258427.30876
1569258427.32439
1569258427.34001
1569258427.35564
1569258427.37126
1569258427.38689
1569258427.40251
1569258427.41814
1569258427.43377
1569258427.44939
1569258427.46502
1569258427.48064
1569258427.49627
1569258427.51189
1569258427.52752
1569258427.54315
1569258427.55877
1569258427.5744
1569258427.59002
1569258427.60565
1569258427.62127
1569258427.6369
1569258427.65253
1569258427.66815
1569258427.68378
1569258427.6994
1569258427.71503
1569258427.73065
1569258427.74628
1569258427.76191
1569258427.77753
1569258427.79316
1569258427.80878
1569258427.82441
1569258427.84003
1569258427.85566
1569258427.87129
1569258427.88691
1569258427.90254
1569258427.91816
1569258427.93379
1569258427.94941
1569258427.96504
1569258427.98067
1569258427.99629
1569258428.01192
1569258428.02754
1569258428.04317
1569258428.05879
1569258428.07442
1569258428.09005
1569258428.10567
1569258428.1213
1569258428.13692
1569258428.15255
1569258428.16818
1569258428.1838
1569258428.19943
1569258428.21505
1569258428.23068
1569258428.2463
1569258428.26193
1569258428.27756
1569258428.29318
1569258428.30881
1569258428.32443
1569258428.34006
1569258428.35568
1569258428.37131
1569258428.38694
1569258428.40256
1569258428.41819
1569258428.43381
1569258428.44944
1569258428.46506
1569258428.48069
1569258428.49632
1569258428.51194
1569258428.52757
1569258428.54319
1569258428.55882
1569258428.57444
1569258428.59007
1569258428.6057
1569258428.62132
1569258428.63695
1569258428.65257
1569258428.6682
1569258428.68382
1569258428.69945
1569258428.71508
1569258428.7307
1569258428.74633
1569258428.76195
1569258428.77758
1569258428.7932
1569258428.80883
1569258428.82446
1569258428.84008
1569258428.85571
1569258428.87133
1569258428.88696
1569258428.90258
1569258428.91821
1569258428.93384
1569258428.94946
1569258428.96509
1569258428.98071
1569258428.99634
1569258429.01196
1569258429.02759
1569258429.04322
1569258429.05884
1569258429.07447
1569258429.09009
1569258429.10572
1569258429.12134
1569258429.13697
1569258429.1526
1569258429.16822
1569258429.18385
1569258429.19947
1569258429.2151
1569258429.23072
1569258429.24635
1569258429.26198
1569258429.2776
1569258429.29323
1569258429.30885
1569258429.32448
1569258429.3401
1569258429.35573
1569258429.37136
1569258429.38698
1569258429.40261
1569258429.41823
1569258429.43386
1569258429.44948
1569258429.46511
1569258429.48074
1569258429.49636
1569258429.51199
1569258429.52761
1569258429.54324
1569258429.55886
1569258429.57449
1569258429.59012
1569258429.60574
1569258429.62137
1569258429.63699
1569258429.65262
1569258429.66824
1569258429.68387
1569258429.6995
1569258429.71512
1569258429.73075
1569258429.74637
1569258429.762
1569258429.77762
1569258429.79325
1569258429.80888
1569258429.8245
1569258429.84013
1569258429.85575
1569258429.87138
1569258429.887
1569258429.90263
1569258429.91826
1569258429.93388
1569258429.94951
1569258429.96513
1569258429.98076
1569258429.99638
1569258430.01201
1569258430.02764
1569258430.04326
1569258430.05889
1569258430.07451
1569258430.09014
1569258430.10576
1569258430.12139
1569258430.13702
1569258430.15264
1569258430.16827
1569258430.18389
1569258430.19952
1569258430.21514
1569258430.23077
1569258430.2464
1569258430.26202
1569258430.27765
1569258430.29327
1569258430.3089
1569258430.32452
1569258430.34015
1569258430.35578
1569258430.3714
1569258430.38703
1569258430.40265
1569258430.41828
1569258430.43391
1569258430.44953
1569258430.46516
1569258430.48078
1569258430.49641
1569258430.51203
1569258430.52766
1569258430.54329
1569258430.55891
1569258430.57454
1569258430.59016
1569258430.60579
1569258430.62141
1569258430.63704
1569258430.65267
1569258430.66829
1569258430.68392
1569258430.69954
1569258430.71517
1569258430.73079
1569258430.74642
1569258430.76205
1569258430.77767
1569258430.7933
1569258430.80892
1569258430.82455
1569258430.84017
1569258430.8558
1569258430.87143
1569258430.88705
1569258430.90268
1569258430.9183
1569258430.93393
1569258430.94955
1569258430.96518
1569258430.98081
1569258430.99643
1569258431.01206
1569258431.02768
1569258431.04331
1569258431.05893
1569258431.07456
1569258431.09019
1569258431.10581
1569258431.12144
1569258431.13706
1569258431.15269
1569258431.16831
1569258431.18394
1569258431.19957
1569258431.21519
1569258431.23082
1569258431.24644
1569258431.26207
1569258431.27769
1569258431.29332
1569258431.30895
1569258431.32457
1569258431.3402
1569258431.35582
1569258431.37145
1569258431.38707
1569258431.4027
1569258431.41833
1569258431.43395
1569258431.44958
1569258431.4652
1569258431.48083
1569258431.49645
1569258431.51208
1569258431.52771
1569258431.54333
1569258431.55896
1569258431.57458
1569258431.59021
1569258431.60583
1569258431.62146
1569258431.63709
1569258431.65271
1569258431.66834
1569258431.68396
1569258431.69959
1569258431.71521
1569258431.73084
1569258431.74647
1569258431.76209
1569258431.77772
1569258431.79334
1569258431.80897
1569258431.82459
1569258431.84022
1569258431.85585
1569258431.87147
1569258431.8871
1569258431.90272
1569258431.91835
1569258431.93397
1569258431.9496
1569258431.96523
1569258431.98085
1569258431.99648
1569258432.0121
1569258432.02773
1569258432.04335
1569258432.05898
1569258432.07461
1569258432.09023
1569258432.10586
1569258432.12148
1569258432.13711
1569258432.15273
1569258432.16836
1569258432.18399
1569258432.19961
1569258432.21524
1569258432.23086
1569258432.24649
1569258432.26211
1569258432.27774
1569258432.29337
1569258432.30899
1569258432.32462
1569258432.34024
1569258432.35587
1569258432.37149
1569258432.38712
1569258432.40275
1569258432.41837
1569258432.434
1569258432.44962
1569258432.46525
1569258432.48087
1569258432.4965
1569258432.51213
1569258432.52775
1569258432.54338
1569258432.559
1569258432.57463
1569258432.59026
1569258432.60588
1569258432.62151
1569258432.63713
1569258432.65276
1569258432.66838
1569258432.68401
1569258432.69964
1569258432.71526
1569258432.73089
1569258432.74651
1569258432.76214
1569258432.77776
1569258432.79339
1569258432.80902
1569258432.82464
1569258432.84027
1569258432.85589
1569258432.87152
1569258432.88714
1569258432.90277
1569258432.9184
1569258432.93402
1569258432.94965
1569258432.96527
1569258432.9809
1569258432.99652
1569258433.01215
1569258433.02778
1569258433.0434
1569258433.05903
1569258433.07465
1569258433.09028
1569258433.1059
1569258433.12153
1569258433.13716
1569258433.15278
1569258433.16841
1569258433.18403
1569258433.19966
1569258433.21528
1569258433.23091
1569258433.24654
1569258433.26216
1569258433.27779
1569258433.29341
1569258433.30904
1569258433.32466
1569258433.34029
1569258433.35592
1569258433.37154
1569258433.38717
1569258433.40279
1569258433.41842
1569258433.43404
1569258433.44967
1569258433.4653
1569258433.48092
1569258433.49655
1569258433.51217
1569258433.5278
1569258433.54342
1569258433.55905
1569258433.57468
1569258433.5903
1569258433.60593
1569258433.62155
1569258433.63718
1569258433.6528
1569258433.66843
1569258433.68406
1569258433.69968
1569258433.71531
1569258433.73093
1569258433.74656
1569258433.76218
1569258433.77781
1569258433.79344
1569258433.80906
1569258433.82469
1569258433.84031
1569258433.85594
1569258433.87156
1569258433.88719
1569258433.90282
1569258433.91844
1569258433.93407
1569258433.94969
1569258433.96532
1569258433.98094
1569258433.99657
1569258434.0122
1569258434.02782
1569258434.04345
1569258434.05907
1569258434.0747
1569258434.09032
1569258434.10595
1569258434.12158
1569258434.1372
1569258434.15283
1569258434.16845
1569258434.18408
1569258434.1997
1569258434.21533
1569258434.23096
1569258434.24658
1569258434.26221
1569258434.27783
1569258434.29346
1569258434.30908
1569258434.32471
1569258434.34034
1569258434.35596
1569258434.37159
1569258434.38721
1569258434.40284
1569258434.41846
1569258434.43409
1569258434.44972
1569258434.46534
1569258434.48097
1569258434.49659
1569258434.51222
1569258434.52784
1569258434.54347
1569258434.5591
1569258434.57472
1569258434.59035
1569258434.60597
1569258434.6216
1569258434.63722
1569258434.65285
1569258434.66848
1569258434.6841
1569258434.69973
1569258434.71535
1569258434.73098
1569258434.7466
1569258434.76223
1569258434.77786
1569258434.79348
1569258434.80911
1569258434.82473
1569258434.84036
1569258434.85598
1569258434.87161
1569258434.88724
1569258434.90286
1569258434.91849
1569258434.93411
1569258434.94974
1569258434.96536
1569258434.98099
1569258434.99662
1569258435.01224
1569258435.02787
1569258435.04349
1569258435.05912
1569258435.07474
1569258435.09037
1569258435.106
1569258435.12162
1569258435.13725
1569258435.15287
1569258435.1685
1569258435.18412
1569258435.19975
1569258435.21538
1569258435.231
1569258435.24663
1569258435.26225
1569258435.27788
1569258435.29351
1569258435.30913
1569258435.32476
1569258435.34038
1569258435.35601
1569258435.37163
1569258435.38726
1569258435.40289
1569258435.41851
1569258435.43414
1569258435.44976
1569258435.46539
1569258435.48101
1569258435.49664
1569258435.51227
1569258435.52789
1569258435.54352
1569258435.55914
1569258435.57477
1569258435.59039
1569258435.60602
1569258435.62165
1569258435.63727
1569258435.6529
1569258435.66852
1569258435.68415
1569258435.69977
1569258435.7154
1569258435.73103
1569258435.74665
1569258435.76228
1569258435.7779
1569258435.79353
1569258435.80915
1569258435.82478
1569258435.84041
1569258435.85603
1569258435.87166
1569258435.88728
1569258435.90291
1569258435.91853
1569258435.93416
1569258435.94979
1569258435.96541
1569258435.98104
1569258435.99666
1569258436.01229
1569258436.02791
1569258436.04354
1569258436.05917
1569258436.07479
1569258436.09042
1569258436.10604
1569258436.12167
1569258436.13729
1569258436.15292
1569258436.16855
1569258436.18417
1569258436.1998
1569258436.21542
1569258436.23105
1569258436.24667
1569258436.2623
1569258436.27793
1569258436.29355
1569258436.30918
1569258436.3248
1569258436.34043
1569258436.35605
1569258436.37168
1569258436.38731
1569258436.40293
1569258436.41856
1569258436.43418
1569258436.44981
1569258436.46543
1569258436.48106
1569258436.49669
1569258436.51231
1569258436.52794
1569258436.54356
1569258436.55919
1569258436.57481
1569258436.59044
1569258436.60607
1569258436.62169
1569258436.63732
1569258436.65294
1569258436.66857
1569258436.68419
1569258436.69982
1569258436.71545
1569258436.73107
1569258436.7467
1569258436.76232
1569258436.77795
1569258436.79357
1569258436.8092
1569258436.82483
1569258436.84045
1569258436.85608
1569258436.8717
1569258436.88733
1569258436.90295
1569258436.91858
1569258436.93421
1569258436.94983
1569258436.96546
1569258436.98108
1569258436.99671
1569258437.01233
1569258437.02796
1569258437.04359
1569258437.05921
1569258437.07484
1569258437.09046
1569258437.10609
1569258437.12171
1569258437.13734
1569258437.15297
1569258437.16859
1569258437.18422
1569258437.19984
1569258437.21547
1569258437.23109
1569258437.24672
1569258437.26235
1569258437.27797
1569258437.2936
1569258437.30922
1569258437.32485
1569258437.34047
1569258437.3561
1569258437.37173
1569258437.38735
1569258437.40298
1569258437.4186
1569258437.43423
1569258437.44986
1569258437.46548
1569258437.48111
1569258437.49673
1569258437.51236
1569258437.52798
1569258437.54361
1569258437.55924
1569258437.57486
1569258437.59049
1569258437.60611
1569258437.62174
1569258437.63736
1569258437.65299
1569258437.66862
1569258437.68424
1569258437.69987
1569258437.71549
1569258437.73112
1569258437.74674
1569258437.76237
1569258437.778
1569258437.79362
1569258437.80925
1569258437.82487
1569258437.8405
1569258437.85612
1569258437.87175
1569258437.88738
1569258437.903
1569258437.91863
1569258437.93425
1569258437.94988
1569258437.9655
1569258437.98113
1569258437.99676
1569258438.01238
1569258438.02801
1569258438.04363
1569258438.05926
1569258438.07488
1569258438.09051
1569258438.10614
1569258438.12176
1569258438.13739
1569258438.15301
1569258438.16864
1569258438.18426
1569258438.19989
1569258438.21552
1569258438.23114
1569258438.24677
1569258438.26239
1569258438.27802
1569258438.29364
1569258438.30927
1569258438.3249
1569258438.34052
1569258438.35615
1569258438.37177
1569258438.3874
1569258438.40302
1569258438.41865
1569258438.43428
1569258438.4499
1569258438.46553
1569258438.48115
1569258438.49678
1569258438.5124
1569258438.52803
1569258438.54366
1569258438.55928
1569258438.57491
1569258438.59053
1569258438.60616
1569258438.62178
1569258438.63741
1569258438.65304
1569258438.66866
1569258438.68429
1569258438.69991
1569258438.71554
1569258438.73116
1569258438.74679
1569258438.76242
1569258438.77804
1569258438.79367
1569258438.80929
1569258438.82492
1569258438.84054
1569258438.85617
1569258438.8718
1569258438.88742
1569258438.90305
1569258438.91867
1569258438.9343
1569258438.94992
1569258438.96555
1569258438.98118
1569258438.9968
1569258439.01243
1569258439.02805
1569258439.04368
1569258439.0593
1569258439.07493
1569258439.09056
1569258439.10618
1569258439.12181
1569258439.13743
1569258439.15306
1569258439.16868
1569258439.18431
1569258439.19994
1569258439.21556
1569258439.23119
1569258439.24681
1569258439.26244
1569258439.27806
1569258439.29369
1569258439.30932
1569258439.32494
1569258439.34057
1569258439.35619
1569258439.37182
1569258439.38744
1569258439.40307
1569258439.4187
1569258439.43432
1569258439.44995
1569258439.46557
1569258439.4812
1569258439.49682
1569258439.51245
1569258439.52808
1569258439.5437
1569258439.55933
1569258439.57495
1569258439.59058
1569258439.6062
1569258439.62183
1569258439.63746
1569258439.65308
1569258439.66871
1569258439.68433
1569258439.69996
1569258439.71558
1569258439.73121
1569258439.74684
1569258439.76246
1569258439.77809
1569258439.79371
1569258439.80934
1569258439.82497
1569258439.84059
1569258439.85622
1569258439.87184
1569258439.88747
1569258439.90309
1569258439.91872
1569258439.93435
1569258439.94997
1569258439.9656
1569258439.98122
