-0.1842957
-1.265137
-2.449631
-3.570313
-4.448227
-4.970871
-5.155457
-5.136978
-5.107162
-5.225372
-5.535385
-5.965973
-6.383408
-6.673157
-6.755768
-6.590485
-6.13942
-5.382034
-4.332108
-3.08316
-1.81041
-0.7369843
-0.0329895
0.2801514
0.3278656
0.3045502
0.3628998
0.5415192
0.7649384
0.9398651
1.020615
1.057922
1.18515
1.488739
1.955429
2.458725
2.824722
2.941513
2.840073
2.658478
2.584915
2.739746
3.07869
3.445511
3.645691
3.600632
3.360077
3.094818
2.968033
3.016571
3.156265
3.214935
3.063171
2.706207
2.262253
1.858109
1.581314
1.415375
1.278793
1.088974
0.8236847
0.5231171
0.1901855
-0.1993103
-0.7483749
-1.548325
-2.582863
-3.711044
-4.732529
-5.466301
-5.845398
-5.937698
-5.881958
-5.805672
-5.786858
-5.82872
-5.922783
-6.081268
-6.311882
-6.577744
-6.765198
-6.689384
-6.196373
-5.282997
-4.126068
-3.025284
-2.241516
-1.872307
-1.791206
-1.755783
-1.532959
-1.029274
-0.3200226
0.4617767
1.205093
1.907761
2.646103
3.47683
4.366005
5.182442
5.750381
5.945526
5.75869
5.292068
4.68914
4.110855
3.670975
3.39019
3.241432
3.127731
2.950653
2.638733
2.195961
1.704323
1.300217
1.103256
1.133026
1.296417
1.451134
1.481361
1.345589
1.13092
0.9299927
0.7965546
0.7001495
0.5343552
0.1871414
-0.3646927
-1.041695
-1.71315
-2.213661
-2.493011
-2.584419
-2.575752
-2.573204
-2.612976
-2.688591
-2.80645
-2.996117
-3.330734
-3.882965
-4.649948
-5.530724
-6.358757
-6.956673
-7.192612
-7.025002
-6.526085
-5.794151
-4.945847
-4.086037
-3.274841
-2.569633
-1.984261
-1.482643
-1.003479
-0.5146408
-0.009681702
0.4738922
0.8728104
1.161461
1.305977
1.344063
1.314095
1.273033
1.279831
1.404953
1.717964
2.251656
2.998718
3.865982
4.70578
5.325058
5.581467
5.437149
4.976746
4.360718
3.76181
3.300247
2.985497
2.727371
2.404808
1.930107
1.34536
0.7663116
0.3320847
0.09643555
0.02539825
0.0125885
-0.04866028
-0.1814728
-0.3426971
-0.467186
-0.5650406
-0.7006378
-1.003609
-1.538223
-2.281952
-3.103401
-3.839226
-4.380394
-4.728981
-5.010674
-5.382271
-5.975525
-6.797142
-7.737495
-8.578384
-9.091217
-9.08432
-8.501892
-7.42469
-6.054619
-4.620834
-3.307716
-2.197838
-1.286598
-0.5073318
0.2136917
0.9364471
1.699821
2.523262
3.40464
4.284515
5.038719
5.504784
5.552879
5.146599
4.362747
3.388573
2.451904
1.75312
1.406075
1.418747
1.70578
2.140495
2.590302
2.979599
3.303314
3.612595
3.949661
4.309723
4.595108
4.692024
4.521477
4.087502
3.484154
2.808929
2.096001
1.33493
0.4761047
-0.4711685
-1.431213
-2.25425
-2.809853
-3.051743
-3.06324
-3.008972
-3.043236
-3.225609
-3.512108
-3.794762
-3.988174
-4.071854
-4.089806
-4.144196
-4.334793
-4.738297
-5.343452
-6.035225
-6.630608
-6.945824
-6.858513
-6.361275
-5.556023
-4.574562
-3.552399
-2.551414
-1.592506
-0.7102356
-0.002037048
0.4456863
0.5978241
0.5637589
0.5379944
0.7002563
1.130211
1.747063
2.387108
2.896149
3.230911
3.443718
3.651222
3.92836
4.273994
4.636749
4.924362
5.071854
5.043854
4.842262
4.469826
3.950722
3.324432
2.687813
2.182877
1.94146
2.031105
2.414116
2.932556
3.368126
3.509842
3.230812
2.520424
1.507294
0.4088135
-0.5291748
-1.131264
-1.350769
-1.287514
-1.12664
-1.07457
-1.258232
-1.691345
-2.29406
-2.938644
-3.532089
-4.033142
-4.470757
-4.865143
-5.233376
-5.569725
-5.884384
-6.209465
-6.581711
-7.012688
-7.433632
-7.738525
-7.775345
-7.434662
-6.663445
-5.499245
-4.04834
-2.458733
-0.8672714
0.5992279
1.854378
2.819321
3.446609
3.739868
3.752464
3.592422
3.416
3.377815
3.560112
3.970612
4.509239
5.037155
5.440544
5.659706
5.724113
5.695389
5.621552
5.500198
5.27565
4.889191
4.341652
3.746277
3.265877
3.034111
3.074615
3.280407
3.468163
3.484665
3.288292
2.933613
2.541771
2.179089
1.859516
1.552906
1.221199
0.8642883
0.4918098
0.0862999
-0.4245644
-1.094227
-1.933949
-2.80452
-3.490421
-3.809689
-3.707016
-3.328358
-2.905083
-2.672981
-2.726978
-3.025066
-3.476349
-4.020164
-4.673561
-5.447536
-6.297581
-7.040707
-7.464954
-7.395721
-6.790543
-5.75885
-4.506893
-3.230469
-2.017437
-0.8929939
0.1759949
1.192684
2.119457
2.86969
3.345051
3.523212
3.452953
3.295094
3.208778
3.322701
3.643185
4.050117
4.400318
4.585629
4.626568
4.615513
4.651642
4.744022
4.790089
4.63858
4.177616
3.450027
2.600624
1.82526
1.273987
0.9768829
0.8925972
0.9263992
1.017586
1.121902
1.222694
1.300697
1.322701
1.242794
1.022247
0.6703453
0.1895561
-0.3985786
-1.072186
-1.799557
-2.519123
-3.134247
-3.539021
-3.695675
-3.625572
-3.43787
-3.317127
-3.448238
-3.977062
-4.924702
-6.191463
-7.532284
-8.635616
-9.162704
-8.886364
-7.775753
-6.004387
-3.918377
-1.882561
-0.1880722
1.049828
1.869049
2.379013
2.67728
2.831261
2.844868
2.706352
2.450356
2.122292
1.805592
1.59304
1.562519
1.739559
2.123779
2.664394
3.292717
3.951656
4.585083
5.150787
5.585003
5.812122
5.760799
5.427612
4.851822
4.140652
3.397396
2.679974
2.006039
1.36998
0.8144608
0.4140625
0.2625237
0.3491173
0.5397415
0.6241417
0.3747215
-0.289196
-1.294945
-2.424801
-3.398163
-4.005131
-4.171608
-3.997429
-3.663132
-3.414188
-3.442749
-3.865536
-4.67762
-5.742512
-6.830605
-7.647808
-7.920113
-7.481865
-6.344189
-4.696423
-2.862663
-1.162956
0.1485558
0.9720802
1.379292
1.521976
1.610703
1.808571
2.220684
2.866203
3.650993
4.429211
5.000362
5.236256
5.057461
4.52895
3.826031
3.157227
2.697693
2.501686
2.539398
2.701057
2.897903
3.037689
3.052664
2.910128
2.606985
2.149761
1.580778
0.9802723
0.4304142
0.01596451
-0.2335453
-0.3248711
-0.3384228
-0.3453712
-0.4398746
-0.7156219
-1.225653
-1.988815
-2.923922
-3.846727
-4.55818
-4.929562
-4.973818
-4.829142
-4.72715
-4.843275
-5.243967
-5.860939
-6.524044
-7.054642
-7.304819
-7.208792
-6.763247
-6.034946
-5.104816
-4.090757
-3.092579
-2.185284
-1.424475
-0.8148518
-0.3439999
0.01351166
0.3326759
0.7302074
1.269571
1.967033
2.756001
3.504906
4.107937
4.505798
4.706308
4.781069
4.800528
4.793789
4.796314
4.852175
4.985649
5.197775
5.425943
5.535185
5.406424
5.016834
4.443157
3.838579
3.349264
3.02836
2.843449
2.693842
2.476229
2.119608
1.57111
0.8085232
-0.1407967
-1.17881
-2.138964
-2.839832
-3.178759
-3.216936
-3.148588
-3.229954
-3.63073
-4.381454
-5.391594
-6.479389
-7.469044
-8.197599
-8.544802
-8.407679
-7.722364
-6.525831
-4.959253
-3.282587
-1.785059
-0.662859
0.03542328
0.3819695
0.5199471
0.58601
0.6731815
0.8408108
1.118042
1.527203
2.073326
2.738558
3.486851
4.242336
4.897404
5.352783
5.520185
5.366644
4.938818
4.355837
3.762926
3.328074
3.148851
3.23387
3.490732
3.811716
4.111645
4.336039
4.482883
4.517487
4.427435
4.1556
3.668867
2.977074
2.151291
1.305761
0.5371017
-0.08069038
-0.530899
-0.8390102
-1.070303
-1.278847
-1.478048
-1.702534
-1.962839
-2.298704
-2.75878
-3.381392
-4.186646
-5.151987
-6.179282
-7.116785
-7.888648
-8.456912
-8.823383
-8.977323
-8.86697
-8.415248
-7.563684
-6.33675
-4.849849
-3.320286
-1.959823
-0.9400673
-0.3362246
-0.125474
-0.2170057
-0.4410019
-0.6308498
-0.6482286
-0.4288616
0.009710312
0.5558281
1.120826
1.648273
2.110749
2.506715
2.827828
3.066519
3.252942
3.479512
3.858127
4.466895
5.268564
6.083517
6.663766
6.812421
6.469599
5.757255
4.886728
4.069182
3.436402
3.016716
2.782299
2.712122
2.772387
2.867891
2.898975
2.729846
2.305696
1.668718
0.9652729
0.3696365
-0.01224232
-0.2122936
-0.3933954
-0.6977215
-1.184218
-1.798126
-2.417738
-2.909175
-3.253016
-3.51575
-3.80156
-4.206857
-4.739788
-5.344684
-5.923377
-6.374002
-6.596842
-6.538724
-6.206649
-5.628491
-4.891408
-4.078485
-3.261125
-2.492043
-1.775528
-1.096664
-0.4259777
0.256176
0.9687681
1.678041
2.298205
2.755442
2.971112
2.93996
2.749736
2.523735
2.387051
2.432328
2.657056
3.024621
3.489005
3.982942
4.461881
4.846176
5.060835
5.048632
4.810942
4.386172
3.902991
3.498138
3.217415
3.046778
2.856541
2.505311
1.908973
1.144997
0.3700271
-0.1707482
-0.3139148
-0.06381369
0.3940177
0.7942791
0.8607602
0.4549479
-0.3573313
-1.400509
-2.434039
-3.28917
-3.911993
-4.342723
-4.627155
-4.809488
-4.911193
-4.972878
-5.063563
-5.285422
-5.69905
-6.28853
-6.901413
-7.34482
-7.435807
-7.099003
-6.376129
-5.382205
-4.24597
-3.042226
-1.829582
-0.6377485
0.4644176
1.397206
2.120978
2.668464
3.092517
3.47553
3.850285
4.191286
4.422315
4.476814
4.302709
3.918502
3.406054
2.841554
2.316953
1.925285
1.719954
1.690313
1.805624
1.972409
2.12143
2.218258
2.282611
2.370358
2.546195
2.815425
3.093001
3.276278
3.236901
2.94956
2.491215
2.019541
1.69066
1.578539
1.658289
1.798152
1.831882
1.646587
1.223843
0.6285039
-0.04891217
-0.762253
-1.529303
-2.377317
-3.33061
-4.33573
-5.346478
-6.302981
-7.200935
-8.080757
-8.936895
-9.69339
-10.16271
-10.14016
-9.485638
-8.228382
-6.566063
-4.780252
-3.134682
-1.755329
-0.6746995
0.139744
0.7306573
1.117162
1.309252
1.354763
1.345899
1.411417
1.650005
2.079091
2.67295
3.352888
4.067595
4.760431
5.345366
5.726759
5.807681
5.58024
5.092644
4.519426
4.010189
3.662303
3.470264
3.335437
3.192543
3.025347
2.893094
2.852707
2.933887
3.047904
3.070285
2.900267
2.508052
1.966744
1.387074
0.8770885
0.4731543
0.1912591
-0.02118516
-0.2063336
-0.3930311
-0.6083436
-0.8681316
-1.196276
-1.598832
-2.097034
-2.677487
-3.35328
-4.122131
-4.969368
-5.856338
-6.69932
-7.403454
-7.850423
-7.969351
-7.729481
-7.162494
-6.328514
-5.312168
-4.195479
-3.039981
-1.918823
-0.9056964
-0.06335735
0.5641456
0.9777732
1.260299
1.533666
1.911263
2.468063
3.182379
3.944515
4.614233
5.079379
5.300065
5.298509
5.140639
4.866131
4.511334
4.083829
3.625026
3.171486
2.827695
2.653075
2.651532
2.739403
2.793629
2.706118
2.442305
2.071314
1.673604
1.362789
1.183221
1.128482
1.13068
1.120927
1.040306
0.8412595
0.5181899
0.05652761
-0.5184321
-1.166447
-1.800805
-2.356055
-2.809116
-3.207129
-3.63927
-4.183112
-4.907359
-5.804873
-6.8226
-7.873226
-8.784145
-9.409819
-9.598704
-9.253603
-8.3606
-7.040024
-5.482251
-3.909016
-2.519618
-1.375218
-0.4696321
0.2747555
0.9343653
1.567898
2.172153
2.735258
3.239011
3.67061
4.048807
4.339582
4.514143
4.532183
4.383883
4.09662
3.775941
3.535896
3.46824
3.626975
3.964633
4.370587
4.710958
4.859448
4.768934
4.480172
4.064647
3.588626
3.084923
2.531665
1.902622
1.205755
0.489717
-0.1565256
-0.6324077
-0.9141846
-1.04808
-1.118928
-1.223705
-1.386781
-1.593333
-1.807292
-2.002639
-2.198089
-2.445791
-2.790635
-3.245265
-3.815673
-4.46388
-5.168152
-5.891951
-6.555815
-7.035191
-7.147846
-6.730322
-5.747129
-4.353195
-2.832759
-1.511957
-0.5960722
-0.1021271
0.1390467
0.3398113
0.6542654
1.082892
1.509968
1.836438
2.057915
2.274636
2.607796
3.10548
3.675331
4.180571
4.494993
4.593115
4.576971
4.573838
4.642303
4.727869
4.671081
4.292442
3.551947
2.565668
1.57693
0.8558216
0.5564041
0.6799154
1.089029
1.571633
1.934386
2.08947
2.056738
1.901879
1.692513
1.414545
1.018812
0.47155
-0.1906776
-0.8882999
-1.510812
-1.990145
-2.387898
-2.795732
-3.346901
-4.089599
-4.961617
-5.817525
-6.483438
-6.794496
-6.675998
-6.160733
-5.321323
-4.316507
-3.300652
-2.406624
-1.708359
-1.212458
-0.8568354
-0.5546865
-0.2727909
0.03796387
0.3810863
0.7384291
1.084053
1.411338
1.711587
1.971739
2.186638
2.322433
2.39536
2.463047
2.590469
2.89917
3.441118
4.183482
4.988664
5.669361
6.038502
6.016376
5.657047
5.087519
4.463556
3.890244
3.395832
2.940972
2.504298
2.059412
1.632024
1.22514
0.7767334
0.2361183
-0.4953127
-1.40617
-2.383795
-3.203992
-3.682379
-3.734689
-3.453858
-3.129524
-3.028386
-3.33809
-4.040532
-4.948824
-5.808624
-6.420695
-6.674864
-6.53989
-6.085776
-5.360794
-4.443615
-3.411113
-2.36223
-1.3741
-0.5285816
0.1315718
0.624588
0.946578
1.16513
1.328084
1.492782
1.692698
1.927498
2.169739
2.363442
2.490222
2.537712
2.538956
2.544095
2.582766
2.695405
2.905855
3.232042
3.637938
4.0632
4.387447
4.494491
4.328799
3.888824
3.264585
2.563992
1.87369
1.234941
0.694644
0.2842789
0.02247906
-0.07499599
-0.07373428
-0.04688644
-0.08795547
-0.2374153
-0.4725304
-0.7289953
-0.955267
-1.171572
-1.43711
-1.827107
-2.380358
-3.073434
-3.892264
-4.804881
-5.777425
-6.729354
-7.503261
-7.881047
-7.693059
-6.872201
-5.538187
-3.976935
-2.524178
-1.442362
-0.8505554
-0.6815367
-0.7367964
-0.7909136
-0.6483288
-0.2199078
0.4699421
1.30846
2.149487
2.888998
3.467486
3.889169
4.183821
4.391164
4.541421
4.659282
4.745033
4.798763
4.803226
4.748371
4.619201
4.424638
4.191252
3.942299
3.719336
3.528295
3.358567
3.182844
2.96113
2.660936
2.27688
1.824061
1.338047
0.877346
0.4835682
0.1875706
-0.003704071
-0.1027641
-0.1502457
-0.213686
-0.3876457
-0.7450562
-1.310072
-2.041885
-2.847437
-3.612661
-4.279959
-4.86092
-5.431805
-6.054882
-6.723545
-7.338688
-7.754009
-7.849228
-7.566917
-6.968323
-6.139029
-5.182573
-4.149082
-3.034441
-1.861952
-0.7003727
0.3422546
1.143667
1.656204
1.952227
2.177004
2.490801
2.982803
3.620245
4.291496
4.858006
5.216228
5.339626
5.26284
5.059956
4.790815
4.52195
4.270416
4.034876
3.778011
3.481331
3.126089
2.75033
2.403463
2.097446
1.82303
1.519735
1.170225
0.8312149
0.6239548
0.6634769
0.9602203
1.377441
1.695755
1.720274
1.354197
0.6809196
-0.1054764
-0.8255825
-1.350365
-1.663937
-1.80439
-1.828352
-1.78076
-1.724243
-1.755295
-1.970108
-2.500025
-3.385437
-4.566889
-5.900444
-7.170473
-8.132212
-8.617264
-8.552197
-7.965019
-6.972788
-5.726524
-4.35968
-3.004589
-1.769051
-0.7142296
0.1340828
0.8241005
1.405197
1.948099
2.481743
2.999987
3.441341
3.763252
3.94117
4.016844
4.086479
4.194874
4.346119
4.465099
4.480536
4.329918
4.063799
3.794437
3.65954
3.748692
4.030909
4.390829
4.652105
4.680956
4.452257
4.009729
3.458378
2.906883
2.421804
1.99909
1.619404
1.247465
0.8562107
0.4385929
-0.01071167
-0.4708233
-0.9229908
-1.320084
-1.641207
-1.88723
-2.140442
-2.496075
-3.03307
-3.761089
-4.585381
-5.348515
-5.901276
-6.197681
-6.307663
-6.420279
-6.660278
-7.056208
-7.489679
-7.764282
-7.704399
-7.257757
-6.515188
-5.61167
-4.706789
-3.814932
-2.859459
-1.722254
-0.3670597
1.118181
2.531021
3.659857
4.405891
4.779699
4.947544
5.096949
5.33749
5.657734
5.923492
6.000048
5.841908
5.542076
5.236744
5.050505
5.000828
4.976191
4.856369
4.525492
3.984957
3.304192
2.588581
1.927361
1.35268
0.881218
0.500946
0.2358303
0.06941795
-0.03732491
-0.1709824
-0.4216347
-0.833416
-1.385036
-2.015673
-2.668028
-3.279049
-3.82938
-4.279671
-4.578842
-4.707294
-4.695477
-4.640347
-4.690311
-4.952414
-5.416491
-5.967594
-6.39979
-6.513395
-6.205002
-5.470573
-4.450977
-3.33865
-2.314129
-1.490692
-0.9035168
-0.4816494
-0.114603
0.3095818
0.8558159
1.490692
2.115406
2.63673
3.000652
3.206352
3.33666
3.445164
3.544771
3.632906
3.648731
3.523872
3.259705
2.884823
2.476597
2.167221
2.01539
2.016106
2.110619
2.176888
2.110477
1.902147
1.611742
1.337362
1.187355
1.169746
1.223608
1.267069
1.215973
1.027298
0.7349586
0.3951149
0.02762985
-0.3552322
-0.8339062
-1.469971
-2.271414
-3.180832
-4.065874
-4.74194
-5.096434
-5.127541
-4.945414
-4.772346
-4.796867
-5.108992
-5.657917
-6.258785
-6.64694
-6.613733
-6.079329
-5.105186
-3.902441
-2.698835
-1.662615
-0.905571
-0.40168
-0.06139565
0.2383575
0.5935555
1.084904
1.697636
2.370752
3.002859
3.470911
3.705696
3.692526
3.488997
3.204998
2.985371
2.929892
3.059776
3.302267
3.532473
3.61244
3.477211
3.153255
2.737659
2.40127
2.244267
2.256397
2.338907
2.35199
2.192019
1.856901
1.427454
1.007626
0.651062
0.3209839
-0.08613205
-0.6611462
-1.419586
-2.281649
-3.098574
-3.700666
-3.986917
-3.98283
-3.827154
-3.717278
-3.824205
-4.21981
-4.878407
-5.708652
-6.55769
-7.269009
-7.685331
-7.697895
-7.243044
-6.37007
-5.247717
-4.108717
-3.171896
-2.551733
-2.221529
-2.023651
-1.788475
-1.413803
-0.8739643
-0.2303219
0.4693985
1.230934
2.09285
3.028231
3.921566
4.580326
4.81201
4.585567
4.057774
3.531923
3.322386
3.608012
4.315975
5.19255
5.916643
6.229864
6.040768
5.424688
4.57353
3.694779
2.977976
2.480542
2.176062
1.974927
1.74852
1.426103
1.003808
0.5408907
0.08964062
-0.3525429
-0.8281898
-1.367087
-1.954295
-2.535595
-3.038244
-3.466637
-3.921095
-4.556296
-5.491389
-6.688596
-7.921432
-8.842026
-9.151834
-8.717916
-7.642189
-6.191373
-4.682093
-3.377464
-2.410521
-1.786331
-1.405931
-1.146524
-0.8528776
-0.4571934
0.06261086
0.6602468
1.254305
1.764625
2.1608
2.453419
2.688749
2.919048
3.149493
3.344096
3.468115
3.522193
3.550628
3.60898
3.744473
3.939505
4.15337
4.304142
4.3199
4.18454
3.942052
3.695139
3.529877
3.48658
3.514374
3.479102
3.23531
2.705203
1.952089
1.125262
0.4007387
-0.1564035
-0.5953455
-1.100587
-1.842435
-2.897537
-4.195772
-5.547009
-6.763378
-7.719751
-8.373757
-8.737615
-8.807412
-8.586011
-8.032955
-7.16282
-6.047486
-4.824307
-3.60851
-2.460093
-1.35414
-0.2378063
0.9181967
2.095179
3.196329
4.082819
4.661009
4.904121
4.878397
4.715023
4.548988
4.482336
4.578922
4.826994
5.227077
5.752058
6.366989
7.029978
7.690382
8.257521
8.635536
8.727091
8.476334
7.905176
7.129673
6.291531
5.515217
4.857214
4.266806
3.631821
2.862846
1.93236
0.9054375
-0.09317398
-0.962326
-1.636509
-2.111303
-2.454517
-2.735268
-3.044378
-3.484888
-4.109602
-4.939077
-5.958733
-7.07704
-8.189384
-9.171135
-9.870323
-10.15331
-9.923105
-9.097654
-7.740955
-5.992594
-4.116774
-2.413876
-1.115955
-0.2978592
0.1267109
0.3739719
0.7011852
1.277086
2.168978
3.282959
4.457561
5.485193
6.215708
6.550261
6.531469
6.301476
6.03693
5.920948
6.033354
6.333641
6.693682
7.00436
7.165604
7.167727
7.06003
6.87229
6.636797
6.352715
6.002876
5.607439
5.196083
4.808123
4.445332
4.101164
3.716053
3.257099
2.71035
2.109196
1.524761
1.014444
0.5890312
0.2069473
-0.1937771
-0.6806889
-1.234877
-1.817745
-2.368853
-2.866423
-3.41745
-4.154352
-5.199463
-6.559103
-8.090849
-9.491293
-10.4707
-10.81036
-10.43446
-9.461697
-8.096542
-6.580397
-5.086353
-3.71311
-2.456701
-1.291836
-0.2141571
0.7912807
1.696529
2.48366
3.127806
3.622503
3.993444
4.267231
4.48234
4.684723
4.935535
5.271502
5.716488
6.246902
6.760845
7.14266
7.271395
7.100182
6.679453
6.148201
5.64119
5.268642
5.042582
4.864006
4.611248
4.222118
3.710493
3.14806
2.618553
2.133038
1.680548
1.233601
0.7715549
0.3503933
0.0404911
-0.1109581
-0.1458378
-0.1711807
-0.3174534
-0.6736946
-1.22979
-1.90344
-2.585161
-3.20332
-3.787054
-4.438318
-5.279472
-6.358936
-7.567076
-8.665187
-9.349693
-9.378167
-8.691352
-7.431156
-5.854234
-4.235116
-2.793868
-1.637746
-0.7682953
-0.14818
0.2839527
0.592371
0.8403187
1.093716
1.425904
1.833797
2.282538
2.685085
2.958627
3.094528
3.148613
3.207076
3.332122
3.544873
3.782807
3.98478
4.109165
4.171587
4.232191
4.3345
4.474636
4.572163
4.521762
4.262424
3.818034
3.272758
2.745924
2.294035
1.933851
1.590804
1.167379
0.6091466
-0.1294875
-0.9804797
-1.844812
-2.612259
-3.201844
-3.579654
-3.771799
-3.857156
-3.921796
-4.086178
-4.425791
-4.996128
-5.792531
-6.734895
-7.635309
-8.244884
-8.338887
-7.818553
-6.765825
-5.382911
-3.911676
-2.513413
-1.275984
-0.1954015
0.7240067
1.462557
2.010338
2.377433
2.654653
2.939231
3.29108
3.716894
4.137008
4.503421
4.795379
5.063972
5.328174
5.575021
5.731954
5.715432
5.52219
5.183644
4.801457
4.459656
4.213523
4.043042
3.928515
3.810582
3.670691
3.513447
3.333819
3.138628
2.921679
2.675245
2.364141
1.970682
1.470817
0.8586264
0.1588106
-0.6120853
-1.4238
-2.269903
-3.145002
-4.06267
-5.019218
-5.967108
-6.81859
-7.443218
-7.718689
-7.570707
-6.992399
-6.0804
-4.961838
-3.786554
-2.678015
-1.733492
-0.9854221
-0.4417496
-0.0561161
0.277153
0.6400299
1.061834
1.493149
1.800823
1.85652
1.635935
1.253946
0.9250393
0.8630066
1.162189
1.742039
2.416666
3.014923
3.442507
3.727461
3.951906
4.160973
4.314924
4.305208
4.036589
3.498142
2.752092
1.925758
1.11022
0.3270092
-0.4674454
-1.315125
-2.244732
-3.224003
-4.176018
-5.078568
-5.893764
-6.656242
-7.391106
-8.13446
-8.899357
-9.632435
-10.23192
-10.52609
-10.35268
-9.606659
-8.303917
-6.620258
-4.838448
-3.259872
-2.069447
-1.308685
-0.8607407
-0.5364227
-0.1702347
0.3205261
0.9062958
1.509941
2.005806
2.342625
2.496593
2.52689
2.518341
2.562119
2.691811
2.852673
2.950012
2.877262
2.636723
2.30127
2.038197
1.992603
2.151161
2.392853
2.475937
2.219837
1.5732
0.6848335
-0.2296753
-0.9785156
-1.476799
-1.807564
-2.074646
-2.374149
-2.721832
-3.092049
-3.48719
-3.97023
-4.631599
-5.516403
-6.556286
-7.507473
-8.086063
-8.07074
-7.437935
-6.385643
-5.227921
-4.24297
-3.543327
-3.058044
-2.563084
-1.836113
-0.7620621
0.6201591
2.100357
3.440323
4.43668
5.041271
5.307365
5.369766
5.346451
5.318054
5.322865
5.328686
5.32415
5.26828
5.143414
4.917519
4.554123
4.016754
3.317303
2.50185
1.651752
0.8686562
0.2290535
-0.2174301
-0.4601784
-0.5378799
-0.5394554
-0.5953636
-0.8141823
-1.244701
-1.844872
-2.502007
-3.093571
-3.522202
-3.764645
-3.887829
-4.001656
-4.196381
-4.479164
-4.762302
-4.898155
-4.754601
-4.270306
-3.513798
-2.668972
-1.931259
-1.466286
-1.296349
-1.319466
-1.361149
-1.236237
-0.839344
-0.1606636
0.7250061
1.728638
2.754902
3.751499
4.685665
5.53418
6.283897
6.886467
7.293232
7.465267
7.429836
7.23539
6.953171
6.647884
6.335182
5.969349
5.48946
4.843761
4.014385
3.071579
2.141758
1.372139
0.8682632
0.6120071
0.4726448
0.248394
-0.2141037
-0.9601669
-1.883579
-2.781097
-3.467697
-3.858093
-4.035282
-4.172638
-4.451691
-4.966755
-5.677929
-6.452961
-7.123074
-7.532101
-7.548843
-7.112938
-6.213783
-4.923996
-3.417019
-1.912605
-0.6089821
0.3469238
0.9513779
1.314983
1.603653
1.9613
2.421021
2.937485
3.400894
3.718121
3.830235
3.733093
3.46323
3.077625
2.653687
2.29689
2.105469
2.157436
2.447422
2.899879
3.403652
3.824764
4.090813
4.223503
4.296963
4.376335
4.499226
4.646851
4.778645
4.861656
4.866947
4.743546
4.461082
3.953732
3.200878
2.241051
1.214939
0.3009415
-0.3705711
-0.7510223
-0.9182854
-1.020599
-1.191669
-1.505142
-1.976913
-2.562782
-3.2374
-3.993355
-4.832947
-5.737022
-6.636677
-7.418484
-7.926033
-8.039516
-7.680233
-6.874268
-5.694332
-4.280823
-2.801945
-1.414036
-0.209362
0.7794342
1.571869
2.228233
2.78331
3.254124
3.612236
3.809315
3.850838
3.828865
3.856026
4.040646
4.388351
4.773018
5.008823
4.988327
4.700153
4.280781
3.913776
3.724075
3.696678
3.706734
3.595165
3.229736
2.612427
1.783981
0.8649788
-0.05115891
-0.8387947
-1.403027
-1.646584
-1.570133
-1.268501
-0.8709869
-0.5758743
-0.4754486
-0.5944214
-0.8923836
-1.282932
-1.674526
-2.045914
-2.379635
-2.701527
-3.073605
-3.516945
-4.009197
-4.460907
-4.694073
-4.541416
-3.969433
-3.075642
-2.081821
-1.25597
-0.7370415
-0.4990578
-0.3792191
-0.1652641
0.2691612
0.896553
1.563332
2.125237
2.465164
2.59071
2.595207
2.571827
2.601227
2.710564
2.858147
2.992638
3.053764
2.991814
2.805756
2.541283
2.280556
2.09024
1.998993
1.97226
1.966568
1.922623
1.800377
1.594467
1.296555
0.9018173
0.4289932
-0.1084976
-0.6559219
-1.167984
-1.59536
-1.910828
-2.095711
-2.1427
-2.081734
-1.939278
-1.810013
-1.785728
-1.945023
-2.302582
-2.846924
-3.453049
-4.016441
-4.415443
-4.54435
-4.363663
-3.914787
-3.296066
-2.659134
-2.148148
-1.767311
-1.458862
-1.082619
-0.5149536
0.231636
0.9917374
1.558723
1.772934
1.62014
1.264915
0.912674
0.7215271
0.7639999
0.9658203
1.217621
1.439117
1.624321
1.807632
2.021515
2.220573
2.311554
2.229668
1.95108
1.566154
1.196556
0.9084473
0.6963425
0.4716034
0.131218
-0.3617554
-0.9477463
-1.554558
-2.083473
-2.491417
-2.809494
-3.048943
-3.204292
-3.274788
-3.2976
-3.362335
-3.624985
-4.12281
-4.777802
-5.383408
-5.64267
-5.36824
-4.54171
-3.366936
-2.1325
-1.126152
-0.4882736
-0.1903381
-0.1050873
-0.02974701
0.1955185
0.6215286
1.207314
1.811531
2.267082
2.448212
2.341476
2.041306
1.729218
1.569214
1.601547
1.757774
1.922531
1.987213
1.939896
1.833229
1.712181
1.597404
1.440094
1.180916
0.8150787
0.4067307
0.05166626
-0.195961
-0.318161
-0.3757629
-0.4265366
-0.5075226
-0.6323242
-0.8053207
-1.072578
-1.494911
-2.106377
-2.879532
-3.721115
-4.509872
-5.175026
-5.712242
-6.16761
-6.560135
-6.826286
-6.816055
-6.335411
-5.306709
-3.793289
-2.047676
-0.4106674
0.8330917
1.558952
1.808563
1.759247
1.631187
1.590965
1.734665
2.083244
2.587753
3.156052
3.66851
4.024506
4.143578
4.033478
3.778244
3.484932
3.245483
3.080635
2.926514
2.704903
2.356918
1.88958
1.375381
0.8983612
0.5078583
0.213623
-0.03407288
-0.3123932
-0.6512909
-1.041496
-1.430183
-1.766998
-2.040428
-2.296143
-2.57029
-2.875603
-3.17334
-3.357391
-3.353767
-3.148499
-2.786087
-2.375465
-2.047188
-1.87664
-1.911591
-2.184006
-2.682701
-3.370728
-4.149078
-4.834427
-5.213158
-5.155083
-4.644936
-3.797424
-2.806229
-1.855103
-1.057762
-0.4274445
0.09476471
0.5847626
1.083496
1.585609
2.035179
2.34259
2.448662
2.334686
2.070206
1.789024
1.608246
1.609558
1.772163
2.02005
2.267921
2.495277
2.715614
2.965218
3.289597
3.677147
4.089874
4.448868
4.664604
4.660927
4.437141
4.053368
3.622803
3.26416
3.040474
2.928505
2.811752
2.577141
2.154015
1.562904
0.8957672
0.2301178
-0.4117355
-1.074661
-1.824036
-2.683167
-3.593155
-4.433792
-5.106575
-5.496162
-5.585548
-5.435646
-5.176117
-4.949371
-4.874535
-4.992874
-5.283531
-5.690506
-6.090919
-6.349327
-6.338234
-5.962616
-5.194283
-4.105164
-2.835999
-1.573112
-0.4998245
0.2898941
0.7997208
1.081619
1.229042
1.328392
1.41671
1.537025
1.743843
2.067947
2.537231
3.13121
3.743912
4.231705
4.440857
4.285812
3.80529
3.173615
2.62133
2.34034
2.395737
2.687637
3.042923
3.307922
3.398262
3.294571
3.003304
2.489708
1.709831
0.6820602
-0.4807358
-1.543053
-2.272507
-2.555458
-2.477104
-2.253174
-2.102524
-2.12484
-2.270668
-2.435715
-2.546371
-2.628212
-2.800827
-3.184311
-3.811119
-4.62384
-5.48748
-6.210907
-6.650894
-6.718056
-6.400642
-5.766724
-4.911057
-3.944122
-2.975388
-2.09951
-1.365959
-0.7937622
-0.3812561
-0.07923889
0.1769943
0.4819336
0.9057236
1.460861
2.071014
2.643402
3.097115
3.399139
3.586777
3.698372
3.776375
3.820023
3.813736
3.731468
3.583961
3.399956
3.217659
3.083282
3.020111
3.017563
3.018768
2.925201
2.665154
2.200455
1.563766
0.8391876
0.1307068
-0.4785995
-0.9672089
-1.370453
-1.737762
-2.076279
-2.355293
-2.51709
-2.53418
-2.446541
-2.371185
-2.470551
-2.93
-3.8433
-5.138153
-6.622643
-7.970383
-8.852272
-9.031921
-8.467865
-7.319016
-5.871513
-4.421532
-3.188065
-2.250801
-1.568687
-1.034912
-0.5616455
-0.08857727
0.3806305
0.8268433
1.252922
1.62759
1.899517
2.043369
2.079479
2.071018
2.162117
2.480251
3.064354
3.843395
4.641743
5.249317
5.559994
5.576881
5.367416
5.04454
4.66901
4.25383
3.784634
3.253639
2.669643
2.078072
1.527927
1.053913
0.6861954
0.4615097
0.3962746
0.4836388
0.6656151
0.848835
0.9313698
0.8025627
0.4057541
-0.2605667
-1.149128
-2.183151
-3.243408
-4.238628
-5.141014
-5.949574
-6.729809
-7.54575
-8.407116
-9.27615
-10.0528
-10.57695
-10.69557
-10.31109
-9.424976
-8.142414
-6.617996
-5.019783
-3.493195
-2.142876
-1.016529
-0.1458092
0.4637413
0.8481064
1.088905
1.317795
1.651703
2.13731
2.744095
3.407551
4.085917
4.803259
5.593826
6.4098
7.124546
7.577917
7.644226
7.358555
6.895514
6.470873
6.249029
6.241261
6.299227
6.287966
6.126923
5.849077
5.523691
5.195669
4.813309
4.303638
3.598738
2.720827
1.788679
0.9404335
0.2733746
-0.2195969
-0.6397038
-1.143856
-1.810089
-2.656151
-3.557265
-4.358773
-4.951385
-5.343227
-5.686121
-6.189915
-6.987125
-8.007009
-9.017497
-9.695187
-9.807191
-9.284082
-8.252762
-6.90411
-5.425383
-3.932668
-2.463071
-1.059102
0.2176671
1.283584
2.088568
2.625027
2.961839
3.205736
3.444655
3.753682
4.143007
4.601542
5.072977
5.469089
5.75052
5.876272
5.879114
5.795369
5.69344
5.625162
5.610107
5.626101
5.626071
5.593307
5.503966
5.360481
5.108882
4.738876
4.239409
3.646124
3.015114
2.392069
1.826805
1.293085
0.7507372
0.1448021
-0.5197258
-1.202074
-1.835261
-2.381983
-2.892371
-3.462006
-4.248793
-5.311874
-6.579594
-7.820971
-8.734522
-9.051472
-8.640484
-7.588917
-6.126772
-4.57407
-3.164686
-1.988802
-1.017609
-0.1819744
0.5671577
1.246281
1.795109
2.186266
2.419249
2.545563
2.652124
2.781401
2.965406
3.211309
3.524561
3.901802
4.347992
4.840502
5.341009
5.817007
6.184443
6.390713
6.343
5.99246
5.320784
4.405806
3.420507
2.539352
1.863859
1.331009
0.8433266
0.2629166
-0.4267044
-1.137825
-1.709835
-2.052532
-2.217777
-2.351151
-2.676773
-3.298256
-4.181404
-5.147041
-5.962105
-6.405804
-6.359577
-5.808693
-4.809448
-3.50621
-2.033421
-0.5316963
0.8601608
2.044022
2.956192
3.604626
4.008129
4.235466
4.359394
4.440994
4.527069
4.621025
4.69141
4.686199
4.588184
4.388523
4.149872
3.942287
3.847767
3.89444
4.039516
4.175629
4.164516
3.91507
3.394299
2.685188
1.893345
1.113445
0.3834839
-0.2950134
-0.9202766
-1.482601
-1.974659
-2.406704
-2.821842
-3.329956
-4.032288
-4.95433
-6.035126
-7.082352
-7.848576
-8.129837
-7.824451
-6.957706
-5.673
-4.171143
-2.622215
-1.162182
0.1416931
1.285004
2.311924
3.243881
4.101032
4.84288
5.445129
5.891632
6.164509
6.253899
6.147011
5.843582
5.403519
4.941418
4.601463
4.497108
4.633209
4.913055
5.15358
5.224129
5.075485
4.829544
4.64835
4.618504
4.712524
4.744576
4.528332
3.917824
2.947208
1.751129
0.5713425
-0.4241753
-1.148952
-1.645077
-1.989109
-2.265976
-2.502316
-2.702034
-2.879097
-3.091404
-3.473587
-4.126991
-5.067417
-6.188126
-7.217926
-7.828876
-7.765297
-6.967731
-5.608059
-4.035629
-2.625874
-1.586407
-0.9412842
-0.4955177
0.005867004
0.7220802
1.634773
2.571976
3.37064
3.948437
4.400227
4.850918
5.438126
6.14838
6.86874
7.444798
7.778099
7.862507
7.798325
7.688435
7.563999
7.433014
7.244251
6.966743
6.64333
6.335682
6.102123
6.006657
6.050865
6.160839
6.242519
6.209579
6.028904
5.741333
5.430077
5.150906
4.915173
4.684433
4.383465
3.959831
3.383427
2.662224
1.845608
0.9832458
0.1514206
-0.5760727
-1.172123
-1.651764
-2.073612
-2.541576
-3.118221
-3.776287
-4.436272
-4.983097
-5.36618
-5.672962
-6.090324
-6.803844
-7.906864
-9.305378
-10.74319
-11.87168
-12.37353
-12.06287
-10.95895
-9.286999
-7.334934
-5.397552
-3.643646
-2.137615
-0.8818779
0.1386509
0.9173145
1.447624
1.739246
1.873726
1.961666
2.157614
2.579557
3.28145
4.217127
5.233305
6.110235
6.648134
6.726288
6.343279
5.644928
4.8552
4.214476
3.87911
3.87915
4.16617
4.600439
5.025234
5.286856
5.273962
4.967367
4.439676
3.824509
3.246597
2.789307
2.473618
2.280941
2.179411
2.17988
2.282612
2.406536
2.428889
2.171529
1.547404
0.5880356
-0.5586205
-1.700031
-2.674234
-3.442478
-4.064271
-4.635844
-5.262201
-5.975148
-6.777041
-7.630452
-8.474714
-9.210289
-9.705685
-9.793858
-9.353069
-8.352335
-6.892721
-5.181599
-3.451462
-1.9053
-0.6718674
0.2300959
0.8460232
1.261219
1.56819
1.842267
2.124209
2.408521
2.705564
2.990888
3.275974
3.596223
3.982938
4.450572
4.969547
5.431439
5.709
5.750564
5.534755
5.148905
4.71477
4.338359
4.063935
3.892461
3.755545
3.58194
3.314814
2.91184
2.367469
1.707989
0.9865999
0.2735233
-0.3595924
-0.8582287
-1.191044
-1.380563
-1.469376
-1.522499
-1.625572
-1.873468
-2.324377
-3.002726
-3.837965
-4.717272
-5.533493
-6.234356
-6.820196
-7.337015
-7.813688
-8.170462
-8.291559
-8.047823
-7.394169
-6.40065
-5.238274
-4.071617
-2.991043
-2.014643
-1.108665
-0.2749081
0.4467354
1.002289
1.360926
1.552956
1.643629
1.692966
1.725813
1.732681
1.68964
1.62014
1.592175
1.665726
1.86322
2.128632
2.360435
2.483208
2.488422
2.421547
2.350964
2.320652
2.305202
2.232391
2.04586
1.736965
1.395596
1.146946
1.072563
1.145184
1.238415
1.170834
0.8236656
0.2207031
-0.5112457
-1.168797
-1.642178
-1.956863
-2.258194
-2.744736
-3.53756
-4.617912
-5.839497
-7.006798
-7.908768
-8.430248
-8.533604
-8.235218
-7.615692
-6.762104
-5.7514
-4.660698
-3.573784
-2.550644
-1.636227
-0.8553467
-0.1846809
0.4304619
1.055836
1.753273
2.518452
3.27618
3.902428
4.278606
4.311413
4.008736
3.414459
2.639568
1.805035
1.007015
0.3359299
-0.1589546
-0.4609566
-0.5928802
-0.5842934
-0.4896393
-0.3387337
-0.183548
-0.08551788
-0.1186028
-0.3560677
-0.8007545
-1.381428
-1.93602
-2.296219
-2.371742
-2.201897
-1.962925
-1.894413
-2.182465
-2.890591
-3.911407
-5.023926
-6.007618
-6.69706
-7.033154
-7.062614
-6.81284
-6.31424
-5.549137
-4.49221
-3.195442
-1.803658
-0.5303764
0.42416
0.9554138
1.120243
1.069191
0.9874306
0.9555702
0.9572296
0.9559479
0.9616318
1.065228
1.358582
1.890732
2.53352
3.075375
3.309837
3.159359
2.723362
2.233677
1.893818
1.801216
1.931927
2.165493
2.399464
2.605404
2.753532
2.819023
2.744743
2.433662
1.828213
0.9673309
-0.06325912
-1.130703
-2.108479
-2.94976
-3.670773
-4.331474
-5.031063
-5.824596
-6.737778
-7.72192
-8.649349
-9.318413
-9.541695
-9.162792
-8.13002
-6.569851
-4.736206
-2.959656
-1.525349
-0.56633
-0.006313324
0.3547249
0.7791977
1.415333
2.277252
3.258953
4.191746
4.954739
5.517673
5.92028
6.192764
6.339138
6.305077
6.047256
5.578678
4.993683
4.429813
4.025246
3.831657
3.830082
3.907719
3.944031
3.858906
3.642017
3.357903
3.052563
2.762138
2.453178
2.090973
1.627758
1.05843
0.3946381
-0.3342438
-1.088455
-1.840992
-2.545712
-3.160648
-3.649925
-4.021633
-4.335957
-4.698589
-5.204006
-5.907764
-6.80027
-7.802071
-8.784431
-9.588493
-10.07111
-10.10849
-9.644012
-8.68391
-7.283779
-5.593143
-3.772171
-2.009155
-0.4783249
0.6835938
1.441967
1.845043
2.030499
2.207657
2.500355
2.919113
3.336174
3.544239
3.416954
3.004383
2.493969
2.120197
2.062061
2.323757
2.797726
3.323887
3.792934
4.193497
4.574425
4.943722
5.229317
5.33905
5.169857
4.699581
3.98518
3.148514
2.333084
1.647997
1.141497
0.7841282
0.5030403
0.1716671
-0.3017712
-0.9603863
-1.783901
-2.666149
-3.504272
-4.231352
-4.857914
-5.444155
-6.110788
-6.896864
-7.75012
-8.550039
-9.128981
-9.33061
-9.070238
-8.322252
-7.137241
-5.65028
-4.025116
-2.45088
-1.111595
-0.1193638
0.5470047
1.003916
1.425249
1.961939
2.656469
3.435394
4.174982
4.76626
5.165676
5.429255
5.622143
5.773609
5.884752
5.923904
5.881968
5.825214
5.808577
5.845873
5.871243
5.768007
5.442352
4.943165
4.434156
4.100462
4.027746
4.133094
4.22908
4.128565
3.774438
3.231621
2.667473
2.212577
1.914401
1.723
1.551677
1.347466
1.125074
0.9009838
0.6781025
0.4050684
-0.006323814
-0.6096525
-1.410209
-2.337137
-3.277963
-4.131138
-4.840191
-5.42605
-6.003999
-6.696427
-7.571881
-8.582425
-9.540292
-10.22075
-10.44244
-10.1478
-9.421171
-8.436544
-7.346767
-6.263409
-5.199799
-4.138248
-3.083538
-2.072862
-1.175917
-0.4411278
0.1692538
0.7572322
1.465862
2.380582
3.498393
4.692008
5.780034
6.615946
7.138345
7.39883
7.522317
7.597539
7.647253
7.66075
7.57285
7.372774
7.119829
6.886591
6.734949
6.674293
6.660316
6.631749
6.554416
6.386983
6.120293
5.702435
5.077576
4.20876
3.144651
2.0239
1.026052
0.2765486
-0.2180489
-0.5536224
-0.8976373
-1.376331
-2.025076
-2.774178
-3.498532
-4.084145
-4.465627
-4.650069
-4.679932
-4.636606
-4.638811
-4.829021
-5.348433
-6.26097
-7.493543
-8.853406
-10.02442
-10.70016
-10.62208
-9.729721
-8.162079
-6.242928
-4.36942
-2.877917
-1.895375
-1.318428
-0.8886366
-0.3030202
0.5994701
1.794165
3.051861
4.119251
4.800357
5.062531
5.033166
4.902494
4.857514
5.001853
5.360368
5.877689
6.467746
6.999667
7.343066
7.402162
7.113281
6.507872
5.699392
4.848603
4.128275
3.66392
3.503541
3.604152
3.863717
4.110283
4.179043
3.940067
3.366517
2.531237
1.569798
0.6270223
-0.200088
-0.8732343
-1.46023
-2.020269
-2.617259
-3.2937
-4.052562
-4.891032
-5.781656
-6.674526
-7.49579
-8.181193
-8.645766
-8.810799
-8.617854
-8.023977
-7.03649
-5.751043
-4.343531
-3.02088
-1.964076
-1.234388
-0.7746534
-0.4677439
-0.1937284
0.1085987
0.4200296
0.7003231
0.9587555
1.253329
1.66795
2.231352
2.882677
3.526158
4.054217
4.404484
4.580652
4.609212
4.509318
4.287243
3.946712
3.548909
3.166096
2.8917
2.737283
2.64251
2.499175
2.217639
1.784753
1.30491
0.9233036
0.7346649
0.7489319
0.8591642
0.936305
0.9125338
0.8096104
0.6711922
0.5408335
0.3649569
0.0120182
-0.6175976
-1.573721
-2.782214
-4.106511
-5.370505
-6.460561
-7.272799
-7.742085
-7.817608
-7.459549
-6.685355
-5.585388
-4.303679
-2.995007
-1.765875
-0.6648827
0.2851028
1.072664
1.694263
2.146088
2.465084
2.715214
2.972307
3.27499
3.617596
3.951128
4.208651
4.391464
4.531544
4.707684
4.999378
5.439571
5.985649
6.515869
6.886932
6.969524
6.752714
6.27062
5.646257
4.983444
4.337683
3.701653
3.029362
2.296167
1.519712
0.7592278
0.05662918
-0.584486
-1.224606
-1.962698
-2.868124
-3.926697
-5.042862
-6.092333
-6.975458
-7.658396
-8.183779
-8.609968
-8.967274
-9.190109
-9.143238
-8.69813
-7.815149
-6.582613
-5.16353
-3.759653
-2.492638
-1.372345
-0.3361435
0.6940975
1.756382
2.802227
3.723923
4.435518
4.901217
5.1502
5.278364
5.351002
5.391394
5.362553
5.225037
4.98666
4.721209
4.546253
4.540298
4.72488
5.000301
5.215775
5.263468
5.110168
4.809393
4.455971
4.126562
3.816669
3.490105
3.072357
2.546356
1.92557
1.246342
0.5446053
-0.1471329
-0.778513
-1.312449
-1.732655
-2.09145
-2.485523
-3.04188
-3.84881
-4.870289
-5.954716
-6.849819
-7.30805
-7.194864
-6.52964
-5.473204
-4.255709
-3.101969
-2.169567
-1.507885
-1.091269
-0.8296356
-0.5929413
-0.2860279
0.1182232
0.5968895
1.093456
1.569622
2.026276
2.504751
3.042408
3.684032
4.40233
5.130669
5.772371
6.251225
6.544728
6.666711
6.684031
6.646735
6.604094
6.550564
6.451777
6.261378
5.935332
5.433704
4.744968
3.878633
2.852874
1.734081
0.6122761
-0.369319
-1.121403
-1.605757
-1.901492
-2.158627
-2.520251
-3.044804
-3.666863
-4.239574
-4.606056
-4.713072
-4.650282
-4.605957
-4.783235
-5.269012
-5.972145
-6.646622
-7.010815
-6.864285
-6.204462
-5.22519
-4.20633
-3.360204
-2.719641
-2.149372
-1.466448
-0.6051893
0.3422251
1.175663
1.726344
1.940813
1.915876
1.8609
1.930866
2.191805
2.619135
3.156815
3.761993
4.408486
5.035659
5.538005
5.828307
5.848879
5.643816
5.327783
5.016423
4.786113
4.655697
4.572879
4.445284
4.214978
3.853033
3.406189
2.952879
2.569029
2.285075
2.070773
1.83908
1.48419
0.9552875
0.2754791
-0.4558551
-1.145405
-1.774738
-2.401068
-3.097894
-3.886062
-4.683879
-5.378638
-5.946336
-6.466121
-7.099817
-7.973937
-9.017037
-9.987352
-10.52206
-10.33943
-9.369757
-7.802807
-5.965697
-4.183438
-2.649731
-1.384566
-0.3116226
0.6539888
1.556745
2.376311
3.049722
3.550552
3.873259
4.067904
4.20491
4.349225
4.518573
4.675312
4.764637
4.767618
4.747346
4.787492
4.958408
5.254761
5.559058
5.702328
5.545994
5.063642
4.355677
3.586432
2.880097
2.281894
1.779165
1.364933
1.078854
0.9600143
1.025677
1.210085
1.375925
1.397465
1.210644
0.8479233
0.4102135
-0.0154686
-0.4249306
-0.8966713
-1.505365
-2.276749
-3.123354
-3.898729
-4.496443
-4.917044
-5.268671
-5.708467
-6.351917
-7.1453
-7.908646
-8.378891
-8.355988
-7.777941
-6.757593
-5.492502
-4.209547
-3.064129
-2.131729
-1.428576
-0.9088783
-0.5222645
-0.1890011
0.1585503
0.568655
1.058626
1.627012
2.249687
2.883253
3.500231
4.078472
4.617914
5.118011
5.561853
5.910416
6.118809
6.143454
5.931248
5.475418
4.82597
4.068195
3.318817
2.681114
2.202641
1.889324
1.713566
1.621429
1.55687
1.459682
1.28516
1.006664
0.6359062
0.2360878
-0.1100273
-0.3359222
-0.4394264
-0.4646187
-0.5218124
-0.6973534
-1.022793
-1.500202
-2.061157
-2.619205
-3.104561
-3.498089
-3.845345
-4.264172
-4.876438
-5.722172
-6.717896
-7.651989
-8.236027
-8.253159
-7.640114
-6.534157
-5.213047
-3.96833
-2.979176
-2.245617
-1.670712
-1.122444
-0.5301781
0.08069992
0.6065941
0.934761
1.038364
0.9858704
0.9169731
0.9842339
1.266224
1.729435
2.280743
2.791622
3.179798
3.441452
3.616936
3.760399
3.899086
4.001202
4.005875
3.851391
3.514946
3.035049
2.479317
1.931473
1.46183
1.085911
0.7574844
0.429039
0.03106308
-0.4164505
-0.8676224
-1.275532
-1.60717
-1.886497
-2.179863
-2.578983
-3.102646
-3.734783
-4.424053
-5.143814
-5.913193
-6.771332
-7.697384
-8.59589
-9.273582
-9.471111
-9.005035
-7.848812
-6.141151
-4.179119
-2.27718
-0.6820869
0.4922562
1.279896
1.80883
2.199581
2.539619
2.846676
3.090267
3.271465
3.415993
3.541561
3.667507
3.736588
3.679974
3.467018
3.170467
2.899899
2.802269
2.910286
3.140873
3.350826
3.414902
3.277519
2.960526
2.529007
1.990536
1.354004
0.5937729
-0.2452507
-1.043068
-1.669144
-2.052444
-2.249432
-2.372414
-2.580593
-2.953514
-3.507179
-4.179482
-4.874794
-5.534916
-6.150997
-6.707905
-7.183983
-7.533531
-7.629978
-7.370399
-6.678444
-5.567894
-4.188442
-2.742985
-1.448921
-0.4371414
0.2606125
0.7444458
1.127796
1.501858
1.875446
2.210396
2.477737
2.661587
2.802044
2.922581
3.039867
3.122765
3.141472
3.083103
2.967209
2.840027
2.746296
2.689625
2.648998
2.584949
2.453773
2.245911
1.990852
1.701763
1.434212
1.212223
1.033188
0.8643837
0.6403923
0.313015
-0.1580391
-0.7481613
-1.465611
-2.296642
-3.256519
-4.353573
-5.540985
-6.687141
-7.613472
-8.151134
-8.191875
-7.759808
-6.929047
-5.8353
-4.605831
-3.358311
-2.221947
-1.296875
-0.6357079
-0.2187195
0.04985046
0.2988548
0.6178474
1.029083
1.532444
2.075478
2.628948
3.171368
3.656731
4.031662
4.245373
4.280014
4.15321
3.962955
3.794796
3.718323
3.772575
3.965126
4.25359
4.566059
4.803787
4.864899
4.668457
4.195065
3.47308
2.582161
1.615368
0.6512032
-0.2451019
-1.034534
-1.651184
-2.081062
-2.339005
-2.489674
-2.628349
-2.862133
-3.257877
-3.846996
-4.66243
-5.657402
-6.754333
-7.776134
-8.509781
-8.698212
-8.196095
-7.02116
-5.377136
-3.634884
-2.132111
-1.067848
-0.4271965
-0.04372787
0.2964973
0.7467079
1.319458
1.97139
2.581478
3.109062
3.572891
4.051613
4.611038
5.246624
5.851116
6.269459
6.369209
6.09384
5.523453
4.843922
4.271784
4.004118
4.078583
4.383238
4.679001
4.739332
4.427711
3.783543
2.999439
2.292904
1.864677
1.7388
1.810923
1.899446
1.826984
1.527468
1.015055
0.4095345
-0.2092381
-0.7656441
-1.274822
-1.802704
-2.406534
-3.123091
-3.948568
-4.844158
-5.78088
-6.752687
-7.713238
-8.585844
-9.201975
-9.348082
-8.849651
-7.653713
-5.891743
-3.862896
-1.925484
-0.3841553
0.6261635
1.167187
1.451725
1.683208
2.035835
2.537436
3.13732
3.773294
4.377254
4.934641
5.432775
5.85943
6.167442
6.329565
6.360863
6.309195
6.261642
6.268986
6.306723
6.311153
6.204475
5.928123
5.527563
5.080654
4.672981
4.347197
4.098545
3.889132
3.719732
3.609921
3.570612
3.573879
3.502703
3.2241
2.665751
1.867363
0.973753
0.1771622
-0.4217491
-0.851799
-1.256977
-1.786961
-2.498796
-3.30888
-4.066828
-4.679604
-5.145037
-5.597954
-6.181282
-6.951441
-7.844967
-8.668661
-9.169529
-9.179312
-8.644985
-7.654957
-6.412462
-5.115751
-3.939896
-2.96097
-2.172161
-1.487394
-0.8266087
-0.111969
0.671524
1.461168
2.189266
2.800594
3.278282
3.636904
3.911987
4.139664
4.329756
4.466391
4.528372
4.495424
4.367174
4.172527
3.965471
3.801134
3.737694
3.783146
3.88147
3.937454
3.886728
3.695621
3.425201
3.161633
2.943632
2.74968
2.472645
2.013012
1.355118
0.6294556
-0.02087402
-0.4781952
-0.7805023
-1.115181
-1.688297
-2.610405
-3.811409
-5.063122
-6.110535
-6.796684
-7.094936
-7.050358
-6.710979
-6.058514
-5.059708
-3.718853
-2.166874
-0.6368408
0.6112518
1.412254
1.771564
1.833836
1.811611
1.850163
1.990089
2.16737
2.308075
2.37785
2.421886
2.529243
2.728916
2.984642
3.172424
3.176502
2.939358
2.530151
2.0741
1.711784
1.494221
1.383152
1.282825
1.125496
0.8836555
0.6039734
0.357708
0.1527863
-0.04570007
-0.3167038
-0.7141304
-1.227962
-1.792984
-2.339245
-2.835621
-3.302769
-3.771202
-4.241482
-4.659023
-4.920033
-4.931427
-4.651176
-4.104893
-3.36866
-2.540894
-1.696606
-0.8932037
-0.1936188
0.3450928
0.7111053
0.9055901
1.018356
1.175407
1.478168
1.968666
2.584209
3.197712
3.654736
3.860241
3.769695
3.459927
3.055325
2.687496
2.4417
2.299156
2.182087
1.97229
1.581802
0.9861145
0.2759438
-0.4475937
-1.121056
-1.724972
-2.301559
-2.888401
-3.498196
-4.097313
-4.657494
-5.145954
-5.529503
-5.789967
-5.820908
-5.526821
-4.850689
-3.86198
-2.730453
-1.657497
-0.7824593
-0.08306122
0.549881
1.269474
2.09251
2.912472
3.506199
3.695747
3.429909
2.835392
2.147221
1.597805
1.32584
1.287189
1.373989
1.459579
1.507374
1.546009
1.6479
1.826778
2.007175
2.056068
1.846863
1.343842
0.6493073
-0.07405853
-0.6702766
-1.081867
-1.363594
-1.659733
-2.104809
-2.787563
-3.690342
-4.721035
-5.728725
-6.561138
-7.083286
-7.196785
-6.866821
-6.101147
-4.980495
-3.607559
-2.15197
-0.7794762
0.3468933
1.1231
1.541882
1.683571
1.672924
1.616318
1.572964
1.534828
1.482243
1.401985
1.310966
1.240097
1.232269
1.277447
1.351475
1.4165
1.427254
1.353745
1.169323
0.8385887
0.3564568
-0.2637901
-0.9511948
-1.607811
-2.126331
-2.43988
-2.54604
-2.53973
-2.569874
-2.747002
-3.101738
-3.511318
-3.796139
-3.75964
-3.340611
-2.627838
-1.811192
-1.06163
-0.4642296
0.03961563
0.5758171
1.208614
1.90691
2.507755
2.833118
2.763802
2.335255
1.681683
0.9904366
0.4359589
0.113575
0.05463028
0.2083969
0.4692307
0.7187996
0.8613701
0.8386497
0.6456566
0.3452263
0.004016876
-0.3331604
-0.6984978
-1.18602
-1.912781
-2.959545
-4.314838
-5.848188
-7.325073
-8.499252
-9.144806
-9.145929
-8.51399
-7.387562
-5.971521
-4.492956
-3.112131
-1.896111
-0.8508129
0.0574913
0.8791065
1.656483
2.417519
3.16925
3.896357
4.559771
5.10047
5.466032
5.65033
5.696692
5.670546
5.615324
5.511593
5.29114
4.862909
4.164316
3.199972
2.061321
0.8731441
-0.2485867
-1.225069
-2.007698
-2.576864
-2.914299
-3.02933
-3.014694
-2.9727
-3.062212
-3.422796
-4.112657
-5.049522
-6.038013
-6.790599
-7.016001
-6.547262
-5.362213
-3.662596
-1.76831
-0.01333141
1.366161
2.302181
2.889839
3.318185
3.753805
4.292739
4.918796
5.593162
6.242323
6.774374
7.108543
7.186397
7.001207
6.620164
6.204511
5.922669
5.893172
6.125258
6.461096
6.718091
6.735361
6.491201
6.081374
5.659988
5.319554
5.060925
4.805813
4.441284
3.921222
3.272321
2.570742
1.880532
1.237646
0.6193681
-0.01396275
-0.6996828
-1.460797
-2.272506
-3.112771
-3.932245
-4.679977
-5.34233
-5.946699
-6.543141
-7.150039
-7.693175
-8.01279
-7.927096
-7.323184
-6.259664
-4.941485
-3.630627
-2.501608
-1.547454
-0.5992882
0.5326649
1.962957
3.610175
5.227531
6.558352
7.410127
7.754128
7.708261
7.477867
7.243697
7.121709
7.105399
7.090728
6.962973
6.642711
6.120376
5.45049
4.761152
4.146065
3.66913
3.319822
3.032272
2.751071
2.419703
2.053104
1.69405
1.382696
1.12486
0.8890576
0.5973244
0.1896214
-0.3539567
-1.021543
-1.752992
-2.454645
-3.082415
-3.613376
-4.062754
-4.452019
-4.79334
-5.083082
-5.318248
-5.502224
-5.627775
-5.695642
-5.656708
-5.466064
-5.059
-4.437606
-3.650347
-2.77061
-1.838564
-0.8530064
0.2095518
1.346678
2.45319
3.365579
3.91997
4.079915
3.923438
3.676693
3.525307
3.542966
3.655384
3.731549
3.664476
3.487352
3.337266
3.35518
3.596766
3.990645
4.399002
4.700871
4.861461
4.939548
5.005379
5.067394
5.047733
4.82573
4.29275
3.45538
2.434745
1.40339
0.5313406
-0.1061687
-0.5342693
-0.8485966
-1.153975
-1.530762
-2.001554
-2.536871
-3.106956
-3.688112
-4.248085
-4.782711
-5.316664
-5.900179
-6.594263
-7.420038
-8.31772
-9.127924
-9.621134
-9.570936
-8.843266
-7.467335
-5.625418
-3.605591
-1.682516
-0.08112907
1.085543
1.833332
2.235504
2.403872
2.476061
2.554138
2.695555
2.913198
3.148588
3.328737
3.395651
3.322678
3.107956
2.80917
2.478716
2.156689
1.919044
1.825607
1.93247
2.241913
2.67498
3.103174
3.372824
3.386391
3.102747
2.611124
2.059589
1.595369
1.313633
1.194542
1.112448
0.8907986
0.3880062
-0.3989811
-1.317509
-2.13999
-2.671009
-2.834431
-2.725891
-2.550743
-2.479633
-2.603065
-2.845604
-3.095444
-3.259941
-3.331299
-3.348576
-3.349449
-3.319111
-3.170269
-2.814232
-2.215397
-1.459591
-0.6818199
-0.04109573
0.3792381
0.6165314
0.8031387
1.098866
1.595257
2.227005
2.809372
3.1605
3.182693
2.925385
2.559151
2.254814
2.10997
2.10952
2.155506
2.145538
2.059357
1.93298
1.804955
1.708061
1.608536
1.465897
1.247467
0.9768143
0.7168465
0.5464706
0.5109444
0.56987
0.6530991
0.6371727
0.4332161
0.007530212
-0.5956764
-1.261189
-1.858582
-2.295055
-2.561913
-2.728832
-2.904549
-3.162464
-3.527515
-3.964577
-4.402073
-4.791523
-5.108139
-5.307381
-5.331722
-5.121479
-4.631374
-3.893879
-3.019009
-2.143093
-1.347992
-0.6360893
0.05379868
0.7937393
1.541683
2.200214
2.648312
2.800163
2.685097
2.399094
2.06361
1.748367
1.47818
1.238937
1.04039
0.9028397
0.8248863
0.7994156
0.7884636
0.7913017
0.8178444
0.9203529
1.113586
1.361435
1.56472
1.609398
1.431637
1.041561
0.5296516
0.02238464
-0.3610535
-0.5536919
-0.5369682
-0.3344307
-0.03357697
0.2739029
0.446949
0.3735313
0.01972961
-0.6085091
-1.41061
-2.274456
-3.056641
-3.646229
-3.976276
-4.030399
-3.862846
-3.5522
-3.250771
-3.076153
-3.142784
-3.451
-3.922989
-4.39827
-4.689262
-4.654949
-4.241104
-3.525341
-2.65646
-1.812145
-1.115192
-0.6220703
-0.2958145
-0.04075623
0.2056694
0.4618073
0.6479416
0.703701
0.623703
0.462635
0.338932
0.375927
0.6571655
1.145367
1.7355
2.252663
2.556213
2.589272
2.38063
2.009327
1.566647
1.146854
0.8021736
0.5941734
0.5709648
0.7426643
1.08337
1.482578
1.775696
1.824741
1.589901
1.171131
0.7542496
0.5141487
0.5094872
0.664566
0.7985306
0.7397423
0.3984146
-0.1916313
-0.9091568
-1.620617
-2.258282
-2.841068
-3.423752
-4.044861
-4.68737
-5.263134
-5.663815
-5.821022
-5.717609
-5.395317
-4.901554
-4.29229
-3.599594
-2.887283
-2.243771
-1.808235
-1.688541
-1.899578
-2.307007
-2.682766
-2.775288
-2.43832
-1.699791
-0.7281723
0.2200737
0.93713
1.352966
1.540867
1.61887
1.727325
1.894852
2.074596
2.201283
2.21907
2.141209
2.038147
1.977287
1.986633
2.047134
2.089466
2.040066
1.852856
1.540363
1.172192
0.8435097
0.6164589
0.4945831
0.4251289
0.3159599
0.08996201
-0.2393379
-0.6082077
-0.9100647
-1.043156
-1.039295
-1.014862
-1.136444
-1.569336
-2.383751
-3.555779
-4.955837
-6.34708
-7.453728
-8.05624
-8.061993
-7.513531
-6.599472
-5.541233
-4.514011
-3.608612
-2.79649
-2.034428
-1.290848
-0.6184998
-0.05970383
0.3521805
0.6788139
1.033096
1.472553
1.988331
2.472439
2.792072
2.872299
2.745918
2.50388
2.296074
2.220135
2.279827
2.420532
2.530231
2.547823
2.466047
2.324547
2.164482
2.002356
1.802385
1.485689
1.009821
0.380209
-0.310461
-0.9404907
-1.405951
-1.66815
-1.755322
-1.720688
-1.619696
-1.463718
-1.263897
-1.06188
-0.9618092
-1.106394
-1.601452
-2.452047
-3.567814
-4.721289
-5.665762
-6.211342
-6.29211
-5.963099
-5.345976
-4.557772
-3.698536
-2.859527
-2.118851
-1.551101
-1.193242
-0.997139
-0.8448162
-0.5870619
-0.1407385
0.4635582
1.106818
1.645928
2.017984
2.250224
2.477394
2.812243
3.302385
3.879277
4.394571
4.71691
4.773547
4.590869
4.257772
3.887302
3.542138
3.239792
2.934087
2.579004
2.127988
1.572044
0.9207399
0.2177978
-0.491847
-1.158215
-1.731403
-2.207162
-2.59173
-2.924889
-3.249331
-3.615456
-4.048586
-4.584507
-5.258342
-6.112221
-7.136679
-8.257337
-9.27546
-9.920321
-9.970716
-9.294701
-7.939207
-6.092659
-4.021362
-1.973299
-0.1316795
1.385685
2.509756
3.207565
3.496153
3.465979
3.282576
3.146355
3.200935
3.47732
3.892525
4.3041
4.614487
4.82056
4.989655
5.19772
5.465897
5.726463
5.876732
5.839161
5.608677
5.258629
4.882641
4.526035
4.174976
3.800072
3.319183
2.725422
2.036194
1.320866
0.6458092
0.07562256
-0.3707542
-0.7065468
-0.9832535
-1.287125
-1.705334
-2.311058
-3.159637
-4.28635
-5.665462
-7.22403
-8.784111
-10.08932
-10.85221
-10.86076
-10.04549
-8.551228
-6.656971
-4.671108
-2.844795
-1.290848
-0.01829529
1.030781
1.902508
2.611633
3.134384
3.46067
3.606491
3.634834
3.665031
3.829536
4.22229
4.850021
5.624329
6.368416
6.911453
7.167923
7.175514
7.07795
7.056084
7.174133
7.372398
7.489098
7.331398
6.812508
6.026176
5.165985
4.461624
4.023895
3.786507
3.5625
3.150352
2.439476
1.468712
0.4071503
-0.5926514
-1.451591
-2.192368
-2.891457
-3.599327
-4.308037
-4.98513
-5.607651
-6.199852
-6.864754
-7.699547
-8.699577
-9.742279
-10.60567
-11.03041
-10.83442
-9.950279
-8.455429
-6.598686
-4.648857
-2.848976
-1.350616
-0.1862106
0.7067795
1.458138
2.18177
2.975014
3.839661
4.752533
5.668098
6.522209
7.270363
7.873428
8.305107
8.514412
8.504631
8.319344
8.093445
7.992294
8.1101
8.427147
8.770966
8.898483
8.611282
7.889198
6.878906
5.817902
4.902168
4.198959
3.629341
3.08062
2.430496
1.625801
0.6963654
-0.3018265
-1.310318
-2.282997
-3.207405
-4.086517
-4.892807
-5.635345
-6.317123
-6.945267
-7.564957
-8.236694
-8.98864
-9.776352
-10.44434
-10.72791
-10.39769
-9.325027
-7.542419
-5.286652
-2.871536
-0.6217499
1.25885
2.690704
3.734619
4.496399
5.093048
5.600922
6.010895
6.311661
6.480011
6.53064
6.510788
6.503479
6.555359
6.693558
6.893005
7.075287
7.194244
7.238007
7.203934
7.088287
6.889908
6.557022
6.062408
5.442261
4.770462
4.179626
3.780457
3.609009
3.593124
3.568878
3.355209
2.849564
2.080124
1.175552
0.2936096
-0.4672241
-1.087601
-1.662827
-2.284042
-3.033463
-3.968903
-5.083237
-6.357712
-7.710373
-8.985123
-9.948151
-10.36806
-10.09859
-9.180557
-7.809753
-6.249664
-4.733627
-3.321442
-1.95018
-0.5124512
1.042648
2.651917
4.13382
5.306381
6.078186
6.45903
6.56459
6.505142
6.375763
6.19458
5.990845
5.803131
5.712875
5.831329
6.197998
6.761383
7.373322
7.848831
8.060623
7.990631
7.690308
7.257385
6.761368
6.225525
5.658997
5.0625
4.447556
3.800735
3.092957
2.280319
1.324158
0.212204
-0.9933167
-2.157272
-3.135101
-3.802979
-4.163742
-4.292877
-4.34494
-4.52211
-4.980927
-5.796417
-6.914246
-8.168732
-9.301727
-10.05762
-10.18857
-9.59256
-8.328552
-6.632782
-4.83165
-3.229095
-2.035934
-1.240997
-0.7320404
-0.2836761
0.2609253
0.9732666
1.833725
2.764313
3.693207
4.540955
5.294296
5.958969
6.544418
7.027863
7.377365
7.550232
7.491684
7.195663
6.71637
6.188812
5.769958
5.607895
5.733658
6.056076
6.392761
6.524841
6.296036
5.666794
4.741821
3.714554
2.788712
2.105804
1.648911
1.326508
0.9918518
0.5342255
-0.07043457
-0.765152
-1.483215
-2.189331
-2.86705
-3.578339
-4.340576
-5.155838
-5.993423
-6.831818
-7.692993
-8.589569
-9.530243
-10.37834
-10.91263
-10.86165
-10.0822
-8.620529
-6.690918
-4.629105
-2.70462
-1.071045
0.2406311
1.231323
1.922272
2.31221
2.433838
2.43399
2.502151
2.822968
3.464371
4.33519
5.201904
5.825012
6.058014
5.888062
5.464844
4.985947
4.652893
4.57901
4.803589
5.275635
5.887085
6.501221
6.962967
7.162796
7.007629
6.508255
5.756104
4.891113
4.068115
3.378693
2.82222
2.31839
1.798431
1.179916
0.458313
-0.3107147
-1.082031
-1.854813
-2.659134
-3.562805
-4.646896
-5.94104
-7.448441
-9.110016
-10.77692
-12.21555
-13.15564
-13.35989
-12.71086
-11.29205
-9.352066
-7.220596
-5.198471
-3.43364
-1.92659
-0.5615845
0.7581635
2.032898
3.172089
4.040176
4.560333
4.763382
4.782471
4.743637
4.78952
4.984909
5.310379
5.694153
6.048981
6.278183
6.312668
6.155045
5.834045
5.428635
5.016785
4.641785
4.326729
4.066124
3.852783
3.656647
3.45916
3.210861
2.865486
2.402023
1.82901
1.214439
0.6104202
0.0250473
-0.6067047
-1.36055
-2.292496
-3.362083
-4.436584
-5.375587
-6.086533
-6.625076
-7.136719
-7.770599
-8.540802
-9.334267
-9.890709
-9.955063
-9.436928
-8.431358
-7.215965
-6.080627
-5.180954
-4.47567
-3.788933
-2.911049
-1.767204
-0.4718399
0.7903442
1.828674
2.599846
3.199898
3.779816
4.425583
5.117317
5.733635
6.128372
6.256332
6.161697
5.96624
5.781395
5.676414
5.622459
5.582664
5.531372
5.45549
5.376999
5.283218
5.16655
5.00219
4.755501
4.393372
3.897095
3.25457
2.482262
1.62484
0.7121887
-0.2452698
-1.251183
-2.298561
-3.332527
-4.237602
-4.895889
-5.251968
-5.360695
-5.391396
-5.575684
-6.079285
-6.942993
-8.046028
-9.157555
-10.02558
-10.45537
-10.2768
-9.461464
-8.057709
-6.221947
-4.217018
-2.345428
-0.8623581
0.10569
0.5644302
0.6710434
0.6412201
0.6849823
0.9285965
1.406639
2.050415
2.756859
3.445007
4.056976
4.61364
5.134071
5.616997
6.018234
6.249641
6.251129
6.048668
5.739975
5.435196
5.222031
5.098045
5.029099
4.968742
4.924232
4.934975
5.007011
5.077438
5.016991
4.715981
4.100044
3.213829
2.136604
0.954216
-0.2963791
-1.584023
-2.888206
-4.144356
-5.237831
-6.095116
-6.710922
-7.180344
-7.658195
-8.287407
-9.081863
-9.927719
-10.60107
-10.83694
-10.44481
-9.375397
-7.749207
-5.818657
-3.897911
-2.241837
-0.9853973
-0.1403351
0.4005051
0.7842255
1.143776
1.556213
2.039299
2.538719
2.970818
3.313072
3.580055
3.854179
4.169266
4.521164
4.833237
5.00956
5.029266
4.942673
4.871101
4.940865
5.193031
5.522881
5.739662
5.67717
5.273041
4.643402
4.025795
3.63308
3.537766
3.64679
3.704933
3.447098
2.732239
1.588432
0.1787567
-1.261932
-2.58091
-3.715019
-4.656548
-5.433937
-6.059097
-6.542931
-6.938545
-7.329231
-7.79763
-8.370041
-8.977432
-9.455566
-9.60833
-9.279518
-8.437019
-7.181503
-5.669922
-4.094963
-2.625755
-1.383408
-0.4262314
0.2504425
0.719986
1.127106
1.605415
2.262993
3.12912
4.11039
5.048241
5.776627
6.177757
6.245667
6.054909
5.721527
5.389366
5.17968
5.182121
5.421913
5.880379
6.430389
6.880043
7.012939
6.669609
5.84552
4.702858
3.507133
2.535332
1.918617
1.62159
1.457802
1.218475
0.746521
0.03610229
-0.8003311
-1.636139
-2.381653
-3.02668
-3.66011
-4.346977
-5.116913
-5.948723
-6.811188
-7.685043
-8.590164
-9.530098
-10.45087
-11.18539
-11.5121
-11.22014
-10.26286
-8.77047
-6.983452
-5.188927
-3.550499
-2.121956
-0.8456116
0.3337936
1.427338
2.392601
3.155869
3.688255
4.030098
4.304955
4.621727
5.044296
5.547722
6.017998
6.314125
6.353912
6.149086
5.7929
5.461166
5.266602
5.235176
5.275864
5.22934
4.948135
4.394135
3.654564
2.884865
2.259811
1.860397
1.653603
1.554619
1.44606
1.246643
0.9282227
0.5291138
0.09989166
-0.3490143
-0.8511963
-1.487595
-2.314133
-3.328926
-4.429214
-5.470535
-6.332306
-6.978592
-7.444061
-7.783379
-7.989426
-7.956223
-7.551949
-6.703148
-5.490936
-4.121521
-2.840858
-1.777935
-0.9215088
-0.1680222
0.5872383
1.363071
2.073277
2.606873
2.8932
2.97356
2.981918
3.057793
3.293289
3.70229
4.208363
4.672153
5.00901
5.163731
5.166042
5.112885
5.067684
5.053486
5.03352
4.939426
4.723492
4.407219
4.05262
3.679962
3.320343
2.939659
2.520542
2.041725
1.50119
0.9040146
0.2360802
-0.482296
-1.205093
-1.834919
-2.286613
-2.538143
-2.719864
-3.025578
-3.654877
-4.683575
-6.02652
-7.464672
-8.716545
-9.584656
-9.935318
-9.75288
-9.086845
-8.012501
-6.626934
-5.062702
-3.474487
-2.027908
-0.868866
-0.05905151
0.4400444
0.7536354
1.036736
1.403053
1.917858
2.579056
3.329922
4.151878
4.996029
5.805321
6.510258
6.995487
7.149406
6.922707
6.38055
5.682529
5.034283
4.596561
4.412445
4.426201
4.496235
4.491039
4.340202
4.049007
3.652901
3.1978
2.725224
2.237686
1.759445
1.320335
0.958992
0.6834297
0.4502258
0.1626625
-0.2843857
-0.9283485
-1.74432
-2.62402
-3.445057
-4.078045
-4.438759
-4.550186
-4.536644
-4.583958
-4.901577
-5.631557
-6.765842
-8.136841
-9.46175
-10.40659
-10.70668
-10.25357
-9.114491
-7.488409
-5.642408
-3.826553
-2.233871
-0.9703522
-0.02560425
0.714653
1.393129
2.128717
2.933424
3.711578
4.346626
4.753942
4.928326
4.942451
4.913893
4.916435
4.959675
5.005869
5.031801
5.036858
5.042231
5.057562
5.044903
4.940744
4.70393
4.337172
3.886372
3.432383
3.005836
2.600483
2.183168
1.706512
1.166414
0.6009521
0.08168602
-0.3306065
-0.6203842
-0.8201656
-1.000681
-1.222301
-1.526678
-1.908434
-2.315575
-2.68487
-2.97455
-3.193443
-3.435329
-3.816999
-4.441708
-5.352312
-6.436974
-7.457445
-8.127056
-8.213701
-7.636342
-6.527013
-5.131064
-3.740131
-2.568524
-1.684721
-1.060883
-0.5931969
-0.2050171
0.1656151
0.5208626
0.8738585
1.237361
1.655672
2.162816
2.755322
3.381647
3.92969
4.282179
4.365672
4.233339
4.03033
3.954955
4.168019
4.666904
5.295813
5.812399
5.993254
5.775235
5.254288
4.616864
4.027912
3.564379
3.195479
2.873985
2.563156
2.271821
2.002947
1.708769
1.3047
0.6843543
-0.1826513
-1.242755
-2.339742
-3.364481
-4.236036
-4.992192
-5.724251
-6.491497
-7.316079
-8.161897
-8.975691
-9.658808
-10.13632
-10.31682
-10.12682
-9.527023
-8.532207
-7.214015
-5.710642
-4.181472
-2.740814
-1.481618
-0.4341996
0.4231021
1.135332
1.760659
2.314947
2.794134
3.168269
3.432036
3.632908
3.832923
4.099002
4.409101
4.696759
4.846981
4.799077
4.555557
4.20767
3.852885
3.573709
3.409876
3.335045
3.309585
3.301705
3.295618
3.280981
3.250539
3.187602
3.087143
2.938225
2.71083
2.376533
1.921321
1.370402
0.7707233
0.1650152
-0.4440327
-1.09771
-1.875107
-2.83516
-3.976796
-5.19705
-6.376925
-7.393657
-8.183501
-8.744519
-9.078275
-9.141451
-8.877585
-8.219971
-7.155759
-5.778585
-4.229735
-2.678783
-1.255215
-0.01660538
1.013571
1.840574
2.463451
2.88258
3.123846
3.24099
3.291492
3.294138
3.252335
3.151962
3.013948
2.90527
2.911257
3.082121
3.370754
3.654634
3.799164
3.750526
3.543934
3.309818
3.154741
3.14591
3.260918
3.409328
3.471992
3.356543
3.03348
2.521671
1.896553
1.256834
0.65975
0.1499119
-0.2974129
-0.7357121
-1.223282
-1.783981
-2.382204
-2.938644
-3.330235
-3.501822
-3.476151
-3.362774
-3.33996
-3.576126
-4.181566
-5.117815
-6.229082
-7.264334
-7.991194
-8.233437
-7.943205
-7.163458
-6.006592
-4.617418
-3.141228
-1.705793
-0.4519424
0.4893589
1.074209
1.326969
1.392128
1.468483
1.689684
2.083269
2.552494
2.92034
3.047049
2.908913
2.604511
2.28768
2.084833
2.033056
2.089905
2.167301
2.200325
2.15678
2.052225
1.887846
1.656963
1.346766
0.9335289
0.4551048
-0.03376389
-0.4657822
-0.7936935
-0.9904099
-1.099445
-1.169151
-1.231373
-1.304096
-1.365074
-1.393356
-1.434208
-1.563606
-1.88055
-2.450283
-3.229576
-4.06395
-4.734005
-5.028172
-4.822388
-4.135059
-3.102013
-1.94075
-0.8200493
0.1695824
1.018314
1.756149
2.405018
2.944607
3.304871
3.441879
3.332905
3.027176
2.612896
2.184471
1.796101
1.480324
1.263054
1.141819
1.133102
1.215488
1.335743
1.43985
1.457649
1.35593
1.154945
0.9115257
0.648407
0.3707428
0.0447731
-0.3561592
-0.8363075
-1.343712
-1.826008
-2.255733
-2.678699
-3.167683
-3.800728
-4.575275
-5.386627
-6.054726
-6.400913
-6.322617
-5.831684
-5.040462
-4.082394
-3.080193
-2.102074
-1.187565
-0.3271599
0.4710503
1.191307
1.809643
2.30167
2.658203
2.881481
2.975262
2.946075
2.800701
2.559822
2.246441
1.911552
1.621044
1.46162
1.504154
1.765198
2.206223
2.704494
3.146614
3.415962
3.458015
3.257843
2.826435
2.188843
1.387802
0.4581604
-0.56353
-1.595444
-2.555466
-3.374905
-4.024048
-4.537712
-4.966148
-5.368973
-5.754242
-6.07716
-6.216686
-6.067081
-5.539745
-4.647335
-3.513828
-2.313675
-1.235569
-0.3891563
0.1847801
0.5624962
0.8532944
1.169472
1.581142
2.086838
2.637619
3.128632
3.474091
3.622101
3.589298
3.447636
3.3279
3.333672
3.494713
3.746841
3.921875
3.829823
3.328789
2.365471
1.051933
-0.3932152
-1.684761
-2.6325
-3.130447
-3.26392
-3.18391
-3.051296
-3.027393
-3.180115
-3.552292
-4.123699
-4.873432
-5.685375
-6.396374
-6.748577
-6.502129
-5.579079
-4.09248
-2.363613
-0.7871075
0.343317
0.9616394
1.213263
1.39225
1.733194
2.28462
2.919247
3.399982
3.557775
3.380732
3.009628
2.644169
2.448748
2.478556
2.636488
2.817326
2.931087
2.9958
3.119389
3.37252
3.738115
4.069397
4.166658
3.846184
3.113255
2.111023
1.0618
0.1879425
-0.4960785
-1.118519
-1.878693
-2.928259
-4.274904
-5.746578
-7.080574
-8.024593
-8.356386
-7.992147
-6.982065
-5.511286
-3.843336
-2.274395
-0.9965992
-0.08086777
0.5375748
1.036657
1.542246
2.100243
2.648304
3.067364
3.293972
3.367588
3.372375
3.405153
3.514523
3.666231
3.791649
3.840767
3.780197
3.644514
3.52091
3.477154
3.553869
3.733271
3.929293
4.011059
3.857758
3.376665
2.560167
1.508343
0.396019
-0.5801773
-1.247002
-1.588116
-1.701916
-1.785038
-2.031101
-2.575043
-3.421873
-4.451332
-5.446699
-6.170597
-6.467894
-6.289078
-5.695978
-4.831837
-3.880232
-2.971273
-2.180643
-1.479021
-0.761673
0.06193924
1.048504
2.175812
3.348196
4.434864
5.338699
5.989889
6.385672
6.586288
6.662806
6.663404
6.606764
6.444269
6.147472
5.712112
5.200562
4.694607
4.298754
4.051441
3.913595
3.787191
3.573406
3.252525
2.904966
2.664324
2.610514
2.745008
2.919613
2.960302
2.726463
2.194101
1.471939
0.7414551
0.1396885
-0.2997608
-0.624361
-0.9613476
-1.363457
-1.846041
-2.3792
-2.964331
-3.641382
-4.480377
-5.504452
-6.573502
-7.444538
-7.82272
-7.504103
-6.518457
-5.129475
-3.716478
-2.576408
-1.84548
-1.420057
-1.094021
-0.6821709
-0.07581329
0.6954613
1.565403
2.47492
3.372692
4.222088
4.942991
5.429785
5.583752
5.395086
4.920334
4.314117
3.740269
3.327225
3.128532
3.145584
3.354572
3.683189
4.065048
4.359653
4.450943
4.243145
3.712112
2.926155
2.040012
1.233013
0.6108208
0.1936188
-0.1023483
-0.3740616
-0.6730537
-0.9570503
-1.118885
-1.048618
-0.7447472
-0.2933273
0.1161346
0.2605362
-0.02350616
-0.8011131
-2.033161
-3.56892
-5.202885
-6.712399
-7.870777
-8.502129
-8.531105
-8.01675
-7.09552
-5.980366
-4.823555
-3.719986
-2.6833
-1.678825
-0.6971092
0.286396
1.25127
2.193893
3.123329
4.041317
4.878036
5.514175
5.792473
5.603909
4.983044
4.112133
3.23621
2.578812
2.270824
2.262165
2.427769
2.600227
2.658367
2.59354
2.480309
2.404652
2.414577
2.493687
2.544003
2.454216
2.170429
1.676674
1.085918
0.5020256
0.005954742
-0.39254
-0.7699699
-1.192295
-1.710243
-2.309612
-2.959461
-3.62817
-4.317501
-5.038185
-5.76125
-6.393009
-6.764858
-6.709763
-6.141598
-5.148727
-3.953369
-2.847343
-2.057671
-1.658039
-1.563232
-1.551727
-1.374283
-0.8545303
0.02231598
1.115372
2.148323
2.887619
3.214096
3.1427
2.853737
2.529007
2.323509
2.285522
2.379684
2.536003
2.719017
2.917862
3.104897
3.249184
3.27282
3.144417
2.87793
2.50544
2.079079
1.637634
1.182289
0.710228
0.2524796
-0.1534424
-0.4738083
-0.7334137
-1.040504
-1.496262
-2.114021
-2.778351
-3.289703
-3.458359
-3.253586
-2.822319
-2.429306
-2.351227
-2.686447
-3.358734
-4.11396
-4.696716
-4.95256
-4.87384
-4.578682
-4.185333
-3.768707
-3.299515
-2.711113
-1.966713
-1.098221
-0.2191238
0.5336761
1.068352
1.395378
1.569115
1.684547
1.790451
1.897316
1.982468
2.026062
2.049202
2.103813
2.252785
2.499245
2.767303
2.915047
2.817581
2.430901
1.815071
1.134872
0.5487823
0.1518402
-0.06155396
-0.1911545
-0.3402252
-0.5773697
-0.884407
-1.174683
-1.352959
-1.37661
-1.302032
-1.23053
-1.27932
-1.518227
-1.975067
-2.620964
-3.412361
-4.318298
-5.283081
-6.243095
-7.054596
-7.542236
-7.557587
-7.027046
-6.007599
-4.659729
-3.17289
-1.72171
-0.436058
0.6161118
1.366615
1.781517
1.870979
1.705818
1.427399
1.197601
1.149773
1.33593
1.705025
2.146523
2.523102
2.720398
2.686867
2.436729
2.034554
1.578041
1.188187
0.9455566
0.8984756
1.048058
1.329758
1.638153
1.879265
1.963638
1.84066
1.512558
1.038689
0.5213852
0.04496002
-0.3551025
-0.7062988
-1.046051
-1.422836
-1.807762
-2.139053
-2.369064
-2.501953
-2.618179
-2.862076
-3.315704
-3.937584
-4.57695
-5.016708
-5.101265
-4.806305
-4.204498
-3.431793
-2.621307
-1.869896
-1.246216
-0.8243484
-0.6136169
-0.5690002
-0.6044693
-0.5983887
-0.4781342
-0.2220154
0.1487656
0.6200714
1.192841
1.891518
2.68441
3.479897
4.159477
4.614838
4.818604
4.812561
4.636017
4.307945
3.816856
3.164528
2.425674
1.731728
1.234726
0.9711151
0.8569641
0.7109528
0.3586807
-0.2764816
-1.123367
-2.03154
-2.822266
-3.400528
-3.762466
-3.962547
-4.071205
-4.132935
-4.182098
-4.266785
-4.473213
-4.867043
-5.439903
-6.062431
-6.489738
-6.451012
-5.764633
-4.44445
-2.723343
-0.9656982
0.4851151
1.434448
1.872986
1.921463
1.768318
1.55481
1.358459
1.214188
1.120499
1.114304
1.236351
1.514854
1.933441
2.42099
2.871658
3.187401
3.322533
3.296814
3.199753
3.12513
3.141014
3.23143
3.31588
3.249565
2.941818
2.381493
1.655914
0.9264297
0.3349533
-0.05937195
-0.2917633
-0.4823456
-0.7503052
-1.142311
-1.583717
-1.959335
-2.13575
-2.098907
-1.948174
-1.876709
-2.074928
-2.676994
-3.707314
-5.078308
-6.643211
-8.162811
-9.364815
-9.972786
-9.787209
-8.768654
-7.087181
-5.093102
-3.191284
-1.711388
-0.7709732
-0.297699
-0.08103943
0.07132721
0.2883453
0.6234207
1.069351
1.610741
2.207092
2.801178
3.321732
3.701355
3.91938
3.973045
3.929207
3.881554
3.906441
4.014839
4.195137
4.384621
4.535858
4.608406
4.579254
4.45295
4.239273
3.988869
3.741058
3.538879
3.369606
3.196327
2.933235
2.530991
1.976624
1.336456
0.7295227
0.2307892
-0.125351
-0.3913422
-0.6297226
-0.8964005
-1.221886
-1.620728
-2.100975
-2.679695
-3.332336
-3.987816
-4.556381
-4.957085
-5.190765
-5.363617
-5.590813
-5.93943
-6.349037
-6.659477
-6.698044
-6.380867
-5.744278
-4.922005
-4.047951
-3.176117
-2.285057
-1.314766
-0.2750244
0.765892
1.651398
2.253746
2.5243
2.518242
2.381927
2.254654
2.220428
2.295471
2.440331
2.586197
2.730927
2.884262
3.092773
3.365585
3.673378
3.941811
4.077484
4.026192
3.755913
3.300201
2.71534
2.086838
1.490833
0.9802094
0.5743561
0.245842
-0.04597855
-0.3826904
-0.7891273
-1.24572
-1.668694
-1.953117
-2.036236
-1.948334
-1.819004
-1.858131
-2.265266
-3.118744
-4.377869
-5.828362
-7.17448
-8.14558
-8.574211
-8.43148
-7.787708
-6.774372
-5.510563
-4.121708
-2.773109
-1.611862
-0.7543602
-0.2242775
0.06187439
0.2671852
0.5559006
1.017746
1.631878
2.318657
2.999992
3.623081
4.187908
4.702595
5.158195
5.539883
5.832611
6.020813
6.08102
5.993084
5.69371
5.172546
4.468094
3.68729
2.961403
2.414234
2.079517
1.933289
1.900993
1.883018
1.791718
1.577591
1.184185
0.5865059
-0.1744843
-1.016579
-1.805901
-2.442234
-2.884117
-3.173588
-3.429024
-3.806469
-4.415649
-5.275311
-6.291542
-7.218994
-7.809547
-7.848785
-7.27544
-6.175789
-4.779106
-3.313873
-1.947666
-0.7705688
0.21241
1.009651
1.609278
2.018559
2.260382
2.40526
2.561657
2.798258
3.116745
3.463417
3.748211
3.895178
3.903152
3.787479
3.595951
3.381323
3.187647
3.028677
2.935251
2.877264
2.80479
2.6663
2.39431
1.983831
1.459743
0.905611
0.4028053
0.05523682
-0.1136589
-0.1291103
-0.05740929
-0.002067566
-0.0200367
-0.139389
-0.3467884
-0.6166344
-0.9585276
-1.465334
-2.203788
-3.208423
-4.394308
-5.562564
-6.476267
-6.980262
-7.027279
-6.688325
-6.083466
-5.274524
-4.26378
-3.053362
-1.673529
-0.2065296
1.194897
2.402361
3.336371
3.985257
4.420163
4.755365
5.089675
5.505268
5.999565
6.491835
6.884498
7.05305
6.953894
6.606682
6.102357
5.530766
4.982882
4.493037
4.083148
3.790227
3.646599
3.640859
3.657158
3.533848
3.129695
2.382358
1.370662
0.2549083
-0.7741868
-1.610268
-2.235344
-2.714857
-3.128757
-3.502854
-3.843533
-4.154808
-4.478773
-4.875877
-5.403025
-6.018745
-6.592226
-6.956177
-6.928915
-6.450545
-5.547964
-4.333457
-2.93563
-1.49135
-0.1010995
1.145624
2.178643
2.972434
3.553025
4.03528
4.494524
4.972571
5.432014
5.791896
5.997342
6.053819
6.037334
6.014482
6.017516
6.018776
5.9421
5.754977
5.456774
5.09181
4.726853
4.440858
4.286325
4.291582
4.446377
4.672334
4.884791
4.99445
4.950035
4.751658
4.431037
3.967348
3.314011
2.418463
1.298016
0.1124163
-0.9136791
-1.570642
-1.823462
-1.820608
-1.825724
-2.076127
-2.668311
-3.56505
-4.63385
-5.749165
-6.839588
-7.821773
-8.575279
-8.921158
-8.700532
-7.886302
-6.628381
-5.203944
-3.886759
-2.826548
-1.985079
-1.239446
-0.4808207
0.2867556
0.9722795
1.494816
1.855086
2.171539
2.580814
3.188673
3.961913
4.780179
5.517766
6.103804
6.563424
6.965861
7.359894
7.727586
8.009993
8.119753
8.006192
7.732957
7.385739
7.051768
6.765754
6.456766
6.040218
5.460296
4.725068
3.9196
3.160404
2.533512
2.044775
1.640466
1.238751
0.8035021
0.323935
-0.1650448
-0.6337848
-1.069037
-1.4911
-1.915868
-2.330331
-2.770523
-3.243928
-3.78587
-4.441767
-5.244111
-6.212349
-7.338867
-8.551922
-9.675547
-10.4885
-10.70912
-10.15829
-8.812935
-6.857011
-4.64034
-2.559128
-0.9011356
0.2145852
0.8451694
1.149035
1.291519
1.398744
1.538951
1.716213
1.900602
2.051038
2.142379
2.199345
2.298385
2.511738
2.866775
3.328305
3.768116
4.083962
4.220034
4.22155
4.185215
4.220454
4.378118
4.626328
4.891357
5.060735
5.063342
4.847317
4.392449
3.71389
2.85363
1.863285
0.8125501
-0.2006721
-1.07699
-1.730643
-2.135501
-2.321816
-2.365658
-2.350267
-2.342854
-2.36972
-2.405788
-2.442449
-2.524186
-2.785688
-3.332367
-4.174394
-5.17793
-6.081236
-6.603263
-6.530495
-5.823881
-4.60969
-3.130768
-1.635313
-0.3357477
0.6320181
1.189618
1.336389
1.1469
0.7899342
0.4883289
0.4433441
0.7687035
1.397024
2.143621
2.797041
3.217493
3.424297
3.547291
3.763609
4.140366
4.609198
5.016737
5.22636
5.204819
5.023849
4.780527
4.522142
4.232822
3.838041
3.288963
2.612251
1.917923
1.308397
0.8430824
0.5007076
0.1781998
-0.2341709
-0.7950935
-1.486517
-2.220669
-2.879734
-3.37504
-3.702744
-3.96072
-4.312723
-4.904074
-5.782391
-6.860106
-7.896111
-8.616255
-8.784353
-8.314985
-7.303946
-5.947172
-4.481552
-3.076048
-1.820242
-0.735817
0.1985989
0.9999294
1.678837
2.245754
2.723431
3.148579
3.517544
3.801174
3.93301
3.895367
3.719795
3.49836
3.324741
3.242596
3.219322
3.185936
3.11684
3.034599
2.989197
3.017544
3.075039
3.071754
2.919773
2.571209
2.082611
1.531181
0.9923325
0.5005531
0.06378937
-0.3084221
-0.5656624
-0.6861496
-0.6689568
-0.560379
-0.4636955
-0.5124588
-0.813858
-1.422649
-2.325359
-3.419895
-4.566376
-5.608887
-6.430313
-6.991184
-7.31918
-7.443546
-7.342129
-6.947662
-6.189564
-5.054302
-3.670963
-2.255341
-1.031399
-0.09524155
0.597065
1.161926
1.704121
2.180435
2.486717
2.500271
2.221081
1.800148
1.491978
1.520569
1.918236
2.546875
3.160679
3.544819
3.642849
3.552959
3.434738
3.400421
3.433338
3.411945
3.190453
2.728004
2.09758
1.494457
1.117355
1.062023
1.281555
1.60321
1.836586
1.83931
1.583721
1.109547
0.509861
-0.1563492
-0.8683662
-1.621109
-2.372196
-3.042793
-3.536327
-3.781197
-3.8046
-3.681263
-3.53503
-3.504002
-3.684711
-4.121487
-4.780293
-5.541008
-6.213272
-6.593491
-6.544018
-6.029209
-5.162506
-4.121536
-3.115654
-2.271458
-1.599865
-1.039436
-0.5194931
-0.0214119
0.4482307
0.8698616
1.288063
1.741516
2.254303
2.796078
3.248116
3.453705
3.295872
2.787655
2.023796
1.205318
0.5081367
0.05922318
-0.09178162
0.06687164
0.4856873
1.097565
1.803707
2.432774
2.814816
2.79287
2.311897
1.448078
0.4054031
-0.5351639
-1.152325
-1.361965
-1.260536
-1.065117
-1.016308
-1.277737
-1.908573
-2.848209
-3.951454
-5.025822
-5.893494
-6.375
-6.341156
-5.76709
-4.745659
-3.493721
-2.268929
-1.271187
-0.5748291
-0.106926
0.2963867
0.7927475
1.445854
2.188675
2.833397
3.186943
3.149529
2.766281
2.218727
1.745003
1.504677
1.513443
1.653526
1.768021
1.785324
1.730553
1.696045
1.749657
1.881592
1.992233
1.937561
1.658409
1.165596
0.5885468
0.0575943
-0.3238907
-0.5444489
-0.6648254
-0.7505035
-0.8734283
-1.035072
-1.249237
-1.522316
-1.910423
-2.482254
-3.287918
-4.302483
-5.387482
-6.388
-7.116127
-7.518585
-7.605019
-7.450737
-7.109612
-6.585106
-5.844734
-4.853901
-3.658737
-2.309906
-0.9604721
0.2639809
1.258026
1.954224
2.340229
2.456989
2.388588
2.240627
2.137154
2.148872
2.304768
2.620636
3.058182
3.580986
4.118099
4.580853
4.893337
5.021637
4.970676
4.774864
4.508724
4.193573
3.850861
3.463184
3.028526
2.563084
2.120789
1.724529
1.401596
1.121925
0.8230896
0.4766464
0.06948853
-0.3466759
-0.7136421
-0.9806404
-1.16494
-1.320423
-1.525581
-1.844433
-2.288235
-2.832546
-3.441696
-4.105236
-4.824482
-5.647274
-6.584915
-7.585987
-8.485126
-9.059303
-9.09708
-8.48737
-7.339371
-5.910156
-4.502468
-3.346912
-2.48587
-1.81934
-1.176491
-0.503685
0.1863747
0.7317581
1.03709
1.104771
1.06543
1.12302
1.40443
1.940937
2.639526
3.355564
3.949444
4.365826
4.644089
4.880787
5.168991
5.510277
5.85318
6.08543
6.095188
5.826225
5.317951
4.66325
3.961075
3.317814
2.777481
2.355991
2.067883
1.90591
1.83326
1.782341
1.669067
1.391762
0.9193535
0.2706261
-0.4924889
-1.296246
-2.088814
-2.812984
-3.43137
-3.9147
-4.243874
-4.446918
-4.604645
-4.836597
-5.272732
-5.973114
-6.876884
-7.797165
-8.49432
-8.740601
-8.41172
-7.513432
-6.167336
-4.571358
-2.945721
-1.47781
-0.2976799
0.5254173
1.00029
1.201881
1.240543
1.25198
1.322132
1.496948
1.76791
2.070705
2.353725
2.559044
2.673809
2.725811
2.794258
2.964413
3.318298
3.860439
4.526512
5.170544
5.612617
5.714211
5.427975
4.822021
4.030014
3.210632
2.470921
1.85778
1.35722
0.91399
0.4923592
0.06229782
-0.3776894
-0.8101196
-1.228516
-1.631706
-2.046413
-2.482933
-2.978634
-3.567692
-4.282578
-5.175144
-6.23571
-7.366444
-8.340237
-8.863304
-8.67057
-7.667061
-5.996452
-4.032326
-2.217302
-0.8704109
-0.09724236
0.2369423
0.3789482
0.5328903
0.7704086
1.040237
1.266266
1.427567
1.597837
1.860241
2.264135
2.741762
3.168606
3.438774
3.498592
3.399166
3.245375
3.154343
3.169046
3.252657
3.302477
3.202116
2.879612
2.353189
1.68807
1.001249
0.4116173
-0.02118111
-0.3212795
-0.587038
-0.9369125
-1.468746
-2.199137
-3.084071
-4.041409
-4.987226
-5.843195
-6.575743
-7.130569
-7.412831
-7.335665
-6.816045
-5.862638
-4.582722
-3.175708
-1.841517
-0.7265625
0.165534
0.9376583
1.706304
2.537557
3.342336
3.957843
4.225965
4.109267
3.761404
3.436572
3.362022
3.567328
3.940951
4.23196
4.257775
3.983785
3.531088
3.057494
2.670722
2.360336
2.014623
1.577802
1.040966
0.4754519
-0.04107738
-0.4800272
-0.9038477
-1.379342
-1.959542
-2.634592
-3.328307
-4.024944
-4.7511
-5.566241
-6.482277
-7.412877
-8.150447
-8.428344
-8.039577
-6.920474
-5.19172
-3.126603
-1.048417
0.7703485
2.162714
3.101801
3.648328
3.907167
3.98772
3.999086
4.025446
4.137102
4.365143
4.715525
5.166393
5.666151
6.126272
6.446688
6.530689
6.317656
5.820669
5.091732
4.2463
3.409803
2.692558
2.126656
1.70377
1.376404
1.066833
0.7534676
0.4287281
0.1138477
-0.1822319
-0.4873886
-0.8940525
-1.493244
-2.359121
-3.513502
-4.87743
-6.324314
-7.719883
-8.951084
-9.926483
-10.54055
-10.641
-10.06059
-8.740696
-6.755116
-4.374741
-1.980026
0.09209824
1.627037
2.622749
3.234604
3.67902
4.099331
4.56546
5.074467
5.585602
6.108414
6.598103
7.015049
7.266315
7.270649
7.015003
6.601456
6.190933
5.914303
5.857533
5.949287
6.098862
6.20528
6.239697
6.226543
6.18425
6.095615
5.870132
5.475903
4.901413
4.237648
3.583752
2.979042
2.380138
1.694706
0.8691177
-0.0963707
-1.070557
-1.936142
-2.658653
-3.316853
-4.093784
-5.138515
-6.491173
-8.054367
-9.633335
-10.97916
-11.87505
-12.16537
-11.76196
-10.67247
-9.012074
-7.014385
-4.942696
-3.028942
-1.39389
-0.02828979
1.142849
2.213772
3.214272
4.114159
4.849384
5.429985
5.911541
6.395397
6.906784
7.386887
7.751232
7.914429
7.892113
7.800468
7.774082
7.870968
8.038124
8.118088
7.969006
7.545715
6.929367
6.268066
5.673771
5.186863
4.767632
4.399651
4.087906
3.843147
3.628159
3.324577
2.792995
1.949314
0.826561
-0.4150925
-1.570877
-2.491817
-3.185722
-3.792057
-4.506451
-5.44965
-6.618488
-7.884964
-9.015583
-9.790722
-10.02876
-9.603767
-8.520977
-6.921261
-5.040279
-3.176868
-1.603527
-0.4769783
0.2007942
0.5747452
0.8399963
1.159164
1.594921
2.125126
2.696453
3.256466
3.761417
4.189182
4.502491
4.665806
4.699398
4.70789
4.852516
5.256908
5.937004
6.781929
7.573849
8.135452
8.358837
8.22216
7.749821
6.966724
5.908478
4.660965
3.382786
2.269253
1.487339
1.044041
0.7929802
0.5083504
0.01312637
-0.7293892
-1.599701
-2.435093
-3.155258
-3.813381
-4.581093
-5.570854
-6.789371
-8.045216
-9.015781
-9.366993
-8.908005
-7.667923
-5.891312
-3.96471
-2.217213
-0.8553658
0.1111336
0.8175697
1.460171
2.187199
3.022774
3.85173
4.486107
4.773426
4.654922
4.230255
3.719429
3.341892
3.209042
3.29911
3.47868
3.577435
3.514862
3.310043
3.047939
2.853935
2.74242
2.641327
2.431915
2.006863
1.338844
0.491642
-0.4014549
-1.192406
-1.784962
-2.160278
-2.363022
-2.497265
-2.65641
-2.931423
-3.36858
-3.990639
-4.754059
-5.567272
-6.29113
-6.760406
-6.814884
-6.38158
-5.497158
-4.319225
-3.06498
-1.895313
-0.858532
0.09125137
1.057243
2.118759
3.212555
4.202854
4.927666
5.299759
5.367195
5.273582
5.15152
5.054474
4.930546
4.699707
4.307446
3.799805
3.287773
2.886326
2.652382
2.563126
2.558376
2.558296
2.516026
2.393787
2.184662
1.848888
1.366653
0.7622261
0.102581
-0.4936638
-0.934864
-1.156986
-1.170498
-1.071867
-1.023645
-1.202473
-1.748962
-2.719
-4.010899
-5.407297
-6.610247
-7.341145
-7.447006
-6.95015
-6.018597
-4.862017
-3.663792
-2.504993
-1.420366
-0.4478855
0.3541336
0.8820343
1.117323
1.151428
1.193613
1.464705
2.071543
2.92732
3.798361
4.442232
4.714193
4.662636
4.432489
4.186241
4.023502
3.917856
3.79401
3.579912
3.286486
2.953522
2.640331
2.335424
1.980814
1.524788
0.962923
0.364954
-0.1973267
-0.6437702
-0.980957
-1.260666
-1.573183
-2.015659
-2.642001
-3.47104
-4.45598
-5.535479
-6.619061
-7.610817
-8.389321
-8.8266
-8.804924
-8.251473
-7.193976
-5.708999
-3.997426
-2.301199
-0.8581161
0.1853447
0.8305092
1.232779
1.604204
2.103066
2.772079
3.480928
4.033784
4.253365
4.09478
3.665267
3.158847
2.75414
2.538977
2.497917
2.562526
2.712321
2.970612
3.366406
3.894841
4.438612
4.809018
4.811854
4.340163
3.418908
2.221888
0.9975653
-0.05844855
-0.8418005
-1.375507
-1.776384
-2.154219
-2.586311
-3.115218
-3.724962
-4.403407
-5.124145
-5.829553
-6.418666
-6.753211
-6.704035
-6.213717
-5.348067
-4.25885
-3.148031
-2.176892
-1.443225
-0.9425325
-0.6006854
-0.3048193
0.0551796
0.5428674
1.1181
1.663733
2.031989
2.127847
1.966045
1.684492
1.458949
1.414791
1.536633
1.684877
1.694024
1.47613
1.071182
0.6146178
0.2397046
0.00204277
-0.1158457
-0.1980858
-0.2945628
-0.4009171
-0.4626045
-0.4242377
-0.3059263
-0.2106104
-0.2751112
-0.613678
-1.307081
-2.320991
-3.508233
-4.664474
-5.535816
-5.946049
-5.832579
-5.264805
-4.435844
-3.543751
-2.725142
-1.990922
-1.289002
-0.5114536
0.3968277
1.418874
2.493787
3.51078
4.356332
4.93995
5.199587
5.100513
4.7212
4.183548
3.638461
3.221395
2.945049
2.776658
2.621486
2.396921
2.047345
1.611193
1.1221
0.6184778
0.1629496
-0.2153378
-0.4575462
-0.5300598
-0.4372778
-0.2708836
-0.1658697
-0.2818298
-0.7393274
-1.539598
-2.595568
-3.761771
-4.86926
-5.804559
-6.495153
-6.882454
-6.928425
-6.589073
-5.852947
-4.808434
-3.601343
-2.402832
-1.370522
-0.5393333
0.1333103
0.7478237
1.380657
2.068689
2.734482
3.279974
3.606796
3.673471
3.545681
3.345795
3.187706
3.118261
3.10635
3.06753
2.952427
2.757994
2.539082
2.347496
2.172228
1.921797
1.508677
0.905056
0.1782951
-0.5499096
-1.208101
-1.791214
-2.385889
-3.044157
-3.775373
-4.510761
-5.161135
-5.697025
-6.120794
-6.442356
-6.586445
-6.462641
-5.962584
-5.105968
-4.038219
-2.960659
-2.042318
-1.315645
-0.6890984
-0.02409172
0.7454605
1.573402
2.311884
2.80702
2.974394
2.884455
2.674355
2.496214
2.448484
2.515053
2.61096
2.639626
2.534576
2.329058
2.103903
1.933975
1.83219
1.716421
1.478212
1.037426
0.3961277
-0.3632278
-1.087254
-1.64801
-1.979158
-2.103317
-2.130753
-2.207546
-2.456396
-2.923553
-3.551796
-4.194796
-4.676466
-4.798595
-4.441248
-3.570875
-2.285435
-0.7564774
0.8103523
2.193607
3.236286
3.849451
4.059431
3.959053
3.692711
3.40663
3.225471
3.213865
3.355745
3.571199
3.751274
3.767509
3.543396
3.089344
2.491663
1.932755
1.581326
1.513603
1.665216
1.859251
1.873344
1.553328
0.9011726
0.0764389
-0.6853848
-1.169773
-1.314156
-1.198549
-1.038898
-1.081297
-1.480022
-2.276257
-3.389967
-4.66514
-5.890862
-6.873915
-7.423695
-7.428532
-6.900793
-5.933504
-4.727236
-3.514078
-2.476017
-1.691336
-1.152597
-0.7552013
-0.3895664
-0.01790428
0.3500595
0.6539211
0.8206863
0.8362217
0.7661686
0.7242565
0.8448906
1.239265
1.89547
2.726128
3.545898
4.171682
4.484194
4.44552
4.104439
3.531612
2.797785
1.946558
1.065771
0.2686901
-0.2877865
-0.4558659
-0.2380524
0.1979256
0.5403576
0.4703655
-0.2134113
-1.432774
-2.887918
-4.180307
-4.953569
-5.076612
-4.630852
-3.826218
-2.868063
-1.887159
-0.8791142
0.2045059
1.359802
2.520151
3.511086
4.187391
4.452482
4.342718
3.957249
3.433382
2.865175
2.266979
1.641169
1.000734
0.4268475
0.03274727
-0.07161903
0.1347237
0.589201
1.161819
1.731321
2.215473
2.561756
2.728935
2.670006
2.333286
1.715096
0.8828735
-0.04042816
-0.8976002
-1.562849
-2.004883
-2.267324
-2.444141
-2.629183
-2.89967
-3.310509
-3.885912
-4.599346
-5.329639
-5.90786
-6.161869
-5.982124
-5.379827
-4.498571
-3.51996
-2.593842
-1.784832
-1.031416
-0.2256889
0.6918888
1.688452
2.633118
3.367947
3.794128
3.903967
3.7978
3.610485
3.48518
3.498383
3.654436
3.876528
4.061934
4.139381
4.074888
3.896713
3.668919
3.437269
3.236399
3.066128
2.898497
2.709438
2.505306
2.285494
2.024681
1.711958
1.294685
0.7208271
-0.004936218
-0.8376884
-1.704088
-2.520475
-3.275848
-4.023394
-4.842955
-5.792524
-6.853382
-7.887953
-8.680595
-9.039198
-8.822563
-8.038839
-6.806734
-5.312237
-3.746424
-2.255091
-0.9343433
0.1838531
1.093603
1.826077
2.40373
2.854923
3.207993
3.463137
3.641476
3.785139
3.938667
4.148127
4.430408
4.754168
5.068069
5.344343
5.57778
5.816217
6.098572
6.428043
6.730558
6.878344
6.742758
6.255047
5.469151
4.513348
3.566761
2.770285
2.192469
1.808489
1.512758
1.212627
0.8088455
0.2920856
-0.2906914
-0.8324566
-1.253801
-1.550846
-1.782909
-2.096544
-2.6283
-3.452402
-4.558956
-5.824404
-7.059299
-8.068207
-8.704872
-8.896841
-8.654123
-8.041485
-7.143494
-6.054449
-4.867558
-3.665407
-2.534954
-1.562412
-0.8008652
-0.2375088
0.1988754
0.6403313
1.221548
1.982767
2.862043
3.699463
4.298473
4.549261
4.480314
4.223589
3.941402
3.731581
3.593008
3.459185
3.267548
3.030212
2.830544
2.781096
2.928473
3.221207
3.521088
3.653887
3.521336
3.127745
2.616388
2.169598
1.906879
1.828138
1.847832
1.821831
1.657116
1.36776
1.011385
0.6485996
0.2814674
-0.1734123
-0.7932777
-1.609497
-2.559906
-3.567917
-4.54208
-5.47106
-6.363405
-7.226122
-8.003824
-8.576868
-8.818596
-8.600163
-7.888285
-6.690212
-5.122986
-3.367714
-1.656673
-0.1885414
0.9205933
1.660511
2.132725
2.451054
2.706345
2.897408
2.980961
2.921017
2.747257
2.543362
2.384998
2.320595
2.349674
2.449368
2.607052
2.811523
3.091312
3.438522
3.836811
4.209988
4.498413
4.659164
4.685585
4.625587
4.512779
4.380848
4.177841
3.820393
3.198132
2.288597
1.168453
-0.002002716
-1.026157
-1.763481
-2.187931
-2.397083
-2.567196
-2.837578
-3.280319
-3.884602
-4.587776
-5.312447
-6.046455
-6.820637
-7.649097
-8.451271
-9.025543
-9.154503
-8.661274
-7.543823
-5.966572
-4.229862
-2.649677
-1.40485
-0.5202026
0.1204872
0.6738052
1.232536
1.772285
2.218838
2.494125
2.610577
2.690178
2.878342
3.270275
3.827503
4.420788
4.861977
5.037193
4.952713
4.731834
4.530327
4.424313
4.379505
4.256905
3.950371
3.399517
2.645981
1.824627
1.061989
0.452549
0.02237701
-0.2730637
-0.5001106
-0.7160034
-0.955162
-1.222424
-1.486187
-1.718529
-1.909542
-2.043686
-2.132122
-2.176983
-2.209236
-2.290745
-2.536686
-3.067463
-3.974339
-5.183487
-6.452919
-7.452827
-7.859097
-7.521935
-6.488419
-4.981102
-3.248402
-1.535614
0.02506638
1.371338
2.431957
3.156479
3.493969
3.469753
3.193348
2.864552
2.646999
2.632282
2.807808
3.049652
3.247063
3.309471
3.222015
3.019398
2.776039
2.546654
2.377716
2.295284
2.28727
2.333584
2.37561
2.342728
2.174225
1.828648
1.299747
0.6473427
-0.01926804
-0.5992699
-1.011841
-1.24519
-1.35828
-1.47184
-1.718792
-2.195347
-2.881775
-3.644585
-4.341885
-4.862415
-5.221405
-5.554401
-6.001102
-6.61665
-7.279488
-7.735718
-7.692074
-7.021828
-5.7743
-4.203342
-2.61705
-1.225811
-0.08248901
0.8687744
1.68528
2.371277
2.853539
3.074524
3.016945
2.769306
2.501709
2.375183
2.504589
2.870327
3.394337
3.949821
4.43021
4.740978
4.830303
4.710644
4.412319
4.002052
3.531132
3.029072
2.513165
2.025959
1.59832
1.229168
0.8960915
0.4700317
-0.1556625
-1.049904
-2.171577
-3.359306
-4.389549
-5.078949
-5.393322
-5.444355
-5.439415
-5.527637
-5.770317
-6.071686
-6.298828
-6.339699
-6.146145
-5.754807
-5.244049
-4.658268
-3.989735
-3.216839
-2.31004
-1.261017
-0.1112785
1.084843
2.27293
3.389549
4.32159
4.973373
5.283169
5.276821
5.110325
4.96719
4.990189
5.20747
5.476593
5.555378
5.232353
4.421146
3.204739
1.814236
0.5083961
-0.4797325
-0.9923706
-1.005898
-0.6133575
-0.01167297
0.5433006
0.8311844
0.7419891
0.3220177
-0.2632446
-0.7972832
-1.18602
-1.439671
-1.671429
-2.015289
-2.546638
-3.257912
-4.111057
-5.075211
-6.08794
-7.05975
-7.805035
-8.081001
-7.698456
-6.605694
-4.922211
-2.966702
-1.09763
0.369236
1.287434
1.719425
1.861328
1.920471
2.049877
2.307339
2.665699
3.061451
3.451534
3.789387
4.031174
4.155399
4.130295
3.993073
3.830372
3.788494
3.966679
4.392376
4.947361
5.446716
5.722469
5.661018
5.281296
4.666672
3.942322
3.192446
2.498444
1.87204
1.336313
0.8669586
0.4483261
0.04798889
-0.3739834
-0.8226929
-1.342545
-1.935925
-2.637939
-3.463039
-4.413795
-5.455294
-6.540634
-7.587929
-8.49033
-9.13467
-9.390173
-9.17141
-8.448835
-7.276587
-5.777555
-4.133743
-2.543442
-1.191412
-0.1565552
0.5737324
1.093369
1.554338
2.096834
2.783703
3.594273
4.433214
5.151848
5.633532
5.833212
5.781061
5.564348
5.322399
5.141851
5.063354
5.057301
5.050741
4.959949
4.784712
4.574371
4.401167
4.3258
4.33304
4.333527
4.239923
4.017656
3.714315
3.456644
3.289948
3.170193
2.930468
2.396463
1.506153
0.3640404
-0.7803764
-1.670616
-2.148453
-2.260927
-2.155336
-2.032005
-2.012644
-2.080303
-2.182573
-2.283461
-2.445583
-2.795006
-3.463192
-4.477457
-5.679375
-6.8211
-7.569677
-7.693773
-7.113569
-5.961758
-4.486135
-2.985958
-1.694551
-0.7282906
-0.08897972
0.3259697
0.6186905
0.8653812
1.110386
1.385719
1.713821
2.13114
2.669785
3.316338
4.036474
4.755058
5.382555
5.846067
6.102745
6.131369
5.924847
5.524925
5.00493
4.501108
4.157467
4.061378
4.228588
4.54734
4.87328
5.077511
5.12059
5.052933
4.965919
4.929996
4.966373
5.018036
5.001415
4.829494
4.458836
3.883537
3.147606
2.326496
1.485832
0.6992798
-0.03146744
-0.7326126
-1.453365
-2.212772
-2.977932
-3.642956
-4.112202
-4.352493
-4.426819
-4.490883
-4.723911
-5.243156
-6.079292
-7.151077
-8.277802
-9.246063
-9.860901
-9.971554
-9.509716
-8.496742
-7.047497
-5.364338
-3.669117
-2.183838
-1.049938
-0.2985535
0.1322136
0.3820343
0.5964584
0.9009247
1.330868
1.884331
2.475868
3.011452
3.419373
3.655319
3.693336
3.571114
3.356613
3.112373
2.893234
2.711147
2.592407
2.57198
2.699821
2.99242
3.390755
3.76643
3.935631
3.799553
3.42004
3.011894
2.855068
3.089703
3.632839
4.173893
4.366093
4.036968
3.277092
2.386871
1.67374
1.281441
1.138306
1.036831
0.760601
0.207077
-0.5677223
-1.441666
-2.294727
-3.046207
-3.651367
-4.082546
-4.31683
-4.397362
-4.393208
-4.435425
-4.657867
-5.139896
-5.850529
-6.635113
-7.261086
-7.506081
-7.227196
-6.422974
-5.215805
-3.816227
-2.411091
-1.138947
-0.03511429
0.9085045
1.695747
2.332306
2.806068
3.10379
3.253181
3.330933
3.432991
3.608711
3.872101
4.150574
4.325607
4.298477
4.017532
3.526291
2.951019
2.437111
2.069183
1.843498
1.675293
1.467903
1.176964
0.8267059
0.5010605
0.2837296
0.1819229
0.1064301
-0.04987335
-0.3912659
-0.9176254
-1.537956
-2.101906
-2.477707
-2.610863
-2.556152
-2.429764
-2.350479
-2.419846
-2.72818
-3.332619
-4.24984
-5.398132
-6.54863
-7.39621
-7.629951
-7.075394
-5.792999
-4.062294
-2.271309
-0.7591171
0.292244
0.8994598
1.233437
1.478783
1.774101
2.118637
2.433876
2.596893
2.527512
2.212036
1.720146
1.181458
0.7203674
0.4155655
0.2493896
0.1781006
0.1574326
0.1553574
0.1527939
0.1168365
0.02433777
-0.1554794
-0.4029846
-0.6864014
-0.951149
-1.164581
-1.335938
-1.502876
-1.728294
-2.009453
-2.338234
-2.680183
-3.028336
-3.414513
-3.873566
-4.434433
-5.05378
-5.668098
-6.183784
-6.527939
-6.621849
-6.396957
-5.820702
-4.910492
-3.769951
-2.581055
-1.545219
-0.7987213
-0.3327942
-0.009422302
0.3707123
0.9093781
1.580284
2.215553
2.610664
2.632126
2.302818
1.782829
1.301414
1.050041
1.044327
1.183212
1.295639
1.245506
0.9826279
0.5799179
0.1435928
-0.2351685
-0.499321
-0.6840973
-0.8404846
-1.01918
-1.237587
-1.487724
-1.730934
-1.951088
-2.131302
-2.255135
-2.339478
-2.398682
-2.450432
-2.539261
-2.713829
-3.050194
-3.61412
-4.433144
-5.44651
-6.494934
-7.281311
-7.499786
-6.96711
-5.708931
-4.003914
-2.261871
-0.8696594
-0.02929688
0.2815018
0.2998505
0.2833214
0.3993263
0.6896706
1.036419
1.305561
1.411064
1.374344
1.268204
1.189754
1.15802
1.102303
0.9880028
0.8065491
0.6665115
0.7177467
1.108685
1.852596
2.800247
3.700199
4.25692
4.341763
3.951927
3.255093
2.487919
1.853092
1.461414
1.301453
1.298763
1.326923
1.320652
1.211945
0.9936028
0.6465569
0.1725426
-0.4181938
-1.112019
-1.865452
-2.624878
-3.306183
-3.903614
-4.428078
-4.965961
-5.59605
-6.333149
-7.104618
-7.739033
-8.042461
-7.843029
-7.097553
-5.909199
-4.461235
-2.984192
-1.622128
-0.4254341
0.6266479
1.58844
2.468773
3.255745
3.930714
4.488266
4.95277
5.3556
5.707846
6.015322
6.263102
6.443249
6.591339
6.763182
7.00709
7.358049
7.794617
8.276722
8.756149
9.158056
9.406916
9.441628
9.228075
8.79221
8.218515
7.598
7.033848
6.573002
6.209484
5.910479
5.6493
5.388117
5.119761
4.838724
4.508186
4.104029
3.604692
3.006754
2.330814
1.607124
0.8805904
0.1826458
-0.4243793
-0.9296036
-1.343699
-1.721888
-2.154804
-2.673803
-3.287014
-3.893158
-4.372705
-4.626457
-4.66456
-4.585148
-4.565693
-4.793617
-5.38615
-6.365925
-7.598444
-8.863846
-9.87974
-10.39605
-10.25084
-9.455587
-8.173086
-6.66839
-5.211575
-3.990618
-3.073891
-2.388849
-1.821159
-1.282339
-0.7482414
-0.2635918
0.1428509
0.46908
0.8064404
1.233282
1.789377
2.45336
3.101875
3.610973
3.907431
4.004873
3.975533
3.945944
4.016003
4.256784
4.670816
5.183369
5.689192
6.080397
6.272545
6.223928
5.963917
5.565313
5.128922
4.704023
4.323835
3.967752
3.63695
3.325546
3.04567
2.831154
2.694914
2.674526
2.744802
2.820168
2.762976
2.442553
1.791704
0.8342724
-0.2600403
-1.306669
-2.133329
-2.688517
-3.065062
-3.454521
-4.071291
-5.049839
-6.3946
-7.944471
-9.457811
-10.67186
-11.39184
-11.55322
-11.21547
-10.48527
-9.469656
-8.251652
-6.889843
-5.513542
-4.270763
-3.282701
-2.570793
-1.99877
-1.36746
-0.4742641
0.6955242
2.010309
3.174665
3.954498
4.29516
4.288831
4.161608
4.066784
4.07192
4.106893
4.094752
4.006109
3.861659
3.773852
3.770737
3.844607
3.897408
3.853024
3.669488
3.378533
3.031871
2.684899
2.385853
2.085901
1.745387
1.325103
0.8280067
0.2978153
-0.1939602
-0.6062765
-0.9713564
-1.310831
-1.724266
-2.252999
-2.916759
-3.707387
-4.612081
-5.5961
-6.611454
-7.560987
-8.253542
-8.504942
-8.166922
-7.204637
-5.789547
-4.188606
-2.668112
-1.408298
-0.4463496
0.3046246
0.9529371
1.562304
2.159042
2.70387
3.174016
3.564465
3.894851
4.196074
4.457256
4.636153
4.693809
4.645562
4.52789
4.398653
4.276691
4.111773
3.819479
3.350471
2.695843
1.968364
1.312262
0.8189821
0.5136178
0.3221445
0.1488922
-0.03476596
-0.1912041
-0.2688689
-0.2201908
-0.09614325
-0.02369928
-0.1201813
-0.462698
-1.069008
-1.867752
-2.780703
-3.726733
-4.629735
-5.427293
-6.04674
-6.390429
-6.390943
-6.03857
-5.388607
-4.560174
-3.671047
-2.778298
-1.898913
-1.001663
-0.07228661
0.8563423
1.705306
2.406853
2.938911
3.364943
3.763647
4.165043
4.550923
4.84224
5.003941
5.061362
5.118865
5.274256
5.534059
5.809714
5.943023
5.846631
5.51572
5.06293
4.61518
4.24315
3.912975
3.548675
3.094564
2.568213
2.088093
1.762007
1.649063
1.70171
1.78169
1.735988
1.475361
0.9683161
0.2447958
-0.6226149
-1.565382
-2.523567
-3.446301
-4.287899
-4.985304
-5.516077
-5.902199
-6.262608
-6.768595
-7.542858
-8.569712
-9.644648
-10.4531
-10.66477
-10.13119
-8.93165
-7.341543
-5.737047
-4.388348
-3.397104
-2.642042
-1.943035
-1.124744
-0.1390629
0.9650116
2.099751
3.207775
4.260178
5.263433
6.20738
7.000237
7.538673
7.759096
7.699532
7.497189
7.316303
7.259531
7.294125
7.275724
7.045313
6.54258
5.836132
5.100117
4.534805
4.22477
4.171925
4.274416
4.395424
4.437807
4.330215
4.06839
3.663052
3.192177
2.72868
2.342527
2.054171
1.841856
1.625256
1.329874
0.9045544
0.3505459
-0.266325
-0.876936
-1.451403
-1.981678
-2.471983
-2.93379
-3.359491
-3.743105
-4.10037
-4.495377
-5.035345
-5.831951
-6.918343
-8.198172
-9.398258
-10.1898
-10.27659
-9.555635
-8.165878
-6.428612
-4.715397
-3.297884
-2.289803
-1.653799
-1.265024
-0.9914627
-0.7180996
-0.3515224
0.1725292
0.8802223
1.725588
2.598877
3.374367
4.014441
4.560673
5.125116
5.817282
6.640471
7.5023
8.251385
8.738783
8.907095
8.779194
8.441452
7.98527
7.467306
6.922157
6.380655
5.845167
5.320581
4.778381
4.18759
3.532923
2.824007
2.114853
1.460894
0.9409122
0.5513992
0.2622433
-0.0249176
-0.402668
-0.9365501
-1.61657
-2.350269
-3.023216
-3.519541
-3.84227
-4.066431
-4.350039
-4.846027
-5.626127
-6.637533
-7.749374
-8.791611
-9.602549
-10.07852
-10.13666
-9.747313
-8.917532
-7.709564
-6.246195
-4.720831
-3.324795
-2.211784
-1.38315
-0.7098351
0.00961113
0.9219093
2.079933
3.36054
4.578037
5.53455
6.110455
6.304247
6.199121
5.918404
5.548725
5.162355
4.79089
4.493713
4.306171
4.236544
4.248604
4.256098
4.170853
3.922028
3.485573
2.871964
2.159407
1.431862
0.8095856
0.3601723
0.1002216
-0.005256653
-0.02946854
-0.07275581
-0.2210693
-0.4965801
-0.9093666
-1.415737
-1.954659
-2.495558
-3.020454
-3.53323
-4.076832
-4.696291
-5.420511
-6.224688
-7.026136
-7.68539
-8.077124
-8.102453
-7.731373
-6.989586
-5.935047
-4.693115
-3.428242
-2.295853
-1.422256
-0.8737431
-0.5823765
-0.4328575
-0.271452
0.0618
0.6391125
1.440966
2.392702
3.371681
4.237358
4.90906
5.328875
5.506525
5.506929
5.407295
5.281918
5.161737
5.065641
4.999092
4.954195
4.899879
4.752287
4.401863
3.739452
2.758066
1.56711
0.3934078
-0.5210495
-1.010408
-1.066311
-0.8088722
-0.4205418
-0.1050014
0.02477646
-0.09135628
-0.4621773
-1.082302
-1.948122
-3.060036
-4.402056
-5.885496
-7.39624
-8.722683
-9.647062
-9.970478
-9.616381
-8.65741
-7.316637
-5.889109
-4.621546
-3.628235
-2.8729
-2.230108
-1.561016
-0.7756405
0.1226215
1.082407
2.043627
2.965208
3.839813
4.658022
5.376238
5.980669
6.434469
6.730282
6.892586
6.958235
6.97987
6.992577
7.018007
7.02953
6.954323
6.707218
6.19829
5.408859
4.402481
3.337124
2.403416
1.766693
1.474878
1.452795
1.529999
1.530985
1.359957
1.000786
0.498539
-0.09417725
-0.7281704
-1.422001
-2.18264
-3.007879
-3.83935
-4.599861
-5.282928
-5.92103
-6.61768
-7.429813
-8.301645
-9.021662
-9.304077
-8.915615
-7.778172
-6.090837
-4.178453
-2.372843
-0.8697376
0.3247776
1.333889
2.294861
3.262039
4.215111
5.060596
5.729605
6.183798
6.40686
6.391895
6.126078
5.653105
5.04369
4.444262
3.992334
3.790541
3.893923
4.263887
4.82439
5.468601
6.074886
6.523584
6.733229
6.663507
6.321674
5.805422
5.201595
4.623096
4.172098
3.90192
3.82423
3.900457
4.064642
4.169552
4.09284
3.728712
3.075968
2.207602
1.197454
0.11269
-1.04982
-2.311338
-3.694626
-5.140587
-6.561989
-7.852144
-8.959385
-9.94849
-10.88671
-11.81649
-12.69019
-13.35371
-13.61467
-13.35176
-12.55623
-11.33081
-9.894142
-8.442846
-7.111515
-5.986254
-5.02887
-4.145975
-3.204994
-2.111784
-0.8292103
0.512022
1.721931
2.626417
3.131968
3.32584
3.364845
3.406431
3.533705
3.741337
3.971712
4.235819
4.603634
5.140316
5.895756
6.76919
7.5895
8.169937
8.384077
8.180937
7.617901
6.778692
5.794466
4.849777
4.105747
3.709833
3.664385
3.848879
4.059431
4.099688
3.872601
3.421724
2.916639
2.494108
2.209084
2.012741
1.763987
1.361109
0.7638302
0.00453186
-0.8530655
-1.738707
-2.620684
-3.461596
-4.233525
-4.915191
-5.482922
-5.987555
-6.508276
-7.144129
-7.937453
-8.852745
-9.736288
-10.36636
-10.53102
-10.08279
-9.057513
-7.596624
-5.915601
-4.253962
-2.781373
-1.591827
-0.7043724
-0.1049786
0.3057537
0.6383486
1.028169
1.59927
2.340575
3.182694
3.997895
4.679639
5.154616
5.433432
5.530784
5.497272
5.386367
5.240013
5.170003
5.278066
5.613585
6.118235
6.635506
6.933026
6.814151
6.222357
5.20008
3.944433
2.673097
1.594828
0.8636904
0.5363045
0.5657597
0.8099871
1.112174
1.275979
1.202834
0.8601995
0.3163953
-0.277771
-0.7739987
-1.080502
-1.201951
-1.234624
-1.330219
-1.591639
-2.074111
-2.755651
-3.536693
-4.333874
-5.126338
-5.968576
-6.913054
-7.974085
-9.009057
-9.794389
-10.13209
-9.899251
-9.148763
-8.050961
-6.809246
-5.54342
-4.288294
-3.020361
-1.745973
-0.5385132
0.4952805
1.240107
1.683528
1.86503
1.88536
1.827493
1.770684
1.786911
1.960912
2.358425
2.958081
3.674989
4.359216
4.8706
5.137647
5.20204
5.160664
5.101061
5.054591
4.960564
4.761251
4.437052
4.015447
3.564769
3.149347
2.803366
2.526583
2.305016
2.102778
1.876881
1.556356
1.07407
0.4002938
-0.4691083
-1.469519
-2.51424
-3.514202
-4.430455
-5.251868
-6.012376
-6.762338
-7.499577
-8.197664
-8.750852
-9.041512
-8.95211
-8.415334
-7.4439
-6.132124
-4.640374
-3.106458
-1.667177
-0.3833775
0.736678
1.707824
2.536858
3.197455
3.616506
3.697217
3.414748
2.848425
2.213542
1.755443
1.67382
2.005012
2.597964
3.202649
3.593574
3.682453
3.521513
3.277905
3.093928
3.005491
2.954642
2.816478
2.523503
2.10163
1.635992
1.209771
0.8540069
0.5350353
0.1611449
-0.3283713
-0.9434739
-1.634967
-2.297634
-2.826703
-3.17668
-3.347589
-3.399374
-3.450602
-3.608849
-3.975949
-4.596668
-5.41035
-6.279594
-6.986386
-7.301785
-7.077263
-6.299369
-5.100657
-3.713446
-2.363344
-1.172239
-0.1350187
0.8237818
1.781079
2.693862
3.446018
3.896074
4.015499
3.913857
3.811334
3.945742
4.427342
5.234653
6.161312
6.996139
7.555988
7.817281
7.868561
7.874994
7.965236
8.182413
8.467318
8.675244
8.696375
8.468592
8.036542
7.474128
6.8555
6.181826
5.400961
4.43333
3.220337
1.787262
0.2399299
-1.279768
-2.606229
-3.62417
-4.307181
-4.717922
-4.973248
-5.236426
-5.618447
-6.162503
-6.870068
-7.701027
-8.625835
-9.554495
-10.36635
-10.86431
-10.87531
-10.2945
-9.183983
-7.724983
-6.147378
-4.643477
-3.301705
-2.125021
-1.090847
-0.2175574
0.4752407
0.969285
1.32176
1.610839
1.927979
2.302756
2.746356
3.241193
3.786554
4.388963
5.039504
5.666063
6.158213
6.402765
6.365744
6.095623
5.700112
5.261746
4.806719
4.302986
3.719152
3.102592
2.570911
2.264333
2.246843
2.466699
2.773124
2.977711
2.945905
2.661635
2.19695
1.658451
1.121723
0.5868292
0.01225471
-0.657732
-1.436153
-2.299599
-3.153641
-3.906197
-4.478804
-4.855044
-5.066231
-5.191682
-5.360588
-5.686912
-6.235072
-6.982854
-7.833165
-8.65073
-9.282393
-9.647501
-9.67539
-9.37474
-8.777576
-7.949083
-6.986405
-5.990035
-5.073853
-4.27645
-3.580324
-2.869142
-2.016499
-0.9338245
0.3673077
1.748149
3.026956
4.035981
4.687631
5.007545
5.111769
5.142405
5.217958
5.376457
5.585874
5.807915
6.006536
6.193055
6.382689
6.567616
6.705698
6.707694
6.514873
6.111257
5.581294
5.053184
4.63076
4.359149
4.175932
3.984579
3.684301
3.262521
2.742229
2.195766
1.650707
1.083977
0.4608345
-0.2634926
-1.082653
-1.938019
-2.736223
-3.410179
-3.923594
-4.325567
-4.66551
-4.965076
-5.200834
-5.355867
-5.448595
-5.543127
-5.769924
-6.26268
-7.090796
-8.231485
-9.519119
-10.67441
-11.37573
-11.35193
-10.47812
-8.816507
-6.639788
-4.310024
-2.212023
-0.6061745
0.4439106
1.028355
1.326126
1.526363
1.766481
2.092762
2.51638
3.003632
3.532269
4.082526
4.637172
5.172675
5.663031
6.094057
6.442165
6.701182
6.856728
6.913268
6.890952
6.783854
6.604326
6.321903
5.900314
5.31485
4.579489
3.744968
2.901803
2.193983
1.702311
1.491088
1.533584
1.717111
1.929844
2.060652
2.004303
1.727596
1.27006
0.6956997
0.1367893
-0.3559628
-0.7640762
-1.140738
-1.541243
-2.024134
-2.609196
-3.26778
-3.984062
-4.721649
-5.484755
-6.277119
-7.087078
-7.841755
-8.415287
-8.653769
-8.46316
-7.859118
-6.952831
-5.929813
-4.952276
-4.085697
-3.323704
-2.604465
-1.863331
-1.118683
-0.4247627
0.1807156
0.695837
1.184448
1.730095
2.316343
2.861332
3.25535
3.453716
3.511938
3.56921
3.761
4.123137
4.578575
4.958191
5.07172
4.82966
4.265369
3.516584
2.764166
2.147253
1.709023
1.414427
1.175539
0.899992
0.5400391
0.08601761
-0.426796
-0.9685144
-1.513986
-2.066011
-2.606929
-3.112095
-3.537948
-3.877958
-4.184759
-4.545131
-5.041167
-5.708208
-6.493293
-7.260645
-7.884757
-8.303374
-8.514479
-8.584644
-8.551526
-8.401622
-8.065339
-7.453166
-6.49469
-5.185586
-3.605178
-1.887496
-0.2167816
1.209754
2.248551
2.866096
3.117996
3.147054
3.105478
3.09069
3.135481
3.211638
3.294537
3.416709
3.66909
4.113297
4.721103
5.359649
5.812776
5.935519
5.69364
5.197585
4.640909
4.205184
3.945313
3.803312
3.670559
3.444508
3.123611
2.736183
2.352962
1.974375
1.532434
0.9316261
0.1271046
-0.8179905
-1.783238
-2.623521
-3.302079
-3.873347
-4.501915
-5.34846
-6.467443
-7.729698
-8.862953
-9.571542
-9.60791
-8.901045
-7.550149
-5.784101
-3.88606
-2.102965
-0.5608997
0.6878958
1.656508
2.393784
2.93083
3.29133
3.497816
3.588064
3.631795
3.68864
3.818362
4.044189
4.359652
4.693373
4.979202
5.180024
5.279973
5.311753
5.306516
5.288578
5.254354
5.183284
5.022282
4.73011
4.305658
3.770076
3.178123
2.614133
2.161087
1.893411
1.821496
1.877184
1.918472
1.795609
1.39745
0.7038994
-0.1892662
-1.129431
-1.953945
-2.576611
-3.018919
-3.423863
-3.967605
-4.795582
-5.92905
-7.23988
-8.520468
-9.50268
-10.01421
-9.980127
-9.443407
-8.523699
-7.361256
-6.071636
-4.74835
-3.505898
-2.428455
-1.599489
-0.9922447
-0.4926147
0.04139709
0.7400074
1.613632
2.572474
3.437233
4.08103
4.448622
4.625948
4.759192
4.969658
5.318722
5.763474
6.187681
6.470156
6.5748
6.516115
6.378695
6.252296
6.145748
6.048201
5.873615
5.568312
5.130972
4.645452
4.217722
3.929405
3.758932
3.581425
3.286377
2.785513
2.101101
1.326765
0.5667458
-0.1613922
-0.8805218
-1.675058
-2.593456
-3.563997
-4.496454
-5.256075
-5.798479
-6.20322
-6.656208
-7.317286
-8.28088
-9.463003
-10.61256
-11.43964
-11.64948
-11.10448
-9.861189
-8.146584
-6.24399
-4.409622
-2.809092
-1.486431
-0.4514389
0.3530331
0.9727707
1.430805
1.775604
2.086788
2.443352
2.897621
3.459511
4.059189
4.63884
5.15274
5.604855
6.069218
6.588181
7.170307
7.748291
8.210236
8.436131
8.370579
8.009495
7.416931
6.705776
5.962246
5.276371
4.729969
4.393055
4.290943
4.4035
4.624992
4.81665
4.843536
4.597992
4.057465
3.25243
2.234646
1.043377
-0.2463837
-1.583424
-2.862423
-4.001228
-4.952995
-5.735348
-6.444637
-7.198071
-8.08408
-9.083546
-10.09323
-10.93784
-11.48748
-11.65716
-11.41586
-10.75865
-9.682167
-8.202904
-6.400036
-4.454163
-2.5979
-1.057442
0.0320015
0.7012825
1.092613
1.416424
1.837234
2.390743
2.988926
3.518524
3.862041
4.003387
4.059547
4.175591
4.507065
5.08353
5.791786
6.423939
6.798531
6.838863
6.612926
6.284588
6.003082
5.844025
5.755871
5.658276
5.471821
5.199116
4.899353
4.632866
4.399975
4.133842
3.733269
3.107273
2.233212
1.171627
0.05105591
-0.9934464
-1.835762
-2.436882
-2.851238
-3.185974
-3.573631
-4.110207
-4.837547
-5.743534
-6.764336
-7.816933
-8.807171
-9.63546
-10.17635
-10.31042
-9.938297
-9.068356
-7.775204
-6.222973
-4.585987
-2.989536
-1.521221
-0.203331
0.9266968
1.857239
2.570221
3.089336
3.484779
3.822968
4.148842
4.409264
4.52346
4.402706
4.084827
3.718681
3.512295
3.608593
3.980312
4.468575
4.845154
4.957329
4.785637
4.458244
4.117859
3.859806
3.686474
3.493713
3.189953
2.734734
2.173542
1.582111
1.037846
0.5623665
0.1127357
-0.3588715
-0.9095192
-1.543774
-2.258175
-3.036598
-3.858452
-4.741436
-5.70525
-6.766876
-7.871231
-8.917183
-9.721115
-10.07569
-9.825764
-8.890221
-7.336048
-5.384041
-3.329346
-1.434826
0.1208458
1.329185
2.283718
3.082451
3.793182
4.394035
4.798569
4.970055
4.942406
4.793476
4.637184
4.546898
4.515003
4.521641
4.536915
4.527836
4.49651
4.439114
4.330044
4.169411
3.957829
3.699467
3.418629
3.136593
2.860111
2.615841
2.386673
2.141094
1.843052
1.427246
0.838665
0.08542633
-0.7502213
-1.569916
-2.258659
-2.803436
-3.273689
-3.797031
-4.506516
-5.456032
-6.58823
-7.752434
-8.746773
-9.361324
-9.450665
-8.964401
-7.945435
-6.547195
-4.97937
-3.438454
-2.099777
-1.013336
-0.1269531
0.6730347
1.491447
2.412178
3.424995
4.446411
5.388519
6.160736
6.700714
7.016586
7.128571
7.095306
7.01545
6.970474
7.020752
7.172462
7.376305
7.555878
7.612877
7.473091
7.087593
6.475426
5.684654
4.773506
3.817627
2.887802
2.0448
1.365547
0.8905792
0.6380844
0.5799866
0.6289368
0.6676254
0.560051
0.2160034
-0.3918381
-1.192451
-2.091103
-3.001205
-3.885826
-4.75576
-5.647423
-6.596092
-7.610764
-8.678139
-9.744316
-10.72285
-11.48141
-11.86797
-11.73873
-11.02412
-9.755188
-8.099586
-6.274475
-4.482117
-2.822708
-1.291908
0.1876602
1.667046
3.102852
4.369705
5.300575
5.781128
5.834839
5.650948
5.481369
5.578178
6.048042
6.820724
7.66024
8.321739
8.633278
8.625511
8.480057
8.406662
8.534225
8.815445
9.083351
9.139618
8.890182
8.36512
7.712349
7.067322
6.489243
5.938766
5.347469
4.708069
4.109268
3.688148
3.527157
3.622456
3.828461
3.95187
3.82917
3.384022
2.655193
1.770557
0.8852119
0.09801102
-0.578968
-1.174976
-1.76178
-2.365513
-2.993858
-3.633469
-4.283684
-4.931557
-5.555664
-6.110966
-6.520981
-6.73761
-6.782936
-6.799221
-7.002567
-7.591476
-8.593002
-9.808113
-10.86606
-11.40343
-11.18287
-10.19777
-8.652145
-6.850636
-5.084667
-3.523224
-2.231976
-1.172161
-0.3009109
0.4273834
1.061218
1.656826
2.260639
2.881313
3.483143
4.011345
4.399044
4.632908
4.75864
4.862682
5.023689
5.296677
5.666759
6.079529
6.47591
6.800034
7.018482
7.118698
7.121471
7.049206
6.923237
6.747326
6.475681
6.045773
5.432182
4.675732
3.882999
3.193829
2.670353
2.337967
2.121918
1.917942
1.63319
1.222675
0.6684914
-0.04077148
-0.8864746
-1.846985
-2.849564
-3.797749
-4.610693
-5.258818
-5.78919
-6.30476
-6.937597
-7.789858
-8.874533
-10.10999
-11.31414
-12.23963
-12.62874
-12.30662
-11.24874
-9.588545
-7.568106
-5.482649
-3.558075
-1.922762
-0.5919094
0.5123768
1.455378
2.286697
2.984268
3.501114
3.79652
3.904633
3.92066
3.952955
4.097792
4.368723
4.711227
5.01108
5.168659
5.159822
5.015121
4.835167
4.66276
4.482468
4.240501
3.879765
3.400816
2.900694
2.502182
2.260166
2.175562
2.10722
1.922611
1.508991
0.8668652
0.07867336
-0.7078028
-1.392675
-1.96258
-2.456332
-2.971097
-3.576568
-4.321639
-5.221378
-6.272057
-7.43455
-8.631988
-9.715469
-10.47076
-10.70458
-10.30982
-9.322525
-7.906035
-6.285383
-4.643215
-3.065737
-1.539513
-0.04326439
1.37435
2.58352
3.427525
3.815536
3.782214
3.477281
3.088189
2.762572
2.558807
2.43739
2.348433
2.233371
2.065976
1.841125
1.572582
1.300427
1.073382
0.9333572
0.8767328
0.8574004
0.7612453
0.5077219
0.07160807
-0.4878588
-1.061222
-1.548889
-1.910944
-2.150971
-2.310631
-2.44204
-2.586425
-2.829652
-3.270057
-3.961842
-4.866946
-5.828465
-6.606892
-7.007678
-6.936579
-6.420233
-5.578963
-4.567433
-3.466446
-2.323485
-1.160757
-0.004335403
1.091352
2.099818
3.010045
3.834899
4.523586
5.018204
5.225461
5.129522
4.80671
4.41073
4.121709
4.048926
4.20167
4.454801
4.658792
4.692558
4.548194
4.329579
4.149762
4.067982
4.031446
3.893119
3.498661
2.778043
1.763406
0.6061649
-0.4741678
-1.350758
-2.001581
-2.508518
-3.039162
-3.717803
-4.596415
-5.648402
-6.815738
-7.992295
-9.108232
-10.08372
-10.81649
-11.18685
-11.0534
-10.35211
-9.093563
-7.426098
-5.57772
-3.800933
-2.265058
-1.011471
0.04156637
1.020887
2.033117
3.087337
4.125051
5.035014
5.727406
6.191575
6.462736
6.604336
6.647763
6.598555
6.412609
6.085633
5.64813
5.17928
4.786972
4.560952
4.504308
4.530998
4.507177
4.272767
3.750182
2.980737
2.147314
1.490254
1.191845
1.285303
1.613284
1.90426
1.900338
1.472915
0.6599922
-0.3816261
-1.457723
-2.444748
-3.313458
-4.081509
-4.769983
-5.384043
-5.941995
-6.528196
-7.244733
-8.136081
-9.105951
-9.910187
-10.22577
-9.856507
-8.83269
-7.406931
-5.903097
-4.565983
-3.431367
-2.375528
-1.243262
0.0379858
1.393792
2.649511
3.662158
4.402682
4.937269
5.369205
5.768708
6.148139
6.47352
6.707265
6.847413
6.934933
7.019187
7.152043
7.333266
7.496401
7.581315
7.491593
7.198761
6.725026
6.184167
5.665334
5.257126
4.970839
4.778323
4.640574
4.534225
4.441064
4.364758
4.336475
4.347305
4.403846
4.451228
4.409579
4.175232
3.693652
2.978959
2.132209
1.312495
0.6180747
0.1117601
-0.2598708
-0.5472362
-0.8225116
-1.12612
-1.505279
-2.035382
-2.799651
-3.821245
-5.007511
-6.18731
-7.152904
-7.764757
-8.064888
-8.216457
-8.454567
-8.977596
-9.847143
-10.91502
-11.90828
-12.49207
-12.3715
-11.44748
-9.802015
-7.720015
-5.547675
-3.607034
-2.040823
-0.8585668
0.03255224
0.7413831
1.318157
1.7767
2.10658
2.378322
2.674868
3.093904
3.665825
4.283451
4.791958
5.029543
4.958668
4.664943
4.352445
4.235195
4.407887
4.822669
5.311001
5.682363
5.812152
5.698482
5.417785
5.065847
4.731907
4.44546
4.21769
4.042789
3.909163
3.781937
3.615817
3.356698
2.928418
2.293891
1.46806
0.5515528
-0.3241119
-1.016097
-1.486077
-1.809012
-2.09424
-2.482291
-3.025867
-3.686432
-4.372208
-5.005218
-5.589424
-6.216133
-6.983379
-7.902101
-8.870337
-9.658509
-10.00459
-9.733287
-8.802651
-7.330907
-5.552275
-3.712759
-2.043255
-0.7051477
0.2471352
0.8606739
1.234077
1.509431
1.783085
2.062021
2.325598
2.513871
2.620743
2.713552
2.876097
3.158723
3.549282
3.952542
4.266041
4.432644
4.468878
4.426588
4.34239
4.211084
3.964987
3.588535
3.102758
2.592953
2.152739
1.795692
1.450228
1.015432
0.4082508
-0.3711643
-1.225544
-2.013464
-2.615379
-2.948477
-3.06949
-3.090294
-3.145973
-3.339354
-3.6901
-4.151314
-4.652727
-5.139648
-5.578285
-5.944221
-6.2141
-6.31074
-6.130787
-5.587288
-4.675188
-3.477757
-2.178106
-0.9572144
0.04681587
0.7816982
1.311253
1.722132
2.113817
2.536333
2.986578
3.434542
3.849123
4.207781
4.469868
4.628531
4.645622
4.523022
4.227388
3.76676
3.191521
2.606779
2.131554
1.819643
1.668375
1.580482
1.449703
1.205864
0.8434353
0.3943214
-0.1042175
-0.619379
-1.158331
-1.688269
-2.16544
-2.541656
-2.797894
-3.017838
-3.343943
-3.950073
-4.885704
-6.061905
-7.264351
-8.223551
-8.733219
-8.638788
-7.911127
-6.623976
-4.959076
-3.146948
-1.451723
-0.1070404
0.8035336
1.325905
1.635571
1.927881
2.298153
2.744333
3.201626
3.601292
3.93976
4.282505
4.675674
5.091429
5.40897
5.459749
5.185047
4.679415
4.172274
3.928818
4.084291
4.545425
5.039804
5.28157
5.090389
4.533617
3.786949
3.047279
2.429865
1.931381
1.487961
1.059793
0.6829033
0.3939285
0.205492
0.0698185
-0.1101551
-0.3669281
-0.7123566
-1.12833
-1.617479
-2.247025
-3.085485
-4.155174
-5.383791
-6.634621
-7.714762
-8.480579
-8.851528
-8.770416
-8.222755
-7.241808
-5.946259
-4.548409
-3.325665
-2.476458
-2.03607
-1.840502
-1.624773
-1.170992
-0.4331646
0.455349
1.294565
1.957262
2.476559
2.996468
3.661041
4.499844
5.379997
6.113047
6.552942
6.653442
6.495062
6.202988
5.892433
5.662605
5.588821
5.684685
5.930111
6.230928
6.401093
6.250189
5.675568
4.766682
3.757063
2.917711
2.412142
2.192732
2.078381
1.850649
1.407728
0.8244953
0.3033543
0.01611137
0.004434586
0.1390743
0.1941853
-0.01569176
-0.5432034
-1.288736
-2.075062
-2.740231
-3.244387
-3.642578
-4.053122
-4.548391
-5.136318
-5.758141
-6.344004
-6.890625
-7.457386
-8.097179
-8.806152
-9.409847
-9.65213
-9.274555
-8.192936
-6.569868
-4.759693
-3.142221
-1.939526
-1.16629
-0.6643639
-0.2578068
0.1564293
0.5782299
0.9446812
1.234102
1.508223
1.898792
2.488991
3.251257
3.996004
4.497618
4.603912
4.313852
3.803438
3.315264
3.062016
3.140064
3.527712
4.088047
4.676615
5.179188
5.522856
5.66535
5.604858
5.351646
4.912132
4.322681
3.590603
2.746258
1.85181
1.008617
0.3465271
-0.03065491
-0.09962845
0.04181671
0.233448
0.2742882
0.02905273
-0.5444298
-1.369373
-2.282619
-3.102036
-3.694157
-4.029331
-4.146019
-4.1698
-4.223892
-4.430931
-4.837154
-5.42828
-6.161804
-6.963287
-7.77721
-8.501217
-9.040298
-9.231331
-8.947628
-8.096512
-6.716606
-4.97604
-3.129696
-1.452152
-0.1254807
0.7616882
1.254177
1.499462
1.625904
1.73341
1.857208
2.025757
2.251163
2.5835
3.022663
3.549675
4.111992
4.584053
4.897659
5.005219
4.955845
4.820324
4.697681
4.634674
4.603199
4.578373
4.4916
4.344158
4.139446
3.897213
3.620407
3.310482
2.969326
2.590488
2.175838
1.685493
1.116932
0.4562874
-0.2805519
-1.041389
-1.773224
-2.440754
-3.035679
-3.561066
-4.058628
-4.506355
-4.915535
-5.295033
-5.673908
-6.093731
-6.567837
-7.051743
-7.455673
-7.69405
-7.685734
-7.418968
-6.931496
-6.2598
-5.448864
-4.539753
-3.556755
-2.529198
-1.479031
-0.4321175
0.5597229
1.40387
2.034229
2.394688
2.497471
2.414825
2.251488
2.105968
2.039352
2.055195
2.128357
2.241402
2.347198
2.413448
2.363556
2.153723
1.774483
1.321741
0.9128914
0.6721306
0.66782
0.8278179
1.056961
1.233875
1.320396
1.336721
1.350731
1.389236
1.40419
1.3325
1.110186
0.7367516
0.262373
-0.2500381
-0.7670975
-1.315035
-1.945541
-2.751301
-3.781448
-5.057121
-6.510141
-7.98394
-9.238859
-9.996323
-10.03798
-9.285276
-7.873951
-6.091982
-4.304996
-2.792456
-1.65867
-0.8495998
-0.2299728
0.3237877
0.8849106
1.435459
1.967403
2.478157
2.973095
3.44829
3.842888
4.054178
4.019903
3.773731
3.453781
3.265835
3.365332
3.776783
4.361061
4.878643
5.13562
5.028953
4.611845
4.007499
3.360106
2.752022
2.18973
1.626349
1.007906
0.3337154
-0.3385267
-0.9325409
-1.391057
-1.700417
-1.947016
-2.251665
-2.704184
-3.350642
-4.170264
-5.107306
-6.127339
-7.211808
-8.282898
-9.185236
-9.652452
-9.424793
-8.381662
-6.63607
-4.544448
-2.530425
-0.9302444
0.1605968
0.8893805
1.512545
2.233124
3.108422
4.053734
4.938545
5.670139
6.224141
6.625031
6.90916
7.088975
7.150964
7.080397
6.855018
6.489771
6.018074
5.510571
5.051338
4.725116
4.571583
4.551325
4.560105
4.475666
4.233822
3.879617
3.54312
3.364954
3.402595
3.548983
3.597893
3.307652
2.532262
1.310696
-0.1843367
-1.727811
-3.125809
-4.281961
-5.193377
-5.922189
-6.538486
-7.143661
-7.796892
-8.537486
-9.339474
-10.08676
-10.60515
-10.69778
-10.24664
-9.27014
-7.922309
-6.408261
-4.89557
-3.488507
-2.189483
-0.9933596
0.1073151
1.088581
1.9149
2.581098
3.129612
3.610335
4.053495
4.458424
4.757092
4.906609
4.896768
4.814034
4.778061
4.934694
5.367926
6.033178
6.793318
7.430342
7.748083
7.634047
7.120588
6.352619
5.540213
4.88273
4.485598
4.353394
4.38472
4.427198
4.355333
4.064278
3.523186
2.761927
1.861864
0.9276409
0.0699234
-0.6285686
-1.125555
-1.45657
-1.734381
-2.124168
-2.774935
-3.746227
-5.013042
-6.439987
-7.875393
-9.215483
-10.3974
-11.41769
-12.27018
-12.89627
-13.17341
-12.98128
-12.2653
-11.03452
-9.405849
-7.524149
-5.554619
-3.642782
-1.886953
-0.3461304
0.9734879
2.094051
3.071671
3.973658
4.841734
5.705572
6.554003
7.330458
7.958374
8.358534
8.501274
8.405514
8.17466
7.936428
7.808807
7.828335
7.943707
8.023075
7.950909
7.691235
7.287983
6.876873
6.581722
6.475605
6.51487
6.590263
6.554588
6.276661
5.715099
4.881451
3.884483
2.861061
1.936958
1.214874
0.7429657
0.5264549
0.5257072
0.7008247
0.9813538
1.286171
1.513096
1.558563
1.349033
0.8551712
0.1251526
-0.7574997
-1.701817
-2.6679
-3.652122
-4.677101
-5.740543
-6.796257
-7.786724
-8.6721
-9.431389
-10.07273
-10.58533
-10.89845
-10.86258
-10.32506
-9.214851
-7.638187
-5.85305
-4.165703
-2.846874
-1.984791
-1.472958
-1.067188
-0.5228424
0.2781105
1.29443
2.397556
3.447468
4.353737
5.10915
5.728722
6.235039
6.61623
6.843548
6.915054
6.878277
6.806499
6.76609
6.793106
6.881996
6.984726
7.030365
6.95536
6.708771
6.293854
5.750114
5.183186
4.722519
4.481972
4.471992
4.622501
4.78101
4.798565
4.550724
4.015808
3.255432
2.415531
1.63644
1.000351
0.5168381
0.134346
-0.1872864
-0.5101166
-0.8551941
-1.258789
-1.770285
-2.417629
-3.221251
-4.101437
-4.936831
-5.577324
-5.983202
-6.214874
-6.436071
-6.822477
-7.449011
-8.255915
-9.049145
-9.614594
-9.805517
-9.576384
-8.962019
-8.045649
-6.904583
-5.613304
-4.272348
-2.98041
-1.858339
-0.9968472
-0.3798885
0.07190323
0.4957409
1.009012
1.669106
2.438715
3.224018
3.929699
4.481253
4.923115
5.312248
5.724802
6.145403
6.520275
6.750648
6.821344
6.770472
6.690819
6.668556
6.68808
6.61985
6.285719
5.561111
4.435642
3.08741
1.764488
0.7145844
0.06049347
-0.2289944
-0.3224258
-0.417654
-0.6642151
-1.094656
-1.64505
-2.209455
-2.719761
-3.174479
-3.597351
-4.034172
-4.499557
-4.979336
-5.492043
-6.102324
-6.85359
-7.755049
-8.697369
-9.456942
-9.742365
-9.35574
-8.252523
-6.619942
-4.772654
-3.039139
-1.628895
-0.5601654
0.2608776
0.9547977
1.568933
2.058748
2.334778
2.396715
2.31583
2.22456
2.236052
2.391663
2.644901
2.960217
3.333609
3.77058
4.290222
4.80969
5.152784
5.15822
4.742952
3.980968
3.078854
2.310131
1.83975
1.690924
1.734327
1.766874
1.633619
1.254997
0.6819859
0.01342392
-0.6363163
-1.20966
-1.71104
-2.16213
-2.579809
-2.981894
-3.395414
-3.864872
-4.457939
-5.229113
-6.192711
-7.233139
-8.143904
-8.667797
-8.601284
-7.903236
-6.69556
-5.241488
-3.826294
-2.622158
-1.65119
-0.8065414
0.03102684
0.9178066
1.791473
2.550251
3.087727
3.378189
3.52174
3.651873
3.887821
4.241209
4.643597
4.958748
5.099699
5.07184
4.993671
5.009205
5.188225
5.492134
5.750755
5.781048
5.467896
4.856661
4.106609
3.394236
2.83684
2.403154
1.971117
1.409203
0.6591911
-0.2528801
-1.199585
-2.044743
-2.722534
-3.229971
-3.66337
-4.139292
-4.754089
-5.56576
-6.567373
-7.703571
-8.850267
-9.875488
-10.59636
-10.85601
-10.54539
-9.642572
-8.246145
-6.546337
-4.810221
-3.271408
-2.080839
-1.251251
-0.6939182
-0.2441463
0.2666016
0.9316826
1.760338
2.667332
3.534082
4.259264
4.835432
5.314367
5.799311
6.371513
7.036245
7.706697
8.273411
8.635118
8.768684
8.706972
8.4771
8.085621
7.508875
6.744621
5.864761
5.034386
4.404272
4.073723
3.989565
3.983154
3.856974
3.494556
2.925558
2.2633
1.625429
1.065113
0.5719147
0.1078014
-0.3177052
-0.673008
-0.947897
-1.155159
-1.396595
-1.792505
-2.415543
-3.257391
-4.224926
-5.238716
-6.260513
-7.3545
-8.60046
-10.01448
-11.48931
-12.77288
-13.55147
-13.59038
-12.83676
-11.42657
-9.644846
-7.78853
-6.062674
-4.538933
-3.161301
-1.874342
-0.6453075
0.5042896
1.514269
2.37064
3.082268
3.681923
4.198315
4.654938
5.018269
5.271229
5.407116
5.411621
5.289173
5.067169
4.799175
4.56778
4.474564
4.568775
4.84026
5.210911
5.563675
5.826584
6.011742
6.167999
6.327812
6.456299
6.452988
6.206882
5.689529
4.94128
4.08548
3.226753
2.438667
1.712109
0.9896126
0.2236938
-0.6069756
-1.491779
-2.411491
-3.333309
-4.24308
-5.082245
-5.797081
-6.349422
-6.773636
-7.187691
-7.765915
-8.634644
-9.78529
-11.02792
-12.02174
-12.40189
-11.96734
-10.74192
-8.993591
-7.084476
-5.317837
-3.825714
-2.57843
-1.448502
-0.3383179
0.7473717
1.746193
2.564602
3.200203
3.706459
4.20332
4.767769
5.414577
6.027225
6.442303
6.555836
6.344715
5.935528
5.509754
5.239601
5.204689
5.376816
5.627697
5.836548
5.946175
5.960888
5.940437
5.948116
5.959614
5.910633
5.686245
5.193233
4.429443
3.482502
2.467434
1.488071
0.5653191
-0.3795891
-1.40493
-2.533001
-3.667385
-4.655396
-5.350021
-5.762661
-5.992672
-6.256489
-6.758839
-7.567436
-8.599758
-9.639286
-10.44417
-10.81749
-10.69276
-10.08491
-9.091148
-7.846336
-6.451469
-5.003639
-3.581844
-2.239017
-1.025242
0.03368759
0.9355583
1.680576
2.292175
2.800766
3.236427
3.650219
4.106182
4.619595
5.130062
5.540539
5.717983
5.618217
5.312714
4.963543
4.792641
4.966473
5.48798
6.190243
6.830257
7.173622
7.12846
6.754959
6.195042
5.616035
5.112503
4.647232
4.159534
3.593388
2.915752
2.148689
1.31369
0.4040718
-0.5808907
-1.633846
-2.733875
-3.834431
-4.876091
-5.866024
-6.858589
-7.894356
-9.018536
-10.16983
-11.19601
-11.84965
-11.87521
-11.11436
-9.589561
-7.512138
-5.188469
-2.966511
-1.074997
0.3931274
1.502426
2.381382
3.156418
3.890686
4.565224
5.127884
5.490143
5.639717
5.570133
5.373173
5.146015
4.981544
4.925812
4.937557
4.948299
4.875271
4.724083
4.555908
4.469364
4.493763
4.558949
4.512131
4.204678
3.564285
2.666447
1.705269
0.8708916
0.2838936
-0.06961823
-0.3125687
-0.5591583
-0.8653145
-1.183449
-1.453819
-1.650829
-1.828247
-2.1334
-2.71867
-3.722534
-5.122959
