-0.7917175
-0.3296814
-0.2574158
-0.6237793
-1.35405
-2.346756
-3.440872
-4.569443
-5.652435
-6.654526
-7.588699
-8.512726
-9.541855
-10.73851
-12.09209
-13.36098
-14.2153
-14.25966
-13.22012
-11.09299
-8.109955
-4.673279
-1.244354
1.797867
4.220642
5.917206
6.870926
7.103638
6.615234
5.495636
3.893661
2.077591
0.3421783
-1.052597
-2.026352
-2.61055
-2.935471
-3.154816
-3.363663
-3.635574
-4.012711
-4.494949
-5.090866
-5.719223
-6.240128
-6.522919
-6.542496
-6.427383
-6.436295
-6.793625
-7.612411
-8.820435
-10.25626
-11.74367
-13.14395
-14.35713
-15.20644
-15.44641
-14.76955
-12.97096
-10.10353
-6.529297
-2.823914
0.4372711
2.858185
4.365982
5.098969
5.255829
4.979767
4.304016
3.219406
1.772995
0.1556702
-1.377823
-2.56633
-3.304993
-3.647293
-3.729904
-3.717789
-3.725967
-3.786377
-3.8927
-4.022888
-4.137405
-4.22963
-4.282501
-4.359436
-4.533752
-4.939499
-5.675613
-6.766098
-8.221832
-9.995941
-12.02296
-14.14342
-16.07281
-17.39577
-17.68552
-16.6797
-14.41301
-11.29117
-7.876373
-4.668091
-1.90097
0.4004669
2.338531
3.961319
5.145935
5.680405
5.402573
4.363876
2.783157
1.029892
-0.552063
-1.750046
-2.481873
-2.795593
-2.756989
-2.491058
-2.103424
-1.74118
-1.549026
-1.646454
-2.087891
-2.853165
-3.861145
-5.003983
-6.194504
-7.429184
-8.778534
-10.36728
-12.32137
-14.68634
-17.36227
-20.09036
-22.40875
-23.76025
-23.63193
-21.70071
-18.03647
-13.10266
-7.680573
-2.549316
1.695343
4.861061
7.089951
8.694351
9.898209
10.76164
11.18665
11.01977
10.24807
8.998199
7.551849
6.154762
4.98156
4.082108
3.37764
2.76194
2.124252
1.401062
0.5624008
-0.3289185
-1.240669
-2.126709
-2.985649
-3.894775
-5.002743
-6.466904
-8.361897
-10.71481
-13.44729
-16.49752
-19.79528
-23.191
-26.41687
-28.97406
-30.24592
-29.64887
-26.90586
-22.15627
-15.99721
-9.254789
-2.729495
3.000157
7.665143
11.2826
13.93071
15.75333
16.85355
17.33961
17.31339
16.92227
16.25447
15.41486
14.49736
13.58529
12.79005
12.21209
11.87736
11.74081
11.64773
11.38962
10.76225
9.71933
8.307587
6.681091
4.972763
3.218758
1.364441
-0.6786652
-2.999359
-5.641609
-8.663124
-12.17532
-16.23013
-20.72501
-25.28024
-29.19356
-31.6572
-31.96314
-29.82125
-25.40563
-19.29568
-12.24785
-4.950821
2.076538
8.497238
14.08588
18.67848
22.15175
24.43979
25.54033
25.5432
24.63739
23.08864
21.23813
19.42273
17.85312
16.61606
15.67883
14.92651
14.32526
13.86562
13.6046
13.54987
13.55513
13.38588
12.77142
11.54868
9.708664
7.44194
5.004349
2.606186
0.3412781
-1.840652
-4.089584
-6.550568
-9.343933
-12.54512
-16.15126
-20.07234
-24.02716
-27.48758
-29.75894
-30.10736
-28.04156
-23.54947
-17.18143
-9.834869
-2.500793
4.101379
9.671967
14.26953
18.09717
21.23358
23.61121
25.04767
25.47104
24.98431
23.91071
22.65085
21.45563
20.39413
19.36722
18.22855
16.94846
15.67395
14.65433
14.08011
13.99106
14.19952
14.35593
14.07687
13.11093
11.36993
8.969147
6.146332
3.161224
0.2262268
-2.566132
-5.251923
-7.994141
-11.00409
-14.46869
-18.43607
-22.68195
-26.69949
-29.73987
-30.98151
-29.72952
-25.71869
-19.17749
-10.84106
-1.76828
6.953918
14.47397
20.32758
24.4238
26.96844
28.26996
28.6459
28.33447
27.50024
26.27393
24.77625
23.13995
21.47302
19.85321
18.31689
16.89108
15.61795
14.57529
13.83954
13.39737
13.1171
12.74542
11.98483
10.65182
8.759766
6.514984
4.20108
2.029083
-0.03604126
-2.19104
-4.735229
-7.842804
-11.45465
-15.23807
-18.67801
-21.17722
-22.16324
-21.24457
-18.24255
-13.29041
-6.853333
0.3508301
7.511566
13.901
19.02695
22.7066
24.95438
25.91333
25.75885
24.66809
22.86169
20.63083
18.30688
16.23419
14.6521
13.60291
12.96478
12.49243
11.94943
11.20898
10.28094
9.261993
8.242889
7.217499
6.071198
4.662445
2.868591
0.6970215
-1.841187
-4.711761
-7.973755
-11.66061
-15.65002
-19.54062
-22.62747
-24.12625
-23.4386
-20.4201
-15.41165
-9.103638
-2.276978
4.424713
10.58563
15.96637
20.33578
23.42642
24.93542
24.724
22.8555
19.74414
16.02216
12.35034
9.245178
6.954224
5.470032
4.575958
4.015228
3.538422
2.964111
2.213379
1.286163
0.2617188
-0.719696
-1.537079
-2.213013
-2.913055
-3.998077
-5.830688
-8.614929
-12.24463
-16.2641
-19.95447
-22.51874
-23.30203
-21.95206
-18.48895
-13.29187
-6.968414
-0.2285767
6.241974
11.88278
16.28424
19.20969
20.5928
20.50647
19.18231
16.99323
14.40268
11.85336
9.71402
8.156647
7.135376
6.467712
5.900421
5.229218
4.417145
3.524963
2.677155
1.957733
1.329224
0.6580811
-0.2406921
-1.570496
-3.535583
-6.26828
-9.777252
-13.89468
-18.15521
-21.90753
-24.47089
-25.28815
-24.10986
-21.02335
-16.35757
-10.56616
-4.138397
2.429138
8.6138
13.90158
17.88113
20.30911
21.18173
20.71194
19.2189
17.078
14.66928
12.33829
10.36798
8.90332
7.918304
7.237335
6.580231
5.740936
4.670654
3.490173
2.375336
1.471832
0.7423706
-0.0319519
-1.175385
-3.018707
-5.768097
-9.399536
-13.58289
-17.73578
-21.09799
-22.93658
-22.76093
-20.44205
-16.2601
-10.83072
-4.844513
1.062317
6.476318
11.20779
15.19043
18.3222
20.47131
21.47836
21.24435
19.85812
17.61215
14.94891
12.34952
10.17694
8.585083
7.533234
6.824524
6.235504
5.57605
4.752777
3.757965
2.642242
1.521606
0.5037842
-0.3273926
-1.003143
-1.714874
-2.758972
-4.484436
-7.097137
-10.54114
-14.3768
-17.85287
-20.10782
-20.42654
-18.47556
-14.35245
-8.566254
-1.844055
5.071991
11.54587
17.10794
21.43176
24.3277
25.74472
25.78699
24.72327
22.95569
20.92563
18.99136
17.32721
15.91629
14.63507
13.36765
12.09961
10.92972
10.01758
9.422577
9.059418
8.694153
8.017731
6.822601
5.091675
2.990143
0.8165894
-1.174042
-2.876953
-4.4021
-5.971863
-7.878052
-10.30997
-13.27994
-16.60019
-19.86465
-22.5166
-23.96793
-23.73416
-21.57025
-17.60287
-12.28278
-6.310425
-0.4365234
4.766266
8.966827
12.112
14.30405
15.70667
16.40414
16.44757
15.88806
14.83865
13.55405
12.30786
11.35474
10.83325
10.72702
10.88608
11.09912
11.16843
10.97214
10.51105
9.874084
9.173523
8.50415
7.873291
7.190643
6.324493
5.165558
3.663879
1.881836
-0.06881714
-2.044586
-3.933746
-5.647858
-7.169403
-8.492157
-9.721375
-11.07829
-12.81178
-15.12024
-17.94398
-20.91568
-23.38373
-24.65059
-24.20108
-21.88031
-17.92426
-12.89258
-7.447128
-2.194077
2.441483
6.281662
9.298737
11.61475
13.34264
14.5327
15.13959
15.05252
14.21146
12.71184
10.84976
9.037735
7.698288
7.038071
7.001678
7.311737
7.618149
7.630417
7.242859
6.556473
5.764069
5.07312
4.54364
4.067429
3.419113
2.39122
0.8929596
-0.9878235
-2.987152
-4.84491
-6.344955
-7.46666
-8.310425
-9.049438
-9.869644
-10.92224
-12.3261
-14.15408
-16.34114
-18.64469
-20.55933
-21.49285
-20.9146
-18.60175
-14.74536
-9.875816
-4.696655
0.1751709
4.341873
7.675446
10.17837
11.91468
12.90154
13.11732
12.58421
11.38401
9.7369
7.94931
6.371437
5.253471
4.66468
4.46244
4.409355
4.271309
3.943047
3.488605
3.041801
2.6898
2.38979
1.987968
1.326767
0.3275642
-0.9059486
-2.214302
-3.41518
-4.435158
-5.345707
-6.289814
-7.427721
-8.840065
-10.53927
-12.46444
-14.52359
-16.53834
-18.26156
-19.34391
-19.46091
-18.36785
-16.01701
-12.62394
-8.612323
-4.516172
-0.815943
2.138345
4.22974
5.482128
6.034431
6.055042
5.675713
5.018354
4.192467
3.296467
2.424469
1.67128
1.092461
0.703968
0.5122147
0.463562
0.5244675
0.6605759
0.8454971
1.024776
1.158524
1.175568
0.9792976
0.4774284
-0.3966408
-1.605171
-3.045845
-4.568707
-6.082119
-7.577568
-9.167046
-10.9866
-13.05144
-15.1835
-16.99894
-18.02845
-17.82317
-16.14889
-13.11196
-9.094063
-4.701141
-0.5345078
2.930153
5.51329
7.254272
8.371704
9.079155
9.496765
9.609856
9.350815
8.702309
7.707787
6.492401
5.184517
3.908783
2.784805
1.923744
1.381386
1.143631
1.05928
0.9054642
0.5270996
-0.09294891
-0.8517685
-1.597679
-2.306671
-3.096375
-4.182358
-5.693146
-7.599701
-9.720215
-11.83707
-13.80103
-15.50429
-16.81931
-17.46204
-17.05019
-15.28874
-12.11809
-7.856766
-3.09346
1.501114
5.424408
8.395706
10.35954
11.38612
11.55469
10.95187
9.688995
7.931488
5.932785
3.994614
2.417938
1.402161
1.00708
1.098358
1.39682
1.57164
1.380722
0.777298
-0.1026001
-1.02858
-1.800919
-2.381287
-2.869675
-3.457504
-4.286331
-5.413696
-6.786682
-8.324356
-9.941605
-11.57326
-13.10112
-14.29819
-14.85556
-14.42493
-12.78815
-9.9664
-6.245651
-2.118271
1.884949
5.306137
7.887589
9.529556
10.3152
10.34996
9.765259
8.67688
7.164459
5.309814
3.226898
1.118973
-0.7641602
-2.199402
-3.04306
-3.352982
-3.315002
-3.229202
-3.371674
-3.857758
-4.638992
-5.518463
-6.267654
-6.758652
-7.032364
-7.254578
-7.658234
-8.454178
-9.750839
-11.48587
-13.45792
-15.34589
-16.72018
-17.2308
-16.5903
-14.70547
-11.7262
-8.002533
-4.055786
-0.3933716
2.588715
4.747925
6.148743
6.978241
7.43219
7.542511
7.247253
6.427582
5.061646
3.287994
1.427429
-0.1779785
-1.284851
-1.865967
-2.120667
-2.322601
-2.705933
-3.344482
-4.168671
-5.00116
-5.699707
-6.205475
-6.570709
-6.927826
-7.421173
-8.169678
-9.218292
-10.51871
-11.91693
-13.15887
-13.89294
-13.74298
-12.44003
-9.934723
-6.473358
-2.574982
1.15213
4.173035
6.233185
7.333282
7.682709
7.487946
6.85025
5.789398
4.290405
2.454712
0.5086365
-1.255798
-2.613525
-3.492584
-4.013489
-4.340698
-4.567657
-4.666962
-4.54129
-4.127991
-3.540192
-3.058289
-3.016327
-3.671204
-5.079773
-7.101837
-9.485809
-11.93228
-14.15314
-15.88593
-16.84869
-16.7612
-15.46701
-12.97717
-9.555389
-5.676361
-1.873566
1.420166
3.945923
5.67392
6.689941
7.072174
6.842499
5.952118
4.395264
2.289154
-0.03616333
-2.124908
-3.566589
-4.163391
-4.032593
-3.494934
-2.961884
-2.715881
-2.826385
-3.198456
-3.70752
-4.297607
-5.066711
-6.223206
-7.902008
-10.05881
-12.43744
-14.61212
-16.15115
-16.73053
-16.22455
-14.67578
-12.29233
-9.363251
-6.194
-3.084747
-0.2922058
2.000916
3.702179
4.807343
5.330902
5.29483
4.691803
3.569336
2.068512
0.4607697
-0.9077911
-1.764816
-2.01738
-1.795074
-1.361191
-0.97052
-0.7489929
-0.6910553
-0.7133636
-0.7661896
-0.938324
-1.44281
-2.535828
-4.440277
-7.215775
-10.68402
-14.49927
-18.13406
-21.01564
-22.65372
-22.74821
-21.24811
-18.37936
-14.54916
-10.22943
-5.847809
-1.742462
1.848907
4.753418
6.874542
8.157303
8.59819
8.266129
7.256271
5.737076
3.944107
2.114227
0.4917908
-0.7698517
-1.586349
-1.983383
-2.04628
-1.887894
-1.643356
-1.41362
-1.323318
-1.4879
-2.029694
-3.025848
-4.543686
-6.611603
-9.266144
-12.44234
-15.91725
-19.21065
-21.6321
-22.4865
-21.32782
-18.1692
-13.51483
-8.167404
-2.908493
1.744942
5.621071
8.800423
11.39765
13.44063
14.85816
15.5472
15.49674
14.80037
13.62955
12.18426
10.64598
9.16375
7.890701
6.969154
6.471405
6.359627
6.462631
6.507111
6.259743
5.58625
4.498978
3.173927
1.773582
0.4157944
-0.9200783
-2.347786
-4.048698
-6.177235
-8.822933
-12.03615
-15.76629
-19.81506
-23.75224
-26.9385
-28.59412
-28.09373
-25.20848
-20.22759
-13.93892
-7.260931
-0.9477119
4.628062
9.493016
13.8508
17.78524
21.16554
23.64966
24.92578
24.93634
23.94252
22.48988
21.12527
20.21766
19.81898
19.73148
19.6713
19.4429
19.01215
18.49199
18.01041
17.59034
17.14532
16.52421
15.62594
14.44028
13.04048
11.49824
9.795624
7.830864
5.481808
2.720417
-0.378273
-3.627163
-6.860889
-9.993
-13.04234
-16.11695
-19.31103
-22.661
-26.02824
-29.07888
-31.34997
-32.30971
-31.518
-28.76437
-24.16731
-18.1566
-11.34752
-4.37114
2.253662
8.192787
13.2702
17.40369
20.56168
22.72597
23.92934
24.26613
23.93468
23.20235
22.35251
21.61132
21.09644
20.76588
20.52214
20.26012
19.93478
19.56509
19.18524
18.77342
18.29251
17.66582
16.8158
15.73141
14.37877
12.73856
10.8008
8.542282
6.007568
3.299118
0.5567322
-2.08989
-4.569275
-6.922867
-9.256073
-11.73618
-14.47174
-17.51555
-20.75511
-23.8643
-26.36412
-27.6617
-27.27737
-24.97279
-20.88768
-15.48042
-9.377457
-3.181183
2.717377
8.111694
12.98169
17.25708
20.8181
23.44986
25.00412
25.48653
25.10115
24.16737
23.02702
21.94408
21.07542
20.52597
20.33829
20.50517
20.9129
21.32013
21.46227
21.12042
20.26569
19.04936
17.66197
16.23715
14.74144
13.02003
10.89755
8.333145
5.446335
2.482605
-0.2883453
-2.707382
-4.733978
-6.462158
-8.045563
-9.689362
-11.59293
-13.92856
-16.74316
-19.84853
-22.8466
-25.13194
-26.06184
-25.17787
-22.30522
-17.64619
-11.70288
-5.153854
1.335388
7.234909
12.25259
16.27361
19.32167
21.46144
22.71039
23.09314
22.66833
21.59743
20.12567
18.532
17.0197
15.6772
14.48344
13.40889
12.49364
11.85184
11.5862
11.71974
12.14273
12.58987
12.76582
12.42661
11.44081
9.791824
7.620422
5.132935
2.592316
0.2558441
-1.701889
-3.242599
-4.526749
-5.82843
-7.4133
-9.463501
-11.97914
-14.76366
-17.49631
-19.77525
-21.17017
-21.37051
-20.18048
-17.59151
-13.82732
-9.257492
-4.314529
0.5769196
5.111298
9.085022
12.3716
14.84467
16.41048
16.98492
16.59169
15.39052
13.63332
11.61502
9.629257
7.911057
6.631523
5.926384
5.825546
6.270821
7.108719
8.091972
8.951561
9.445732
9.443375
8.912697
7.915588
6.572357
5.026054
3.407852
1.82357
0.31604
-1.145157
-2.716652
-4.610039
-7.019073
-10.00417
-13.39436
-16.7411
-19.44056
-20.86702
-20.54018
-18.31538
-14.42079
-9.389481
-3.901917
1.3899
6.000252
9.634476
12.17693
13.63213
14.0545
13.54408
12.25936
10.43145
8.358955
6.378643
4.772228
3.714027
3.255562
3.318005
3.718391
4.233547
4.596741
4.598709
4.141075
3.202568
1.918045
0.4805527
-0.9403992
-2.266533
-3.51099
-4.795212
-6.265854
-8.035069
-10.14197
-12.49721
-14.90064
-17.04428
-18.56077
-19.06518
-18.27748
-16.09495
-12.62996
-8.207102
-3.291445
1.620823
6.032938
9.540973
11.87329
12.87603
12.59328
11.23982
9.195903
6.895038
4.758714
3.098601
2.058752
1.592875
1.530986
1.592659
1.505698
1.037445
0.1430745
-1.060673
-2.3555
-3.487188
-4.32787
-4.89835
-5.373144
-6.009904
-7.074781
-8.727156
-10.99528
-13.74986
-16.68205
-19.36434
-21.25928
-21.91093
-21.0122
-18.5446
-14.7721
-10.21106
-5.466963
-1.058016
2.656694
5.53677
7.574062
8.794842
9.237301
8.927731
7.928432
6.377472
4.525574
2.624355
0.938694
-0.372261
-1.242901
-1.698547
-1.812202
-1.690948
-1.467194
-1.245049
-1.163696
-1.286163
-1.637199
-2.201973
-2.988914
-4.061234
-5.530899
-7.513912
-10.06139
-13.04741
-16.11503
-18.73834
-20.34804
-20.49426
-19.01942
-16.09899
-12.18625
-7.831085
-3.5089
0.5008774
4.081532
7.202206
9.798412
11.70867
12.75751
12.82927
11.98245
10.4472
8.548573
6.638527
4.960365
3.639778
2.679783
2.016396
1.560764
1.161766
0.666153
-0.07897949
-1.172478
-2.598526
-4.226749
-5.866783
-7.367924
-8.765415
-10.25423
-12.13485
-14.63239
-17.69257
-20.93924
-23.72092
-25.30188
-25.10641
-22.91353
-18.91674
-13.67007
-7.907684
-2.30405
2.618629
6.620674
9.684311
11.90234
13.40032
14.2561
14.51759
14.18445
13.3072
12.02255
10.4906
8.937893
7.527134
6.334949
5.348354
4.471062
3.590134
2.648582
1.65358
0.6344757
-0.3773193
-1.431152
-2.61261
-4.036419
-5.750351
-7.774635
-10.07073
-12.63243
-15.44451
-18.44905
-21.45842
-24.05277
-25.68768
-25.78781
-23.99598
-20.3209
-15.1298
-9.09861
-2.94978
2.703045
7.511841
11.32538
14.14347
15.96941
16.8303
16.78194
15.94177
14.52382
12.81569
11.14711
9.752422
8.765217
8.161522
7.792774
7.458553
6.969193
6.295761
5.504829
4.731617
4.044483
3.398533
2.583786
1.395317
-0.2649879
-2.369446
-4.723572
-7.186855
-9.722458
-12.45679
-15.55304
-19.02023
-22.58278
-25.68428
-27.68294
-28.03896
-26.51073
-23.19926
-18.45176
-12.77224
-6.653641
-0.5567188
5.145285
10.11163
14.04743
16.74727
18.13263
18.29714
17.51055
16.1089
14.44602
12.78811
11.27996
10.00963
8.982756
8.171383
7.56551
7.187889
7.086369
7.288664
7.774862
8.390657
8.857257
8.845179
8.105303
6.575336
4.416885
1.931224
-0.5740852
-2.925093
-5.099795
-7.230267
-9.504479
-12.07417
-15.02992
-18.36206
-21.89894
-25.24918
-27.82434
-28.9761
-28.18299
-25.3135
-20.66321
-14.87246
-8.696345
-2.767338
2.551166
7.158998
11.06762
14.26928
16.68011
18.15645
18.61563
18.13235
16.95509
15.43773
13.93752
12.7021
11.8399
11.29816
10.9769
10.80017
10.71952
10.75195
10.88298
11.08928
11.25144
11.24976
10.91479
10.11914
8.783436
6.910088
4.650928
2.254559
0.03446007
-1.812689
-3.301805
-4.678492
-6.365025
-8.730062
-11.93832
-15.85754
-20.10526
-24.1294
-27.39178
-29.38972
-29.71779
-28.09584
-24.48743
-19.10801
-12.49039
-5.417881
1.287317
6.950788
11.24287
14.18179
16.01559
17.06643
17.57104
17.64567
17.34544
16.76087
16.05991
15.45572
15.08687
14.91122
14.72348
14.28112
13.4639
12.37109
11.30927
10.58825
10.34827
10.42052
10.40199
9.83485
8.424076
6.193882
3.436279
0.6133575
-1.942986
-4.107151
-5.996452
-7.868732
-10.01491
-12.59552
-15.60429
-18.866
-22.01259
-24.60099
-26.09231
-25.98687
-23.91824
-19.81721
-13.98047
-7.121315
-0.1774178
5.938732
10.63612
13.72867
15.42029
16.1004
16.10502
15.62169
14.73309
13.49525
12.06396
10.66621
9.524605
8.746643
8.297256
8.071701
7.987553
8.053677
8.301052
8.712883
9.1301
9.307095
8.996265
8.093876
6.659641
4.907047
3.079472
1.350452
-0.2751122
-1.928967
-3.876575
-6.341801
-9.415516
-12.89878
-16.28715
-18.87078
-19.89861
-18.87215
-15.67595
-10.69199
-4.651779
1.546452
7.112843
11.51952
14.53442
16.18209
16.626
16.05594
14.65078
12.56881
10.04141
7.372616
4.928497
3.039101
1.897129
1.519497
1.729813
2.260525
2.807755
3.123894
3.041042
2.544739
1.695915
0.6257133
-0.5552864
-1.809078
-3.173256
-4.7635
-6.652111
-8.851135
-11.25153
-13.70345
-16.08977
-18.2944
-20.19438
-21.53535
-21.92492
-20.93769
-18.26871
-13.95545
-8.4133
-2.373337
3.346416
8.107815
11.59452
13.8069
14.9447
15.24459
14.86923
13.87925
12.35823
10.47137
8.521748
6.869225
5.775677
5.279312
5.179668
5.167683
4.989239
4.544727
3.965714
3.433132
3.07069
2.836472
2.524578
1.899265
0.8052406
-0.8206596
-2.931324
-5.461689
-8.37294
-11.60847
-14.99906
-18.1974
-20.66763
-21.82157
-21.18761
-18.5975
-14.26127
-8.720139
-2.702358
3.075661
8.070152
11.9772
14.72531
16.39032
17.07664
16.85834
15.7686
13.8732
11.32217
8.427822
5.611332
3.285923
1.722958
0.9902115
0.8749504
1.045841
1.199074
1.104336
0.6541557
-0.1574554
-1.261078
-2.561836
-3.911091
-5.167179
-6.26701
-7.262672
-8.386654
-9.95594
-12.20721
-15.09209
-18.1783
-20.73092
-21.93995
-21.24729
-18.54203
-14.20521
-8.924
-3.432491
1.667961
6.06226
9.657028
12.43357
14.35728
15.35847
15.34848
14.37965
12.66423
10.58249
8.534897
6.847404
5.616348
4.72057
3.91626
2.977863
1.836758
0.6066666
-0.5068016
-1.330734
-1.855442
-2.259914
-2.802334
-3.683102
-4.971748
-6.632
-8.590096
-10.82684
-13.43451
-16.49453
-19.94609
-23.46466
-26.44919
-28.18115
-28.02926
-25.72094
-21.37827
-15.4929
-8.749065
-1.856178
4.605255
10.25933
14.86104
18.25839
20.34829
21.09803
20.54893
18.92219
16.63078
14.20004
12.14814
10.7638
10.06791
9.817425
9.661907
9.355698
8.839417
8.221336
7.643642
7.105949
6.442734
5.406116
3.776611
1.542938
-1.128635
-3.997986
-6.882553
-9.80571
-12.95854
-16.54991
-20.62947
-24.9161
-28.79655
-31.48449
-32.25609
-30.76421
-27.10429
-21.77416
-15.50062
-8.970657
-2.696732
3.031502
8.082382
12.37247
15.79916
18.24343
19.60165
19.87087
19.24514
18.05194
16.75484
15.71944
15.148
14.99878
15.04942
15.03875
14.79939
14.32474
13.7138
13.0638
12.39722
11.65351
10.74689
9.640297
8.394249
7.111832
5.839424
4.48336
2.85463
0.7317505
-1.976387
-5.085846
-8.158272
-10.61893
-12.02509
-12.29958
-11.80148
-11.19772
-11.15137
-12.04243
-13.72817
-15.68686
-17.24131
-17.81092
-17.14171
-15.29436
-12.53967
-9.226028
-5.708656
-2.311516
0.6183624
2.762665
3.89843
3.975471
3.233795
2.116219
1.198891
0.9927673
1.754486
3.369911
5.386055
7.163025
8.13842
8.043457
6.96125
5.276901
3.429611
1.691505
0.1007614
-1.471268
-3.20562
-5.168121
-7.290451
-9.491768
-11.76139
-14.22895
-17.0276
-20.11777
-23.14336
-25.43077
-26.19946
-24.8536
-21.22877
-15.66718
-8.884529
-1.753601
4.984871
10.86758
15.70074
19.48958
22.29817
24.1839
25.18254
25.32657
24.70161
23.48712
21.90851
20.18504
18.53087
17.04962
15.81195
14.82355
14.07034
13.52611
13.17088
12.95433
12.76128
12.38705
11.58771
10.15567
7.996033
5.244446
2.197342
-0.8003845
-3.473434
-5.771332
-7.809448
-9.854904
-12.15472
-14.8391
-17.8748
-21.07494
-24.08783
-26.4122
-27.43314
-26.5699
-23.4704
-18.19255
-11.29485
-3.689346
3.593185
9.70108
14.19363
17.05499
18.5587
19.09341
18.99127
18.48024
17.66663
16.61052
15.36902
14.04701
12.74707
11.56071
10.54257
9.709091
9.046127
8.514175
8.08754
7.733429
7.381271
6.962036
6.367432
5.510742
4.344559
2.876282
1.166321
-0.7123566
-2.749634
-5.000778
-7.601379
-10.66554
-14.16779
-17.85355
-21.14014
-23.27802
-23.52902
-21.45406
-17.09262
-10.9716
-3.962326
3.008026
9.173889
14.14503
17.76611
20.04601
21.01825
20.71022
19.2003
16.74722
13.79189
10.86644
8.470825
6.870819
6.063553
5.808075
5.795242
5.734558
5.491089
5.031174
4.396103
3.614227
2.713028
1.70285
0.5748901
-0.7151642
-2.239151
-4.137329
-6.573044
-9.669189
-13.36794
-17.35344
-21.00897
-23.57501
-24.36661
-23.00142
-19.56189
-14.56099
-8.7444
-2.839081
2.621185
7.364685
11.26187
14.21364
16.07341
16.67514
15.9819
14.17676
11.70068
9.081482
6.828354
5.244415
4.342621
3.939545
3.727539
3.403038
2.79998
1.920715
0.8677826
-0.208374
-1.255173
-2.346764
-3.653793
-5.381203
-7.659081
-10.50769
-13.8746
-17.62147
-21.51421
-25.15951
-27.96789
-29.23355
-28.37072
-25.19114
-20.02261
-13.65571
-7.051056
-0.9733353
4.185944
8.3545
11.60362
13.94153
15.27996
15.54597
14.7854
13.2611
11.34723
9.383102
7.56308
5.933212
4.438538
3.033478
1.702072
0.4922943
-0.5519257
-1.452667
-2.274155
-3.103561
-4.03949
-5.215576
-6.793304
-8.93718
-11.80803
-15.43442
-19.62447
-23.89047
-27.48837
-29.58835
-29.49226
-26.9175
-22.05511
-15.55415
-8.293076
-1.135574
5.215149
10.34554
14.04999
16.29251
17.097
16.58934
14.98387
12.62657
9.949463
7.375031
5.212128
3.569931
2.408585
1.532318
0.7486115
-0.06112671
-0.9148865
-1.732574
-2.447906
-3.040558
-3.627151
-4.376175
-5.561874
-7.436829
-10.17001
-13.74019
-17.84499
-21.9213
-25.1906
-26.90128
-26.54472
-24.00543
-19.60626
-13.97809
-7.877045
-1.952377
3.334351
7.741165
11.19386
13.67853
15.19189
15.7207
15.28319
13.97336
12.0061
9.719193
7.478348
5.60408
4.251526
3.357056
2.750717
2.22908
1.681641
1.095718
0.5146332
-0.1005554
-0.9058838
-2.167252
-4.207336
-7.23613
-11.25166
-15.92999
-20.60626
-24.43646
-26.57529
-26.45399
-23.93364
-19.31979
-13.23582
-6.384003
0.5946808
7.212219
13.08553
17.87834
21.30104
23.20004
23.60098
22.76329
21.10658
19.06798
16.96837
14.95819
13.03008
11.07274
9.005615
6.823196
4.652084
2.680878
1.119446
0.103241
-0.4182434
-0.6621094
-0.9871216
-1.825104
-3.537628
-6.332733
-10.12805
-14.56418
-19.00876
-22.68347
-24.82043
-24.84875
-22.56143
-18.12308
-12.03601
-4.965973
2.349518
9.316101
15.46082
20.4679
24.1344
26.30707
26.97055
26.21832
24.29672
21.61667
18.66748
15.91159
13.67816
12.0856
11.02115
10.26605
9.584656
8.835358
7.990082
7.104034
6.192169
5.150757
3.772217
1.770203
-1.047974
-4.72522
-9.10556
-13.82004
-18.37524
-22.20901
-24.75916
-25.55267
-24.3277
-21.07288
-16.06149
-9.811615
-2.915344
4.056488
10.6438
16.50186
21.35629
24.93326
27.03503
27.57632
26.67819
24.68817
22.11014
19.47247
17.16058
15.36914
14.02502
12.9136
11.81442
10.58633
9.271179
7.99704
6.893829
5.995178
5.176544
4.199646
2.760223
0.6381226
-2.307892
-6.064026
-10.47354
-15.19009
-19.69147
-23.30994
-25.36118
-25.29831
-22.89838
-18.34329
-12.15311
-5.065735
2.183014
9.014801
15.06458
20.14322
24.11911
26.87387
28.28314
28.30475
27.05936
24.83038
22.05023
19.15674
16.49097
14.26025
12.46875
11.05692
9.892517
8.869141
7.880829
6.891846
5.876617
4.854584
3.825592
2.744904
1.506714
-0.05548096
-2.117889
-4.818359
-8.171112
-12.01474
-15.97485
-19.48782
-21.89886
-22.56665
-21.06897
-17.29169
-11.55783
-4.551483
2.85434
9.806793
15.67303
20.1124
23.0777
24.68619
25.12445
24.56155
23.1886
21.18616
18.79932
16.30664
13.98407
12.04224
10.58096
9.589386
8.961517
8.558838
8.263489
7.948792
7.502502
6.839111
5.912201
4.721405
3.321381
1.764008
0.03048706
-1.991699
-4.478699
-7.541626
-11.07544
-14.69971
-17.79199
-19.6431
-19.70984
-17.7709
-14.0029
-8.898926
-3.120941
2.651276
7.883759
12.23573
15.58331
17.94821
19.39149
19.9371
19.57631
18.32404
16.33681
13.92996
11.54362
9.591507
8.304214
7.667465
7.446854
7.334229
7.062515
6.549728
5.812836
4.94075
4.029327
3.098953
2.122055
1.040146
-0.2457886
-1.83252
-3.791885
-6.185806
-9.017899
-12.18224
-15.42421
-18.32941
-20.34767
-20.9369
-19.74532
-16.70865
-12.16472
-6.740479
-1.164444
3.927017
8.083359
11.13107
13.04854
13.90373
13.82515
12.96445
11.55629
9.884537
8.232498
6.833694
5.807098
5.146759
4.741257
4.451202
4.12529
3.687912
3.139351
2.55735
2.086617
1.869659
1.979935
2.328133
2.647842
2.559151
1.704391
-0.1016693
-2.77211
-6.006882
-9.297592
-12.13179
-14.0453
-14.71667
-14.00224
-11.91959
-8.694687
-4.709015
-0.4406586
3.590431
6.959648
9.381149
10.70463
10.87615
9.937233
8.045582
5.533375
2.835903
0.4708633
-1.18177
-2.014954
-2.158726
-1.91737
-1.582436
-1.292793
-1.060514
-0.8818588
-0.7963963
-0.9770927
-1.586782
-2.683538
-4.193011
-5.958657
-7.924796
-10.15875
-12.77565
-15.6945
-18.52835
-20.60733
-21.24983
-20.05523
-17.11533
-12.95784
-8.291698
-3.746803
0.3507328
3.844004
6.658989
8.669207
9.657763
9.460909
8.154835
6.064552
3.709877
1.580627
0.03075027
-0.8706131
-1.252129
-1.340752
-1.337437
-1.34079
-1.364212
-1.408123
-1.493858
-1.664368
-1.986053
-2.535683
-3.399719
-4.646538
-6.358849
-8.550606
-11.1359
-13.84467
-16.23773
-17.78177
-17.98829
-16.59523
-13.6435
-9.549904
-4.932594
-0.4501266
3.390717
6.343163
8.378708
9.591339
10.09882
9.926956
9.06398
7.539162
5.527908
3.356506
1.444733
0.08488464
-0.6773529
-1.0308
-1.312988
-1.810776
-2.592712
-3.491333
-4.270218
-4.780777
-5.098328
-5.508972
-6.362183
-7.894409
-10.10947
-12.77534
-15.46165
-17.67299
-18.91028
-18.81528
-17.27484
-14.43123
-10.68707
-6.548141
-2.46788
1.252533
4.438812
6.955063
8.667862
9.439056
9.191864
8.058624
6.344238
4.453995
2.72644
1.314377
0.1713562
-0.8582916
-1.922272
-3.079681
-4.276535
-5.426376
-6.433746
-7.252197
-7.897614
-8.434662
-8.989868
-9.738525
-10.90549
-12.66907
-15.08978
-18.02
-21.06128
-23.62856
-25.11168
-25.06192
-23.32693
-20.1293
-15.93915
-11.3678
-6.964127
-3.080002
0.118515
2.619446
4.472504
5.708313
6.287811
6.182678
5.416321
4.139847
2.646179
1.222992
0.08192444
-0.7321472
-1.325958
-1.893982
-2.563782
-3.340881
-4.162994
-4.920776
-5.575699
-6.186005
-6.879105
-7.777512
-9.014679
-10.65898
-12.75954
-15.31966
-18.18884
-21.04123
-23.33792
-24.47362
-23.94255
-21.54919
-17.46071
-12.22293
-6.556091
-1.150742
3.497299
7.105453
9.61441
11.05396
11.51154
11.09358
9.968628
8.369797
6.609772
4.991379
3.746841
2.980789
2.650604
2.551559
2.455246
2.135193
1.471619
0.4656372
-0.7430878
-1.968185
-3.037445
-3.891846
-4.586166
-5.325455
-6.345367
-7.860367
-9.974304
-12.65939
-15.76921
-18.98531
-21.9214
-24.13008
-25.17662
-24.77205
-22.78864
-19.3147
-14.63634
-9.204727
-3.539825
1.812592
6.407135
9.95668
12.42294
13.93184
14.71429
14.94841
14.68864
13.90028
12.56331
10.77591
8.817307
7.04628
5.769043
5.107254
4.9646
5.08902
5.197357
5.050873
4.530334
3.636345
2.440933
1.050888
-0.406044
-1.83197
-3.191597
-4.549438
-6.056892
-7.909004
-10.2571
-13.12822
-16.33793
-19.51067
-22.11133
-23.58123
-23.47655
-21.5726
-17.96358
-13.02149
-7.331299
-1.55423
3.726646
8.116776
11.47216
13.84942
15.40104
16.24067
16.44217
16.01143
15.01266
13.618
12.09887
10.7473
9.778183
9.248795
9.080803
9.131767
9.251923
9.348969
9.337173
9.12027
8.571274
7.582787
6.144222
4.360653
2.45237
0.6160622
-1.064064
-2.68483
-4.509556
-6.834759
-9.831825
-13.36882
-17.0209
-20.11295
-21.92474
-21.90934
-19.86647
-16.00231
-10.87867
-5.214657
0.322876
5.243118
9.350517
12.64584
15.23854
17.20671
18.56828
19.26366
19.2378
18.49906
17.14757
15.38324
13.42608
11.50444
9.792387
8.380337
7.312634
6.525188
5.925182
5.397448
4.849451
4.234869
3.518686
2.688296
1.711753
0.5537796
-0.7831783
-2.271605
-3.908786
-5.720671
-7.810543
-10.27219
-13.04847
-15.85178
-18.14423
-19.26908
-18.71786
-16.29106
-12.18657
-6.927958
-1.209442
4.299023
9.100983
12.90724
15.63284
17.34754
18.17995
18.30699
17.85052
16.9228
15.62537
14.08098
12.43784
10.85528
9.424568
8.196946
7.148464
6.220841
5.369562
4.590168
3.89249
3.269276
2.681772
2.028952
1.194567
0.04909706
-1.497606
-3.470184
-5.842165
-8.591293
-11.6577
-14.94065
-18.19594
-21.01941
-22.84553
-23.11307
-21.47805
-17.92767
-12.87786
-7.025522
-1.127277
4.202248
8.627079
12.06768
14.55572
16.19252
17.04902
17.19714
16.72787
15.75719
14.43129
12.9237
11.43678
10.16571
9.240185
8.696743
8.384583
8.065361
7.507004
6.610882
5.46476
4.27803
3.247154
2.397541
1.564449
0.4390106
-1.26218
-3.680229
-6.757362
-10.26422
-13.87218
-17.20258
-19.8077
-21.24225
-21.10332
-19.16494
-15.48248
-10.41432
-4.580891
1.313118
6.645973
10.98252
14.13367
16.08138
16.95906
16.96616
16.31607
15.22449
13.90996
12.57133
11.397
10.51556
9.951965
9.627979
9.368641
8.989059
8.370136
7.470798
6.38599
5.215405
4.048218
2.883266
1.687855
0.3688393
-1.130569
-2.882271
-4.995415
-7.580162
-10.68784
-14.14725
-17.51871
-20.13311
-21.29586
-20.55853
-17.86107
-13.58201
-8.364246
-2.87075
2.358482
6.996964
10.86798
13.83772
15.77469
16.56986
16.21175
14.86924
12.85313
10.58863
8.470531
6.73003
5.45649
4.565693
3.895824
3.291893
2.660542
1.967842
1.242386
0.5307884
-0.1439056
-0.7888298
-1.430534
-2.162407
-3.117218
-4.468452
-6.383537
-8.959831
-12.10023
-15.45991
-18.46009
-20.40508
-20.67098
-18.93455
-15.25539
-10.07798
-4.112686
1.907719
7.326763
11.6743
14.66581
16.19982
16.3343
15.26393
13.34805
11.00511
8.677082
6.680515
5.188946
4.214592
3.642727
3.312714
3.080585
2.832203
2.515633
2.107048
1.579659
0.9173813
0.08368301
-0.9573097
-2.277752
-3.967701
-6.13736
-8.867184
-12.15203
-15.83637
-19.50061
-22.5549
-24.36841
-24.42848
-22.52235
-18.83372
-13.84663
-8.228363
-2.61985
2.499649
6.833496
10.22517
12.58898
13.82998
13.90915
12.88984
11.0182
8.690399
6.400856
4.573219
3.427841
2.93618
2.838181
2.790001
2.493721
1.831017
0.8503113
-0.2810059
-1.405869
-2.480606
-3.562523
-4.84668
-6.571861
-8.955872
-12.06982
-15.82259
-19.84645
-23.53428
-26.11104
-26.85487
-25.35403
-21.65736
-16.30164
-10.10255
-3.90728
1.677917
6.357498
10.03337
12.66727
14.16584
14.43369
13.51101
11.69246
9.497803
7.509575
6.125755
5.404434
5.083023
4.769249
4.136948
3.094948
1.777489
0.4506378
-0.6723022
-1.542534
-2.311478
-3.248146
-4.620552
-6.625183
-9.307144
-12.58595
-16.23936
-19.94226
-23.25896
-25.67001
-26.62275
-25.70027
-22.70225
-17.79692
-11.47551
-4.455574
2.492889
8.725677
13.81654
17.53923
19.81682
20.66602
20.21884
18.67801
16.38895
13.75449
11.1548
8.861969
6.991211
5.506744
4.291855
3.232346
2.233658
1.291946
0.4308624
-0.3639832
-1.158981
-2.14946
-3.58075
-5.715958
-8.695465
-12.51881
-16.92677
-21.44713
-25.46213
-28.30478
-29.39734
-28.37807
-25.17931
-20.02
-13.39015
-5.934784
1.650391
8.70932
14.7726
19.53355
22.86284
24.75789
25.29347
24.58397
22.86693
20.47939
17.8448
15.43227
13.56573
12.3476
11.61227
11.03104
10.26094
9.095306
7.560425
5.839767
4.152069
2.635437
1.251099
-0.1637573
-1.89064
-4.240036
-7.451675
-11.6553
-16.73633
-22.27066
-27.54158
-31.62869
-33.649
-32.99687
-29.52583
-23.6109
-16.03825
-7.757782
0.3622131
7.657654
13.74199
18.46855
21.8197
23.88937
24.8194
24.76927
23.9162
22.44296
20.55283
18.46613
16.40445
14.59508
13.20345
12.31067
11.85141
11.66995
11.52115
11.17203
10.43854
9.258148
7.654938
5.738007
3.646271
1.46286
-0.8136597
-3.302216
-6.190918
-9.697235
-13.95526
-18.90015
-24.16315
-29.04276
-32.61197
-33.94177
-32.41489
-27.91714
-20.92923
-12.39258
-3.379333
5.126251
12.51691
18.53577
23.19177
26.60577
28.84821
29.94568
29.93347
28.92667
27.17111
25.05194
22.97876
21.26578
20.06607
19.31671
18.82739
18.38892
17.89905
17.34387
16.74884
16.08789
15.19638
13.86057
11.88602
9.243317
6.108215
2.808868
-0.3287659
-3.08017
-5.452057
-7.649597
-9.975464
-12.74487
-16.1619
-20.29456
-25.0177
-29.93167
-34.3999
-37.59995
-38.74503
-37.25751
-33.01978
-26.41513
-18.22708
-9.417267
-0.8755798
6.751556
13.13373
18.18195
21.95172
24.51767
25.93051
26.23795
25.54034
24.04559
22.1214
20.19519
18.68515
17.82602
17.59192
17.73666
17.95404
18.03558
17.96152
17.84537
17.79547
17.76971
17.56696
16.8945
15.58044
13.63538
11.27121
8.768677
6.354523
4.102814
1.94458
-0.2617493
-2.639313
-5.22168
-7.980713
-10.86011
-13.8696
-17.12628
-20.74728
-24.76239
-28.9549
-32.76456
-35.35818
-35.92181
-33.90207
-29.2775
-22.58273
-14.71713
-6.653534
0.8396301
7.321442
12.65646
16.86328
20.00095
22.08704
23.12897
23.17419
22.37799
20.99527
19.38177
17.89252
16.79697
16.21207
16.08188
16.20963
16.36414
16.35992
16.09671
15.58923
14.90741
14.1084
13.23538
12.24655
11.07407
9.630554
7.868103
5.773804
3.421082
0.949707
-1.493164
-3.78183
-5.901001
-7.995483
-10.32086
-13.17004
-16.69785
-20.79807
-25.04669
-28.77545
-31.22037
-31.78618
-30.16316
-26.44075
-21.05463
-14.64598
-7.87999
-1.336014
4.572998
9.626511
13.71655
16.78574
18.80327
19.73236
19.63419
18.65649
17.0881
15.31052
13.7048
12.53282
11.89563
11.7278
11.82773
11.96889
12.00073
11.87909
11.65796
11.43227
11.24042
10.97969
10.44574
9.419556
7.793182
5.639206
3.205978
0.7757568
-1.462372
-3.496994
-5.451996
-7.507462
-9.796661
-12.37212
-15.19536
-18.17967
-21.14058
-23.76384
-25.57919
-26.0587
-24.79573
-21.6432
-16.81754
-10.8396
-4.391449
1.879715
7.436569
11.9491
15.28656
17.45599
18.53987
18.67152
18.0403
16.8118
15.18341
13.37042
11.60133
10.10788
9.047409
8.442047
8.138062
7.930527
7.622955
7.157288
6.643112
6.223465
5.956253
5.723267
5.238907
4.21376
2.539322
0.3702087
-1.868393
-3.734253
-5.000443
-5.755142
-6.429352
-7.576538
-9.659668
-12.82242
-16.83868
-21.1311
-24.90392
-27.38367
-27.96614
-26.34313
-22.6304
-17.26881
-10.96324
-4.502586
1.442558
6.41391
10.22675
12.89656
14.56549
15.37684
15.45121
14.87317
13.76193
12.30828
10.7525
9.352654
8.287048
7.601212
7.246956
7.116318
7.10656
7.176132
7.288498
7.401695
7.408157
7.167099
6.526558
5.419853
3.874359
2.005196
-0.02758789
-2.07785
-4.042004
-5.879822
-7.624115
-9.390514
-11.36513
-13.71745
-16.48757
-19.47071
-22.16704
-23.90648
-24.01744
-22.12702
-18.29235
-13.02054
-7.107594
-1.388905
3.483917
7.155706
9.578531
10.85989
11.18577
10.74769
9.71414
8.31996
6.792379
5.401115
4.347496
3.734422
3.543147
3.65416
3.898169
4.145653
4.344473
4.487994
4.598806
4.656563
4.552894
4.144711
3.295597
1.957572
0.2270112
-1.70932
-3.655581
-5.487098
-7.265646
-9.175904
-11.42114
-14.08034
-16.96312
-19.62914
-21.44681
-21.82921
-20.40293
-17.19036
-12.6029
-7.301785
-2.009287
2.706051
6.570389
9.510406
11.54329
12.67598
12.81059
11.89481
10.03435
7.571724
5.029255
2.931847
1.630085
1.136604
1.200993
1.441006
1.529388
1.33757
0.8888321
0.3148041
-0.2858887
-0.8936462
-1.587376
-2.457375
-3.58181
-4.960518
-6.578232
-8.420998
-10.4861
-12.80888
-15.39732
-18.12807
-20.71196
-22.68174
-23.47443
-22.63731
-19.98328
-15.71848
-10.42955
-4.881836
0.2196732
4.409599
7.547684
9.663795
10.88477
11.2266
10.6515
9.139908
6.834595
4.119797
1.523476
-0.4453125
-1.48674
-1.60981
-1.143906
-0.5360184
-0.2057266
-0.3649063
-1.014221
-1.988831
-3.054657
-4.059563
-4.948044
-5.811378
-6.749687
-7.912338
-9.415192
-11.34244
-13.70705
-16.3923
-19.07517
-21.22511
-22.21097
-21.4678
-18.71666
-14.15458
-8.442154
-2.523216
2.669884
6.511681
8.855965
9.945023
10.24398
10.10869
9.655075
8.754356
7.225754
5.023788
2.382202
-0.2597961
-2.465942
-3.984192
-4.865852
-5.349602
-5.688805
-6.028717
-6.374008
-6.622574
-6.723701
-6.721687
-6.768349
-7.054703
-7.759552
-9.004639
-10.85583
-13.31915
-16.27767
-19.46337
-22.40646
-24.49813
-25.13976
-23.92662
-20.78111
-16.01502
-10.22134
-4.14035
1.528488
6.267731
9.79348
12.04144
13.13442
13.28462
12.76004
11.80132
10.57516
9.198982
7.706413
6.143723
4.593819
3.196518
2.106827
1.388206
0.939827
0.5190582
-0.1590881
-1.281708
-2.849403
-4.685959
-6.542114
-8.277267
-9.912788
-11.67625
-13.83874
-16.60308
-19.94909
-23.59239
-27.02614
-29.61876
-30.78751
-30.1022
-27.42419
-22.93637
-17.13742
-10.71874
-4.367233
1.370461
6.181335
9.966324
12.77065
14.70235
15.83803
16.23957
15.95935
15.09437
13.78595
12.22099
10.6058
9.12606
7.888985
6.914692
6.172611
5.56163
5.022411
4.472469
3.850828
3.077293
2.075459
0.7843285
-0.8090305
-2.675341
-4.764017
-7.024473
-9.475495
-12.18467
-15.24197
-18.69661
-22.39299
-25.97894
-28.84846
-30.30983
-29.79
-27.0135
-22.15126
-15.76707
-8.663219
-1.58938
4.881075
10.46008
15.02674
18.51812
20.89547
22.14941
22.3884
21.85604
20.90286
19.8321
18.83431
17.89715
16.92142
15.83003
14.65654
13.54128
12.65718
12.08627
11.78133
11.58468
11.32634
10.85342
10.08185
8.906467
7.256805
5.109066
2.516174
-0.3728218
-3.347614
-6.209724
-8.878143
-11.41396
-14.03497
-16.99668
-20.49706
-24.51042
-28.72968
-32.52213
-35.07654
-35.61507
-33.62743
-29.07281
-22.41385
-14.49644
-6.265099
1.470222
8.190506
13.67017
17.86625
20.78554
22.46562
22.97102
22.4557
21.20776
19.57572
17.93122
16.54978
15.56763
14.99359
14.73523
14.68003
14.66467
14.58743
14.38597
14.05682
13.68962
13.35584
13.05846
12.6674
11.98557
10.81496
9.128418
7.036514
4.778961
2.571121
0.4826813
-1.478729
-3.389618
-5.296356
-7.279282
-9.439224
-11.98337
-15.08031
-18.72137
-22.5423
-25.78249
-27.53488
-27.04523
-24.03813
-18.83699
-12.24384
-5.228806
1.411621
7.19194
12.00334
15.92287
19.07855
21.4935
23.10686
23.78645
23.51952
22.44824
20.86353
19.16696
17.66364
16.55316
15.83818
15.42143
15.19337
15.10252
15.18173
15.44434
15.85977
16.26579
16.44183
16.10178
14.99916
13.04144
10.30305
7.046173
3.664078
0.5777283
-1.947861
-3.859848
-5.352524
-6.772827
-8.481094
-10.735
-13.61461
-17.01038
-20.62611
-23.99356
-26.56665
-27.7791
-27.16464
-24.46573
-19.74504
-13.38939
-6.034515
1.532089
8.521515
14.30318
18.48708
20.98923
21.99326
21.8622
21.02861
19.83049
18.47211
17.07434
15.73425
14.54533
13.5818
12.87927
12.36063
11.90288
11.37158
10.69456
9.893875
9.014267
8.097534
7.098587
5.936005
4.511993
2.757278
0.6958008
-1.602753
-4.06192
-6.634293
-9.324173
-12.19817
-15.33371
-18.81146
-22.62202
-26.53033
-30.10168
-32.63594
-33.40642
-31.83714
-27.76604
-21.52191
-13.8513
-5.683289
2.115784
8.893433
14.27498
18.11484
20.37315
21.10722
20.46465
18.74106
16.39091
13.96498
11.91621
10.52585
9.810074
9.581741
9.584274
9.629471
9.671082
9.75354
9.936356
10.15598
10.24393
9.954742
9.083038
7.596588
5.590988
3.253159
0.7416382
-1.889816
-4.686264
-7.754303
-11.15953
-14.86317
-18.63834
-22.13092
-24.82999
-26.20782
-25.82451
-23.44685
-19.17714
-13.44754
-6.926086
-0.3248596
5.749664
10.94025
15.08173
18.09117
19.89214
20.37486
19.50179
17.40665
14.46022
11.18336
8.100739
5.599274
3.828278
2.739853
2.179138
1.953079
1.879364
1.812897
1.62207
1.205032
0.4885101
-0.5778046
-2.00592
-3.794357
-5.892822
-8.239349
-10.75317
-13.41957
-16.33267
-19.63687
-23.40686
-27.41542
-31.05536
-33.42134
-33.62978
-31.21883
-26.3551
-19.79161
-12.52859
-5.471817
0.8549194
6.268265
10.73364
14.17078
16.40802
17.29535
16.86249
15.40961
13.37817
11.21935
9.244965
7.623795
6.418274
5.67009
5.357254
5.341049
5.355698
5.062149
4.243469
2.883286
1.145416
-0.7093964
-2.5289
-4.310394
-6.213486
-8.415451
-11.08534
-14.29935
-18.08037
-22.347
-26.81709
-30.98837
-34.09184
-35.29855
-33.96506
-29.89102
-23.42621
-15.39009
-6.837097
1.26619
8.267487
13.88004
18.10791
21.10558
22.99696
23.84012
23.66325
22.54001
20.62515
18.17883
15.49245
12.83621
10.42995
8.402328
6.78212
5.526413
4.497955
3.522049
2.46524
1.312332
0.1299896
-0.9639587
-1.93515
-2.937073
-4.21051
-6.035126
-8.589844
-11.9111
-15.94336
-20.5441
-25.47754
-30.31821
-34.40598
-36.87561
-36.88461
-33.88235
-27.85565
-19.38443
-9.528168
0.4288025
9.307587
16.29895
21.08017
23.78757
24.89154
24.96613
24.52692
23.83658
22.96729
21.8259
20.35504
18.58896
16.69965
14.9068
13.40823
12.30716
11.57544
11.11581
10.76495
10.33401
9.655151
8.553955
6.909882
4.68692
1.945251
-1.157074
-4.418427
-7.703156
-11.00644
-14.496
-18.44354
-23.07684
-28.40787
-34.0853
-39.35919
-43.22388
-44.66473
-42.97318
-37.97867
-30.12531
-20.33163
-9.755493
0.5333862
9.715088
17.35385
23.30856
27.65997
30.55487
32.15274
32.61591
32.13043
30.94226
29.32272
27.53445
25.74609
24.02777
22.38171
20.78448
19.24216
17.81067
16.58124
15.62668
14.95078
14.4491
13.90588
13.04041
11.59903
9.432404
6.555939
3.126282
-0.6367188
-4.518616
-8.425354
-12.38043
-16.44699
-20.76587
-25.42032
-30.4115
-35.57861
-40.50677
-44.52533
-46.75699
-46.42062
-43.05771
-36.77338
-28.22507
-18.39313
-8.265625
1.3909
10.12912
17.74442
24.1059
29.08231
32.54114
34.4328
34.83554
34.00827
32.33368
30.25928
28.20718
26.49979
25.26974
24.46371
23.89417
23.3089
22.55585
21.64569
20.71863
19.93726
19.38181
18.98117
18.5105
17.73148
16.44141
14.53232
12.02692
9.047852
5.758606
2.361816
-0.9761047
-4.15976
-7.217377
-10.31372
-13.67413
-17.55328
-22.06808
-27.12698
-32.36316
-37.12613
-40.59109
-41.95428
-40.66217
-36.56363
-29.94864
-21.4791
-11.95477
-2.201202
7.061249
15.2384
21.858
26.61929
29.46033
30.59375
30.44336
29.52448
28.27249
26.90689
25.51181
24.0816
22.68344
21.45758
20.59583
20.20593
20.22177
20.47211
20.71036
20.72842
20.41153
19.73697
18.70221
17.2796
15.41071
13.03488
10.15863
6.91983
3.548706
0.2859802
-2.667847
-5.261902
-7.580078
-9.783722
-12.1218
-14.80243
-17.9931
-21.71548
-25.76163
-29.65237
-32.64731
-33.93829
-32.84457
-29.07306
-22.79965
-14.6304
-5.412323
3.992584
12.82883
20.52231
26.63287
30.87137
33.03864
33.12643
31.34735
28.11493
24.04465
19.77585
15.88303
12.74625
10.48938
8.986877
8.011414
7.343781
6.878113
6.69632
6.897125
7.480042
8.254181
8.858185
8.934052
8.268433
6.893188
4.988617
2.806274
0.5071106
-1.812134
-4.143036
-6.449677
-8.69516
-10.84747
-12.99979
-15.38928
-18.26184
-21.76025
-25.68976
-29.48459
-32.3114
-33.29089
-31.80179
-27.72113
-21.47699
-13.90811
-6.005219
1.388611
7.739655
12.87207
16.82486
19.70865
21.57587
22.42221
22.27084
21.24472
19.59677
17.6741
15.82278
14.29285
13.18826
12.47601
12.05719
11.82758
11.67218
11.49927
11.17471
10.55618
9.513504
7.997879
6.077271
3.937927
1.806641
-0.1177673
-1.725235
-3.069504
-4.311066
-5.680023
-7.380859
-9.558151
-12.28186
-15.50146
-19.03999
-22.56657
-25.60226
-27.5453
-27.82944
-26.06981
-22.2175
-16.58005
-9.774139
-2.581711
4.21106
9.973175
14.29849
17.02342
18.23688
18.19608
17.23055
15.67853
13.79185
11.73026
9.625488
7.601318
5.833115
4.480667
3.659149
3.346329
3.378967
3.538345
3.627563
3.540314
3.254517
2.768417
2.022537
0.910965
-0.6573944
-2.673035
-4.967316
-7.313248
-9.539078
-11.67609
-13.97298
-16.79137
-20.31061
-24.3087
-28.13913
-30.85216
-31.54337
-29.65688
-25.19873
-18.73164
-11.14574
-3.455406
3.517288
9.213615
13.39482
16.05526
17.33671
17.42192
16.52088
14.85831
12.68087
10.27647
7.936493
5.920959
4.402245
3.434174
2.963486
2.869324
3.029495
3.298279
3.543304
3.568916
3.196503
2.260834
0.7237625
-1.31076
-3.597954
-5.872437
-8.014122
-10.09393
-12.41446
-15.34293
-19.0871
-23.47643
-27.88139
-31.39448
-33.07822
-32.31734
-29.01018
-23.54762
-16.69391
-9.318329
-2.222008
3.988316
8.924988
12.43425
14.52897
15.3893
15.3033
14.60735
13.58479
12.40127
11.11338
9.661617
8.025589
6.238426
4.471092
2.935139
1.796585
1.104637
0.7345505
0.4786949
0.1199493
-0.486557
-1.388786
-2.605709
-4.131207
-5.990135
-8.179653
-10.65429
-13.33079
-16.14865
-19.08424
-22.10614
-25.07865
-27.6389
-29.21707
-29.14315
-26.92942
-22.4528
-16.13
-8.787937
-1.423819
5.078781
10.22345
13.88389
16.25916
17.65094
18.28791
18.28613
17.68871
16.53409
14.92899
13.07269
11.16633
9.413565
7.969634
6.905014
6.22444
5.841331
5.584875
5.234685
4.633298
3.668501
2.325966
0.6681414
-1.230286
-3.314636
-5.548058
-7.908041
-10.40861
-13.09954
-16.06415
-19.40141
-23.09957
-26.93438
-30.39762
-32.76768
-33.29399
-31.48253
-27.27917
-21.17082
-13.9893
-6.687045
-0.04600453
5.487735
9.770594
12.87856
14.93776
16.05487
16.33355
15.94428
15.11034
14.08112
13.05244
12.07685
11.10694
10.08162
9.006266
7.965214
7.122831
6.585619
6.349691
6.282297
6.160432
5.739484
4.832685
3.381966
1.445926
-0.7889025
-3.132157
-5.423985
-7.607527
-9.814863
-12.30049
-15.34326
-19.03425
-23.18052
-27.19588
-30.30265
-31.69756
-30.82749
-27.57323
-22.22457
-15.42156
-7.941403
-0.5421085
6.176399
11.80317
16.12477
19.14121
21.02635
22.02164
22.3796
22.26748
21.73369
20.76438
19.3836
17.70673
15.9426
14.35877
13.16486
12.45576
12.1857
12.19024
12.29241
12.30349
12.05557
11.37514
10.13896
8.338222
6.104877
3.707185
1.441771
-0.5197725
-2.207167
-3.852603
-5.794918
-8.28209
-11.418
-15.12477
-19.19695
-23.35971
-27.25504
-30.4233
-32.31145
-32.38794
-30.27464
-25.93911
-19.74321
-12.38246
-4.716158
2.421591
8.403637
12.89931
15.89601
17.60987
18.33283
18.31939
17.72838
16.64656
15.1924
13.59155
12.18303
11.26856
10.99089
11.21906
11.60125
11.80409
11.63273
11.15752
10.60891
10.19507
9.8939
9.491261
8.661758
7.162796
4.995079
2.381077
-0.3518562
-2.884659
-5.047493
-6.860538
-8.443199
-9.977058
-11.6201
-13.49753
-15.71278
-18.28933
-21.10473
-23.83319
-25.91315
-26.71508
-25.64815
-22.4732
-17.37398
-10.95454
-4.076328
2.437531
7.954224
12.18021
15.06729
16.71574
17.25832
16.87381
15.75443
14.15932
12.38809
10.70028
9.270405
8.123131
7.209503
6.436569
5.770313
5.238167
4.89534
4.760181
4.784019
4.84185
4.768635
4.442875
3.795227
2.852768
1.694466
0.398922
-0.9806213
-2.473423
-4.163338
-6.164104
-8.60141
-11.53839
-14.93776
-18.66454
-22.40637
-25.66256
-27.79807
-28.17071
-26.33203
-22.22403
-16.23874
-9.140747
-1.847862
4.815636
10.26764
14.22124
16.64034
17.6434
17.44337
16.31906
14.57278
12.46815
10.24657
8.125404
6.276909
4.909912
4.168411
4.069466
4.485527
5.153244
5.790642
6.230202
6.423027
6.345955
5.963364
5.148621
3.803947
1.92836
-0.2697449
-2.491264
-4.471962
-6.14695
-7.710243
-9.550522
-12.04975
-15.39591
-19.48455
-23.92735
-28.08499
-31.2408
-32.71429
-32.01141
-28.97793
-23.84195
-17.2189
-9.923958
-2.794922
3.51403
8.621964
12.39541
14.89137
16.24307
16.62938
16.23758
15.2779
13.99978
12.6499
11.41032
10.39
9.550674
8.82058
8.109177
7.366692
6.629951
5.98452
5.502472
5.200531
5.023346
4.808708
4.385834
3.567993
2.258324
0.4367218
-1.814178
-4.361824
-7.073143
-9.879417
-12.83643
-16.08999
-19.78367
-23.88593
-28.07958
-31.75696
-34.10542
-34.41862
-32.31547
-27.91624
-21.79073
-14.77112
-7.699104
-1.16729
4.511345
9.273483
13.14035
16.1004
18.10841
19.15488
19.34923
18.93971
18.23222
17.43462
16.62025
15.74034
14.75214
13.70399
12.77701
12.1866
12.05573
12.35322
12.90131
13.43295
13.69506
13.46391
12.58438
10.93261
8.504181
5.426994
1.979286
-1.513901
-4.765388
-7.652374
-10.2431
-12.72382
-15.36281
-18.34251
-21.75387
-25.50119
-29.26004
-32.46839
-34.42487
-34.48086
-32.25198
-27.84904
-21.79507
-14.93683
-8.088997
-1.86821
3.452248
7.85334
11.44843
14.34145
16.56622
18.14183
19.07423
19.43227
19.33549
18.93699
18.39009
17.79877
17.22826
16.66364
16.09498
15.46906
14.76859
14.02399
13.29269
12.65618
12.16203
11.7693
11.31931
10.57643
9.2882
7.292137
4.643074
1.561272
-1.595329
-4.520439
-7.067802
-9.349213
-11.65768
-14.36021
-17.69378
-21.65836
-25.97958
-30.12371
-33.428
-35.21686
-34.98712
-32.50147
-27.8959
-21.64703
-14.47323
-7.156174
-0.3388062
5.558044
10.40429
14.22401
17.1412
19.23419
20.53679
21.07954
20.94758
20.32475
19.49909
18.77449
18.38715
18.38757
18.6452
18.87886
18.83071
18.36989
17.53522
16.5006
15.42339
14.36021
13.20643
11.78462
9.972946
7.771523
5.3022
2.754898
0.2879791
-2.027267
-4.194008
-6.24688
-8.233566
-10.27562
-12.57407
-15.37877
-18.85376
-22.92417
-27.15485
-30.79882
-33.00948
-33.12514
-30.89182
-26.57387
-20.76936
-14.24188
-7.656815
-1.45919
4.068314
8.78376
12.57
15.34216
17.06038
17.81245
17.78095
17.19408
16.28114
15.18293
14.00157
12.80505
11.67326
10.72866
10.07162
9.761246
9.757645
9.953796
10.15981
10.20859
9.962845
9.325081
8.265274
6.779427
4.925751
2.836937
0.6931534
-1.382095
-3.318283
-5.172684
-7.123299
-9.385109
-12.14297
-15.41872
-18.99936
-22.4139
-25.02622
-26.17258
-25.37841
-22.49129
-17.7553
-11.72323
-5.112892
1.373123
7.144676
11.82034
15.24378
17.42095
18.45692
18.52179
17.79318
16.41678
14.54966
12.37328
10.13282
8.11779
6.5952
5.695717
5.372169
5.413506
5.547852
5.551537
5.346489
4.947762
4.426483
3.777443
2.913452
1.665474
-0.05634308
-2.199608
-4.507942
-6.615005
-8.263496
-9.438004
-10.39865
-11.48486
-12.88903
-14.41563
-15.5303
-15.51585
-13.85464
-10.44133
-5.668663
-0.2770691
4.975914
9.512581
13.0737
15.61672
17.21298
17.85867
17.51072
16.14832
13.87583
10.95089
7.778572
4.758064
2.206566
0.2939377
-1.019203
-1.86409
-2.392975
-2.754761
-3.059471
-3.398247
-3.815796
-4.35685
-5.033951
-5.84745
-6.791061
-7.882484
-9.171608
-10.78605
-12.86956
-15.52747
-18.74306
-22.31116
-25.84386
-28.82495
-30.7044
-31.03149
-29.50764
-26.0893
-21.02174
-14.80442
-8.131027
-1.721657
3.826157
8.150146
11.17725
13.05675
14.02498
14.24922
13.81955
12.77724
11.23766
9.389801
7.494461
5.75209
4.293846
3.122116
2.168571
1.387894
0.7290955
0.1592407
-0.3648834
-0.9470673
-1.669617
-2.560898
-3.610199
-4.796082
-6.156693
-7.835579
-10.02796
-12.90565
-16.50209
-20.64005
-24.93209
-28.83712
-31.73914
-33.07211
-32.40708
-29.56315
-24.65606
-18.1403
-10.74671
-3.347389
3.299187
8.695526
12.71645
15.52302
17.40222
18.55566
19.01672
18.70544
17.60411
15.86365
13.84476
11.97873
10.58644
9.754539
9.32518
9.052025
8.764404
8.409554
8.0158
7.577415
7.020157
6.152817
4.842155
3.056694
0.9572601
-1.211075
-3.230927
-5.062912
-6.861664
-8.953827
-11.69226
-15.25622
-19.50253
-23.89668
-27.61523
-29.77734
-29.69584
-27.09873
-22.26632
-15.90302
-8.896397
-2.083614
3.991299
9.08643
13.20796
16.46852
18.93056
20.60422
21.48212
21.6095
21.10427
20.13858
18.93142
17.68647
16.5413
15.59169
14.84687
14.277
13.84308
13.48382
13.17948
12.92449
12.69902
12.42398
11.94751
11.06995
9.623741
7.550049
4.935516
1.967793
-1.141121
-4.245792
-7.270515
-10.22915
-13.20749
-16.37499
-19.88514
-23.77362
-27.81063
-31.42146
-33.72986
-33.84921
-31.22979
-25.92595
-18.63376
-10.4306
-2.4126
4.673685
10.52864
15.18826
18.79659
21.4388
23.0888
23.75113
23.52097
22.62534
21.35818
20.00602
18.77874
17.75362
16.9405
16.27968
15.67649
15.07864
14.47961
13.98015
13.68253
13.63875
13.77044
13.85672
13.57872
12.65113
10.97596
8.617727
5.821527
2.871555
0.01102448
-2.625469
-5.015051
-7.209158
-9.332352
-11.56168
-14.10892
-17.13544
-20.67018
-24.4776
-28.04495
-30.60591
-31.38732
-29.81543
-25.7568
-19.60253
-12.14306
-4.35902
2.898571
9.022511
13.7317
16.96424
18.79824
19.35424
18.83046
17.49623
15.68392
13.72525
11.88707
10.37039
9.262209
8.574242
8.284945
8.332533
8.654276
9.169537
9.794563
10.42503
10.89686
10.99841
10.53338
9.396452
7.668219
5.628229
3.631163
1.962828
0.7064705
-0.3207798
-1.454933
-3.047104
-5.338331
-8.351765
-11.90701
-15.66578
-19.13406
-21.75447
-22.96559
-22.34558
-19.74557
-15.36385
-9.736895
-3.590467
2.332298
7.413666
11.27099
13.78303
15.0342
15.23545
14.62842
13.45624
11.92761
10.22279
8.492401
6.865437
5.428066
4.220917
3.265347
2.590366
2.228325
2.219734
2.561417
3.148792
3.726894
3.97467
3.618523
2.544094
0.8484688
-1.220627
-3.376911
-5.439777
-7.390987
-9.368011
-11.58327
-14.24039
-17.40686
-20.97883
-24.60781
-27.74999
-29.75177
-30.02288
-28.2286
-24.4097
-18.97902
-12.58232
-5.935272
0.3493881
5.801208
10.1207
13.17165
14.95454
15.61862
15.43971
14.75824
13.87833
12.99056
12.11068
11.19183
10.17484
9.073807
7.991901
7.074879
6.426472
6.073158
5.968956
6.005547
6.044983
5.943039
5.501305
4.574486
3.054611
0.9738197
-1.49847
-4.109463
-6.645233
-9.061066
-11.50474
-14.25502
-17.57281
-21.55118
-25.99182
-30.4057
-34.08765
-36.26125
-36.28705
-33.82735
-28.97953
-22.27782
-14.57105
-6.774525
0.3365593
6.287411
10.93686
14.34135
16.65191
18.00951
18.49574
18.25714
17.4864
16.46129
15.4421
14.60869
13.99538
13.51379
13.02472
12.43032
11.73442
11.02032
10.39566
9.889576
9.439531
8.857452
7.919256
6.453621
4.406408
1.880821
-0.8991737
-3.648859
-6.195438
-8.548431
-10.94553
-13.73332
-17.2107
-21.41537
-26.0067
-30.29197
-33.42078
-34.63376
-33.49427
-30.01487
-24.60677
-17.9188
-10.64927
-3.437135
3.231404
8.960135
13.48971
16.65623
18.435
18.96939
18.52285
17.44293
16.10123
14.77849
13.643
12.72397
11.96707
11.30133
10.70831
10.24797
9.998169
10.01175
10.23101
10.48007
10.49522
10.00509
8.845647
7.02236
4.693453
2.102565
-0.5086908
-2.993346
-5.359434
-7.777412
-10.48829
-13.74835
-17.64344
-22.00777
-26.35084
-29.94279
-31.98917
-31.86191
-29.31049
-24.52689
-18.10464
-10.82964
-3.43701
3.522633
9.699654
14.91821
19.03026
21.89052
23.39346
23.56097
22.56952
20.76252
18.52705
16.16768
13.90046
11.82438
10.01255
8.531937
7.473139
6.894573
6.793102
7.067881
7.535189
7.970041
8.118738
7.747072
6.696098
4.942184
2.591465
-0.1203194
-2.896328
-5.506306
-7.89996
-10.28053
-13.00937
-16.39843
-20.50854
-24.91698
-28.77671
-31.04151
-30.83377
-27.74428
-22.00965
-14.44678
-6.143314
1.818001
8.597912
13.72232
17.07855
18.8179
19.31171
18.9669
18.13416
17.04836
15.77559
14.33737
12.79268
11.32053
10.14163
9.460587
9.286797
9.441113
9.667767
9.722702
9.513031
9.044167
8.343678
7.390778
6.060959
4.238163
1.888405
-0.8590698
-3.784142
-6.661892
-9.422016
-12.17754
-15.16062
-18.50251
-22.06097
-25.31988
-27.48541
-27.76621
-25.64637
-21.12214
-14.73008
-7.33831
0.110054
6.821224
12.30986
16.35636
18.90604
20.05193
19.95676
18.86668
17.07477
14.90437
12.63185
10.47188
8.567924
7.025528
5.896996
5.180115
4.830994
4.735664
4.757568
4.7257
4.483932
3.892502
2.855812
1.364403
-0.5025482
-2.560081
-4.629868
-6.611198
-8.619759
-10.93397
-13.87334
-17.57895
-21.80579
-25.91274
-28.98135
-30.12569
-28.74998
-24.78364
-18.64476
-11.08239
-3.013321
4.714531
11.42394
16.68026
20.26482
22.17918
22.58153
21.77316
20.10097
17.89897
15.47507
13.06978
10.91085
9.163292
7.947807
7.302521
7.162239
7.351593
7.623894
7.722298
7.448059
6.720093
5.559303
4.0728
2.387642
0.5820847
-1.323616
-3.389938
-5.700935
-8.397858
-11.61076
-15.43049
-19.84574
-24.63752
-29.32031
-33.14835
-35.26681
-34.92273
-31.73293
-25.84292
-17.92506
-8.990318
-0.1133118
7.839523
14.37938
19.36936
22.89031
25.0829
26.08036
25.98483
24.95853
23.27556
21.27537
19.32064
17.66785
16.41174
15.49292
14.81963
14.31411
13.93559
13.69933
13.55728
13.37792
12.95103
12.04263
10.49725
8.289948
5.527107
2.396057
-0.8709259
-4.081787
-7.100502
-9.878578
-12.50381
-15.21777
-18.36284
-22.28488
-27.01463
-32.13086
-36.69463
-39.4615
-39.34518
-35.82574
-29.21321
-20.52694
-11.11924
-2.177902
5.608177
12.07968
17.42268
21.86752
25.46458
28.07645
29.5215
29.7653
29.02056
27.70123
26.26382
25.05314
24.18243
23.54556
22.94877
22.21372
21.27879
20.18629
19.00122
17.78073
16.54208
15.22379
13.76283
12.0867
10.10725
7.749641
4.967102
1.814934
-1.536957
-4.844864
-7.874451
-10.54713
-12.96258
-15.40746
-18.1833
-21.51664
-25.40488
-29.61337
-33.68407
-37.01484
-38.92976
-38.83169
-36.37464
-31.55796
-24.80511
-16.86816
-8.622643
-0.8372803
5.982155
11.64551
16.16036
19.57578
21.94873
23.26302
23.60564
23.16485
22.26408
21.23779
20.31612
19.5803
18.96435
18.4263
17.97311
17.68857
17.67152
17.89721
18.21667
18.38537
18.18961
17.54575
16.52834
15.25214
13.8006
12.14075
10.17432
7.828728
5.170311
2.362099
-0.3779526
-2.878578
-5.071426
-6.99614
-8.754707
-10.51269
-12.44262
-14.73158
-17.50732
-20.7626
-24.24561
-27.43029
-29.59307
-30.00192
-28.21283
-24.2352
-18.5516
-11.96552
-5.310093
0.7538338
5.904354
10.0577
13.27693
15.59357
17.03751
17.59917
17.34532
16.45441
15.18806
13.83169
12.63
11.74061
11.22807
11.06584
11.15768
11.37857
11.5999
11.74455
11.80341
11.78212
11.66625
11.37179
10.77211
9.737272
8.260588
6.449085
4.494705
2.568382
0.7546916
-0.9959784
-2.808414
-4.763634
-6.837458
-8.938561
-10.97274
-12.96801
-15.06801
-17.44876
-20.08453
-22.64058
-24.47636
-24.87324
-23.30677
-19.73011
-14.58574
-8.655117
-2.700745
2.719847
7.357018
11.13804
13.99254
15.76569
16.30509
15.60758
13.95492
11.83746
9.803944
8.234001
7.253941
6.730324
6.47937
6.375347
6.415215
6.644535
7.054073
7.52483
7.859661
7.878654
7.475311
6.609436
5.299961
3.583351
1.52071
-0.7535934
-3.028397
-5.100403
-6.802643
-8.130737
-9.248413
-10.43956
-11.99194
-14.06734
-16.64265
-19.48029
-22.17776
-24.22845
-25.13274
-24.47285
-22.05675
-17.96828
-12.59959
-6.556473
-0.5070953
4.94957
9.444336
12.78355
14.9344
15.97976
16.01336
15.20964
13.7642
11.8964
9.819504
7.739372
5.842712
4.278099
3.157875
2.508072
2.264389
2.263039
2.316772
2.258873
2.040115
1.737129
1.447983
1.212021
0.9460144
0.4987183
-0.2871857
-1.459641
-2.947464
-4.582275
-6.235611
-7.856583
-9.546295
-11.51485
-13.97365
-17.0352
-20.64185
-24.46274
-27.93948
-30.34903
-31.00694
-29.46292
-25.69322
-20.11923
-13.49588
-6.668808
-0.3696136
4.941467
9.05455
11.93716
13.65755
14.31902
14.08466
13.19815
11.96048
10.67682
9.630249
8.937805
8.602142
8.530548
8.600159
8.722153
8.804565
8.824844
8.75412
8.57692
8.276596
7.847031
7.280182
6.533264
5.554749
4.265793
2.629745
0.7094116
-1.366898
-3.43428
-5.387878
-7.236984
-9.126633
-11.24963
-13.77205
-16.76822
-20.1543
-23.70238
-27.01083
-29.58258
-30.86205
-30.41306
-28.02863
-23.84309
-18.31575
-12.13724
-6.008209
-0.474472
4.175186
7.905777
10.76828
12.85863
14.20007
14.83018
14.79315
14.21716
13.2567
12.10271
10.88417
9.714066
8.619751
7.630966
6.758301
6.014786
5.398254
4.888535
4.461945
4.119949
3.847656
3.627365
3.384796
3.004013
2.354736
1.339645
-0.09989929
-1.936523
-4.101151
-6.455734
-8.825348
-11.07153
-13.17363
-15.23894
-17.53929
-20.32275
-23.64256
-27.14571
-30.13095
-31.7189
-31.22409
-28.42825
-23.70203
-17.82156
-11.68503
-5.95816
-0.9571228
3.283554
6.815445
9.60759
11.51837
12.38112
12.18929
11.15741
9.714417
8.337387
7.383911
7.000336
7.060165
7.308762
7.464371
7.355118
6.935013
6.306824
5.642593
5.092255
4.740463
4.568527
4.459518
4.277435
3.903824
3.285812
2.40976
1.289978
-0.08171082
-1.695816
-3.556808
-5.619949
-7.848862
-10.22423
-12.81361
-15.71457
-18.91318
-22.18144
-25.02515
-26.76747
-26.76712
-24.72569
-20.75093
-15.37538
-9.340118
-3.358459
2.024719
6.531357
10.02234
12.47684
13.93369
14.48219
14.28033
13.53751
12.48497
11.2769
10.00836
8.700989
7.391357
6.150833
5.11496
4.414856
4.129822
4.218216
4.493988
4.731125
4.717178
4.363068
3.679718
2.78157
1.74791
0.6299591
-0.5910645
-1.974243
-3.529678
-5.248825
-7.114883
-9.165359
-11.48746
-14.17676
-17.23019
-20.40721
-23.20462
-24.96939
-25.0753
-23.18326
-19.35403
-14.03072
-7.933609
-1.793152
3.790787
8.410126
11.87733
14.10471
15.07188
14.85132
13.63646
11.75125
9.61615
7.603455
5.962875
4.793854
4.064636
3.658112
3.50412
3.557465
3.795517
4.178467
4.624191
4.978119
5.084167
4.837921
4.155029
3.058395
1.611618
-0.1105042
-2.058548
-4.232544
-6.70253
-9.558838
-12.85271
-16.51237
-20.28922
-23.74274
-26.32256
-27.44675
-26.66969
-23.82175
-19.12778
-13.12737
-6.592606
-0.2880859
5.171127
9.445892
12.43532
14.19972
14.8772
14.64595
13.70248
12.25034
10.49709
8.625748
6.766632
5.048019
3.587952
2.540756
2.013626
2.048157
2.540207
3.240372
3.857162
4.099106
3.751541
2.732437
1.091309
-1.009369
-3.346512
-5.641495
-7.717606
-9.540085
-11.3098
-13.42859
-16.30493
-20.10863
-24.59523
-29.06663
-32.5247
-34.03413
-33.03941
-29.52679
-24.00257
-17.24387
-10.08108
-3.172493
3.045609
8.323036
12.51648
15.53304
17.35288
18.05397
17.83389
16.93549
15.63004
14.15593
12.67581
11.28921
10.06786
9.057152
8.28952
7.796829
7.550636
7.499733
7.525108
7.498863
7.302643
6.836006
6.053925
4.936577
3.5196
1.874664
0.09963226
-1.738365
-3.6679
-5.832798
-8.458191
-11.76801
-15.87436
-20.61198
-25.46037
-29.63094
-32.22176
-32.47998
-30.05867
-25.1604
-18.46396
-10.91599
-3.44825
3.250412
8.845482
13.2957
16.70134
19.20148
20.88416
21.80185
22.01699
21.66045
20.89825
19.94726
19.01093
18.24105
17.69151
17.31514
16.9942
16.61258
16.14556
15.65171
15.23426
14.92319
14.6092
14.0478
12.98459
11.2936
9.07058
6.595185
4.222597
2.156606
0.3904352
-1.301571
-3.246062
-5.713103
-8.822452
-12.54275
-16.73112
-21.15038
-25.41755
-29.01536
-31.27451
-31.51838
-29.30657
-24.65258
-18.10634
-10.57788
-3.042673
3.764162
9.505562
14.19573
17.98195
20.93773
22.99625
24.01884
23.98727
23.09958
21.76195
20.41562
19.39392
18.78888
18.54334
18.48023
18.46513
18.43674
18.36948
18.25275
18.04923
17.71583
17.22181
16.52548
15.61425
14.45496
13.01877
11.29124
9.309811
7.165039
4.97987
2.803009
0.6327972
-1.588654
-3.927437
-6.395885
-8.979126
-11.66874
-14.51608
-17.57397
-20.81062
-23.975
-26.60342
-28.10212
-27.90026
-25.66931
-21.41776
-15.5457
-8.689934
-1.585152
5.10976
10.88147
15.40905
18.57242
20.38964
20.99805
20.61512
19.49704
17.93563
16.23062
14.65771
13.45769
12.77472
12.60552
12.82113
13.23761
13.64705
13.9332
14.05822
14.05283
13.93767
13.7009
13.23038
12.40647
11.16273
9.494907
7.530556
5.453518
3.480331
1.726746
0.2039833
-1.186096
-2.601463
-4.22776
-6.207417
-8.632507
-11.52291
-14.72952
-17.9432
-20.68139
-22.38768
-22.5831
-21.00026
-17.69379
-13.00473
-7.46825
-1.691578
3.766739
8.467075
12.10599
14.52648
15.7215
15.83615
15.13435
13.92102
12.50523
11.11227
9.905357
8.956589
8.283951
7.858006
7.611279
7.460812
7.370005
7.353092
7.432117
7.63908
7.918348
8.08819
7.926619
7.229126
5.948019
4.189785
2.18293
0.1702042
-1.704948
-3.424721
-5.087952
-6.815521
-8.753809
-11.01986
-13.66928
-16.6753
-19.80786
-22.59867
-24.3968
-24.56566
-22.69585
-18.80622
-13.35336
-7.087253
-0.8101878
4.842073
9.490602
13.00456
15.38954
16.71571
17.04956
16.50091
15.24061
13.52412
11.65953
9.936719
8.558998
7.589525
6.966348
6.586577
6.384042
6.348275
6.494852
6.779458
7.043793
7.024147
6.449998
5.194671
3.332217
1.10508
-1.175436
-3.279942
-5.097321
-6.66795
-8.075954
-9.452436
-10.92095
-12.6179
-14.69831
-17.22453
-20.10787
-23.05452
-25.55592
-26.9899
-26.84184
-24.7847
-20.88504
-15.56031
-9.467213
-3.339439
2.195385
6.771908
10.31423
12.93923
14.8279
16.08513
16.68374
16.55418
15.70921
14.34022
12.82508
11.53876
10.71651
10.33229
10.16783
9.935059
9.486103
8.88784
8.333218
8.039818
8.023449
8.111374
7.990707
7.348541
6.022213
4.06768
1.688911
-0.8147697
-3.182442
-5.267769
-7.070499
-8.73439
-10.51877
-12.72109
-15.53429
-18.92961
-22.56408
-25.78508
-27.79492
-27.92544
-25.84223
-21.70623
-16.08971
-9.776382
-3.537743
2.10321
6.883965
10.75146
13.73572
15.83306
17.04258
17.35408
16.84717
15.69578
14.15009
12.47323
10.8829
9.509613
8.384102
7.492386
6.815857
6.369156
6.176445
6.263802
6.599068
7.061676
7.479477
7.621391
7.282951
6.349106
4.842079
2.901855
0.7682037
-1.370522
-3.385536
-5.250237
-7.054543
-8.956062
-11.14124
-13.77756
-16.90362
-20.3232
-23.5476
-25.8203
-26.36113
-24.68246
-20.7886
-15.26394
-9.038002
-3.000031
2.276909
6.628845
10.15017
12.96226
15.0311
16.20631
16.3827
15.63575
14.28585
12.78821
11.50788
10.63471
10.12016
9.75383
9.310974
8.684875
7.905502
7.153046
6.666031
6.621613
7.03923
7.726746
8.337128
8.484558
7.884872
6.48497
4.470261
2.173584
-0.07429504
-2.072372
-3.780624
-5.30542
-6.850571
-8.626907
-10.80414
-13.43462
-16.41656
-19.40932
-21.88739
-23.2274
-22.90323
-20.68338
-16.73845
-11.63692
-6.126373
-0.9130402
3.512238
6.940353
9.339096
10.799
11.40674
11.23837
10.42067
9.152069
7.692078
6.289978
5.138779
4.344406
3.902222
3.777496
3.882813
4.155457
4.515076
4.922867
5.367783
5.879745
6.418335
6.868317
6.981903
6.494583
5.254349
3.328049
1.045807
-1.137543
-2.837509
-3.917999
-4.545364
-5.140686
-6.12796
-7.811508
-10.21561
-13.03342
-15.72992
-17.63313
-18.15108
-16.93042
-14.0007
-9.778229
-4.947205
-0.2421265
3.784592
6.839813
8.882187
9.983551
10.2429
9.737839
8.578781
7.003403
5.343964
3.968094
3.088104
2.698746
2.580368
2.466446
2.186203
1.80423
1.526794
1.555603
1.922943
2.456085
2.883606
2.971481
2.666748
2.071411
1.339401
0.5532074
-0.3344421
-1.426193
-2.826096
-4.57019
-6.660599
-9.100006
-11.89207
-14.94351
-17.97076
-20.48297
-21.87274
-21.67554
-19.71832
-16.22742
-11.71893
-6.809967
-2.011658
2.312958
5.953369
8.781708
10.69031
11.62573
11.64804
10.94632
9.806213
8.49231
7.155121
5.83963
4.535858
3.275635
2.15976
1.337494
0.9031372
0.8391113
1.033661
1.304932
1.500153
1.513611
1.263428
0.6998291
-0.2019348
-1.396515
-2.742279
-4.020233
-5.064484
-5.845367
-6.56485
-7.586548
-9.239777
-11.69345
-14.80209
-18.14758
-21.14014
-23.18945
-23.83929
-22.8429
-20.20935
-16.18576
-11.25858
-6.047821
-1.192322
2.829193
5.820953
7.860199
9.218842
10.14203
10.74841
10.98257
10.69724
9.833771
8.466827
6.843262
5.27652
4.003326
3.099701
2.49115
2.066071
1.744934
1.578766
1.643616
1.988953
2.535034
3.043884
3.217621
2.812378
1.780762
0.2794495
-1.383881
-2.955902
-4.314117
-5.571289
-6.962708
-8.7341
-11.04056
-13.80582
-16.74722
-19.41333
-21.28024
-21.91254
-21.04413
-18.69479
-15.10593
-10.6886
-5.909668
-1.210602
3.043304
6.596771
9.286713
11.06512
11.98569
12.18973
11.85153
11.11649
10.09094
8.857422
7.536346
6.276978
5.251373
4.576996
4.25827
4.198608
4.254425
4.30069
4.284424
4.216431
4.093292
3.881134
3.485962
2.806366
1.759827
0.3543396
-1.295776
-3.019745
-4.628876
-6.0271
-7.264191
-8.533386
-10.1196
-12.27005
-15.01465
-18.13409
-21.12903
-23.36829
-24.27588
-23.48981
-21.00858
-17.12561
-12.37616
-7.332306
-2.476959
1.855621
5.50827
8.390137
10.46826
11.70139
12.11563
11.84354
11.13095
10.26215
9.455475
8.788269
8.201111
7.585022
6.901733
6.237915
5.741791
5.539185
5.626068
5.886871
6.097626
6.036682
5.598907
4.77359
3.642639
2.324921
0.9339905
-0.4375
-1.718292
-2.871155
-3.925995
-4.998596
-6.230316
-7.789703
-9.786102
-12.23264
-15.00412
-17.80762
-20.24094
-21.85062
-22.21841
-21.08566
-18.43784
-14.53955
-9.915314
-5.159973
-0.8250732
2.747894
5.429565
7.298645
8.473511
9.052124
9.061523
8.522827
7.55191
6.3992
5.338715
4.611816
4.301117
4.284454
4.333862
4.251312
3.987457
3.597137
3.246979
3.045898
2.973267
2.885345
2.578064
1.897919
0.8363647
-0.4682007
-1.773132
-2.881378
-3.674957
-4.242615
-4.845612
-5.789948
-7.358856
-9.638153
-12.47034
-15.47586
-18.12997
-19.84421
-20.17545
-18.88922
-16.04675
-11.96194
-7.149323
-2.179688
2.442871
6.359039
9.334137
11.2467
12.05368
11.80713
10.68335
8.986145
7.091766
5.388214
4.122314
3.395447
3.117523
3.117218
3.204376
3.238739
3.186401
3.076691
2.943207
2.779083
2.511322
2.031769
1.277161
0.2469177
-0.9714661
-2.286102
-3.668427
-5.196625
-7.045944
-9.396637
-12.32991
-15.77815
-19.51532
-23.14798
-26.19243
-28.10402
-28.43718
-26.93684
-23.64413
-18.91217
-13.31165
-7.472412
-1.930237
2.943405
6.947403
9.995499
12.10829
13.3681
13.9437
14.03233
13.80423
13.34819
12.65067
11.68289
10.46677
9.161697
8.01358
7.265961
7.030258
7.236221
7.659988
8.02034
8.077545
7.64946
6.690445
5.221909
3.335266
1.192459
-0.9931335
-2.986069
-4.617859
-5.849319
-6.817307
-7.812302
-9.175583
-11.20041
-13.95268
-17.28226
-20.75635
-23.80524
-25.80313
-26.23097
-24.79797
-21.52501
-16.735
-10.96335
-4.847488
1.043579
6.263702
10.56439
13.86304
16.14348
17.45793
17.87357
17.51875
16.58469
15.3445
14.08449
13.02992
12.29933
11.84491
11.52444
11.16608
10.70773
10.214
9.848801
9.735062
9.859329
10.07027
10.069
9.592896
8.502594
6.861969
4.855652
2.700279
0.5644836
-1.491867
-3.507767
-5.552254
-7.669708
-9.918045
-12.39635
-15.22099
-18.42945
-21.82778
-24.95526
-27.0968
-27.53162
-25.80038
-21.89005
-16.29446
-9.773628
-3.184898
2.838982
7.929115
11.97064
15.01077
17.14061
18.48115
19.14897
19.27921
18.96758
18.32416
17.42264
16.38192
15.3531
14.50608
13.96073
13.75024
13.783
13.90795
13.98794
13.97366
13.91692
13.85088
13.73339
13.39189
12.61187
11.27336
9.419998
7.281788
5.160801
3.247646
1.5667
-0.04151154
-1.79118
-3.862259
-6.310268
-9.114468
-12.20324
-15.51628
-18.9282
-22.16713
-24.76141
-26.10302
-25.64143
-23.07985
-18.56337
-12.68015
-6.284763
-0.2420502
4.84314
8.769104
11.62692
13.6914
15.16527
16.0877
16.37365
15.92638
14.77783
13.14333
11.37428
9.824993
8.773304
8.310871
8.360191
8.751469
9.31448
9.939636
10.5774
11.16468
11.61481
11.79937
11.57031
10.83267
9.621414
8.07947
6.396093
4.757187
3.251047
1.833416
0.3966961
-1.200176
-3.055634
-5.214184
-7.697271
-10.47452
-13.40901
-16.21683
-18.43765
-19.51571
-18.99275
-16.64609
-12.65747
-7.530581
-1.972593
3.338022
7.909132
11.49052
14.04785
15.65284
16.41041
16.42067
15.80893
14.73487
13.41534
12.07601
10.89495
9.97154
9.293756
8.782471
8.353798
7.958107
7.630547
7.457285
7.484049
7.685244
7.872215
7.794308
7.185257
5.912766
4.03718
1.831587
-0.3456421
-2.197813
-3.631739
-4.835779
-6.162266
-8.000641
-10.58271
-13.84951
-17.40516
-20.64207
-22.8941
-23.6041
-22.48668
-19.53386
-15.06483
-9.611046
-3.821527
1.69091
6.437445
10.15488
12.79315
14.43091
15.21106
15.27136
14.76098
13.82957
12.66191
11.46096
10.37497
9.486506
8.749022
8.067179
7.348976
6.57832
5.8342
5.273354
4.964659
4.847729
4.726929
4.342436
3.566336
2.397995
1.012775
-0.3819561
-1.664175
-2.842459
-4.05237
-5.455368
-7.183743
-9.295536
-11.77911
-14.62567
-17.73256
-20.88325
-23.69695
-25.62301
-26.10951
-24.77291
-21.55483
-16.79795
-11.11708
-5.228119
0.2927895
5.084639
9.053198
12.21948
14.60612
16.13423
16.69381
16.23737
14.92166
13.13466
11.37346
10.09333
9.479628
9.409286
9.528194
9.469679
9.036879
8.277874
7.440805
6.780668
6.375185
6.090921
5.63693
4.73826
3.312237
1.495998
-0.4246998
-2.217438
-3.797617
-5.266357
-6.800068
-8.555111
-10.54665
-12.7075
-14.95537
-17.21206
-19.35545
-21.15264
-22.19943
-22.06523
-20.41397
-17.19353
-12.73825
-7.649782
-2.612944
1.844648
5.488667
8.347973
10.57507
12.26075
13.38186
13.81407
13.49718
12.49461
11.07719
9.608889
8.418173
7.667458
7.330238
7.213726
7.113255
6.922615
6.681677
6.545677
6.646536
7.045906
7.624939
8.140867
8.314947
7.903896
6.834936
5.16757
3.119385
0.9170074
-1.226936
-3.203081
-5.026751
-6.786133
-8.655968
-10.77554
-13.2102
-15.84775
-18.36689
-20.32001
-21.16624
-20.52393
-18.23536
-14.47554
-9.673637
-4.436111
0.6523094
5.119587
8.707985
11.35056
13.09651
14.02973
14.21992
13.7588
12.76281
11.44549
10.09494
8.966209
8.231724
7.855671
7.69352
7.565685
7.387722
7.173351
7.023769
7.038654
7.206905
7.395618
7.403118
7.017982
6.112366
4.69416
2.894382
0.9232178
-0.9739265
-2.64151
-4.028988
-5.261127
-6.583
-8.272137
-10.52896
-13.33937
-16.43832
-19.35818
-21.5103
-22.3365
-21.45779
-18.76554
-14.48469
-9.129505
-3.371288
2.069164
6.633373
10.02768
12.21382
13.37291
13.76374
13.61631
13.09565
12.26175
11.19592
10.00765
8.869389
7.949768
7.353317
7.014103
6.79324
6.517151
6.121269
5.678009
5.347855
5.237259
5.295311
5.32077
5.039986
4.265739
2.978462
1.371265
-0.2977524
-1.832371
-3.226898
-4.643379
-6.307579
-8.425781
-11.06914
-14.09414
-17.1714
-19.80859
-21.40019
-21.42818
-19.60172
-16.01899
-11.15791
-5.73164
-0.4465141
4.170631
7.892334
10.70172
12.69406
13.91996
14.42053
14.21883
13.39858
12.09801
10.50796
8.804253
7.202858
5.868744
4.953293
4.521217
4.52948
4.837906
5.249924
5.602119
5.785004
5.761147
5.495407
4.917313
3.951836
2.547607
0.7844696
-1.118874
-2.855453
-4.191475
-5.052353
-5.617111
-6.24221
-7.343689
-9.218071
-11.8952
-15.1496
-18.49329
-21.33794
-23.11443
-23.4422
-22.14661
-19.29697
-15.17036
-10.1621
-4.75795
0.548027
5.296127
9.146217
11.84505
13.29527
13.54312
12.80029
11.4147
9.80442
8.388199
7.459335
7.129601
7.2938
7.734779
8.195473
8.50769
8.624756
8.580788
8.454666
8.262207
7.976379
7.521942
6.823036
5.823227
4.530769
2.97908
1.243515
-0.5533905
-2.287415
-3.839668
-5.18927
-6.398743
-7.650597
-9.170059
-11.16931
-13.72231
-16.68132
-19.66894
-22.05936
-23.15604
-22.39159
-19.54741
-14.84566
-8.959984
-2.795387
2.819321
7.330978
10.5463
12.57112
13.61498
13.82692
13.30705
12.16874
10.61501
9.003525
7.702431
6.967888
6.778633
6.878952
6.883743
6.548965
5.883781
5.115837
4.575188
4.472557
4.817734
5.428696
6.066902
6.503059
6.567879
6.155235
5.168213
3.622986
1.637314
-0.5213699
-2.565071
-4.300659
-5.781769
-7.309662
-9.291206
-11.99386
-15.34988
-18.93419
-22.038
-23.92705
-24.0511
-22.20148
-18.58939
-13.73474
-8.359863
-3.177292
1.242981
4.63559
6.985809
8.487518
9.376709
9.830719
9.923599
9.648666
9.006607
8.080383
7.044281
6.096802
5.378418
4.934143
4.724533
4.726959
4.910721
5.305099
5.904022
6.614716
7.18663
7.316101
6.776321
5.521835
3.738312
1.766434
-0.03736877
-1.457703
-2.515289
-3.419189
-4.47644
-5.964767
-8.061844
-10.75941
-13.8551
-16.93095
-19.43942
-20.80124
-20.5706
-18.58792
-15.02165
-10.32883
-5.12854
-0.06866455
4.321655
7.700455
9.937134
11.12
11.44423
11.18475
10.533
9.587448
8.32901
6.735077
4.892105
3.028259
1.476883
0.5058594
0.2419739
0.5582123
1.184494
1.82196
2.252853
2.388824
2.241577
1.879105
1.334229
0.65271
-0.1735687
-1.168259
-2.391052
-3.856049
-5.570618
-7.487839
-9.549515
-11.75174
-14.06006
-16.38632
-18.50815
-20.02675
-20.44403
-19.36731
-16.65715
-12.54648
-7.585938
-2.470367
2.159744
5.879913
8.500977
10.0397
10.64154
10.51575
9.900238
9.017883
8.034943
7.026993
6.005417
4.959946
3.910141
2.93364
2.142014
1.635361
1.447784
1.549393
1.809937
2.065369
2.162735
1.983429
1.479599
0.6570129
-0.4400787
-1.750076
-3.188858
-4.677856
-6.133469
-7.544067
-9.007492
-10.70561
-12.8847
-15.68919
-19.00458
-22.39056
-25.14423
-26.49661
-25.93535
-23.36736
-19.15875
-13.96507
-8.496277
-3.288788
1.384445
5.415268
8.757324
11.34773
13.07994
13.88342
13.81444
13.04514
11.86482
10.57326
9.391602
8.418686
7.650314
6.997772
6.381027
5.748947
5.149719
4.634888
4.272797
4.065903
3.875702
3.484436
2.666809
1.309906
-0.4949493
-2.468399
-4.264084
-5.606476
-6.464035
-7.041351
-7.743073
-9.007507
-11.11427
-14.05626
-17.50269
-20.85743
-23.41136
-24.53143
-23.84416
-21.28633
-17.10622
-11.79592
-5.973671
-0.2917633
4.727867
8.706444
11.51704
13.207
14.00579
14.13662
13.78972
13.05808
12.01132
10.74612
9.452148
8.361839
7.688652
7.491997
7.680534
8.024063
8.305885
8.3881
8.28038
8.102921
7.989876
8.050285
8.225876
8.339355
8.128563
7.377426
6.013107
4.131851
1.991875
-0.144722
-2.095253
-3.819504
-5.402489
-7.015244
-8.784477
-10.827
-13.21577
-15.94614
-18.91441
-21.8037
-24.12907
-25.31381
-24.863
-22.56181
-18.58579
-13.43416
-7.78083
-2.292351
2.576027
6.567978
9.633583
11.81242
13.16929
13.74884
13.59927
12.84692
11.66209
10.29147
9.004539
8.020424
7.46759
7.362915
7.610504
8.054695
8.536201
8.926807
9.183506
9.318943
9.352829
9.280342
9.010311
8.411587
7.363018
5.840141
3.928444
1.874607
-0.06181335
-1.713081
-3.040222
-4.182991
-5.342896
-6.71891
-8.449158
-10.65391
-13.34531
-16.39622
-19.45918
-21.9613
-23.23161
-22.75074
-20.34417
-16.29897
-11.25452
-5.921551
-0.8851204
3.532547
7.210491
10.10078
12.14996
13.29119
13.52369
12.96534
11.87925
10.58167
9.358706
8.383926
7.69293
7.251772
6.961063
6.759581
6.610952
6.553638
6.644003
6.908838
7.290569
7.632713
7.694363
7.255627
6.20294
4.58679
2.619949
0.573535
-1.277472
-2.792641
-3.986238
-5.029927
-6.211237
-7.831439
-10.08916
-12.99063
-16.25905
-19.38124
-21.66793
-22.47106
-21.3751
-18.35354
-13.76264
-8.252826
-2.554218
2.731406
7.219956
10.75251
13.27641
14.79812
15.34062
15.00153
14.00201
12.67488
11.39371
10.42817
9.876999
9.648983
9.541695
9.373338
9.043966
8.583715
8.103281
7.714602
7.483255
7.397352
7.34041
7.109945
6.523056
5.406132
3.730801
1.586491
-0.7862873
-3.134594
-5.219963
-6.969521
-8.502411
-10.09226
-12.10706
-14.81772
-18.2795
-22.22851
-26.12891
-29.25932
-30.93572
-30.65251
-28.1847
-23.69978
-17.65239
-10.72815
-3.714119
2.68829
8.019295
12.0869
14.96781
16.89837
18.09174
18.71393
18.82585
18.4306
17.58432
16.41378
15.10258
13.85001
12.83271
12.11943
11.72321
11.58548
11.59893
11.64394
11.60753
11.40203
10.96517
10.22728
9.111084
7.591835
5.7108
3.586143
1.409389
-0.665493
-2.598228
-4.436733
-6.295502
-8.315544
-10.56729
-13.15085
-16.13644
-19.51207
-23.12286
-26.53419
-29.06819
-29.97346
-28.71337
-25.19838
-19.85925
-13.46375
-6.835419
-0.6049271
4.88549
9.52108
13.26406
16.0496
17.81141
18.56127
18.4516
17.74545
16.74644
15.67654
14.68833
13.79709
13.00694
12.31929
11.75163
11.34492
11.09218
10.97789
10.92407
10.84904
10.63028
10.16792
9.360001
8.128326
6.450714
4.376534
2.048843
-0.3267288
-2.522987
-4.37394
-5.848717
-7.076691
-8.345421
-9.984512
-12.24582
-15.18929
-18.63433
-22.14996
-25.13209
-26.94964
-27.07706
-25.24958
-21.53275
-16.33315
-10.25721
-4.000526
1.839256
6.873177
10.92516
13.9752
16.08479
17.33272
17.76241
17.44923
16.47715
15.0296
13.33204
11.6191
10.12901
9.015884
8.338387
8.043091
8.032883
8.217438
8.563248
9.064743
9.684402
10.30902
10.70842
10.61633
9.797455
8.216225
6.040298
3.600891
1.293404
-0.6052017
-2.022728
-3.128166
-4.246147
-5.721527
-7.80925
-10.54797
-13.75222
-16.9776
-19.60421
-20.98273
-20.60533
-18.24698
-14.10234
-8.729439
-2.879425
2.688538
7.475952
11.23351
13.97739
15.82055
16.85268
17.13281
16.66548
15.51383
13.8122
11.81581
9.777054
7.948128
6.481575
5.409409
4.739082
4.447472
4.537949
4.986839
5.718727
6.557518
7.224548
7.428627
6.965759
5.839951
4.228157
2.426636
0.6350327
-1.104141
-2.957298
-5.165688
-7.898315
-11.18545
-14.81808
-18.45953
-21.68958
-24.04608
-25.08192
-24.44098
-21.92506
-17.64613
-12.05141
-5.818466
0.2718582
5.563057
9.6828
12.52467
14.18857
14.8335
14.60086
13.63644
12.11407
10.29353
8.478531
6.979782
5.994949
5.57756
5.633904
5.985825
6.409912
6.74585
6.875153
6.758331
6.37738
5.72403
4.788742
3.560806
2.059525
0.3051453
-1.657288
-3.802002
-6.123962
-8.659775
-11.43292
-14.43953
-17.59782
-20.68164
-23.33
-25.06096
-25.34782
-23.80965
-20.33194
-15.17339
-8.961838
-2.509949
3.400925
8.237488
11.78406
14.12453
15.45706
16.00029
15.8868
15.17381
13.914
12.28828
10.57281
9.13678
8.307983
8.200211
8.705673
9.473572
10.05713
10.0883
9.380173
7.941528
5.966629
3.719772
1.412079
-0.7963257
-2.837967
-4.729752
-6.533081
-8.356918
-10.34737
-12.66061
-15.42355
-18.6573
-22.18163
-25.5368
-28.05034
-28.98686
-27.81006
-24.40776
-19.17659
-12.87311
-6.404587
-0.4913788
4.48851
8.477463
11.6308
14.09753
15.93628
17.12141
17.63029
17.48146
16.80908
15.8053
14.66231
13.54832
12.55605
11.72351
11.06259
10.60078
10.3685
10.38162
10.59488
10.86082
10.9232
10.48026
9.293961
7.29158
4.630875
1.647064
-1.258133
-3.795303
-5.889313
-7.662781
-9.355316
-11.22606
-13.45267
-16.11774
-19.13095
-22.2251
-24.93002
-26.6467
-26.76176
-24.88489
-20.98299
-15.45819
-9.042603
-2.545105
3.386444
8.391266
12.43285
15.63208
18.11446
19.9451
21.09332
21.53075
21.30376
20.58286
19.6189
18.66832
17.92572
17.40038
17.01765
16.65605
16.26628
15.89584
15.6588
15.6404
15.81721
16.03586
16.06784
15.69955
14.85684
13.6109
12.17252
10.68326
9.218307
7.699753
5.994598
4.024063
1.860352
-0.3334045
-2.367691
-4.118332
-5.631165
-7.085999
-8.728287
-10.76482
-13.33606
-16.42258
-19.90341
-23.51571
-26.86275
-29.43274
-30.69475
-30.23123
-27.89292
-23.85648
-18.59104
-12.70876
-6.81459
-1.373512
3.345673
7.213867
10.19842
12.33366
13.68535
14.41197
14.70313
14.76826
14.75488
14.70605
14.55975
14.23816
13.71013
13.07684
12.54889
12.38077
12.70719
13.47657
14.46148
15.30905
15.7375
15.63522
15.08852
14.2822
13.37526
12.4085
11.31208
9.995499
8.444893
6.764908
5.079185
3.473091
1.918167
0.2990341
-1.498466
-3.486282
-5.559891
-7.612961
-9.607948
-11.66127
-13.98801
-16.76535
-19.93527
-23.11038
-25.63359
-26.72509
-25.80328
-22.68625
-17.67571
-11.51098
-5.093769
0.7580719
5.529961
9.055321
11.46153
13.01158
13.99442
14.58084
14.84734
14.79576
14.3988
13.66869
12.70143
11.65879
10.69604
9.968075
9.5392
9.402676
9.512474
9.797821
10.16234
10.47051
10.60553
10.44189
9.910595
9.028049
7.874315
6.57456
5.244888
3.950059
2.684485
1.452865
0.2553453
-0.8902402
-1.96637
-3.004227
-4.08226
-5.306896
-6.765102
-8.526748
-10.61093
-12.99578
-15.57547
-18.1046
-20.19838
-21.39221
-21.29783
-19.74449
-16.85201
-13.02192
-8.809336
-4.721128
-1.097498
1.894026
4.223486
5.870365
6.825058
7.088776
6.754089
6.009995
5.141144
4.416031
4.011372
3.988148
4.286469
4.782738
5.360397
5.919102
6.380917
6.688534
6.808094
6.737129
6.533329
6.326973
6.203461
6.188431
6.152245
5.888565
5.21199
4.039864
2.443176
0.6458664
-1.084595
-2.538223
-3.649315
-4.505646
-5.30999
-6.309357
-7.71048
-9.602295
-11.92354
-14.44409
-16.75729
-18.38685
-18.90247
-18.03066
-15.75613
-12.31936
-8.170761
-3.82045
0.2585907
3.728096
6.412971
8.234344
9.212219
9.417892
8.991676
8.15155
7.162315
6.260635
5.591187
5.192505
4.976898
4.823181
4.614548
4.299866
3.882889
3.41243
2.943405
2.53804
2.227768
2.019333
1.844849
1.552521
0.9707489
-0.01794434
-1.389145
-2.927856
-4.353012
-5.440659
-6.147095
-6.668671
-7.342361
-8.476593
-10.19398
-12.38629
-14.7361
-16.82101
-18.25821
-18.75261
-18.12587
-16.37431
-13.6441
-10.19215
-6.394424
-2.633301
0.755127
3.505676
5.496109
6.693329
7.134644
6.940079
6.291031
5.414703
4.545731
3.87088
3.458954
3.299515
3.288055
3.306519
3.281418
3.162354
2.936676
2.62056
2.265289
1.899826
1.573624
1.270996
0.9038849
0.3107758
-0.6545105
-2.021744
-3.613724
-5.101212
-6.194
-6.804108
-7.138489
-7.617432
-8.669159
-10.4987
-12.97153
-15.66469
-18.04047
-19.5972
-20.02551
-19.21124
-17.22357
-14.28488
-10.72763
-6.959671
-3.377045
-0.3082123
2.085297
3.80835
4.95105
5.672531
6.098312
6.311478
6.34407
6.220276
5.889313
5.357727
4.612762
3.682449
2.656525
1.693695
1.025726
0.8138123
1.138977
1.863617
2.716797
3.330292
3.40564
2.832611
1.720062
0.3122559
-1.131439
-2.43512
-3.637421
-4.868195
-6.3237
-8.145599
-10.32928
-12.7782
-15.31375
-17.74725
-19.87863
-21.44513
-22.13083
-21.59814
-19.64655
-16.33258
-12.05954
-7.484772
-3.305756
0.01898193
2.366211
3.926483
5.010223
5.808533
6.314423
6.409546
6.006042
5.158844
4.081573
3.032684
2.167725
1.512512
0.9641113
0.4535828
-0.008911133
-0.3044128
-0.3091431
0.0138855
0.4791565
0.7943115
0.6629944
-0.04785156
-1.265625
-2.724945
-4.112946
-5.22522
-6.022644
-6.653564
-7.355042
-8.37384
-9.881165
-11.89847
-14.29056
-16.74664
-18.7832
-19.84808
-19.48672
-17.49365
-14.0199
-9.585388
-4.898163
-0.6344299
2.691254
4.858734
5.900665
6.037476
5.574677
4.822021
4.005127
3.231812
2.510681
1.760193
0.9198914
0.01589966
-0.8355103
-1.449951
-1.656586
-1.440674
-0.9217834
-0.3182068
0.1398621
0.311264
0.1598816
-0.2047424
-0.6646576
-1.119217
-1.569656
-2.130341
-2.972519
-4.272247
-6.112854
-8.433319
-11.02608
-13.59451
-15.80739
-17.36595
-17.99892
-17.53342
-15.89537
-13.16315
-9.571869
-5.501221
-1.390259
2.332047
5.352539
7.48056
8.670273
8.992462
8.594193
7.659973
6.407516
5.03743
3.696091
2.478516
1.402359
0.4944458
-0.2096252
-0.6463013
-0.7693787
-0.6219177
-0.3672943
-0.2398071
-0.4375916
-1.010941
-1.852036
-2.7379
-3.471039
-4.028381
-4.575104
-5.402893
-6.791138
-8.84346
-11.48611
-14.46785
-17.4407
-20.01727
-21.79163
-22.35031
-21.38672
-18.77226
-14.68111
-9.623688
-4.294296
0.5974731
4.568939
7.467682
9.415298
10.64032
11.34096
11.56219
11.27487
10.49139
9.338669
8.086533
7.013351
6.279129
5.842636
5.528015
5.151703
4.639923
4.076675
3.60881
3.327759
3.185608
2.969696
2.442245
1.458405
0.03215027
-1.676666
-3.476242
-5.253769
-7.046936
-9.038559
-11.4501
-14.39951
-17.78201
-21.19617
-23.99685
-25.45197
-24.99144
-22.40214
-17.91681
-12.16817
-5.973183
-0.05966187
5.058525
9.137932
12.13509
14.08364
15.09518
15.35582
15.08974
14.55844
13.97835
13.43566
12.90905
12.31302
11.58045
10.76528
10.00767
9.468529
9.280098
9.455868
9.854572
10.21361
10.267
9.757835
8.586597
6.817444
4.669947
2.442556
0.3976707
-1.358702
-2.853954
-4.262854
-5.804644
-7.700913
-10.13319
-13.18083
-16.73324
-20.44024
-23.69077
-25.69243
-25.73234
-23.44776
-18.9822
-13.00699
-6.484113
-0.3413095
4.814935
8.831416
11.92659
14.44069
16.60512
18.45686
19.87959
20.69869
20.85902
20.44545
19.66764
18.79768
18.0496
17.54307
17.29709
17.26501
17.36632
17.53544
17.72644
17.86842
17.88654
17.65109
17.04364
15.98024
14.46256
12.56192
10.44119
8.239429
6.059093
3.932537
1.841473
-0.2285538
-2.285393
-4.34272
-6.465698
-8.72834
-11.25399
-14.11877
-17.22817
-20.29739
-22.76699
-23.98404
-23.30905
-20.42664
-15.45955
-9.03833
-2.08461
4.458694
9.90509
13.98336
16.79088
18.5972
19.64615
20.05576
19.83762
19.00785
17.72242
16.26616
14.98643
14.13078
13.78086
13.83224
14.10951
14.47013
14.91343
15.51247
16.30753
17.22124
18.00993
18.36401
18.02768
16.93206
15.19049
13.05533
10.78943
8.584038
6.538254
4.678093
3.038651
1.586143
0.2652588
-1.055946
-2.584869
-4.487587
-6.890778
-9.778191
-13.00208
-16.28036
-19.2485
-21.44858
-22.42439
-21.80311
-19.43202
-15.47591
-10.38866
-4.857513
0.4454269
5.009735
8.623199
11.32094
13.28344
14.67802
15.55292
15.88229
15.62881
14.86271
13.76347
12.62105
11.70307
11.13814
10.91076
10.87637
10.90189
10.92635
10.98116
11.16103
11.52322
12.03986
12.54575
12.83076
12.67573
11.94641
10.64014
8.899239
6.966125
5.072052
3.388481
1.938263
0.6307831
-0.7093124
-2.283691
-4.22657
-6.590736
-9.29126
-12.1025
-14.63032
-16.43253
-17.04972
-16.18611
-13.78117
-10.05939
-5.496147
-0.6483459
3.931202
7.851406
10.88835
12.96415
14.0795
14.2943
13.68534
12.39065
10.62169
8.659618
6.804394
5.290684
4.288059
3.821743
3.841236
4.222038
4.840595
5.568287
6.309677
6.969028
7.483662
7.789539
7.80802
7.479237
6.73348
5.55233
3.963272
2.071527
0.04657745
-1.903522
-3.597445
-4.989265
-6.15712
-7.367125
-8.915118
-11.00143
-13.60477
-16.35878
-18.67097
-19.86944
-19.45367
-17.21959
-13.41889
-8.611635
-3.517751
1.183682
5.001064
7.681525
9.224089
9.7585
9.48537
8.5975
7.289102
5.76221
4.254907
2.984566
2.098982
1.615044
1.403677
1.310043
1.203049
1.096994
1.088947
1.25831
1.618246
1.998192
2.162315
1.884628
1.093891
-0.1306267
-1.58379
-3.030025
-4.344051
-5.488827
-6.610149
-7.929882
-9.696754
-12.02081
-14.83497
-17.81902
-20.46125
-22.21322
-22.62038
-21.46365
-18.79993
-14.91472
-10.21946
-5.19252
-0.2793388
4.12587
7.682926
10.17816
11.5131
11.7325
11.00983
9.646908
7.946224
6.190163
4.558289
3.129875
1.956352
1.068459
0.5328445
0.4316788
0.7692337
1.44973
2.230659
2.796608
2.880592
2.33857
1.206039
-0.3604736
-2.124916
-3.866386
-5.443642
-6.796028
-7.998268
-9.241997
-10.81015
-12.95593
-15.77097
-19.00754
-22.09314
-24.2325
-24.71532
-23.17278
-19.74272
-15.01303
-9.771751
-4.75573
-0.4658203
2.865471
5.208374
6.657127
7.355438
7.476273
7.250809
6.900742
6.561958
6.268509
5.932091
5.404869
4.575737
3.445801
2.134308
0.8566284
-0.1931839
-0.8796158
-1.183533
-1.20089
-1.129021
-1.182152
-1.545944
-2.298134
-3.368828
-4.597443
-5.812172
-6.906731
-7.903862
-8.968857
-10.30429
-12.05507
-14.19948
-16.53036
-18.71539
-20.30807
-20.87372
-20.10545
-17.87203
-14.29836
-9.757843
-4.837524
-0.1717072
3.711708
6.526886
8.282967
9.187653
9.556725
9.6548
9.615059
9.425972
9.005119
8.242218
7.162056
5.878922
4.599266
3.578232
2.977028
2.833885
3.025955
3.401695
3.797737
4.109634
4.252655
4.135231
3.672134
2.809669
1.604248
0.2003632
-1.241768
-2.646111
-4.094536
-5.786949
-7.959877
-10.75537
-14.08985
-17.6677
-21.02554
-23.6208
-24.97631
-24.77558
-22.93024
-19.60978
-15.208
-10.24805
-5.29203
-0.7971725
2.929794
5.755867
7.713142
8.956196
9.655727
9.961109
9.940235
9.595905
8.946785
8.095402
7.234833
6.566711
6.235603
6.227833
6.385799
6.529697
6.540493
6.422234
6.267487
6.1637
6.112709
6.03743
5.803501
5.264992
4.357346
3.111465
1.603916
-0.02489853
-1.631805
-3.088634
-4.369671
-5.586483
-6.969349
-8.777584
-11.14429
-13.99107
-16.95225
-19.48917
-21.03476
-21.17364
-19.74437
-16.85011
-12.86089
-8.23049
-3.466621
1.017286
4.926893
8.084562
10.3897
11.81771
12.3991
12.18676
11.33291
10.08698
8.774723
7.744389
7.234228
7.313522
7.84832
8.581874
9.205056
9.519722
9.464903
9.145272
8.74593
8.424881
8.215475
7.982342
7.514777
6.610354
5.215054
3.424834
1.456922
-0.4633565
-2.199697
-3.720565
-5.154924
-6.69756
-8.564465
-10.90647
-13.70253
-16.69615
-19.41088
-21.26373
-21.72473
-20.51014
-17.6862
-13.63427
-8.864616
-3.879889
0.9423008
5.343032
9.130633
12.12947
14.17601
15.16866
15.12101
14.21615
12.75214
11.08175
9.532843
8.342142
7.60673
7.299761
7.313231
7.522995
7.839485
8.210743
8.652153
9.165972
9.708715
10.15444
10.29724
9.96348
9.049479
7.555485
5.633322
3.497168
1.392616
-0.4887619
-2.090389
-3.481716
-4.827003
-6.371754
-8.351322
-10.92591
-14.11845
-17.7405
-21.39517
-24.46162
-26.26453
-26.25427
-24.20213
-20.29959
-15.09635
-9.340328
-3.715595
1.329285
5.633232
9.201614
12.11487
14.35853
15.82732
16.44935
16.205
15.24231
13.83955
12.31356
10.94823
9.934196
9.340908
9.149872
9.308784
9.735912
10.36662
11.11842
11.88371
12.51873
12.87813
12.86705
12.4597
11.72367
10.75808
9.602505
8.203091
6.436272
4.191978
1.49123
-1.503212
-4.500271
-7.223316
-9.592186
-11.75374
-14.00777
-16.63981
-19.71444
-22.96124
-25.84405
-27.69186
-27.9548
-26.37408
-23.05833
-18.43017
-13.08167
-7.594734
-2.398895
2.264717
6.318642
9.755638
12.56767
14.71545
16.20556
17.07143
17.4331
17.48534
17.41415
17.32922
17.25395
17.14209
16.94661
16.69713
16.47493
16.36984
16.41479
16.50114
16.44332
16.05426
15.25935
14.08573
12.6344
10.95997
9.04052
6.839226
4.369194
1.795441
-0.612793
-2.606796
-4.133301
-5.37265
-6.696976
-8.50177
-11.01545
-14.20624
-17.72598
-21.08018
-23.70477
-25.08802
-24.90385
-23.02384
-19.59542
-14.98645
-9.708961
-4.300423
0.7533722
5.115364
8.641304
11.32217
13.29099
14.72636
15.78809
16.53652
16.96134
16.97325
16.50273
15.5958
14.43762
13.31767
12.49813
12.10729
12.07655
12.20316
12.25224
12.09415
11.72162
11.17919
10.53328
9.768143
8.844807
7.722157
6.445194
5.093731
3.763615
2.500698
1.269413
-0.001586914
-1.404041
-3.024269
-4.942478
-7.216171
-9.849499
-12.737
-15.59431
-18.03569
-19.61487
-19.93734
-18.80522
-16.25822
-12.52265
-8.001705
-3.169384
1.490025
5.561081
8.742992
10.91114
12.0965
12.4476
12.1724
11.46163
10.46391
9.329344
8.164671
7.099537
6.266109
5.755329
5.586466
5.684525
5.937328
6.214731
6.427792
6.549168
6.560642
6.411619
6.016472
5.263309
4.075043
2.476736
0.6026726
-1.324421
-3.118652
-4.693152
-6.12421
-7.625415
-9.440105
-11.71266
-14.31312
-16.86052
-18.77344
-19.50522
-18.69722
-16.32284
-12.66472
-8.171588
-3.317933
1.46678
5.853053
9.575508
12.4088
14.20386
14.92358
14.68173
13.7028
12.28368
10.72892
9.254403
8.028193
7.094141
6.425526
5.931896
5.463413
4.935179
4.33647
3.734797
3.243647
2.928591
2.727083
2.478701
1.966095
1.03207
-0.3494644
-2.097191
-4.037056
-6.002026
-7.856461
-9.56184
-11.15344
-12.71325
-14.39541
-16.35672
-18.63858
-21.07592
-23.23631
-24.47697
-24.16761
-21.93378
-17.83905
-12.44633
-6.613087
-1.196041
3.193882
6.314724
8.233425
9.212719
9.538742
9.435001
9.063953
8.544041
8.013828
7.589046
7.338215
7.236492
7.162312
6.954498
6.500435
5.812973
5.019928
4.299187
3.730087
3.288528
2.835953
2.249184
1.48317
0.6321793
-0.2017441
-0.9741669
-1.782104
-2.846237
-4.381721
-6.51017
-9.203362
-12.31775
-15.58717
-18.6598
-21.14115
-22.58701
-22.63196
-21.10571
-18.09578
-13.97947
-9.281212
-4.552704
-0.2121735
3.5019
6.494576
8.763611
10.31811
11.16174
11.28904
10.73872
9.615715
8.111458
6.461151
4.911621
3.602524
2.591507
1.851868
1.319183
0.9558716
0.7416611
0.6804352
0.6777344
0.5937424
0.2548676
-0.4044266
-1.308243
-2.274254
-3.083038
-3.629616
-3.989403
-4.398209
-5.172813
-6.572861
-8.695671
-11.44329
-14.46886
-17.28919
-19.33225
-20.08116
-19.23785
-16.80295
-13.1067
-8.682915
-4.138802
0.03089142
3.522865
6.196655
8.084106
9.298157
9.970078
10.21337
10.09899
9.653214
8.891464
7.861168
6.681053
5.535622
4.618797
4.051132
3.8283
3.849548
3.910378
3.82373
3.489784
2.900124
2.104317
1.132721
0.009117126
-1.282585
-2.73365
-4.323776
-6.022507
-7.865921
-9.946533
-12.35101
-15.07932
-17.92978
-20.45558
-22.04599
-22.15411
-20.44859
-16.98481
-12.18789
-6.72567
-1.361992
3.279388
6.779373
8.994049
9.983803
9.971046
9.210655
7.948853
6.389153
4.705734
3.092392
1.753113
0.8417206
0.415741
0.4003677
0.6270905
0.8822174
0.9978561
0.8959808
0.5767059
0.1125565
-0.4293442
-0.9860382
-1.480774
-1.917191
-2.373665
-2.989288
-3.992607
-5.597557
-7.921616
-10.91193
-14.28717
-17.54574
-20.05482
-21.22412
-20.63203
-18.20089
-14.23256
-9.333275
-4.262634
0.319458
3.982246
6.598564
8.256599
9.131973
9.373207
9.030754
8.161469
6.843506
5.269226
3.710098
2.449387
1.732071
1.658348
2.120537
2.870178
3.570328
3.924515
3.755596
3.067863
1.985146
0.7020836
-0.6121025
-1.883877
-3.168636
-4.58992
-6.286175
-8.391277
-10.94036
-13.88933
-17.0756
-20.2198
-22.91288
-24.70919
-25.13546
-23.92384
-21.02414
-16.69046
-11.42531
-5.848698
-0.5754623
3.939648
7.470592
9.985554
11.63852
12.64793
13.18856
13.34443
13.1393
12.5669
11.69372
10.66507
9.688976
8.938362
8.468767
8.201011
7.963116
7.557836
6.900503
5.987942
4.911869
3.78781
2.672311
1.570822
0.4294475
-0.8354963
-2.307917
-4.042882
-6.061956
-8.379227
-11.01782
-13.96416
-17.06916
-19.97896
-22.08032
-22.6773
-21.20442
-17.52975
-12.06598
-5.686001
0.5644588
5.848646
9.773788
12.41411
14.09608
15.17
15.82348
16.11579
16.09479
15.8716
15.63169
15.49464
15.47697
15.41262
15.0843
14.33498
13.17877
11.81251
10.51195
9.52639
8.965549
8.797878
8.848431
8.863525
8.606319
7.920654
6.782845
5.301701
3.647469
1.902885
0.01871872
-2.182697
-4.844379
-7.878674
-10.90048
-13.26625
-14.31353
-13.57761
-11.00698
-6.887897
-1.783279
3.67524
8.88913
13.33254
16.5601
18.29778
18.46991
17.25342
15.08839
12.4932
9.96727
7.832298
6.186264
4.923187
3.879105
2.892006
1.889565
0.9526596
0.2248383
-0.1397476
-0.09623718
0.2601089
0.6872406
0.9142303
0.7400055
0.1040192
-0.8420868
-1.856644
-2.713264
-3.297356
-3.716812
-4.23642
-5.141304
-6.669708
-8.885201
-11.71535
-14.93305
-18.14352
-20.81779
-22.33093
-22.12663
-19.88482
-15.69276
-10.05851
-3.80088
2.222099
7.343132
11.23434
13.88147
15.43389
16.09235
16.01411
15.3292
14.22478
12.90617
11.60776
10.51548
9.721489
9.236763
9.039337
9.079971
9.350716
9.829285
10.39893
10.85818
10.87818
10.20905
8.747314
6.681503
4.392181
2.324158
0.7855072
-0.2091675
-0.9060135
-1.689758
-2.887474
-4.714638
-7.155525
-10.01419
-12.89055
-15.26952
-16.57091
-16.32289
-14.33728
-10.7882
-6.221855
-1.337379
3.196976
6.965508
9.83036
11.85206
13.17413
13.91123
14.17093
14.00015
13.45231
12.59409
11.48027
10.20495
8.861511
7.564583
6.428635
5.548737
5.001656
4.808632
4.933685
5.260986
5.604271
5.74662
5.495033
4.758293
3.589622
2.150948
0.6408157
-0.8038177
-2.175484
-3.627975
-5.440704
-7.853401
-10.97185
-14.62978
-18.36485
-21.49458
-23.29019
-23.21661
-21.08482
-17.13667
-11.95109
-6.258179
-0.6875229
4.290649
8.43364
11.63685
13.885
15.22506
15.75582
15.62048
14.9926
14.04037
12.87482
11.58138
10.23045
8.914009
7.771744
6.95668
6.577812
6.640221
7.017281
7.501343
7.834068
7.81218
7.311089
6.320541
4.923241
3.262199
1.461739
-0.3591003
-2.162933
-3.976196
-5.90369
-8.09816
-10.67062
-13.63205
-16.74148
-19.50899
-21.26604
-21.36714
-19.41255
-15.44765
-9.96175
-3.742226
2.314278
7.482521
11.31611
13.69016
14.75612
14.77817
14.07859
12.9189
11.52032
10.02342
8.554771
7.230282
6.139412
5.352032
4.868771
4.643463
4.550835
4.493851
4.411789
4.329678
4.278374
4.277004
4.270401
4.139389
3.737488
2.946793
1.769032
0.2837639
-1.374283
-3.120171
-4.969917
-7.028843
-9.395641
-12.02557
-14.63577
-16.7359
-17.7666
-17.2851
-15.12788
-11.5031
-6.929461
-2.097654
2.301847
5.77899
8.093313
9.291592
9.611372
9.383171
8.898409
8.351442
7.788841
7.163757
6.429536
5.59235
4.749516
4.024396
3.538615
3.352521
3.421817
3.650405
3.873592
3.909121
3.618233
2.930426
1.869389
0.5653272
-0.8025279
-2.081272
-3.208832
-4.281817
-5.513649
-7.130843
-9.274165
-11.85377
-14.55476
-16.85179
-18.14362
-17.93364
-16.0089
-12.50709
-7.986642
-3.203867
1.089059
4.405089
6.669557
8.086905
8.991753
9.542784
9.61138
8.948689
7.428748
5.23744
2.933191
1.139923
0.3161793
0.5036068
1.33646
2.316803
2.99576
3.156744
2.798403
2.02104
0.9361401
-0.3496723
-1.764908
-3.199875
-4.548321
-5.786314
-7.002989
-8.387648
-10.12597
-12.28485
-14.72444
-17.07884
-18.86816
-19.60118
-18.90382
-16.69996
-13.16645
-8.733841
-3.963772
0.6114235
4.587063
7.742657
10.0506
11.57219
12.37176
12.51461
12.0202
10.93282
9.323536
7.354565
5.271938
3.390972
1.973354
1.189236
0.9774857
1.123974
1.296001
1.212708
0.7672691
-0.008495331
-0.9380951
-1.834309
-2.613365
-3.271427
-3.894341
-4.64629
-5.697414
-7.226585
-9.364815
-12.08129
-15.10206
-17.87115
-19.66063
-19.81071
-17.96745
-14.22295
-9.138927
-3.544651
1.740139
6.107452
9.270248
11.26448
12.2854
12.5625
12.27491
11.55162
10.50698
9.31839
8.149323
7.15741
6.388134
5.773651
5.176754
4.50642
3.771873
3.066048
2.506302
2.114285
1.816177
1.443817
0.8795815
0.08269882
-0.8835106
-1.958347
-3.187759
-4.68755
-6.635483
-9.070396
-11.82638
-14.51966
-16.66375
-17.79346
-17.59052
-15.97786
-13.04316
-9.112534
-4.635403
-0.1429253
3.863708
7.04921
9.305336
10.75491
11.61938
12.08857
12.19579
11.84328
10.93681
9.532322
7.851601
6.219593
4.946487
4.153961
3.785698
3.683506
3.676525
3.688927
3.684307
3.63607
3.447247
2.97414
2.096428
0.8026657
-0.7768707
-2.444588
-4.030033
-5.507835
-7.019241
-8.815556
-11.06251
-13.69344
-16.30431
-18.22972
-18.78238
-17.48901
-14.32662
-9.740883
-4.511623
0.5645485
4.830185
7.949795
9.856049
10.64049
10.48605
9.602036
8.263924
6.749573
5.340679
4.203232
3.356621
2.717209
2.187664
1.740993
1.477776
1.494637
1.821712
2.320557
2.745567
2.869236
2.607548
2.060787
1.40382
0.7741852
0.1518021
-0.5951843
-1.650658
-3.155106
-5.103935
-7.415581
-9.901047
-12.28064
-14.17425
-15.13667
-14.774
-12.83603
-9.429329
-4.936783
0.01239014
4.745728
8.68145
11.48576
13.06275
13.4772
12.92662
11.59239
9.683769
7.424377
5.092796
2.982063
1.369675
0.4131088
0.05963898
0.1029282
0.2444839
0.2463379
0.008232117
-0.3920212
-0.7728043
-0.9747696
-0.9378586
-0.7434616
-0.5486908
-0.5372086
-0.8397446
-1.542419
-2.658081
-4.196182
-6.136482
-8.359505
-10.6115
-12.4704
-13.42786
-12.98545
-10.88131
-7.135704
-2.113609
3.633377
9.442543
14.70586
18.89322
21.50972
22.20645
20.80104
17.43211
12.55679
6.897285
1.248161
-3.720337
-7.56015
-10.12773
-11.45145
-11.71124
-11.13579
-10.01324
-8.653023
-7.360367
-6.314011
-5.624947
-5.309631
-5.337891
-5.709122
-6.408051
-7.423828
-8.698181
-10.13519
-11.69091
-13.39481
-15.30464
-17.40742
-19.48737
-21.06645
-21.5174
-20.28986
-17.19166
-12.50935
-6.963196
-1.45591
3.27211
6.823013
9.23764
10.80581
11.87265
12.63584
13.10799
13.14426
12.65822
11.68739
10.38966
9.024025
7.777294
6.726261
5.827644
5.021347
4.248787
3.554134
3.010258
2.691956
2.622047
2.711994
2.800404
2.67086
2.174561
1.230095
-0.1226463
-1.806774
-3.76981
-5.993851
-8.458702
-11.03362
-13.41366
-15.08783
-15.52861
-14.37212
-11.6192
-7.618202
-2.976097
1.660206
5.821259
9.270424
11.94584
13.84296
14.93873
15.19252
14.612
13.31143
11.55643
9.688255
8.031528
6.794434
6.062271
5.765999
5.767281
5.894199
6.005718
5.996559
5.814587
5.493328
5.111763
4.766708
4.492439
4.224461
3.800797
3.026867
1.798199
0.1424294
-1.823219
-3.971291
-6.212563
-8.506466
-10.76262
-12.7467
-14.05693
-14.19323
-12.76957
-9.7019
-5.32935
-0.3358879
4.463875
8.396961
11.10609
12.60447
13.14152
12.98849
12.31864
11.18651
9.611034
7.723789
5.789276
4.157043
3.125023
2.772526
2.938511
3.302906
3.578426
3.595379
3.375671
3.053013
2.751671
2.548733
2.371494
2.084034
1.531345
0.5952568
-0.7729034
-2.572632
-4.783318
-7.372753
-10.20737
-13.02987
-15.38228
-16.69544
-16.46981
-14.48881
-10.89563
-6.216507
-1.213711
3.41396
7.14423
9.761784
11.30948
11.95887
11.90715
11.30648
10.26024
8.845592
7.189804
5.457325
3.837513
2.483814
1.480106
0.8365288
0.5017738
0.3945007
0.4261818
0.5037384
0.5231857
0.3897743
0.0207901
-0.6113777
-1.495911
-2.599438
-3.923622
-5.525208
-7.479279
-9.822136
-12.45335
-15.07896
-17.21033
-18.28978
-17.83022
-15.61314
-11.80093
-6.917725
-1.708344
3.071991
6.900688
9.578888
11.18641
11.95325
12.08732
11.74028
10.96754
9.840195
8.464943
6.985092
5.568176
4.292999
3.185204
2.203758
1.311501
0.5059357
-0.1707077
-0.6361694
-0.8609238
-0.827034
-0.5980988
-0.2664337
0.03009796
0.1332245
-0.1218185
-0.9233017
-2.384911
-4.524681
-7.202377
-10.10732
-12.77797
-14.67907
-15.34978
-14.54593
-12.28292
-8.887146
-4.886711
-0.831665
2.804161
5.767502
8.015213
9.595284
10.59972
11.04621
10.94084
10.29647
9.220222
7.90345
6.598213
5.496529
4.672699
4.081055
3.634972
3.314888
3.120598
3.056244
3.083359
3.096336
2.930763
2.490936
1.792473
0.8882141
-0.1731262
-1.465736
-3.095787
-5.20768
-7.798874
-10.7062
-13.60123
-16.05921
-17.64917
-18.00908
-16.9037
-14.2583
-10.25021
-5.314323
-0.1025848
4.705032
8.557411
11.1869
12.64548
13.22033
13.25664
12.99397
12.52471
11.81311
10.84081
9.623314
8.285538
7.013908
5.962807
5.252647
4.888535
4.836777
4.954536
5.09211
5.075935
4.77562
4.131027
3.170197
2.025398
0.8468933
-0.2670898
-1.348389
-2.554565
-4.080505
-6.080711
-8.534821
-11.22263
-13.6999
-15.39247
-15.69893
-14.17886
-10.73501
-5.686279
0.266243
6.270424
11.60525
15.88716
19.14859
21.68394
23.81509
25.65718
27.09589
27.88211
27.88919
27.22507
26.25659
25.4764
25.33685
26.11762
27.88921
30.40868
33.07237
34.93507
34.83807
31.71886
25.03905
15.04388
2.782745
-10.1731
-22.22763
-32.20659
-39.61932
-44.61342
-47.74174
-49.65549
-50.88596
-51.73222
-52.23051
-52.2036
-51.29594
-49.13379
-45.42738
-40.1308
-33.48581
-26.00873
-18.42296
-11.48111
-5.812241
-1.795547
0.562027
1.57576
1.763397
1.6772
1.716782
2.013474
2.452927
2.824142
2.970322
2.881821
2.723053
2.714508
3.00592
3.617554
4.443909
5.340607
6.163864
6.797913
7.104538
6.922333
6.136917
4.74115
2.958298
1.083649
-0.5843506
-1.979813
-3.268204
-4.730606
-6.537231
-8.581299
-10.40504
-11.37837
-10.97897
-9.010742
-5.70137
-1.602005
2.59935
6.350662
9.297043
11.35208
12.5966
13.146
13.06302
12.35951
11.0558
9.255798
7.196976
5.229538
3.69632
2.812119
2.634048
3.016525
3.710358
4.454697
5.054764
5.42218
5.598679
5.656937
5.653549
5.590668
5.384933
4.941986
4.152222
2.951797
1.280899
-0.8641052
-3.467346
-6.387787
-9.305557
-11.74438
-13.15495
-13.11261
-11.46902
-8.461121
-4.583191
-0.4396973
3.400024
6.546204
8.78801
10.11797
10.64059
10.53908
9.975555
9.073441
7.875
6.414032
4.797241
3.251556
2.093826
1.549332
1.665344
2.235352
2.91394
3.381332
3.508957
3.316177
2.937317
2.438248
1.795074
0.8915405
-0.3467407
-1.914398
-3.749466
-5.811157
-8.054871
-10.43419
-12.75401
-14.60437
-15.4874
-14.96201
-12.89641
-9.531525
-5.400986
-1.179108
2.591644
5.580856
7.712433
9.013168
9.584381
9.512039
8.87941
7.823471
6.488571
5.046432
3.667206
2.46109
1.496338
0.7753143
0.2501831
-0.2120209
-0.7207794
-1.330795
-2.016037
-2.645248
-3.122314
-3.436661
-3.716263
-4.192596
-5.105469
-6.57132
-8.562698
-10.87805
-13.21161
-15.22694
-16.54898
-16.86078
-15.91788
-13.69397
-10.36996
-6.397934
-2.360321
1.201111
3.945175
5.82962
7.030746
7.782837
8.220474
8.306366
7.899658
6.881744
5.322662
3.524353
1.876175
0.7264252
0.1960297
0.1520996
0.3040466
0.3541565
0.1195984
-0.4047852
-1.131424
-1.969345
-2.883179
-3.884705
-5.007828
-6.275116
-7.716248
-9.321121
-11.08223
-12.93661
-14.72806
-16.19655
-17.00862
-16.85382
-15.51764
-13.0461
-9.669128
-5.828705
-2.012299
1.367889
4.062119
5.96196
7.080658
7.473557
7.218033
6.434036
5.306107
4.082794
2.999405
2.234726
1.79747
1.565063
1.343872
0.983551
0.4726868
-0.1070862
-0.576828
-0.8295898
-0.8975372
-0.9484253
-1.265427
-2.145828
-3.792465
-6.189896
-9.120392
-12.22758
-15.11839
-17.49297
-19.12563
-19.83745
-19.50029
-17.99139
-15.33188
-11.74129
-7.62355
-3.492294
0.2235107
3.311417
5.759567
7.682358
9.119156
9.986176
10.10631
9.402176
7.971375
6.146133
4.350845
2.924042
1.991623
1.470871
1.162445
0.8747864
0.5141754
0.08259583
-0.3693848
-0.7901611
-1.174782
-1.577362
-2.090652
-2.841782
-3.972694
-5.561852
-7.633133
-10.13471
-12.89587
-15.62303
-17.93011
-19.3289
-19.4116
-17.91882
-14.883
-10.63976
-5.727943
-0.7423019
3.837708
7.709328
10.74529
12.89845
14.14612
14.53267
14.11719
13.0485
11.54827
9.876289
8.27887
6.986816
6.152229
5.780327
5.80278
6.028786
6.265961
6.340591
6.150024
5.671165
4.959724
4.079887
3.083771
1.959
0.6189346
-1.060234
-3.212433
-5.927643
-9.153366
-12.64964
-16.02036
-18.81343
-20.5654
-20.94304
-19.77818
-17.04888
-12.95116
-7.844086
-2.26247
3.175293
7.916534
11.59218
14.09933
15.54372
16.18709
16.25456
15.92457
15.27919
14.36337
13.26485
12.10343
11.06411
10.29311
9.891943
9.846476
10.05761
10.37747
10.63683
10.70959
10.49055
9.926182
8.984783
7.746502
6.281759
4.7315
3.183511
1.643801
0.0208168
-1.894089
-4.300857
-7.266176
-10.60173
-13.88549
-16.49895
-17.82361
-17.40211
-15.08859
-11.10647
-5.975851
-0.3844142
5.027904
9.738425
13.45825
16.03763
17.47553
17.85241
17.3305
16.15548
14.65182
13.1692
11.97228
11.20084
10.83818
10.75868
10.78667
10.77604
10.65863
10.41818
10.08065
9.685335
9.260012
8.798219
8.226542
7.426836
6.308845
4.862293
3.181266
1.45153
-0.1924381
-1.751075
-3.401211
-5.426521
-7.95522
-10.83696
-13.54286
-15.35094
-15.62644
-14.05484
-10.80315
-6.406815
-1.542292
3.173946
7.284259
10.52153
12.78624
14.06567
14.47133
14.16247
13.33978
12.1594
10.79211
9.381495
8.053911
7.003449
6.368503
6.215005
6.488938
7.005796
7.531353
7.874878
7.902458
7.546818
6.830063
5.776375
4.44212
2.920767
1.287195
-0.4063447
-2.162424
-3.974713
-5.872161
-7.856045
-9.913418
-12.02906
-14.14968
-16.1315
-17.7042
-18.48985
-18.07081
-16.18611
-12.80205
-8.251015
-3.10032
2.022631
6.556579
10.18611
12.80775
14.48638
15.36093
15.60875
15.38862
14.85018
14.12957
13.28639
12.37045
11.36087
10.24958
9.067111
7.904291
6.848115
5.981304
5.325558
4.836061
4.462372
4.136072
3.771902
3.273533
2.57169
1.624025
0.4826202
-0.7398281
-1.982315
-3.261112
-4.737024
-6.612846
-9.000095
-11.76885
-14.55474
-16.84305
-18.12778
-18.02926
-16.39039
-13.33773
-9.194096
-4.461594
0.2326202
4.323261
7.421764
9.424541
10.50687
10.99473
11.14305
11.07916
10.78276
10.21091
9.388699
8.432446
7.498981
6.679802
6.012562
5.45628
5.007828
4.74836
4.751606
5.01503
5.416813
5.691875
5.540897
4.792194
3.434292
1.687748
-0.155674
-1.837196
-3.199638
-4.304852
-5.31881
-6.525299
-8.095154
-10.08605
-12.35165
-14.55881
-16.23785
-16.92617
-16.30033
-14.2411
-10.9594
-6.866341
-2.498611
1.625465
5.109703
7.76545
9.544014
10.51098
10.73938
10.31206
9.336731
7.967674
6.408531
4.873581
3.556282
2.532433
1.815933
1.346313
1.053703
0.884079
0.8196259
0.8629684
0.9810715
1.097023
1.089745
0.8745956
0.3910065
-0.3097763
-1.139374
-1.990234
-2.802361
-3.597504
-4.475563
-5.617325
-7.142494
-9.077614
-11.26303
-13.38395
-15.01811
-15.73631
-15.2385
-13.41107
-10.41468
-6.581741
-2.412842
1.561378
4.899597
7.318787
8.753197
9.334572
9.299286
8.828636
8.030739
6.875458
5.376152
3.629005
1.883636
0.4782028
-0.3690948
-0.6126862
-0.4042511
-0.02197266
0.3041534
0.3930969
0.160965
-0.4314117
-1.349823
-2.509918
-3.741669
-4.886673
-5.857544
-6.704147
-7.610611
-8.795425
-10.3988
-12.36989
-14.5036
-16.44249
-17.79379
-18.18372
-17.30473
-15.0661
-11.57338
-7.221222
-2.566589
1.743851
5.218246
7.575623
8.791748
9.082382
8.713165
7.94957
6.944351
5.788391
4.486572
3.084061
1.695984
0.4580994
-0.4766388
-1.043213
-1.279099
-1.303909
-1.245132
-1.212585
-1.282364
-1.47377
-1.794327
-2.223679
-2.742737
-3.343201
-4.070343
-5.005493
-6.292831
-8.048798
-10.31056
-12.99431
-15.83656
-18.45566
-20.37581
-21.15918
-20.4819
-18.26338
-14.71722
-10.31419
-5.739761
-1.591309
1.710526
4.035538
5.506073
6.342422
6.681915
6.564911
5.954926
4.829575
3.314667
1.634949
0.09272766
-1.098541
-1.835953
-2.162781
-2.163391
-1.890518
-1.442337
-0.9247284
-0.5667877
-0.5600586
-1.076828
-2.080856
-3.353165
-4.618317
-5.667908
-6.535812
-7.451157
-8.727341
-10.55743
-12.93781
-15.6017
-18.17563
-20.21806
-21.31974
-21.11567
-19.34718
-15.95944
-11.18681
-5.619614
-0.02911377
4.80529
8.326103
10.37145
11.11315
10.92532
10.17274
9.107117
7.857002
6.491089
5.087082
3.753395
2.587601
1.632629
0.8803711
0.2851334
-0.1469955
-0.3858109
-0.3731995
-0.08192444
0.4072266
0.8978577
1.134285
0.876503
0.01872253
-1.420998
-3.307419
-5.502235
-7.904343
-10.54578
-13.47475
-16.67526
-19.94449
-22.84808
-24.77261
-25.1055
-23.46369
-19.87716
-14.79875
-8.998001
-3.297249
1.649612
5.492851
8.183685
9.889153
10.80127
11.07199
10.76523
9.915665
8.611927
7.046234
5.533554
4.401066
3.855236
3.912418
4.349174
4.84454
5.074577
4.881399
4.269335
3.392138
2.378973
1.323885
0.2108841
-1.013811
-2.399225
-4.008159
-5.899884
-8.158371
-10.84414
-13.87729
-16.99678
-19.71492
-21.44776
-21.65912
-20.07357
-16.7378
-12.04708
-6.653143
-1.244457
3.568172
7.433805
10.20191
11.96958
12.91449
13.22774
13.04053
12.43453
11.47333
10.22078
8.806747
7.428028
6.345295
5.781181
5.870293
6.555885
7.579838
8.581734
9.183155
9.154453
8.474209
7.312889
5.91132
4.485817
3.123497
1.739578
0.1374817
-1.914177
-4.525017
-7.514488
-10.39148
-12.36804
-12.57323
-10.36982
-5.587234
1.345825
9.468849
17.56869
24.4673
29.31654
31.71316
31.71116
29.66979
26.12188
21.61066
16.58113
11.34009
6.099525
1.001381
-3.789864
-8.117516
-11.86375
-14.93971
-17.33273
-19.06684
-20.16125
-20.63357
-20.52816
-19.96877
-19.10756
-18.17447
-17.38289
-16.93942
-17.07611
-17.96107
-19.77266
-22.52751
-25.9911
-29.66437
-32.83484
-34.79082
-34.97762
-33.12724
-29.27661
-23.70186
-16.83664
-9.220749
-1.458755
5.803299
11.97029
16.61015
19.55084
20.93996
21.10692
20.47603
19.40509
18.1335
16.79047
15.47482
14.27771
13.28656
12.56935
12.11516
11.81946
11.52135
11.04118
10.30833
9.380478
8.377716
7.421417
6.52507
5.565735
4.296692
2.438324
-0.183136
-3.648682
-7.846954
-12.46909
-17.04608
-20.90717
-23.31174
-23.59442
-21.39291
-16.78448
-10.32413
-2.872314
4.653107
11.5271
17.29358
21.76785
24.93533
26.85809
27.64688
27.46106
26.50446
25.02164
23.25891
21.43378
19.73242
18.29877
17.20404
16.45621
15.97675
15.65149
15.34964
14.94656
14.37427
13.59668
12.60803
11.40695
9.965515
8.23175
6.139435
3.613678
0.6274109
-2.805634
-6.611115
-10.65338
-14.76334
-18.64563
-21.84323
-23.7417
-23.68854
-21.21439
-16.27182
-9.312103
-1.216675
6.985535
14.4191
20.52771
25.13113
28.27197
30.07248
30.63412
30.05844
28.49179
26.19241
23.48795
20.75848
18.31857
16.35242
14.90576
13.91937
13.24997
12.77841
12.39938
12.04211
11.64948
11.13763
10.4321
9.446533
8.143158
6.550781
4.774292
2.917511
1.053284
-0.8875732
-3.093231
-5.798645
-9.114685
-12.84674
-16.45688
-19.13968
-20.09805
-18.80258
-15.19653
-9.702789
-3.078064
3.819641
10.24014
15.63495
19.69986
22.29785
23.4563
23.34253
22.21457
20.4198
18.29117
16.10901
14.04761
12.23505
10.72
9.530151
8.679749
8.105072
7.726654
7.437439
7.15799
6.853516
6.537231
6.182373
5.741455
5.096741
4.102875
2.658447
0.7753296
-1.477112
-3.986694
-6.689178
-9.569122
-12.58731
-15.54373
-18.05786
-19.56482
-19.48672
-17.48151
-13.56213
-8.157715
-1.996399
4.127197
9.550568
13.85016
16.85535
18.57474
19.07034
18.4751
16.97159
14.82513
12.35925
9.951385
7.920044
6.447083
5.568237
5.146393
5.024261
5.067871
5.197968
5.372925
5.527405
5.515259
5.17038
4.354645
3.038239
1.349396
-0.4746704
-2.206177
-3.705597
-5.069122
-6.579956
-8.60025
-11.34396
-14.71268
-18.22144
-21.09088
-22.53235
-21.97238
-19.27621
-14.78024
-9.129883
-3.050537
2.79303
7.922943
12.03946
14.95972
16.58282
16.94827
16.24118
14.77533
12.92609
11.00482
9.217194
7.664124
6.383881
5.417038
4.790314
4.49649
4.42482
4.419266
4.318985
4.066116
3.689804
3.273666
2.835007
2.265213
1.385818
0.02680969
-1.847534
-4.119995
-6.610565
-9.21579
-11.94438
-14.89386
-18.03188
-21.11621
-23.61256
-24.85983
-24.32875
-21.78189
-17.38736
-11.65518
-5.275757
1.000076
6.520996
10.79901
13.57104
14.85997
14.9624
14.32611
13.41191
12.54132
11.80002
11.11316
10.3513
9.468887
8.485672
7.456879
6.426056
5.411285
4.471237
3.711655
3.255386
3.185684
3.4384
3.760559
3.847061
3.420685
2.376907
0.8220062
-1.043243
-3.009918
-4.963928
-6.960846
-9.158096
-11.69592
-14.58963
-17.61411
-20.30003
-22.0298
-22.24953
-20.65387
-17.32169
-12.66595
-7.336853
-1.993958
2.821396
6.803848
9.833801
11.94685
13.24147
13.81572
13.77364
13.23075
12.27801
11.06127
9.726181
8.394211
7.098602
5.860634
4.636124
3.460793
2.434517
1.701523
1.357765
1.3769
1.56057
1.625092
1.325417
0.5534592
-0.6058807
-1.972992
-3.354492
-4.660576
-5.930389
-7.271088
-8.854111
-10.79532
-13.14473
-15.80404
-18.50956
-20.82778
-22.21243
-22.15501
-20.30435
-16.6607
-11.60281
-5.835083
-0.1675568
4.688221
8.288113
10.53238
11.5656
11.6865
11.17572
10.27295
9.123402
7.861599
6.617798
5.510601
4.657799
4.099251
3.852909
3.897282
4.196732
4.683552
5.23177
5.633137
5.623093
4.988544
3.603354
1.561777
-0.9185352
-3.515602
-5.946314
-8.065483
-9.865807
-11.4756
-13.09031
-14.883
-16.88669
-18.98647
-20.81441
-21.83489
-21.53979
-19.57159
-15.96584
-11.13528
-5.80854
-0.7397604
3.479156
6.586421
8.60113
9.67812
9.999695
9.656185
8.715494
7.261014
5.491142
3.695894
2.188234
1.221836
0.8499622
0.9641151
1.306735
1.59333
1.589136
1.164644
0.3764954
-0.6307087
-1.64473
-2.506018
-3.144691
-3.667274
-4.251944
-5.085182
-6.283484
-7.814217
-9.616669
-11.63919
-13.92617
-16.45808
-19.07793
-21.2963
-22.41632
-21.73479
-18.91505
-14.17584
-8.289215
-2.271992
2.954575
6.876537
9.451256
10.92555
11.60931
11.69156
11.23143
10.22274
8.744938
6.945393
5.0485
3.28157
1.805145
0.6954842
0.006656647
-0.2670288
-0.1567535
0.2482414
0.7688293
1.186295
1.300289
0.972477
0.1815758
-0.9547691
-2.266693
-3.559074
-4.72192
-5.791172
-6.971699
-8.533688
-10.74731
-13.70847
-17.24986
-20.92252
-24.07906
-26.01961
-26.17946
-24.30798
-20.47767
-15.17684
-9.087475
-2.994881
2.415035
6.676498
9.598671
11.22152
11.72939
11.35782
10.36079
8.943783
7.334179
5.730495
4.284184
3.139488
2.359066
1.968937
1.945221
2.213467
2.680336
3.189972
3.551823
3.60667
3.266941
2.520191
1.430634
0.09066391
-1.443954
-3.14122
-4.999729
-7.00032
-9.105434
-11.28283
-13.53629
-15.9279
-18.48034
-21.04757
-23.23163
-24.43797
-24.02816
-21.59901
-17.20684
-11.332
-4.817383
1.421051
6.646748
10.41462
12.66079
13.59231
13.60486
13.09674
12.37605
11.58517
10.68208
9.565796
8.1758
6.603466
5.084793
3.881359
3.188175
3.046829
3.343166
3.854565
4.37558
4.694149
4.649269
4.118362
3.02898
1.42112
-0.5541344
-2.654217
-4.60762
-6.255207
-7.654861
-9.069427
-10.84053
-13.2202
-16.13092
-19.09157
-21.32674
-22.03858
-20.70793
-17.3335
-12.40928
-6.737286
-1.137699
3.816824
7.857718
10.93148
13.06742
14.28706
14.552
13.87978
12.37065
10.27821
7.962862
5.772985
3.996832
2.780178
2.123058
1.940422
2.06741
2.334351
2.594065
2.726355
2.666302
2.363491
1.797503
0.9554443
-0.1232433
-1.350729
-2.648718
-4.046314
-5.694416
-7.834481
-10.65508
-14.1065
-17.7954
-21.04388
-23.06085
-23.21414
-21.23417
-17.3047
-11.99994
-6.074717
-0.2879415
4.772089
8.741781
11.51016
13.14355
13.82373
13.72994
13.03728
11.83064
10.18376
8.219323
6.111427
4.103786
2.42293
1.255179
0.6403818
0.5080605
0.6672258
0.9133492
1.041618
0.9310808
0.5487413
-0.07487869
-0.8856068
-1.843706
-2.9517
-4.240181
-5.787094
-7.702482
-10.09024
-13.02745
-16.45436
-20.10755
-23.44592
-25.73708
-26.23375
-24.4397
-20.30954
-14.343
-7.426205
-0.5734596
5.38689
9.983185
13.13747
15.03741
15.96932
16.15977
15.75772
14.83047
13.46352
11.78308
9.95713
8.162907
6.570419
5.288895
4.346783
3.693863
3.21347
2.732338
2.114738
1.286522
0.2787704
-0.80439
-1.827629
-2.781265
-3.759262
-4.976692
-6.64579
-8.888184
-11.6887
-14.90161
-18.31873
-21.70385
-24.76229
-27.08804
-28.18405
-27.546
-24.86992
-20.20533
-14.0088
-7.087059
-0.3093872
5.597275
10.21929
13.47639
15.51282
16.56834
16.85613
16.54422
15.74516
14.58534
13.20267
11.80619
10.5781
9.657066
9.094849
8.811378
8.656639
8.445175
8.061844
7.488098
6.774307
5.986633
5.15094
4.21225
3.078918
1.692047
0.07092285
-1.696152
-3.56488
-5.592331
-7.949432
-10.89554
-14.57762
-18.86382
-23.28554
-27.03516
-29.22127
-29.16983
-26.6398
-21.92325
-15.73203
-8.908478
-2.209396
3.858749
9.009811
13.13524
16.18642
18.16222
19.13889
19.2704
18.80339
17.97676
16.9492
15.79881
14.55116
13.27539
12.10681
11.22859
10.71649
10.58127
10.6911
10.8604
10.91359
10.70325
10.12968
9.119202
7.610977
5.597321
3.15799
0.4104614
-2.493179
-5.465103
-8.56015
-11.91672
-15.6539
-19.70688
-23.72842
-27.04031
-28.81357
-28.35202
-25.33372
-20.01625
-13.14052
-5.712677
1.330017
7.421478
12.39143
16.31667
19.29996
21.32814
22.2977
22.14598
21.01689
19.24075
17.25958
15.41852
13.89191
12.67593
11.72079
11.03174
10.68741
10.7869
11.27643
11.92758
12.4014
12.34265
11.59207
10.2308
8.535858
6.83551
5.375458
4.143677
2.867737
1.121216
-1.473755
-5.094727
-9.550293
-14.34119
-18.71906
-21.8736
-23.10345
-22.00824
-18.56964
-13.1987
-6.654144
0.1792603
6.518127
11.84952
15.98322
18.93295
20.79385
21.58286
21.25626
19.8165
17.46866
14.60242
11.75861
9.418884
7.851868
7.081543
6.935425
7.14502
7.475555
7.753174
7.874084
7.781036
7.447998
6.838165
5.91098
4.635223
3.037323
1.16449
-0.8638916
-2.940918
-5.030365
-7.191803
-9.639832
-12.5827
-16.0394
-19.66705
-22.746
-24.33295
-23.59616
-20.15701
-14.25113
-6.720551
1.300201
8.674622
14.5813
18.64517
20.91357
21.68063
21.34363
20.263
18.72595
16.94131
15.0657
13.23819
11.5936
10.25143
9.305573
8.78775
8.647369
8.750183
8.902161
8.911316
8.616028
7.952484
6.942413
5.630676
4.078552
2.313965
0.3218079
-1.876678
-4.254578
-6.756744
-9.398163
-12.26001
-15.43378
-18.9158
-22.42947
-25.41074
-27.08279
-26.75537
-24.05927
-19.15396
-12.633
-5.345856
1.847534
8.333527
13.7381
17.90997
20.82294
22.49707
23.05746
22.67383
21.63998
20.25751
18.78738
17.3746
16.0947
14.95282
13.94971
13.10651
12.44293
11.97662
11.65524
11.39316
11.05203
10.47153
9.53067
8.138458
6.298737
4.063995
1.571838
-1.034607
-3.586761
-5.999115
-8.277649
-10.58093
-13.18295
-16.35229
-20.16956
-24.33493
-28.16476
-30.72061
-31.10397
-28.84677
-24.06625
-17.46649
-10.05084
-2.821442
3.55658
8.809509
12.93811
16.07263
18.26144
19.48187
19.71616
19.07431
17.84006
16.41339
15.17493
14.32138
13.85168
13.58643
13.30527
12.86096
12.24533
11.56418
10.96613
10.55887
10.36389
10.2847
10.13348
9.679657
8.708649
7.133728
5.023529
2.58728
0.1207581
-2.131897
-4.038544
-5.641663
-7.12265
-8.755066
-10.81937
-13.51181
-16.86066
-20.64905
-24.40305
-27.44348
-29.04678
-28.61951
-25.90045
-21.06906
-14.7086
-7.629227
-0.6777191
5.472076
10.41631
14.03203
16.40039
17.71858
18.21822
18.12903
17.62822
16.86205
15.9446
14.99437
14.15106
13.53163
13.21828
13.23399
13.45126
13.69383
13.77786
13.59828
13.21869
12.80844
12.50188
12.32669
12.13335
11.65479
10.66522
9.081665
7.0224
4.702057
2.338348
0.02952576
-2.225296
-4.473373
-6.750397
-9.076584
-11.49077
-14.12775
-17.1456
-20.59943
-24.31721
-27.75491
-30.11343
-30.58455
-28.62436
-24.22511
-17.94093
-10.73096
-3.624023
2.543381
7.355515
10.76897
13.02095
14.41364
15.15497
15.36929
15.07593
14.30075
13.157
11.82349
10.48958
9.31575
8.36438
7.600952
7.028671
6.666199
6.585556
6.864639
7.457062
8.146942
8.573151
8.386215
7.347092
5.476791
3.029938
0.3991241
-2.053238
-4.122887
-5.790451
-7.177696
-8.467033
-9.868698
-11.52291
-13.52268
-15.8641
-18.40167
-20.83479
-22.67539
-23.35825
-22.38102
-19.49761
-14.83875
-8.931946
-2.552483
3.47271
8.53212
12.30914
14.76523
15.97536
16.04482
15.06869
13.21169
10.77111
8.178963
5.906746
4.284454
3.358902
2.952621
2.780609
2.600914
2.323914
2.01561
1.774956
1.66975
1.649117
1.589233
1.346207
0.8015442
-0.08551025
-1.262505
-2.656952
-4.208271
-5.878101
-7.724499
-9.83382
-12.27591
-15.0523
-18.01826
-20.88059
-23.1964
-24.49663
-24.33833
-22.43806
-18.77053
-13.62372
-7.57106
-1.368771
4.235765
8.696493
11.7408
13.40402
13.8968
13.47599
12.38033
10.77537
8.794244
6.561815
4.255462
2.097139
0.3458204
-0.8136973
-1.27235
-1.08965
-0.4321089
0.4479519
1.294074
1.916724
2.197063
2.053046
1.448396
0.3996077
-0.9894185
-2.513299
-3.929045
-5.090568
-6.062341
-7.165163
-8.828424
-11.33159
-14.57689
-17.98965
-20.66153
-21.61551
-20.19275
-16.24466
-10.21776
-3.012465
4.294249
10.75678
15.7733
19.19747
21.2546
22.37281
22.98063
23.4157
23.88164
24.44506
25.02891
25.36359
24.94903
23.19132
19.59995
14.05344
6.94445
-0.9826736
-8.817074
-15.8796
-21.82841
-26.63844
-30.37508
-33.08409
-34.7357
-35.34631
-35.14064
-34.51079
-33.96397
-33.92088
-34.60663
-35.98735
-37.78082
-39.49805
-40.5144
-40.19095
-38.0545
-33.92548
-28.05229
-21.03384
-13.67623
-6.750198
-0.7939835
3.957664
7.540016
10.13393
11.92144
13.03529
13.53109
13.4229
12.7214
11.48723
9.860092
8.065041
6.376137
5.04863
4.236519
3.9589
4.09845
4.444382
4.754082
4.837757
4.56068
3.864517
2.788376
1.406158
-0.1631737
-1.78104
-3.371132
-4.955086
-6.678814
-8.806782
-11.54867
-14.90585
-18.50842
-21.66447
-23.56056
-23.55059
-21.3748
-17.25473
-11.77713
-5.695778
0.3004379
5.667824
10.09512
13.45753
15.78203
17.17854
17.82384
17.88263
17.50485
16.793
15.84501
14.79203
13.79598
12.98233
12.38723
11.93816
11.51426
11.06372
10.6346
10.36214
10.33327
10.50115
10.65205
10.50933
9.841331
8.585423
6.844051
4.816669
2.682571
0.5566864
-1.523346
-3.618
-5.84655
-8.341949
-11.26528
-14.67455
-18.41978
-22.10699
-25.09314
-26.64408
-26.17844
-23.44939
-18.67623
-12.49218
-5.762159
0.6500854
6.118845
10.35914
13.4162
15.51878
16.89444
17.72395
18.0955
18.03646
17.61949
16.98539
16.29265
15.66591
15.17831
14.81558
14.53588
14.27648
14.032
13.85637
13.81269
13.94473
14.17863
14.32626
14.1143
13.30143
11.80409
9.737835
7.398632
5.120937
3.150333
1.54879
0.2223091
-1.009224
-2.32827
-3.830193
-5.56913
-7.565388
-9.865273
-12.48072
-15.33264
-18.18471
-20.59841
-22.04558
-22.02065
-20.2191
-16.69033
-11.86744
-6.424091
-1.117363
3.485371
7.169151
9.982338
12.15227
13.8699
15.14177
15.81672
