17.6669
14.98676
10.83203
6.613708
3.367432
1.457153
0.6132813
0.2992554
0.07440186
-0.1519775
-0.1983643
0.1832886
1.059967
2.206604
3.241089
3.796265
3.75061
3.24585
2.559296
1.908661
1.284821
0.4996643
-0.6554871
-2.205322
-3.870789
-5.145569
-5.517487
-4.727356
-2.92099
-0.5907898
1.624451
3.190796
3.869751
3.731262
3.058411
2.182617
1.355927
0.7069702
0.2454224
-0.08572388
-0.3836365
-0.7402344
-1.207031
-1.776154
-2.378632
-2.89386
-3.205872
-3.217712
-2.892242
-2.244843
-1.368439
-0.411499
0.4124756
0.9253235
1.034271
0.808136
0.45401
0.2160645
0.2706299
0.612793
1.088562
1.466919
1.551178
1.248718
0.5717468
-0.3768616
-1.463654
-2.486908
-3.2052
-3.368591
-2.824249
-1.63205
-0.1245422
1.171936
1.757782
1.410889
0.3119812
-1.012604
-1.928619
-1.989136
-1.075409
0.6080933
2.724518
4.995209
7.256805
9.464142
11.54776
13.38873
14.84436
15.87112
16.58267
17.19461
17.90274
18.76358
19.75577
20.94992
22.63669
25.25546
29.05496
33.77649
38.57571
42.38614
44.51688
45.08517
44.99524
45.36401
46.71762
48.54745
49.42526
47.72467
42.42169
33.64215
22.6181
11.15253
0.9567566
-6.854401
-12.02063
-15.10037
-17.35278
-20.46017
-26.00232
-34.83871
-46.43909
-58.70184
-68.43958
-72.67068
-70.06693
-61.94312
-52.19571
-45.90598
-47.26794
-57.48602
-74.17377
-92.29163
-106.4398
-113.047
-111.2392
-102.1358
-87.19135
-67.05157
-41.4552
-10.69418
22.91367
54.57893
78.56824
91.00136
92.16502
87.07181
83.43385
88.95636
107.2683
137.5614
174.9715
212.7404
244.7419
267.2501
279.6763
283.5707
281.558
275.7753
266.6669
252.8231
231.8236
201.512
160.6967
111.3919
54.99403
-6.212936
-68.72825
-127.982
-179.111
-218.528
-244.2503
-257.4545
-262.1641
-263.4964
-264.2628
-263.6976
-258.625
-246.6025
-228.9067
-211.5869
-204.2292
-213.9508
-242.714
-285.9415
-333.7965
-374.1908
-395.9088
-391.0997
-357.4764
-298.9098
-224.2644
-144.8666
-69.89836
-3.30925
56.3256
113.0663
170.0697
226.0751
274.762
308.016
320.6469
313.8692
294.4838
270.5911
246.9543
223.2505
195.7329
161.1137
121.0028
79.24521
41.2836
11.44044
-8.920982
-21.46445
-29.20205
-34.94164
-39.59358
-42.2907
-40.98163
-33.74519
-20.16416
-1.792526
18.36705
37.07086
51.97535
62.42136
69.21605
73.72483
77.06097
79.57445
80.90581
80.43231
78.0187
74.3645
70.87897
69.06024
69.54386
71.74651
73.94415
74.08099
70.62801
63.30017
53.24628
42.2285
31.77268
22.18152
12.47268
0.06973076
-17.52258
-42.04175
-73.9766
-112.0737
-153.0301
-191.6349
-220.1987
-232.833
-227.0351
-204.9234
-173.2034
-140.8441
-115.4442
-100.5126
-94.77842
-93.44928
-91.00716
-83.62387
-70.61762
-54.61573
-40.31263
-32.56288
-33.43505
-41.9668
-54.18498
-64.4685
-67.45249
-60.25243
-42.91377
-18.94113
7.155558
32.03906
54.25337
73.68101
90.1611
102.7139
109.8144
110.4646
105.1473
96.08298
86.37221
78.74857
74.45657
72.90771
72.28969
70.53873
66.23302
59.15987
50.40337
41.72665
34.77807
30.47342
28.83074
29.17603
30.7281
32.63244
34.43217
36.06817
37.69804
39.50224
41.5658
43.94222
46.65834
49.65919
52.56502
54.61658
54.73811
51.83035
45.14523
34.7136
21.63532
7.464877
-6.070047
-17.94732
-28.22345
-38.28594
-49.95971
-64.40395
-81.15594
-97.93667
-111.2551
-117.6948
-115.6993
-106.3233
-92.84888
-79.67953
-70.33774
-66.12541
-65.93228
-67.21922
-66.86681
-62.07164
-50.92691
-33.19881
-11.12638
10.03575
23.16483
21.65214
3.357707
-27.01579
-58.7699
-79.06128
-78.88004
-56.89673
-19.92106
20.15589
51.45354
66.60621
64.66553
50.80103
33.29185
19.72715
14.05429
15.30408
18.28229
15.96167
3.51421
-19.23819
-46.95721
-71.19251
-84.61834
-84.69232
-74.62838
-61.2841
-51.58973
-49.27612
-54.5799
-65.00932
-76.48825
-85.879
-92.01482
-95.92477
-98.71235
-100.094
-98.11885
-91.25392
-78.89029
-62.07895
-42.8905
-23.24754
-4.818909
12.10468
27.68095
43.85144
59.64111
74.40469
87.21477
97.14653
103.6907
106.0632
104.8973
101.8986
102.4909
112.6269
137.3685
177.7909
229.8144
284.7181
330.7541
358.7622
354.5101
314.6303
245.5472
161.0012
75.28949
-1.143494
-57.11983
-91.78664
-105.6502
-101.2865
-81.73009
-53.74977
-26.89609
-9.242355
-7.176208
-19.95341
-41.03949
-56.25623
-62.21864
-55.26823
-39.89401
-23.32632
-13.63802
-14.90086
-25.67715
-40.86549
-55.12776
-63.65579
-62.96308
-54.75719
-43.61123
-33.66959
-25.89493
-18.02901
-7.861885
4.922432
17.23736
25.31077
25.62766
17.6534
4.450294
-8.425041
-15.22036
-12.8781
-2.121361
12.55942
25.43458
30.93493
26.23393
12.24427
-6.575233
-22.9537
-29.55499
-21.13778
3.353794
40.44446
83.35017
122.896
149.8119
156.5724
139.6472
100.9048
48.22274
-6.129765
-49.39951
-73.65246
-79.27344
-73.12384
-67.57311
-71.35759
-84.37554
-98.56063
-103.8804
-95.33317
-76.09842
-55.21815
-41.45665
-38.2094
-41.75999
-44.90586
-42.04507
-32.73523
-21.28289
-13.43015
-12.88643
-19.13874
-28.45612
-35.91531
-37.82687
-33.49769
-25.30225
-17.08247
-12.3795
-12.98612
-18.3062
-26.04561
-33.09609
-37.0226
-37.01638
-34.00153
-30.06991
-27.53815
-28.03561
-31.91877
-38.3596
-45.6517
-51.91305
-55.8102
-56.90143
-55.81936
-53.97523
-52.9014
-53.54825
-55.70412
-58.06578
-58.61626
-55.3227
-46.56152
-31.14225
-8.580744
20.616
54.29698
88.14418
116.037
131.8175
131.1354
115.2162
90.15312
64.39238
45.17628
35.60776
34.01808
35.87038
36.99584
35.71992
33.35037
32.35851
34.23239
38.3233
42.11014
42.82231
39.01617
31.5075
22.9574
16.97446
16.07621
20.47461
28.19169
35.72808
39.79942
38.73396
33.18836
25.36831
17.65929
11.38831
6.774105
3.833813
3.047788
5.891994
13.37916
25.35494
39.74857
52.91342
61.50101
64.07104
61.85275
57.18036
52.36368
46.21889
34.3145
11.69466
-22.95104
-64.89235
-103.8114
-127.3312
-127.8805
-106.2504
-71.4446
-36.24628
-10.98211
0.538784
1.557009
-1.517038
-3.351128
-2.475883
-0.8967743
-1.650299
-6.037922
-12.50515
-17.76976
-18.74379
-14.54597
-6.812244
1.274948
6.441048
7.076515
3.795792
-1.090279
-4.768593
-5.263786
-2.260551
2.96003
8.223358
11.56497
12.1085
10.29569
7.556541
5.523567
5.259392
6.875916
9.602684
12.27141
13.87473
14.0331
13.0143
11.536
10.36661
9.974289
10.38447
11.26886
12.15475
12.66223
12.67008
12.27521
11.71326
11.23012
10.95956
10.93149
11.08434
11.31248
11.51155
11.58777
11.46564
11.07713
10.37727
9.356033
8.042313
6.4655
4.61908
2.46756
-0.08555603
-3.16153
-6.854889
-11.21945
-16.24182
-21.83842
-27.91461
-34.44987
-41.52406
-49.33339
-58.11946
-68.1031
-79.36446
-91.80022
-105.1072
-118.962
-133.2023
-147.941
-163.616
-180.8578
-200.2344
-221.9633
-245.7349
-270.684
-295.6407
-319.4142
-341.0991
-360.096
-375.8198
-387.247
-392.4437
-388.7403
-372.4962
-340.0743
-289.0975
-219.4922
-133.9449
-37.40414
64.04979
164.5432
259.2014
344.5332
418.4554
479.9867
529.0463
566.1957
592.0128
606.093
606.209
589.2586
551.7881
492.8374
416.0037
329.559
244.2287
169.6573
111.3267
69.62073
41.19221
21.48817
7.135574
-3.407059
-10.62231
-15.13931
-18.37811
-22.1864
-27.8644
-35.43326
-43.69972
-50.76292
-54.9938
-55.91257
-54.29346
-51.75424
-49.96811
-49.93465
-51.606
-54.06061
-55.9494
-56.17836
-54.39911
-51.08394
-47.24203
-43.9259
-41.76801
-40.77791
-40.43912
-39.97865
-38.76981
-36.58639
-33.63941
-30.4334
-27.49375
-25.16312
-23.4697
-22.21764
-21.08153
-19.7938
-18.25325
-16.52905
-14.79872
-13.24207
-11.98229
-11.0322
-10.32932
-9.780624
-9.306564
-8.861115
-8.426666
-8.01767
-7.624531
-7.265984
-6.934708
-6.619125
-6.324051
-6.04425
-5.78363
-5.535915
-5.301811
-5.078014
-4.870117
-4.671185
-4.487442
-4.307556
-4.139095
-3.980808
-3.82737
-3.687176
-3.544582
-3.418407
-3.293339
-3.176704
-3.061596
-2.955875
-2.853474
-2.756367
-2.660591
-2.575958
-2.484795
-2.406292
-2.327175
-2.250221
-2.184746
-2.10751
-2.04866
-1.982758
-1.922607
-1.861252
-1.808559
-1.752819
-1.702927
-1.651138
-1.601673
-1.559505
-1.514847
-1.471502
-1.428837
-1.391266
-1.352003
-1.313902
-1.283232
-1.242023
-1.212498
-1.182407
-1.146454
-1.119774
-1.089771
-1.064701
-1.035887
-1.011051
-0.9829102
-0.9615669
-0.9363098
-0.9148655
-0.8924294
-0.8732243
-0.8477173
-0.8297539
-0.8170528
-0.7913513
-0.7731915
-0.7548256
-0.7281342
-0.7057514
-0.66539
-0.6286449
-0.5759487
-0.5190239
-0.4451447
-0.3653908
-0.2786922
-0.1770687
-0.07207298
0.03512955
0.1505356
0.2616005
0.3743191
0.4912033
0.6058807
0.7273769
0.8514481
0.9824238
1.122736
1.272736
1.433691
1.612135
1.806763
2.02552
2.264172
2.529968
2.826612
3.159269
3.523766
3.935847
4.391995
4.896655
5.461369
6.080401
6.761457
7.510193
8.326427
9.191895
10.15101
11.19273
12.31417
13.53183
14.82492
16.19547
17.64496
19.16756
20.75105
22.44468
24.21754
26.08008
28.04451
30.08433
32.24602
34.54747
36.9568
39.48148
42.10544
44.75752
47.23088
49.3682
50.91861
51.61222
51.20121
49.35221
45.84026
40.5646
33.47302
24.6828
14.44902
3.135796
-8.745461
-20.22816
-30.9253
-40.31641
-47.98802
-53.7923
-57.76338
-60.11201
-61.16051
-61.47954
-61.04333
-60.06141
-58.67252
-57.05382
-55.43876
-54.09257
-53.24189
-53.02114
-53.3528
-53.90993
-54.4845
-54.87267
-55.10204
-55.46678
-56.31927
-57.92762
-60.2466
-62.9317
-65.56704
-67.96825
-70.46637
-73.63902
-77.8149
-82.42238
-86.20731
-87.90977
-86.91024
-83.43392
-78.1588
-71.37543
-62.59654
-51.1851
-37.02875
-21.61975
-7.727509
1.779758
5.502804
4.237644
0.675869
-1.940647
-1.493958
2.747183
10.25362
20.15555
31.99974
45.82305
61.64701
79.06248
97.17188
114.0174
128.5294
139.8524
147.7018
152.1868
153.7844
152.9373
149.8905
145.2837
138.0853
128.0506
115.0971
99.53295
81.97707
63.28015
44.31134
25.47951
7.768873
-8.608515
-23.2942
-36.075
-46.79159
-55.30027
-61.54425
-65.72248
-68.06454
-68.9991
-69.19543
-69.07761
-69.04243
-69.27294
-69.77523
-70.35399
-70.6965
-70.44516
-69.31624
-67.38201
-64.68034
-61.3748
-57.52172
-52.97687
-47.4348
-40.39067
-31.41013
-20.51249
-8.300165
4.267027
16.06427
26.09247
33.84983
39.45065
43.41439
46.55593
49.28227
51.57418
53.07123
53.33158
52.21927
49.89632
46.94964
44.12614
42.43937
42.75681
46.23423
54.00091
66.35921
81.7509
96.21555
104.1936
99.61526
81.6123
53.63052
22.94991
-2.137453
-15.84256
-17.21716
-9.779209
0.7337217
9.371807
13.93164
14.4147
11.61981
5.823602
-3.422106
-15.41122
-27.02619
-33.14839
-29.12915
-13.82156
8.472125
29.30322
39.88375
35.77301
19.10272
-2.583094
-20.32595
-27.904
-24.20562
-12.78051
0.912323
12.10918
18.51896
19.75778
16.19156
8.10638
-4.255531
-20.41839
-39.3545
-58.37338
-76.18418
-91.56699
-104.0693
-114.3257
-123.8783
-134.1921
-145.3418
-154.9203
-158.3201
-150.746
-129.5841
-96.6209
-58.02349
-22.15278
3.988514
17.41676
19.81419
15.822
10.26817
6.091225
3.738434
2.420101
1.462078
1.197723
2.682999
6.710716
12.91446
20.17755
26.94487
31.93441
34.90401
36.59104
38.29888
41.14773
45.31371
49.91133
53.3334
53.86578
50.429
42.99094
32.56389
20.37315
8.189853
-3.022885
-13.08258
-22.32729
-31.14316
-39.36405
-46.19866
-50.43639
-50.99338
-46.9267
-38.43304
-26.68407
-13.2662
0.0799942
11.97807
21.68555
29.34419
35.74251
42.3862
51.17481
63.59088
79.32705
95.34483
105.9997
104.7932
87.74762
54.86788
10.4865
-38.24729
-83.57728
-119.3319
-141.4581
-148.1402
-139.5799
-117.0419
-84.21535
-46.95126
-12.05827
14.91075
30.93542
36.54626
34.63846
28.4882
21.66325
16.0404
12.10802
9.663788
8.913597
9.397064
10.25951
10.01463
1.537415
-16.34625
-41.50232
-69.612
-95.9119
-113.8431
-122.3909
-123.1394
-119.5158
-116.0204
-112.9485
-109.5412
-103.7289
-93.26775
-74.98843
-48.51663
-16.40404
16.48076
43.66777
64.39142
80.9545
97.20776
117.327
146.9725
189.1839
243.6774
306.3922
368.6361
424.3864
467.6957
493.2105
480.3477
420.4747
321.8849
207.1418
112.8163
41.95595
-11.82776
-55.72305
-96.3756
-133.1396
-159.0044
-166.8901
-153.7673
-122.8051
-84.16006
-47.59723
-22.82727
-16.20341
-26.51801
-45.35245
-64.21797
-79.1885
-91.36646
-105.3495
-121.6838
-137.575
-148.7356
-151.3208
-143.903
-128.8039
-111.0657
-96.25659
-87.89718
-84.77647
-82.86216
-77.40421
-64.03074
-40.9529
-10.26893
22.44348
49.67868
63.93118
61.26068
42.39703
9.496475
-28.29031
-60.0615
-78.2525
-81.52159
-74.12417
-62.76716
-52.53839
-44.87019
-38.26707
-29.72469
-17.58656
-3.265656
10.3514
20.7226
26.83355
29.37089
30.58607
32.42869
35.88503
39.85019
42.13937
41.39286
38.52103
36.80263
38.7352
46.66811
60.68086
78.74872
97.2511
112.5048
122.3114
126.5952
126.9596
126.299
128.5204
137.2132
154.5322
179.3782
207.1923
231.6517
247.7021
254.5878
257.18
264.5131
285.3116
323.4005
374.7718
428.2497
469.4516
486.0593
471.7933
427.7111
360.6393
279.7093
193.3556
107.6872
26.65198
-46.93222
-110.4811
-161.386
-197.5864
-218.8228
-227.0325
-225.8176
-219.4135
-211.1952
-203.0817
-195.8837
-189.904
-185.9241
-185.8896
-192.8636
-210.0834
-239.165
-278.3201
-321.6009
-359.8235
-383.3735
-385.7116
-366.037
-329.7581
-286.3568
-245.7825
-214.9566
-196.0414
-186.7461
-182.4493
-178.5702
-172.2398
-162.5728
-150.139
-136.0095
-121.0573
-105.9224
-91.24072
-77.90186
-67.1828
-59.61121
-53.76031
-45.66809
-30.19495
-3.389832
34.93573
80.10925
123.9466
158.2529
178.7636
187.1525
189.9866
194.9631
206.6551
224.3191
242.5591
254.5388
255.4056
244.1346
223.2273
197.2408
171.0606
149.1985
135.1828
131.032
136.275
147.189
157.0486
157.7803
142.9449
110.4954
63.67822
9.557861
-44.0614
-91.46252
-130.6901
-163.0154
-191.3136
-218.5554
-247.1156
-278.6366
-313.5897
-350.4836
-385.0426
-410.2914
-418.0795
-401.7703
-359.2106
-294.5818
-217.9562
-142.4818
-80.39954
-39.43201
-21.37256
-22.84802
-38.11426
-61.9281
-91.20911
-124.5232
-160.2135
-194.5226
-220.9503
-231.8654
-221.3188
-187.8695
-135.4846
-72.47461
-8.664185
47.51843
90.89856
119.9823
136.2612
142.7751
142.9916
140.0526
136.3358
133.2139
130.8423
127.9977
122.4379
111.6906
94.33966
71.28094
46.16443
24.40308
10.91064
7.565002
12.15271
19.41089
23.60242
21.32861
12.89178
1.558044
-8.374207
-13.71619
-13.4834
-8.506165
-0.4400635
8.866821
17.50085
23.60199
25.82959
24.32141
21.46521
21.15332
27.24481
41.32001
61.08014
80.75861
93.66632
95.51434
86.6217
71.7439
56.72919
46.18164
41.62628
41.43634
42.15015
40.3797
34.12256
23.04755
7.808228
-12.58984
-38.95636
-70.66357
-104.6843
-136.4513
-161.493
-177.2632
-183.7614
-183.1822
-181.6059
-184.3253
-193.4747
-207.1615
-221.2733
-231.63
-235.8155
-233.5446
-226.3625
-220.7374
-222.9709
-236.6668
-261.4424
-294.3638
-331.3161
-368.7109
-403.4626
-410.4093
-373.6585
-292.8173
-185.0915
-73.48752
26.36261
110.7064
182.6861
245.9699
301.4451
343.5464
367.2972
372.3093
367.2793
360.8099
359.0177
363.4601
370.704
374.3008
364.4854
334.9781
286.2646
226.7904
168.4649
122.1432
94.23968
82.66772
81.80299
81.97907
75.6026
59.48212
36.41871
11.31725
-11.62576
-29.00397
-38.4297
-37.54947
-25.61507
-3.558228
24.20262
51.61931
71.41096
78.48897
74.27351
65.35243
60.09462
63.84682
77.2778
96.07071
115.4917
131.5829
133.0428
114.1335
76.757
29.01897
-20.5968
-61.28572
-94.50018
-121.1671
-140.1451
-149.3367
-147.4134
-134.1496
-112.0796
-85.82649
-59.99857
-38.07256
-19.65204
-2.344574
16.69565
40.96481
72.69907
111.4653
153.8319
194.1971
225.614
243.1016
244.1833
229.5703
203.8569
173.6484
144.9857
121.5287
104.0952
91.06932
80.74248
71.8237
63.6982
56.60776
50.82893
45.90703
40.75465
34.2984
25.9353
16.24408
6.513016
-2.027496
-8.613373
-13.29498
-16.90533
-20.52194
-24.91789
-30.20601
-35.76663
-40.74975
-44.54478
-46.96664
-48.16107
-48.37707
-47.73134
-46.19874
-43.70024
-40.38223
-36.79239
-33.72192
-31.87253
-31.51545
-32.30904
-33.53497
-34.4558
-34.74444
-34.55399
-34.43137
-34.7738
-35.36844
-35.25001
-32.95505
-27.14407
-17.00638
-2.39456
16.43528
38.87909
64.10763
90.70671
116.3467
138.1756
153.4586
160.6942
160.0036
153.0466
141.1522
124.5575
102.5425
74.89127
43.48968
13.02025
-9.66246
-18.4238
-10.2872
11.63358
39.6245
63.87955
76.23898
72.83356
54.2731
24.93622
-10.37256
-47.44867
-84.75699
-121.9166
-158.6361
-194.1918
-228.032
-259.9767
-288.4882
-310.6553
-320.6937
-313.6769
-287.5315
-245.7664
-197.6928
-155.9555
-131.0348
-125.7107
-135.7873
-138.796
-115.4274
-58.056
23.70938
109.6706
181.4005
226.1305
251.3564
266.5084
277.7107
283.9133
279.6468
261.381
227.9137
179.7566
121.2568
60.06177
3.154541
-44.35611
-82.54483
-114.9932
-145.5232
-176.9638
-212.6658
-253.2878
-296.8447
-341.3817
-385.3972
-429.3487
-473.3399
-514.2227
-523.311
-481.1017
-386.708
-259.8134
-127.5534
-9.002777
87.91492
158.1668
206.8907
234.1043
232.4926
196.5467
128.2565
38.48036
-52.94801
-125.1525
-162.2467
-157.4885
-116.6338
-56.80702
2.736374
48.14366
75.21506
88.71677
97.24677
109.1062
129.9855
161.2715
200.1807
242.742
283.7133
315.9393
330.6753
319.5047
279.5641
217.2923
147.6283
89.18323
58.08957
62.52698
100.894
164.0752
238.7729
311.8266
372.53
413.5316
431.6647
428.054
407.6148
377.3983
343.9087
310.6854
277.1131
238.4558
189.9535
131.3759
69.26849
15.96645
-15.61601
-17.90541
6.844788
46.76401
82.61519
97.33586
83.29236
44.3222
-7.411102
-58.83734
-101.9484
-136.0099
-165.4663
-199.9536
-247.1607
-310.0776
-386.3029
-469.0951
-550.0414
-620.0573
-670.3618
-693.5958
-691.3271
-670.1146
-639.775
-610.1671
-587.9747
-576.9984
-577.2043
-585.5695
-571.7041
-514.723
-408.9908
-269.3799
-121.8978
13.00378
125.3807
214.5454
279.7174
325.679
348.455
342.9115
307.5702
246.6267
169.7688
85.30849
4.164276
-62.78598
-104.9037
-119.4907
-110.0163
-84.6373
-59.74394
-36.66092
-12.04778
18.65765
58.42241
108.1639
164.0267
220.6649
275.1119
324.1813
366.7034
400.5299
424.9863
441.1375
450.8277
452.8246
443.332
417.7011
372.6553
310.1689
236.2485
160.819
94.59323
45.46716
15.03745
-0.6426506
-8.313354
-13.99639
-19.5454
-24.02502
-25.18956
-21.85826
-15.03933
-7.600643
-2.393806
-0.6744766
-1.936882
-3.939663
-4.413803
-2.203793
2.347225
7.803631
12.35663
14.61179
14.0082
10.66476
4.785696
-3.449772
-14.11881
-27.35793
-43.0454
-60.61366
-79.20879
-96.73653
-112.5111
-126.0202
-137.0935
-145.9003
-153.0229
-159.385
-165.7248
-171.6081
-174.7103
-171.3049
-157.5479
-131.8461
-96.60176
-58.003
-23.75503
-0.1406345
10.47216
10.08893
3.056622
-6.180355
-15.06657
-23.25518
-31.45287
-39.90139
-47.95497
-54.31572
-57.90625
-58.79527
-57.88627
-56.30746
-54.87247
-53.49393
-50.71112
-44.86115
-34.69034
-19.83578
-1.159336
19.74049
40.92872
60.68458
77.32723
90.73717
101.1339
108.8234
114.1438
117.173
118.0841
117.0712
114.485
110.8167
106.6607
102.341
97.93683
93.982
90.20583
86.78374
83.99573
81.94272
80.49035
79.15865
77.46337
74.2211
68.96323
61.89346
54.05376
46.75976
41.10468
37.53274
35.6638
34.46548
32.97431
30.74849
28.13823
26.18653
25.9847
28.34489
33.70003
42.20121
53.37334
65.61052
75.75128
79.39735
72.49391
53.23058
23.58656
-10.77361
-42.44572
-65.25726
-76.53769
-77.76142
-72.84183
-65.77755
-58.88394
-52.44218
-45.75916
-38.46928
-31.1893
-25.07484
-21.19874
-19.39183
-18.31932
-16.34998
-12.20851
-5.83889
1.679169
8.803146
14.35027
17.56081
18.95358
19.86452
21.65041
25.02579
29.64754
34.35379
37.77628
39.11276
37.82036
34.4109
29.90427
25.02409
19.65401
12.60965
1.85849
-15.20764
-36.07268
-59.85841
-85.62068
-112.5414
-139.9362
-166.8538
-191.7536
-212.4773
-226.8765
-233.7342
-233.9657
-229.1791
-220.4465
-207.1281
-186.8473
-156.8631
-116.1629
-66.87663
-13.84605
36.72948
80.28085
114.988
141.1634
159.6697
170.6015
173.2333
167.2611
154.2803
137.9153
123.258
114.8367
114.7421
121.7665
131.8724
139.7372
140.5688
131.4588
111.8514
83.49141
49.4351
12.79987
-24.36346
-61.42021
-98.71021
-136.4217
-173.3795
-206.5112
-231.2462
-242.8032
-237.8404
-215.5921
-178.0527
-129.3168
-74.39667
-18.35977
34.17308
79.06198
112.8579
133.3336
140.2341
135.8454
124.7053
112.3881
103.712
101.3398
105.2947
113.6116
123.4796
132.3298
138.526
141.4077
141.1079
138.2805
133.8521
128.8481
124.3305
121.2339
120.106
120.8689
122.5627
123.247
120.2799
110.8519
92.90369
66.08371
32.23224
-4.751831
-40.09134
-69.58325
-90.76843
-103.3372
-108.3945
-107.3893
-101.2399
-90.26675
-74.9281
-56.97928
-39.8588
-27.90823
-24.5578
-30.77863
-44.74042
-63.08325
-82.70123
-101.8727
-119.9893
-136.2652
-148.7399
-154.2245
-149.4548
-132.5938
-104.3294
-68.17499
-29.72174
4.539673
28.74725
39.17224
35.39856
20.6853
1.039368
-16.92664
-28.39063
-32.05078
-29.91888
-25.53125
-21.87854
-20.18658
-20.07147
-20.67432
-21.64728
-23.2926
-26.0556
-29.87433
-33.97882
-37.28662
-39.01215
-39.11615
-38.39856
-37.92871
-38.38287
-39.46832
-39.96857
-38.22949
-33.06561
-24.48767
-13.88202
-3.591003
4.009033
7.392761
6.389526
2.060608
-3.779053
-9.2771
-13.03259
-14.33826
-13.1991
-10.15808
-6.138123
-2.114197
1.133972
3.344543
4.799377
6.204834
8.264343
11.26147
14.73877
17.64606
18.82098
17.61438
14.37646
10.40741
7.440857
6.856445
8.93573
12.66187
16.10614
17.31433
15.28955
10.64532
5.462158
2.480469
3.844727
9.998718
19.32892
28.72021
34.77576
35.33795
30.47211
22.59497
15.80328
14.91272
24.11035
45.60632
78.54999
118.1902
156.2719
182.8484
189.524
173.1497
138.0791
95.3786
58.84369
39.67841
41.9942
61.76337
89.35162
113.9547
127.8237
127.9861
115.4499
93.02466
63.10156
26.44489
-17.63007
-70.13409
-130.7318
-196.1091
-259.3829
-310.82
-339.8927
-337.9951
-301.053
-230.4833
-133.0787
-19.24377
98.70117
208.4563
299.4641
364.217
399.157
405.0811
386.7874
351.7332
308.2374
263.5835
222.3953
185.8571
152.0639
117.191
77.14258
29.6366
-24.93994
-83.74072
-143.1356
-200.6367
-256.0576
-310.9716
-367.2515
-425.0198
-481.3705
-530.7219
-566.4648
-583.3025
-579.2499
-556.3656
-520.0596
-476.7401
-431.548
-386.8135
-342.1538
-295.8372
-246.6212
-194.9341
-142.5735
-91.50623
-42.6333
4.923584
53.29297
104.3441
158.2238
213.4586
267.4748
318.0074
363.6824
403.704
436.8014
460.517
471.3201
465.9552
443.105
404.2229
353.3029
295.3073
234.6667
174.4752
116.8751
64.12616
19.34015
-13.68347
-31.95007
-35.24341
-27.52112
-16.48438
-11.20782
-18.62012
-40.73315
-73.6557
-109.5491
-140.3687
-161.3928
-172.7581
-178.2404
-182.0245
-185.3759
-185.1224
-175.1385
-149.9622
-109.032
-58.88879
-11.74829
19.47382
27.59412
15.28125
-5.590942
-19.49994
-15.23053
8.371399
42.13055
71.539
84.14026
75.12421
48.30914
12.59509
-23.50238
-55.75415
-84.57367
-112.1411
-138.8179
-161.3971
-174.1003
-172.1058
-154.6187
-125.8075
-92.91998
-62.50555
-37.02875
-14.07092
11.15509
41.59583
75.0473
104.0978
119.5114
115.2028
91.79431
56.80945
21.47485
-3.679016
-12.3302
-3.822449
17.60699
45.00043
71.12976
90.76373
101.8359
105.4132
104.2834
101.3344
98.05811
94.47485
89.97015
84.47937
79.23541
76.32007
77.5174
83.06592
91.4632
100.1521
107.0803
112.1108
117.5157
127.3805
145.9702
175.9313
216.6533
263.7899
310.2
348.3434
372.9651
382.8455
380.7139
371.4547
359.6414
347.8754
336.6243
325.2712
313.6436
302.697
293.7305
288.239
287.0096
289.5572
294.1787
298.6475
301.197
301.3085
299.5223
296.345
291.9207
285.3896
274.7356
257.158
229.9425
191.8784
144.0582
89.51074
31.06775
-28.37451
-86.79089
-143.6837
-200.2203
-258.3165
-319.0502
-381.2551
-442.0745
-501.0344
-556.9011
-607.8914
-652.5474
-691.1978
-726.304
-761.0215
-797.1038
-834.9893
-879.3352
-928.9731
-975.2632
-1004.676
-1005.848
-974.9521
-916.9805
-843.1584
-769.3613
-720.0696
-708.0295
-728.5435
-763.4622
-793.5859
-808.796
-809.8192
-802.4702
-794.7617
-803.2522
-831.8352
-870.22
-901.6017
-915.7123
-914.5441
-907.5446
-901.9877
-811.7858
-599.1283
-289.6339
42.83228
330.4855
542.5483
678.9263
743.9646
767.6165
770.4417
751.2968
709.4222
650.999
588.4155
533.2904
490.0021
458.2231
437.9639
426.4793
411.0361
383.9375
345.7986
303.7709
265.2978
234.0377
210.9966
197.7906
193.9048
192.276
188.4532
182.507
178.0589
178.6747
185.7273
199.4633
221.0194
250.2888
283.5994
317.5422
349.6381
378.2003
401.5657
417.8175
425.8746
426.4878
420.954
409.9763
395.0433
378.6187
363.4188
350.6471
338.1749
320.4937
290.8168
244.183
181.1588
109.0422
39.62805
-15.48315
-49.62463
-63.26086
-62.45593
-55.05664
-46.75488
-39.48059
-32.33826
-23.87341
-13.83521
-3.258301
6.740845
16.26123
27.00745
41.60364
62.43933
90.33972
123.8571
159.2433
191.4332
215.3198
227.2982
226.394
214.3649
194.8729
171.8566
148.2511
125.3221
103.2809
82.21741
62.8147
46.23767
33.1156
22.28564
10.22522
-7.883789
-36.2135
-75.52832
-121.8608
-167.1115
-201.6073
-217.5435
-211.7679
-186.7831
-149.6288
-109.2185
-73.34497
-46.61011
-29.8501
-21.07593
-17.2113
-15.60205
-14.94275
-15.11523
-16.52332
-19.27087
-22.81299
-26.21851
-28.77979
-30.65588
-32.76294
-36.10156
-40.90088
-46.15283
-49.87549
-50.1665
-46.15845
-38.31152
-28.33069
-18.26172
-9.519897
-2.330811
4.282471
12.12268
23.16406
39.02869
60.46838
86.93201
116.4409
145.7706
171.2141
189.6313
199.4724
201.1993
196.8759
189.0286
179.5115
168.9696
157.1841
143.9165
129.6235
115.5417
103.1206
93.26392
85.97217
80.52246
76.08545
72.21558
68.88867
66.18091
63.94556
61.6355
58.52466
54.11401
48.31567
41.47803
34.13208
26.77417
19.76733
13.36902
7.73645
2.897949
-1.306763
-5.266479
-9.492188
-14.39807
-19.99719
-25.86938
-31.2417
-35.3208
-37.55066
-37.82324
-36.38977
-33.65515
-29.92761
-25.36377
-20.13647
-14.67773
-9.800537
-6.507935
-5.694458
-7.693115
-12.10352
-17.93079
-24.06433
-29.69849
-34.59729
-38.99866
-43.25098
-47.53406
-51.78284
-55.80261
-59.50562
-63.04077
-66.69043
-70.64856
-74.8457
-78.89746
-82.21008
-84.21704
-84.54553
-83.07849
-79.89868
-75.10547
-68.72119
-60.68848
-50.95129
-39.58752
-26.91492
-13.45361
0.2053223
13.5835
26.42322
38.65137
50.16968
60.74316
69.89343
77.13367
82.10669
84.81006
85.526
84.67188
82.58472
79.45544
75.38416
70.5824
65.43433
60.40039
55.86389
51.85852
48.09998
44.15137
39.7041
34.79211
29.79407
25.29138
21.80408
19.60022
18.66577
18.77307
19.53455
20.52026
21.23926
21.21375
20.06824
17.61279
13.96741
9.546387
4.926025
0.7049561
-2.683472
-5.099731
-6.717407
-7.865479
-8.88269
-9.848877
-10.56775
-10.5752
-9.379395
-6.736938
-2.83606
1.687256
6.018188
9.532959
12.13171
14.27686
16.73303
20.08264
24.29028
28.46204
31.09705
30.73633
26.59851
19.08813
9.671387
0.2756348
-7.314697
-12.45789
-15.89063
-19.35364
-24.58801
-32.36646
-42.10889
-52.05957
-59.8562
-63.15942
-60.73376
-52.96497
-42.00061
-31.38416
-25.09973
-26.32361
-36.16919
-52.69043
-70.5708
-83.31616
-85.77942
-76.29529
-57.34399
-34.30811
-13.25854
1.41272
8.774048
12.9574
19.8905
34.5321
58.52148
89.651
122.864
151.7509
170.0079
173.905
166.3361
153.027
140.0481
131.491
128.9957
132.5482
141.0635
152.4341
165.8191
186.1454
217.4139
259.5015
306.606
349.8427
381.691
398.7224
401.2745
395.0551
394.2146
410.7806
449.723
506.9746
572.6556
636.267
689.7205
727.2428
705.4897
601.6441
423.6133
210.9525
10.23511
-150.1207
-264.7856
-334.7207
-378.6529
-407.7517
-420.2801
-413.4696
-389.2029
-355.9479
-324.517
-302.5106
-292.6025
-294.5715
-304.0975
-311.743
-310.6295
-299.1465
-281.3975
-263.9998
-252.004
-247.2075
-249.4621
-255.7012
-259.6981
-256.9263
-246.3459
-230.9529
-215.7909
-205.3138
-202.2727
-208.3394
-223.7203
-246.4087
-273.8761
-303.2766
-331.6111
-355.5683
-371.4717
-376.3463
-369.305
-352.5601
-329.8084
-305.2825
-282.3091
-262.6978
-246.7541
-233.6837
-222.4858
-212.5662
-205.2455
-201.3424
-199.877
-197.6202
-190.2353
-174.3591
-149.2747
-117.3566
-82.56308
-50.89902
-26.14365
-8.80127
2.959717
11.03128
15.48413
14.73642
7.057739
5.054535
18.39069
51.01263
98.02994
149.4645
196.2672
233.0853
258.4048
271.9804
277.4741
274.8745
263.0697
241.386
211.1372
175.731
139.6229
109.669
91.4071
87.9617
97.09068
114.0153
133.4193
151.1217
164.4196
171.3852
170.3413
159.5436
138.4373
107.1989
68.76485
28.40939
-7.789383
-35.17577
-52.0842
-59.85045
-61.87488
-61.56796
-61.65921
-62.89098
-64.45973
-65.10532
-64.11185
-61.82877
-59.22865
-57.25391
-56.01805
-55.02361
-53.3103
-50.12167
-45.34761
-39.56947
-33.71445
-28.5907
-24.65694
-21.89664
-19.96298
-18.32108
-16.41048
-13.8174
-10.37294
-6.212769
-1.73175
2.476776
5.917908
8.323669
9.76413
10.61707
11.40894
12.63181
14.59964
17.37656
20.90753
25.09473
29.93872
35.56763
42.19385
50.07265
59.5412
71.03777
84.92499
101.0678
118.3254
134.2804
145.6381
149.2218
143.3128
128.5503
107.8857
85.43275
64.77847
47.5452
32.99591
18.80627
2.447998
-17.51428
-40.84814
-65.96768
-90.66782
-112.8766
-130.9923
-143.921
-150.9699
-151.9196
-147.0712
-137.4609
-124.8409
-111.2906
-98.73032
-88.37827
-80.47406
-74.41739
-69.18979
-63.89423
-58.17511
-52.30667
-46.99487
-42.94812
-40.49393
-39.42697
-39.13373
-38.90344
-38.2225
-36.85406
-34.77814
-31.99765
-28.41644
-23.92767
-18.57581
-12.6954
-6.861481
-1.768829
1.971283
3.966248
4.071198
2.354065
-0.9832153
-5.496155
-10.55478
-15.27029
-18.65921
-19.81924
-18.23489
-13.92709
-7.516663
0.0009765625
7.492126
14.06537
19.24808
22.97531
25.45764
26.90106
27.37604
26.83014
25.16626
22.49649
19.1749
15.72351
12.60974
10.08798
8.121552
6.565887
5.292023
4.255402
3.330841
2.211548
0.4394531
-2.278778
-5.648071
-8.594025
-9.567627
-7.128204
-0.6847534
9.273041
21.39139
34.07623
46.0274
56.41916
64.60846
69.80014
71.03064
67.51349
59.24013
47.29153
33.65964
20.59125
9.767731
1.777252
-3.933716
-8.605469
-13.47101
-19.18915
-25.62747
-31.99133
-37.23923
-40.54022
-41.55869
-40.52423
-38.20523
-35.88
-35.2659
-38.31798
-46.64407
-60.63155
-78.64282
-96.83485
-109.9451
-113.0008
-103.1845
-80.87709
-49.34802
-13.45746
22.06818
53.61125
78.82169
96.0981
104.2238
102.572
91.67686
73.847
52.85524
33.0412
17.92345
9.303818
7.026794
9.580521
15.00388
21.62946
28.37251
34.66049
40.22023
44.90327
48.64914
51.37361
53.03221
53.54692
52.88661
51.22943
49.02565
47.16098
46.70125
48.50581
52.73947
58.52075
64.04593
67.10309
65.9836
60.10536
50.31934
38.55569
27.18843
18.40738
13.6797
13.53914
17.46373
24.02142
31.06024
36.26164
37.76587
34.80833
27.86832
18.43474
8.255661
-1.372253
-10.01941
-18.22559
-27.20291
-38.38196
-52.90097
-71.12088
-92.33148
-114.6571
-135.4745
-152.0557
-162.3956
-165.6705
-162.2942
-153.4351
-140.4069
-124.3434
-106.2307
-87.20282
-68.67615
-52.13696
-38.53336
-27.93958
-19.57178
-12.38541
-5.858246
-0.3384094
3.140198
3.682739
1.338989
-2.566177
-5.886642
-6.688446
-4.195831
0.9123383
6.988434
12.29344
15.86421
17.73775
18.62775
19.26424
19.97424
20.58623
20.69905
20.06541
18.80319
17.37143
16.35112
16.17336
16.93234
18.39316
20.1967
22.0696
23.89967
25.66006
27.22089
28.24118
28.09129
26.14716
22.13435
16.40634
9.882446
3.657974
-1.626801
-6.258698
-11.46098
-18.8839
-29.63482
-43.48284
-58.59702
-72.093
-81.08427
-83.84236
-80.24292
-71.42546
-59.09522
-44.97752
-30.82792
-18.54696
-10.0416
-6.451283
-7.277714
-10.041
-11.06756
-7.27869
2.060471
14.63431
25.97674
31.53379
28.66851
17.49646
0.4777269
-18.86465
-37.18863
-51.77398
-60.50699
-61.7665
-54.57143
-38.97922
-16.50369
9.869072
36.14741
58.11034
72.4841
77.88915
75.30135
67.80264
59.4941
53.93806
52.8329
55.49432
59.38663
61.56712
60.13361
55.16336
48.60294
43.25491
41.3351
43.3754
47.92248
52.20395
53.443
50.00912
42.10844
31.5466
20.78104
11.76595
5.21756
0.5867462
-3.307983
-7.342346
-11.6028
-15.41336
-17.87953
-18.50214
-17.49754
-15.51332
-13.04492
-10.02556
-5.671783
1.03064
10.62025
22.52888
34.9606
45.3528
51.27097
51.40289
46.19406
37.76566
29.19566
23.43079
22.3613
26.31648
34.15472
43.70966
52.41267
57.76714
57.93903
51.98096
40.10567
23.60176
4.536697
-14.70911
-32.06219
-46.07217
-56.08277
-61.96146
-63.88469
-62.18933
-57.45761
-50.68379
-43.27709
-36.89795
-32.95248
-32.23743
-34.60789
-38.87466
-42.97025
-44.32315
-40.49399
-30.03551
-13.38438
6.638199
25.18826
36.83022
37.36806
25.54842
3.680649
-23.1535
-48.8223
-68.11655
-78.03718
-77.96671
-68.94976
-52.77487
-31.33412
-6.495682
19.55519
44.13812
64.19969
76.84181
80.06999
73.51239
58.67378
38.73422
17.91612
0.4140472
-10.61729
-13.68568
-9.083191
1.605194
16.22514
32.65833
49.091
63.84642
75.03595
80.54668
78.41548
67.67662
49.07927
25.28517
0.2576904
-21.87999
-38.0618
-47.00624
-49.1416
-45.99005
-39.39543
-30.95876
-21.87619
-13.01416
-5.036499
1.543121
6.481888
9.828415
11.92911
13.28642
14.38892
15.5054
16.53818
17.00533
16.08871
12.93761
7.100647
-1.188217
-10.8864
-20.43251
-28.31802
-33.67441
-36.58041
-37.97633
-39.08043
-40.75005
-43.0182
-45.14992
-46.11746
-45.27663
-42.7966
-39.62318
-37.01329
-35.93791
-36.66782
-38.71609
-41.15337
-43.05615
-43.6897
-42.61484
-39.54193
-34.33913
-27.17203
-18.70639
-10.12701
-2.864471
1.903168
3.655029
2.705994
-0.0506897
-3.575195
-6.991638
-9.701538
-11.19485
-10.97348
-8.607513
-4.015747
2.195343
8.786652
14.21591
17.3248
17.81064
16.34503
14.16553
12.40805
11.66382
11.75156
12.05225
11.94791
11.16977
9.91449
8.749298
8.475037
9.973633
14.14276
21.67361
32.80847
47.08322
63.28317
79.57407
93.93542
104.6147
110.5135
111.3626
107.6619
100.5288
91.36945
81.62604
72.53885
64.93182
59.13538
55.02023
52.1409
49.95715
47.94949
45.71606
42.97235
39.56458
35.48434
30.8732
26.00607
21.16785
16.52298
12.03708
7.443298
2.386597
-3.396912
-9.900421
-16.74606
-23.31219
-28.92963
-33.18567
-36.10742
-38.17776
-40.09418
-42.45135
-45.40894
-48.53107
-50.9245
-51.55133
-49.70444
-45.24695
-38.75403
-31.26657
-23.98376
-17.90479
-13.52875
-10.85556
-9.46347
-8.752747
-8.241608
-7.681
-7.073334
-6.587921
-6.350159
-6.337646
-6.411652
-6.347534
-5.933197
-5.067322
-3.775269
-2.268707
-0.8994141
-0.09420776
-0.253418
-1.536102
-3.838806
-6.742401
-9.700928
-12.21011
-13.98386
-14.99091
-15.39569
-15.42282
-15.35913
-15.53735
-16.30414
-17.90802
-20.26938
-22.90939
-24.99622
-25.62335
-24.26511
-20.92935
-16.22299
-11.03561
-6.21109
-2.266846
0.6851501
2.786041
4.254211
5.227509
5.744293
5.809082
5.549957
5.252747
5.400818
6.495117
8.883453
12.56967
17.14667
21.90118
26.07236
29.15964
31.04932
31.93527
32.08411
31.55637
30.07022
27.11548
22.2233
15.24155
6.471954
-3.466339
-13.86938
-24.25192
-34.37225
-44.06845
-52.95448
-60.22618
-64.72656
-65.28564
-61.22159
-52.66681
-40.66522
-26.91235
-13.20087
-0.9450989
9.103424
16.78427
22.27573
25.73911
27.14554
26.36343
23.34494
18.40384
12.27591
5.919037
0.2481689
-4.117004
-6.913605
-8.096893
-7.640167
-5.420654
-1.290497
4.728973
12.20346
20.16168
27.21317
31.81552
32.75485
29.45456
22.2009
12.01566
0.306427
-11.50195
-22.24188
-31.09943
-37.50162
-40.93991
-40.99539
-37.4967
-30.75565
-21.70996
-11.78387
-2.464752
5.104645
10.45789
13.80896
15.79282
17.18182
18.60114
20.43039
22.71756
25.22354
27.43863
28.66837
28.18884
25.50034
20.55945
13.8746
6.420502
-0.6270142
-6.126343
-9.224945
-9.432556
-6.63208
-1.108154
6.444733
14.88791
22.74692
28.41754
30.53729
28.31409
21.79767
11.87122
0.08886719
-11.65353
-21.55475
-28.21347
-30.92914
-29.69962
-25.17542
-18.43454
-10.71143
-3.164215
3.277832
7.973114
10.63788
11.31979
10.45978
8.833771
7.412659
7.155182
8.735504
12.31561
17.47818
23.33087
28.7222
32.5907
34.19669
33.25201
29.97458
24.94772
19.01666
13.08865
7.995544
4.399597
2.710632
3.020569
5.077911
8.336426
11.99365
15.18076
17.15521
17.496
16.14102
13.34198
9.54483
5.187897
0.6277771
-3.941956
-8.447266
-12.88646
-17.29245
-21.66876
-25.92517
-29.82368
-32.94681
-34.7603
-34.74983
-32.59525
-28.2533
-22.03288
-14.49811
-6.416855
1.413528
8.258041
13.60222
17.22574
19.19206
19.79649
19.40746
18.36513
16.94366
15.35875
13.82027
12.55505
11.7099
11.29028
11.16682
11.11035
10.96576
10.71468
10.46144
10.33957
10.33447
10.26656
9.866943
8.928146
7.389648
5.412781
3.261505
1.170959
-0.7270508
-2.486374
-4.264938
-6.300201
-8.777985
-11.74896
-15.08449
-18.41977
-21.19827
-22.7834
-22.66141
-20.60289
-16.75749
-11.60023
-5.806076
-0.0480957
5.128342
9.384659
12.55746
14.62166
15.61821
15.64748
14.87244
13.49585
11.80142
10.06859
8.521225
7.294876
6.350227
5.578278
4.87207
4.215988
3.709457
3.502724
3.690842
4.127724
4.489243
4.358582
3.439316
1.68853
-0.636673
-3.111862
-5.305702
-6.993118
-8.16629
-9.019676
-9.876755
-11.06581
-12.83981
-15.25979
-18.13004
-20.97547
-23.08949
-23.77805
-22.54819
-19.38308
-14.69712
-9.243244
-3.810741
1.025383
4.997025
8.065475
10.35798
11.99684
13.05334
13.58403
13.63701
13.23822
12.41564
11.21425
9.716431
8.041016
6.291872
4.519735
2.744827
0.9631538
-0.7247219
-2.110571
-2.976248
-3.218122
-2.990703
-2.67816
-2.727077
-3.433768
-4.766505
-6.432803
-8.016356
-9.219187
-9.93136
-10.25679
-10.42431
-10.72853
-11.40592
-12.67503
-14.62705
-17.09427
-19.67141
-21.66576
-22.32453
-21.09264
-17.84207
-12.93709
-7.14735
-1.345848
3.749828
7.745335
10.60644
12.51233
13.64776
14.08899
13.78486
12.6558
10.76689
8.387657
5.948399
3.907558
2.533817
1.854733
1.71006
1.858459
2.082947
2.292778
2.440449
2.431171
2.144417
1.449379
0.278862
-1.230881
-2.851242
-4.287575
-5.345169
-5.998466
-6.390244
-6.728149
-7.186234
-7.89463
-8.891411
-10.24487
-12.02927
-14.2262
-16.59727
-18.64787
-19.70898
-19.21677
-16.9381
-13.06544
-8.185638
-2.985161
1.915123
6.139023
9.497452
11.93711
13.44655
14.06519
13.91137
13.15108
11.99479
10.57883
9.003319
7.318031
5.600807
3.993301
2.621223
1.61396
0.9987869
0.7707214
0.8993301
1.32254
1.937027
2.590088
3.026184
2.951401
2.157623
0.6219025
-1.44043
-3.726669
-5.890945
-7.727936
-9.219589
-10.48582
-11.72304
-13.09665
-14.69443
-16.54312
-18.59309
-20.67014
-22.47194
-23.54968
-23.37949
-21.6149
-18.18842
-13.44321
-8.063232
-2.805466
1.690384
5.098969
7.428787
8.904068
9.818741
10.36766
10.61049
10.49358
9.924957
8.896103
7.456451
5.720047
3.850586
1.955261
0.1312408
-1.498245
-2.813431
-3.702332
-4.117905
-4.148178
-4.010086
-4.00827
-4.39801
-5.30722
-6.638565
-8.124146
-9.435989
-10.32156
-10.8165
-11.26215
-12.25661
-14.40019
-18.03975
-23.00131
-28.55359
-33.50937
-36.50627
-36.32591
-32.19402
-24.03188
-12.55806
0.796936
14.14598
25.58032
33.61269
37.56317
37.60977
34.60997
29.69945
23.97455
18.29202
13.35901
9.811707
8.25148
9.120438
12.42981
17.6557
23.839
29.83606
34.6869
37.78404
38.92686
38.12476
35.45758
31.0052
24.95425
17.6769
9.801865
2.116623
-4.597321
-9.817703
-13.37302
-15.50333
-16.79153
-17.99217
-19.7663
-22.47729
-25.99947
-29.67101
-32.50656
-33.5155
-32.10501
-28.32036
-22.81126
-16.62492
-10.75407
-5.859421
-2.089127
0.7462463
2.965149
4.688858
5.768539
5.82724
4.529572
1.837082
-1.950531
-6.220825
-10.29121
-13.65982
-16.0733
-17.52353
-18.10561
-17.94496
-17.14214
-15.88022
-14.46204
-13.31833
-12.884
-13.42969
-14.92982
-17.02203
-19.17484
-20.91451
-22.01221
-22.55032
-22.82893
-23.20723
-23.86862
-24.74878
-25.52625
-25.78409
-25.10365
-23.29021
-20.35236
-16.60057
-12.53047
-8.761383
-5.865723
-4.141281
-3.426147
-3.033356
-1.981659
0.6298218
5.186752
11.36218
18.2159
24.58014
29.54863
32.76944
34.46027
35.1154
35.16522
34.7925
33.99533
32.73483
31.12271
29.4175
27.92267
26.77361
25.90106
25.01418
23.73906
21.76062
19.01631
15.75313
12.54982
10.09213
8.884171
8.948074
9.705048
10.12083
9.239685
6.717667
3.240341
0.374176
-0.02175903
3.409073
10.83337
21.01358
31.73245
40.45041
45.19759
45.18677
41.11076
35.08307
30.21048
29.8502
36.55862
50.87971
70.4839
90.22919
103.4033
104.0649
89.36404
60.94186
24.45856
-12.47653
-43.17258
-64.03568
-75.19742
-79.53772
-80.72446
-81.60791
-83.45267
-86.22705
-89.27917
-91.88867
-93.22955
-92.17941
-87.32141
-77.32605
-61.72672
-41.59045
-19.61624
0.4742432
15.09882
22.01086
21.00668
13.83743
3.498871
-6.895081
-15.00342
-19.78445
-21.46313
-21.05139
-19.7449
-18.35562
-17.15454
-15.88684
-14.10342
-11.51804
-8.251831
-4.835205
-2.021759
-0.520874
-0.7228699
-2.613281
-5.784119
-9.622223
-13.46552
-16.72879
-18.97794
-19.92392
-19.40179
-17.44119
-14.32233
-10.5524
-6.78717
-3.630798
-1.428284
-0.1743164
0.428894
0.7920837
1.212555
1.739075
2.221283
2.388885
2.003357
1.030579
-0.3737183
-1.87677
-3.033936
-3.42041
-2.741119
-0.8804626
2.048889
5.758179
9.849213
13.85651
17.26801
19.59369
20.42978
19.58752
17.17169
13.59561
9.475067
5.527771
2.292786
0.05657959
-1.183258
-1.66272
-1.718475
-1.664276
-1.753143
-2.083954
-2.602936
-3.160858
-3.573883
-3.780151
-3.886932
-4.154938
-4.872192
-6.177856
-7.992188
-9.99942
-11.85733
-13.36597
-14.55475
-15.62613
-16.72601
-17.75058
-18.2627
-17.62946
-15.31329
-11.15353
-5.514313
0.805481
6.817444
11.70552
15.02045
16.80083
17.39445
17.26332
16.74887
16.0235
15.09505
13.93245
12.56233
11.14479
9.923767
9.135178
8.922867
9.239334
9.913498
10.71272
11.40018
11.84575
12.00557
11.88109
11.49025
10.82018
9.866257
8.689728
7.395279
6.095215
4.873474
3.688705
2.440979
1.052948
-0.4179077
-1.744904
-2.547379
-2.446304
-1.205063
1.185532
4.465027
8.18045
11.81773
14.93449
17.25047
18.69835
19.35724
19.37856
18.93906
18.12843
16.98833
15.53242
13.81726
11.91705
9.948257
8.032059
6.230347
4.60936
3.177109
1.939331
0.9311523
0.1678162
-0.332428
-0.586853
-0.7221832
-0.9544983
-1.51239
-2.599457
-4.256912
-6.369629
-8.717712
-11.05887
-13.19611
-14.98691
-16.29868
-16.98431
-16.90785
-15.98589
-14.26463
-11.90161
-9.103119
-6.052658
-2.901443
0.2192383
3.132248
5.568024
7.246765
7.981461
7.723816
6.606339
4.862091
2.713058
0.4046631
-1.869904
-3.923889
-5.595459
-6.805664
-7.583023
-8.046295
-8.391937
-8.800842
-9.431366
-10.35678
-11.5511
-12.90947
-14.30556
-15.60706
-16.71199
-17.61205
-18.35045
-19.02708
-19.68791
-20.29218
-20.69286
-20.64772
-19.94514
-18.3609
-15.78632
-12.21051
-7.779297
-2.781448
2.33783
7.076431
11.00812
13.85544
15.55374
16.17986
15.86249
14.74329
12.94795
10.60507
7.96431
5.343216
3.100632
1.516022
0.718277
0.618866
0.9727936
1.44014
1.73616
1.697083
1.328094
0.7001648
-0.05647278
-0.8865204
-1.843994
-2.98941
-4.387329
-6.024048
-7.794952
-9.556061
-11.18733
-12.56047
-13.5083
-13.79337
-13.17897
-11.5732
-9.049194
-5.896576
-2.512741
0.7159729
3.529755
5.782959
7.429169
8.465561
8.90419
8.79808
8.256073
7.40773
6.370987
5.24115
4.084015
2.984512
2.076523
1.503525
1.326767
1.527405
1.97493
2.450775
2.779907
2.807709
2.466187
1.748093
0.7184906
-0.494751
-1.753769
-2.912979
-3.898834
-4.741394
-5.639252
-6.827988
-8.456757
-10.43504
-12.39679
-13.74696
-13.88455
-12.39699
-9.242889
-4.766098
0.4661713
5.828995
10.84073
15.18138
18.67265
21.19205
22.62044
22.89874
22.07634
20.34779
18.05385
15.56918
13.18427
11.09909
9.412415
8.202698
7.550461
7.446869
7.789215
8.269257
8.482254
8.025696
6.697571
4.548233
1.867142
-0.9643097
-3.579437
-5.781677
-7.600159
-9.203308
-10.86734
-12.83121
-15.15334
-17.67763
-19.97899
-21.45705
-21.52589
-19.81625
-16.29271
-11.30237
-5.488556
0.3678741
5.533478
9.494553
11.99055
13.07353
12.97239
11.99782
10.46363
8.569122
6.468048
4.283653
2.20414
0.4782257
-0.6348343
-0.9175415
-0.2757568
1.216812
3.345177
5.749313
8.037994
9.842125
10.86526
10.94843
10.09232
8.456238
6.275383
3.817947
1.283516
-1.246368
-3.816498
-6.534889
-9.48246
-12.58959
-15.60671
-18.09686
-19.57932
-19.64574
-18.14994
-15.24714
-11.32096
-6.899765
-2.456535
1.640755
5.184654
8.092094
10.36858
11.99809
12.97255
13.31573
13.10002
12.44734
11.54623
10.54601
9.542976
8.546265
7.505951
6.402039
5.271767
4.264885
3.539978
3.224602
3.270752
3.461891
3.490532
3.076538
2.105026
0.5963287
-1.284126
-3.355865
-5.485168
-7.55777
-9.537308
-11.46735
-13.46199
-15.65051
-18.10658
-20.67924
-22.94057
-24.26009
-24.01719
-21.86919
-17.91349
-12.70469
-7.0093
-1.567093
3.148476
6.982559
9.986534
12.28168
13.90384
14.85007
15.07812
14.62794
13.68286
12.50121
11.37478
10.5167
10.0045
9.736656
9.556702
9.29398
8.868259
8.287842
7.665939
7.124683
6.78072
6.641487
6.592091
6.417236
5.881329
4.838959
3.300087
1.436905
-0.4682617
-2.170334
-3.548981
-4.661449
-5.710594
-6.96167
-8.659996
-10.89676
-13.61647
-16.47823
-18.96683
-20.47323
-20.45454
-18.65912
-15.1837
-10.47773
-5.142502
0.2378807
5.222176
9.559235
13.11757
15.79671
17.4993
18.19011
17.9507
17.00457
15.66035
14.21276
12.86881
11.72499
10.80811
10.0756
9.504509
9.030003
8.603954
8.2061
7.867741
7.638481
7.53175
7.451565
7.191544
6.485317
5.153713
3.241852
1.036057
-1.036907
-2.612766
-3.554646
-4.015865
-4.359951
-4.994144
-6.192602
-8.028406
-10.34389
-12.83874
-15.16846
-16.99059
-17.99683
-17.92773
-16.54007
-13.74865
-9.670706
-4.678888
0.6394348
5.593983
9.625086
12.413
13.95566
14.50409
14.36543
13.83942
13.11272
12.33932
11.58466
10.90586
10.30714
9.686689
8.900911
7.816059
6.411255
4.811043
3.247768
1.957638
1.10153
0.6909428
0.60256
0.6108437
0.4754276
-0.001377106
-0.9051533
-2.202061
-3.721766
-5.265604
-6.681355
-7.976795
-9.299313
-10.91483
-13.04824
-15.74445
-18.74875
-21.54819
-23.46991
-23.88574
-22.45926
-19.21557
-14.62115
-9.410004
-4.372717
-0.08815575
3.193758
5.538054
7.19746
8.373087
9.133436
9.321915
8.679531
7.009275
4.323584
0.9272137
-2.598124
-5.581593
-7.467972
-7.98457
-7.214458
-5.521963
-3.458782
-1.703035
-0.90131
-1.483986
-3.505582
-6.458712
-9.285679
-10.65159
-9.344341
-4.762204
2.82674
12.31035
22.08487
30.5127
36.32143
38.81343
37.84826
33.74967
27.21908
19.24579
11.0178
3.753082
-1.551237
-4.349205
-4.576232
-2.633274
0.8060331
5.048161
9.540174
13.94417
18.16523
22.20216
26.05916
29.54931
32.2626
33.59311
32.89635
29.76018
24.2218
16.85167
8.701967
0.9940224
-5.226294
-9.376184
-11.50497
-12.1685
-12.19851
-12.32008
-12.89405
-13.76359
-14.3791
-14.1217
-12.71358
-10.46035
-8.15493
-6.730808
-6.761021
-8.125546
-10.03808
-11.39571
-11.36277
-9.763351
-7.106102
-4.3605
-2.567371
-2.457176
-4.269028
-7.525303
-10.73819
-11.3798
-6.129639
8.089539
32.77374
66.57746
105.0447
141.5627
169.4743
184.2937
185.124
174.5724
157.3054
138.0893
120.2386
105.1979
92.99847
83.18894
75.54352
70.18549
67.20847
66.18566
65.96413
64.95737
61.73499
55.59319
46.82536
36.52409
26.06479
16.64316
8.871979
2.755554
-2.090607
-6.151642
-9.726196
-12.82379
-15.18915
-16.47427
-16.42413
-15.0365
-12.59149
-9.513519
-6.197052
-2.742157
0.9877625
5.290222
10.25934
15.59097
20.5228
24.03119
25.24438
23.79071
19.95892
14.55115
8.515869
2.599182
-2.844482
-7.732178
-12.05841
-15.64795
-18.17529
-19.29962
-18.91656
-17.2428
-14.81067
-12.24463
-10.01593
-8.357605
-7.264893
-6.68158
-6.658936
-7.34491
-8.923218
-11.47382
-14.92615
-19.00562
-23.38159
-27.72162
-31.76288
-35.30414
-38.1778
-40.19922
-41.2113
-41.06848
-39.66901
-37.05084
-33.45715
-29.42456
-25.8186
-23.57623
-23.49481
-25.83929
-30.2514
-35.82666
-41.52734
-46.64063
-50.94177
-54.67981
-58.20728
-61.651
-64.77893
-67.19336
-68.54749
-68.55042
-66.80603
-62.64587
-55.26086
-44.20239
-29.91602
-14.01831
1.067261
12.92065
20.05408
22.32153
20.75879
16.84888
11.85229
6.429443
0.8052979
-4.835815
-10.08459
-14.3053
-16.8988
-17.56897
-16.49939
-14.24292
-11.56067
-9.188599
-7.581787
-6.851196
-6.826782
-7.198608
-7.699463
-8.291016
-9.214966
-10.94702
-14.05896
-18.94214
-25.64063
-33.7489
-42.47644
-50.84253
-57.97046
-63.32166
-66.83667
-68.91003
-70.23865
-71.61084
-73.61804
-76.51526
-80.1488
-84.05237
-87.70605
-90.84534
-93.64148
-96.74792
-101.0616
-107.3953
-116.0626
-126.6578
-137.9651
-148.1425
-155.0715
-156.8778
-152.4023
-141.7281
-126.338
-108.9861
-93.08972
-81.87146
-77.39819
-79.95801
-87.99768
-98.61829
-108.533
-115.0011
-116.551
-113.0815
-105.4969
-95.11462
-83.09412
-70.25757
-57.09607
-44.03418
-31.53467
-20.07507
-9.968872
-1.247681
6.352295
13.23401
19.68481
25.65759
30.71729
34.26074
35.7356
34.90393
31.91077
27.20032
21.3385
14.79645
8.034546
1.485962
-4.208252
-8.274109
-9.961121
-8.783936
-4.781433
1.484558
9.091248
17.04266
24.47888
30.86487
35.91302
39.56232
41.87769
43.03998
43.30072
42.92145
42.13092
41.06848
39.82532
38.42682
36.92603
35.41852
33.95673
32.59033
31.24402
29.80017
28.08765
25.99615
23.50189
20.67255
17.68176
14.69086
11.82263
9.115173
6.480591
3.760193
0.7650757
-2.713318
-6.824219
-11.53607
-16.60678
-21.47546
-25.30301
-27.17776
-26.43533
-22.92407
-17.11771
-9.992645
-2.630127
4.154327
10.09531
15.40677
20.51907
25.72449
30.87869
35.44696
38.70493
40.04958
39.2372
36.48018
32.35738
27.62129
22.99477
19.00511
15.86922
13.53386
11.68887
9.889313
7.698959
4.728012
0.7436676
-4.261398
-10.05288
-16.07449
-21.51077
-25.55257
-27.77699
-28.44974
-28.5359
-29.27505
-31.38544
-34.42831
-36.65454
-35.60697
-29.1791
-16.53468
1.478218
22.74454
44.8158
65.82968
84.8017
101.4096
115.3372
125.8941
132.1833
133.6562
130.6989
124.7375
117.729
111.2089
105.5546
99.83357
92.49658
82.3987
69.58607
55.41003
41.84215
30.56013
22.13423
16.02092
11.03102
6.12178
0.8778229
-4.445724
-9.280853
-13.23309
-16.35703
-19.04103
-21.73116
-24.67004
-27.78398
-30.80386
-33.52048
-35.89693
-38.03894
-40.07915
-41.95383
-43.32257
-43.65216
-42.34091
-38.9689
-33.43112
-25.99313
-17.24612
-7.961029
1.018097
8.903259
15.10193
19.25949
21.3364
21.59073
20.49084
18.61795
16.52658
14.71243
13.59412
13.49466
14.57434
16.72531
19.48389
22.10519
23.74905
23.83667
22.27139
19.54147
16.51178
14.05911
12.71674
12.43457
12.62793
12.39218
10.94031
7.90683
3.557526
-1.290863
-5.55365
-8.243591
-8.859711
-7.49823
-4.728729
-1.229797
2.649841
7.073975
12.65393
20.10809
29.79462
41.35645
53.65155
65.00623
73.52753
77.6499
76.71503
71.4895
64.59302
60.40631
64.28815
80.90375
112.1994
155.8865
205.4268
251.7936
286.4726
304.2809
304.7793
291.5482
269.9526
244.6327
218.0337
190.5136
161.5955
131.3312
100.7712
71.49295
44.58661
19.87961
-3.960175
-28.62274
-55.10059
-83.11902
-111.1687
-136.9349
-158.0107
-172.4187
-178.8863
-177.1351
-168.0866
-154.0271
-138.4926
-125.5962
-118.8759
-120.0199
-128.1226
-139.9162
-151.0058
-157.6035
-157.7977
-151.9522
-141.9291
-129.702
-116.2393
-101.1693
-83.4489
-62.43655
-38.83546
-14.75812
7.116043
24.58234
36.77545
44.33914
49.07018
53.4485
60.44427
73.53792
96.414
131.7934
179.7097
236.0177
292.4058
338.3622
364.5814
366.2199
344.2889
304.626
255.0177
202.2055
150.4209
101.5021
56.36412
16.10601
-17.92444
-44.9356
-65.75997
-83.0464
-100.4417
-120.9708
-145.6168
-172.7346
-198.4154
-218.06
-228.1543
-227.6743
-218.5488
-204.9801
-191.7602
-182.6304
-179.0796
-180.3163
-184.2457
-188.7714
-192.6154
-195.418
-197.1694
-197.57
-195.8934
-191.2635
-183.3364
-172.6321
-160.3034
-147.5845
-135.0948
-122.5685
-109.1184
-93.86887
-76.58708
-57.89199
-39.07853
-21.56545
-6.352119
6.231056
16.57494
25.37656
33.27039
40.52245
46.95773
52.05412
55.27074
56.25841
55.03337
52.00634
47.86887
43.44969
39.55153
36.78127
35.50447
35.77054
37.32449
39.72406
42.44487
45.00347
47.02107
48.22102
48.3197
46.96703
43.79962
38.49693
31.02877
21.79317
11.62598
1.762573
-6.468658
-11.88785
-13.78634
-12.05116
-7.206039
-0.2816849
7.485634
14.85663
20.87832
24.98223
27.06609
27.35048
26.27073
24.32168
21.96516
19.55136
17.32271
15.44629
14.0117
13.01863
12.37274
11.88634
11.33727
10.53293
9.406494
8.003174
6.471573
4.909363
3.347397
1.727295
-0.05853271
-2.061996
-4.27063
-6.595291
-8.928116
-11.20743
-13.36081
-15.23468
-16.48669
-16.61441
-15.11253
-11.72411
-6.618362
-0.3566895
6.24176
12.39919
17.61072
21.66704
24.55626
26.32193
26.94579
26.42003
24.85617
22.50107
19.78651
17.12575
14.81654
12.94148
11.43513
10.17029
9.020294
7.921295
6.826202
5.729218
4.626831
3.515747
2.417938
1.324768
0.2025146
-1.075775
-2.698822
-4.892853
-7.800201
-11.4079
-15.43369
-19.35934
-22.49567
-24.14011
-23.77295
-21.19443
-16.61301
-10.57211
-3.791809
3.011749
9.277344
14.64755
18.93417
22.02701
23.88284
24.49054
23.93542
22.45151
20.38843
18.19217
16.2663
14.88187
14.06281
13.62567
13.2435
12.6015
11.50204
9.970703
8.195892
6.454559
5.028168
4.062408
3.567719
3.375458
3.174133
2.570221
1.16684
-1.335632
-4.969513
-9.40036
-13.92645
-17.57169
-19.40591
-18.82614
-15.7619
-10.64896
-4.268036
2.469788
8.833557
14.32574
18.71829
21.94122
24.01849
25.00476
24.98572
24.10336
22.54285
20.5704
18.40424
16.24478
14.21472
12.37411
10.70068
9.15036
7.664337
6.228699
4.877472
3.608215
2.393829
1.139038
-0.2883606
-1.998138
-4.01712
-6.360962
-9.036835
-12.06845
-15.52341
-19.34604
-23.23608
-26.60785
-28.69043
-28.73508
-26.37851
-21.73553
-15.46591
-8.519653
-1.863861
3.788025
8.046356
10.86533
12.39752
12.86407
12.48792
11.44839
9.833435
7.694092
5.033295
1.849304
-1.727142
-5.386597
-8.73819
-11.3306
-12.89731
-13.44189
-13.15118
-12.26199
-10.96945
-9.321106
-7.289825
-4.853607
-2.019073
1.244476
5.01297
9.360748
14.20654
19.18237
23.73325
27.34372
29.92532
32.00241
34.53201
38.6196
44.96121
53.63855
64.00174
74.9657
85.26544
93.75067
99.64789
102.6406
102.8597
100.7459
96.74002
91.06174
83.69843
74.52365
63.67157
51.65457
39.2608
27.24933
16.00171
5.475464
-4.57959
-14.32446
-23.69675
-32.45581
-40.42178
-47.66003
-54.43796
-61.06616
-67.75955
-74.53485
-81.43741
-88.56848
-96.19182
-104.4464
-113.082
-121.32
-127.9679
-131.72
-131.554
-126.9233
-117.8672
-104.958
-89.22714
-72.05884
-54.93832
-39.20282
-25.72525
-14.61938
-5.36972
2.95166
11.13055
19.38129
27.08105
33.11838
36.45892
36.77194
35.07581
33.9119
36.96857
47.84995
68.32709
97.0033
129.0713
157.7206
176.4753
181.5341
172.8333
153.5103
128.1553
100.91
74.45306
50.0513
28.28607
9.698578
-5.06311
-15.67163
-22.39706
-26.11649
-27.90063
-28.55682
-28.4881
-27.90201
-26.97293
-25.86783
-24.77921
-23.81781
-22.95541
-22.15363
-21.39658
-20.67467
-19.90375
-18.80891
-17.0244
-14.35477
-10.84229
-6.787552
-2.439499
2.346542
8.299622
16.48407
27.77214
42.13588
58.3007
73.9014
86.10649
92.43724
91.44144
82.98474
68.15176
48.92255
27.64253
6.548264
-12.58383
-28.6532
-41.23134
-50.34523
-56.27437
-59.51534
-60.87288
-61.63538
-63.45718
-67.81913
-75.29737
-85.01287
-94.77747
-101.9378
-104.5313
-102.1038
-95.72536
-87.22989
-78.21233
-69.33215
-60.41027
-51.01256
-41.08638
-31.24277
-22.44794
-15.48055
-10.51028
-7.104324
-4.551651
-2.300217
-0.1823502
1.578339
2.61937
2.708664
1.905968
0.5500183
-0.9014282
-2.111275
-3.004402
-3.805428
-4.882584
-6.569305
-8.976242
-11.87968
-14.82559
-17.17297
-18.31514
-17.8058
-15.46279
-11.36443
-5.884117
0.3983459
6.77739
12.5353
17.14415
20.33287
22.16582
22.95805
23.11922
22.9749
22.63762
22.02417
20.94174
19.29419
17.16516
14.82758
12.64846
10.87565
9.57885
8.585373
7.653473
6.579163
5.351151
4.098747
3.006683
2.191719
1.596016
1.073761
0.4749603
-0.2213898
-0.9953995
-1.800995
-2.68264
-3.787178
-5.280975
-7.209908
-9.315323
-11.10717
-11.95889
-11.37252
-9.191292
-5.598373
-1.114632
3.644135
8.122391
11.93188
14.83701
16.71757
17.48789
17.12582
15.75837
13.6549
11.24477
8.95182
7.057976
5.618599
4.496681
3.483345
2.451317
1.41787
0.5270081
-0.002250671
-0.02432251
0.4460831
1.214287
1.983315
2.446152
2.380638
1.753265
0.6614151
-0.6934128
-2.14473
-3.643234
-5.27578
-7.203644
-9.526207
-12.14924
-14.75983
-16.88934
-18.0058
-17.72255
-15.87844
-12.59222
-8.209229
-3.193703
1.959824
6.763741
10.85228
13.93607
15.83871
16.57699
16.32613
15.37769
14.04288
12.55865
11.02063
9.482101
7.962135
6.558075
5.367355
4.479767
3.900955
3.529495
3.204506
2.765259
2.11245
1.237534
0.157074
-1.050682
-2.280228
-3.436111
-4.46373
-5.424469
-6.473152
-7.826546
-9.611717
-11.77242
-14.04219
-15.98321
-17.13808
-17.11365
-15.68533
-12.85156
-8.785149
-3.880928
1.320717
6.228485
10.3506
13.40064
15.34548
16.34791
16.61141
16.28831
15.45665
14.18298
12.59121
10.87775
9.252861
7.895538
6.839302
6.036491
5.399963
4.846504
4.347656
3.870041
3.333138
2.636261
1.702721
0.4923248
-0.9272842
-2.422142
-3.836327
-5.075104
-6.135155
-7.180859
-8.413391
-9.994141
-11.89953
-13.83001
-15.23201
-15.51966
-14.30191
-11.55832
-7.676537
-3.272598
1.005848
4.652554
7.386112
9.083752
9.740856
9.425991
8.270882
6.49369
4.365646
2.16967
0.09714127
-1.718563
-3.237713
-4.475529
-5.457195
-6.207245
-6.737991
-7.031693
-7.032505
-6.703403
-6.062927
-5.25539
-4.547302
-4.279598
-4.674892
-5.806648
-7.469101
-9.26162
-10.6832
-11.26713
-10.72202
-8.985275
-6.250233
-2.847366
0.7934837
4.318451
7.47068
10.07572
12.01406
13.19036
13.54429
13.09538
11.9813
10.38771
8.521439
6.530514
4.488564
2.465748
0.5798264
-0.9978008
-2.088804
-2.608278
-2.630463
-2.345284
-1.980074
-1.744398
-1.754814
-2.061256
-2.669254
-3.544519
-4.634861
-5.846102
-7.094212
-8.338593
-9.606323
-10.96968
-12.51974
-14.25734
-16.06458
-17.64372
-18.63042
-18.61729
-17.30125
-14.54876
-10.43018
-5.191004
0.7448921
6.905996
12.79365
17.90902
21.77914
24.02463
24.46548
23.19224
20.54029
17.05082
13.27239
9.662298
6.505667
3.914156
1.889305
0.3724251
-0.7158661
-1.495344
-2.078602
-2.533978
-2.919203
-3.265762
-3.652596
-4.268085
-5.389046
-7.287575
-10.18002
-14.002
-18.38614
-22.64483
-25.94473
-27.48955
-26.75384
-23.70188
-18.77673
-12.78894
-6.654453
-1.11627
3.398891
6.81554
9.30858
11.12972
12.47332
13.41133
13.91014
13.88813
13.23025
11.88009
9.846527
7.240156
4.253464
1.181444
-1.677227
-4.086386
-5.884382
-7.054005
-7.693317
-7.921759
-7.850227
-7.612976
-7.358189
-7.317497
-7.797499
-9.100159
-11.36126
-14.43834
-17.8282
-20.78007
-22.53677
-22.52542
-20.56839
-16.91603
-12.16234
-7.048149
-2.179703
2.053967
5.574272
8.499702
10.98028
13.05476
14.63359
15.49857
15.45652
14.53622
12.94194
11.04852
9.223248
7.685043
6.432449
5.272385
3.990475
2.438141
0.6808357
-1.056545
-2.530647
-3.566753
-4.175045
-4.578964
-5.129547
-6.161728
-7.914616
-10.40788
-13.4532
-16.63676
-19.3651
-21.04157
-21.1324
-19.39899
-15.91756
-11.12059
-5.597694
0.07497787
5.520935
10.56822
15.12819
19.07664
22.13358
23.96951
24.28275
23.01997
20.40321
16.94482
13.30447
10.0969
7.743912
6.382751
5.862923
5.813225
5.847382
5.671349
5.158112
4.360374
3.382141
2.323097
1.188736
-0.07759094
-1.574539
-3.385025
-5.596275
-8.24369
-11.23911
-14.31623
-16.99382
-18.65677
-18.73424
-16.93187
-13.32751
-8.404846
-2.869034
2.545418
7.245911
10.8969
13.40738
14.81612
15.24429
14.83143
13.73497
12.1263
10.23173
8.347672
6.740234
5.644196
5.146133
5.185509
5.610497
6.196754
6.758247
7.184357
7.407059
7.464111
7.399513
7.207878
6.856628
6.216141
5.108734
3.406296
1.014809
-2.037247
-5.569305
-9.244652
-12.56228
-14.92267
-15.77912
-14.79678
-11.93867
-7.569176
-2.314667
3.109795
8.096092
12.22602
15.3138
17.30412
18.1783
17.93365
16.63686
14.48251
11.83141
9.167679
6.95105
5.529091
4.975563
5.130013
5.698738
6.372597
6.949478
7.320992
7.452248
7.302696
6.832382
6.017227
4.911469
3.63974
2.358864
1.155594
-0.03129578
-1.387314
-3.133614
-5.358078
-7.907196
-10.35737
-12.12048
-12.66037
-11.62691
-9.064217
-5.308517
-0.9645844
3.333946
7.061981
9.89016
11.74779
12.68801
12.85242
12.39204
11.47376
10.29274
9.021828
7.817894
6.789337
5.978745
5.368282
4.903763
4.517433
4.165916
3.813385
3.487354
3.214417
3.024071
2.903088
2.759071
2.479908
1.954029
1.138557
0.04885483
-1.275322
-2.799347
-4.566231
-6.575771
-8.709938
-10.64019
-11.91147
-12.07854
-10.87965
-8.373322
-4.886505
-0.9107208
3.017178
6.469316
9.169167
10.98781
11.92602
12.06341
11.50065
10.38597
8.859814
7.091935
5.271402
3.598853
2.275431
1.429032
1.088723
1.162054
1.469065
1.822621
2.036055
2.022176
1.734212
1.224261
0.5923347
-0.04667568
-0.6640959
-1.257757
-1.939729
-2.839272
-4.057578
-5.634706
-7.476586
-9.396498
-11.09906
-12.20352
-12.34582
-11.25298
-8.854776
-5.355047
-1.225891
2.955872
6.695126
9.721077
11.99942
13.60572
14.60896
14.99125
14.67747
13.65875
12.07159
10.20541
8.366982
6.79641
5.546619
4.519337
3.516613
2.375549
1.042427
-0.4591103
-2.000454
-3.434982
-4.634907
-5.539116
-6.170364
-6.662285
-7.219139
-8.032951
-9.257401
-10.94373
-12.99216
-15.12045
-16.89262
-17.79053
-17.33427
-15.27186
-11.69469
-7.026344
-1.907692
2.998245
7.197319
10.43724
12.68887
14.01108
14.4334
13.95129
12.55172
10.34798
7.562553
4.504158
1.520203
-1.180969
-3.48774
-5.41172
-7.003998
-8.32972
-9.424049
-10.30232
-10.99713
-11.54288
-12.00133
-12.43249
-12.88931
-13.42411
-14.1004
-14.96165
-16.02626
-17.22668
-18.38152
-19.21335
-19.36497
-18.48441
-16.35419
-12.96382
-8.608582
-3.803604
0.8511505
4.884232
8.057465
10.41409
12.14275
13.37994
14.12672
14.27269
13.71487
12.5163
10.97797
9.48143
8.314667
7.554626
7.025131
6.472794
5.708939
4.702011
3.571335
2.432495
1.29245
0.06285095
-1.381195
-3.078644
-4.952896
-6.839218
-8.593109
-10.20888
-11.78552
-13.42429
-15.10417
-16.56026
-17.35649
-17.02788
-15.27634
-12.12729
-7.955475
-3.325867
1.158997
5.051178
8.12146
10.30363
11.649
12.21971
12.11037
11.44832
10.39308
9.172363
8.005966
7.068008
6.423965
6.05159
5.819016
5.549026
5.062775
4.254562
3.124283
1.754456
0.3282776
-0.9849396
-2.04216
-2.804443
-3.345169
-3.855515
-4.584122
-5.719971
-7.411545
-9.637451
-12.23463
-14.90306
-17.19679
-18.61259
-18.70731
-17.25262
-14.29881
-10.25632
-5.75177
-1.465393
2.071732
4.596069
6.10759
6.817932
6.971832
6.765564
6.329239
5.736008
5.034729
4.275543
3.516953
2.7939
2.167618
1.674133
1.329865
1.090347
0.8573761
0.492691
-0.1195984
-0.9673462
-2.008652
-3.112762
-4.180237
-5.173553
-6.116272
-7.048218
-8.010803
-9.000473
-10.03964
-11.20879
-12.62015
-14.36998
-16.37755
-18.29987
-19.58011
-19.59283
-17.91246
-14.51666
-9.843353
-4.641586
0.2931061
4.396408
7.448105
9.547287
10.91557
11.74918
12.09987
11.9044
11.14729
9.882401
8.300766
6.683868
5.262344
4.154739
3.373199
2.849075
2.539017
2.487854
2.75473
3.357971
4.189606
5.032074
5.59494
5.66481
5.12973
4.041992
2.517746
0.7155151
-1.220993
-3.157486
-4.979721
-6.656784
-8.25824
-9.953568
-11.87575
-13.96951
-15.91533
-17.12321
-16.99217
-15.12367
-11.5495
-6.7323
-1.469452
3.401169
7.232315
9.700195
10.85245
10.98227
10.52002
9.804138
9.037506
8.235245
7.317551
6.216064
4.964706
3.7005
2.607361
1.829926
1.385132
1.185425
1.130646
1.159149
1.249084
1.384964
1.439713
1.206467
0.5082092
-0.6961517
-2.221558
-3.687134
-4.778137
-5.409851
-5.826248
-6.470184
-7.737015
-9.781525
-12.40671
-15.10626
-17.25076
-18.34653
-18.09268
-16.44066
-13.5511
-9.751282
-5.446152
-1.08815
2.895004
6.202148
8.62648
10.16582
10.9057
10.98637
10.58034
9.831955
8.857529
7.737946
6.554733
5.361267
4.239639
3.269623
2.508224
1.977493
1.645264
1.497818
1.498489
1.616135
1.779037
1.916382
1.887741
1.557602
0.8667145
-0.170105
-1.433121
-2.787079
-4.143768
-5.509521
-6.966141
-8.626709
-10.60132
-12.92632
-15.57283
-18.3176
-20.81616
-22.56476
-23.03915
-21.85928
-18.95683
-14.6152
-9.39743
-4.00267
0.9507751
5.072052
8.243774
10.54207
12.14528
13.1982
13.78174
13.89342
13.48409
12.5412
11.15208
9.485458
7.760544
6.18335
4.86203
3.832458
3.086868
2.639648
2.506973
2.700638
3.161697
3.746643
4.200546
4.26561
3.751526
2.628418
1.008209
-0.8556213
-2.69017
-4.291473
-5.623413
-6.823029
-8.17041
-9.947311
-12.30049
-15.14481
-18.13066
-20.70729
-22.25639
-22.2524
-20.44119
-16.88466
-11.98549
-6.365692
-0.7177124
4.358124
8.501541
11.58392
13.67514
14.92056
15.49977
15.53297
15.14497
14.4621
13.6277
12.72282
11.77316
10.74054
9.54097
8.157944
6.658127
5.201736
3.980347
3.165375
2.783661
2.738739
2.835602
2.827637
2.531998
1.87355
0.901413
-0.2758179
-1.526016
-2.736938
-3.854584
-4.904083
-6.007782
-7.297485
-8.9505
-11.05093
-13.51262
-16.03873
-18.13881
-19.26485
-18.93535
-16.97298
-13.49606
-8.927902
-3.851807
1.180786
5.763443
9.667465
12.80289
15.13731
16.6357
17.27118
17.03862
16.01131
14.35217
12.29054
10.07663
7.90062
5.90242
4.164169
2.729202
1.635315
0.9360352
0.6899872
0.9247894
1.629333
2.668823
3.804993
4.754303
5.227737
5.08873
4.389725
3.369659
2.300217
1.389526
0.661026
-0.05345154
-1.042343
-2.584457
-4.837219
-7.72728
-10.8707
-13.66945
-15.41449
-15.48691
-13.58139
-9.851563
-4.869965
0.5409393
5.543106
9.530762
12.27144
13.81992
14.40942
14.31291
13.66634
12.53479
10.97865
9.087357
7.011475
4.950165
3.045074
1.369308
-0.07321167
-1.280441
-2.249176
-2.9375
-3.320831
-3.467133
-3.539993
-3.72406
-4.171173
-4.881775
-5.734848
-6.595428
-7.416168
-8.306366
-9.483139
-11.18773
-13.54744
-16.52528
-19.83215
-23.03688
-25.56728
-26.86034
-26.45288
-24.12758
-20.02303
-14.60829
-8.606155
-2.780426
2.262894
6.243042
9.242691
11.62619
13.83345
16.17882
18.68494
21.06497
22.85349
23.59669
23.07323
21.39674
18.94197
16.17126
13.4344
10.86441
8.402969
5.962646
3.541946
1.299881
-0.5279083
-1.747574
-2.333115
-2.483154
-2.612915
-3.225113
-4.706375
-7.209778
-10.60651
-14.53499
-18.5903
-22.44597
-25.90785
-28.78426
-30.83844
-31.70247
-30.99007
-28.50407
-24.3965
-19.19836
-13.63336
-8.328568
-3.668488
0.2365875
3.415146
5.878098
7.559998
8.409332
8.441177
7.829666
6.838287
5.722595
4.640747
3.637817
2.658554
1.677551
0.7232971
-0.09461975
-0.6978302
-1.045181
-1.173157
-1.185257
-1.202148
-1.311859
-1.565613
-1.99707
-2.631454
-3.534004
-4.732346
-6.214836
-7.911812
-9.725235
-11.66057
-13.79775
-16.2141
-18.8381
-21.31915
-22.9777
-23.09502
-21.14522
-17.12178
-11.55853
-5.3097
0.7064514
5.875153
9.990234
13.15029
15.56526
17.33144
18.40882
18.64014
17.93723
16.38448
14.2692
11.98373
9.874863
8.157593
6.881813
6.035759
5.542229
5.339287
5.342636
5.425987
5.40736
5.105442
4.418842
3.38678
2.189445
0.9962654
-0.07874298
-1.097416
-2.261803
-3.82497
-5.997391
-8.82478
-12.13998
-15.56443
-18.51867
-20.3512
-20.48052
-18.56013
-14.61324
-9.081768
-2.693197
3.679586
9.30604
13.75394
16.93211
19.00014
20.17252
20.61632
20.35073
19.37353
17.7422
15.66369
13.48914
11.58812
10.1959
9.346037
8.881193
8.569803
8.271765
8.003945
7.859166
7.935106
8.174659
8.358116
8.19589
7.491897
6.204107
4.492203
2.552563
0.481225
-1.824496
-4.575986
-7.912033
-11.66972
-15.31214
-18.06594
-19.14689
-18.08269
-14.87116
-9.946064
-3.986193
2.261539
8.194862
13.33627
17.36661
20.10269
21.48203
21.59707
20.66048
18.9556
16.78237
14.40889
12.06342
9.927643
8.136757
6.732708
5.633484
4.715527
3.849941
3.004524
2.223595
1.588902
1.114956
0.6926537
0.1174431
-0.7904129
-2.116707
-3.804367
-5.730904
-7.794662
-9.994675
-12.40296
-15.07431
-17.90931
-20.58776
-22.62373
-23.47199
-22.67266
-20.02125
-15.64691
-10.00215
-3.772179
2.284389
7.517902
11.55814
14.35062
16.08883
17.10147
17.63846
17.82464
17.58901
16.83701
15.50664
13.70169
11.67086
9.709209
8.053833
6.814682
5.920048
5.246952
4.638145
3.985077
3.191032
2.143097
0.7450943
-1.062424
-3.205559
-5.502762
-7.756409
-9.850372
-11.88084
-14.1089
-16.82822
-20.17792
-23.96584
-27.70712
-30.68613
-32.1699
-31.61245
-28.78206
-23.8317
-17.23273
-9.694183
-2.021049
5.056351
11.00286
15.54404
18.64944
20.45087
21.16222
21.00837
20.21305
19.0185
17.63278
16.2448
14.90117
13.58395
12.22171
10.79235
9.400932
8.22139
7.4505
7.129005
7.079285
6.978439
6.487595
5.451248
3.928581
2.14962
0.4004974
-1.152374
-2.50312
-3.768166
-5.156837
-6.931992
-9.296104
-12.396
-16.18358
-20.28908
-24.0605
-26.65039
-27.26499
-25.3986
-21.05342
-14.69016
-7.14769
0.63237
7.811386
13.8163
18.35461
21.41994
23.1995
23.92601
23.8381
23.13256
21.97022
20.52521
18.97913
17.49036
16.19257
15.14447
14.33209
13.7027
13.20132
12.78242
12.4381
12.13083
11.80032
11.3409
10.60202
9.456192
7.813446
5.65094
3.056259
0.2411346
-2.529938
-5.016479
-7.092651
-8.892075
-10.75728
-13.11209
-16.23997
-20.09904
-24.21162
-27.77766
-29.89073
-29.84143
-27.3315
-22.53154
-16.00548
-8.508286
-0.8663635
6.202698
12.164
16.673
19.60059
20.93454
20.80266
19.44331
17.21733
14.59889
12.0842
10.08411
8.804352
8.173782
7.881943
7.599609
7.131805
6.485901
5.899307
5.592392
5.646713
5.88797
6.000275
5.654465
4.702286
3.196991
1.364487
-0.5256348
-2.250687
-3.730377
-5.028931
-6.307098
-7.793671
-9.728851
-12.22577
-15.20244
-18.25163
-20.67683
-21.61516
-20.31946
-16.44638
-10.17711
-2.256561
6.257004
14.27162
20.99118
26.07726
29.61815
31.98186
33.55212
34.58419
35.15662
35.27784
35.0022
34.49754
34.00175
33.75347
33.91089
34.56011
35.82883
37.86053
40.73832
44.26966
47.8496
50.61074
51.61517
50.35279
46.92209
41.99421
36.53243
31.40024
27.17406
24.06534
22.13203
21.31396
21.45634
22.27003
23.21777
23.56451
22.51307
19.43874
14.06745
6.637253
-2.117756
-11.08118
-19.02505
-24.9547
-28.38906
-29.5015
-28.9285
-27.53102
-26.01151
-24.73713
-23.77267
-23.04845
-22.55529
-22.34863
-22.53342
-23.10685
-23.89183
-24.60476
-24.91763
-24.65759
-23.82273
-22.62115
-21.37393
-20.43272
-20.05588
-20.31875
-21.0968
-22.0835
-22.95259
-23.50282
-23.75614
-23.96085
-24.43002
-25.39186
-26.8295
-28.53837
-30.25472
-31.83224
-33.31522
-34.85436
-36.58509
-38.38589
-39.84918
-40.42854
-39.64093
-37.32723
-33.70563
-29.32661
-24.75798
-20.395
-16.36035
-12.55473
-8.854805
-5.249191
-1.924416
0.9164429
3.15979
4.945572
6.56176
8.315285
10.31215
12.35117
14.0681
15.08644
15.26419
14.79524
14.15973
13.96523
14.74014
16.84082
20.29689
24.82912
29.74458
34.08406
36.82722
37.3313
35.58415
32.30156
28.71739
26.04114
24.93068
25.26633
26.24858
26.82623
26.21495
24.25716
21.40778
18.50595
16.26973
15.00815
14.47537
14.03444
12.99907
10.98665
8.052216
4.586151
1.008041
-2.514374
-6.183304
-10.46819
-15.77116
-22.22122
-29.52643
-37.07259
-44.07317
-49.67497
-53.10127
-53.71973
-51.30487
-46.24763
-39.74815
-33.67392
-30.10742
-30.69456
-35.96278
-45.13376
-56.37299
-67.47292
-76.612
-82.71982
-85.60547
-85.61429
-83.28914
-79.10503
-73.42744
-66.51883
-58.63197
-50.02235
-40.89799
-31.47185
-21.95589
-12.62685
-3.776138
4.295853
11.39482
17.40587
22.23447
25.81599
28.08286
29.05978
28.871
27.77959
26.08168
24.04234
21.84021
19.58484
17.40926
15.49039
14.04614
13.18708
12.8475
12.75436
12.55317
11.92528
10.72735
8.972687
6.756157
4.184814
1.31562
-1.815529
-5.13414
-8.537376
-11.93763
-15.24487
-18.34623
-20.97843
-22.67021
-22.82092
-20.88039
-16.63944
-10.40401
-2.905434
4.891666
12.09382
18.1514
22.8534
26.28833
28.63133
30.02691
30.52512
30.11298
28.8101
26.72769
24.1065
21.21682
18.28407
15.46187
12.80456
10.34581
8.155893
6.35934
4.997244
4.014039
3.249872
2.473946
1.526606
0.3560705
-0.983696
-2.425617
-3.977196
-5.749123
-7.890503
-10.50281
-13.58977
-16.96437
-20.26414
-22.89138
-24.09842
-23.10775
-19.39616
-12.91144
-4.190689
5.663391
15.30485
23.50059
29.41545
32.77519
33.74002
32.73317
30.20499
26.54588
22.07352
17.1539
12.21655
7.697479
4.000938
1.33799
-0.3221512
-1.196594
-1.59079
-1.740807
-1.715302
-1.446175
-0.8569336
0.04922485
1.059464
1.844788
2.073036
1.516457
0.09436035
-2.140625
-5.092453
-8.670242
-12.64007
-16.56702
-19.70235
-21.13892
-20.11591
-16.36397
-10.24773
-2.670464
5.231163
12.49101
18.53471
23.20824
26.62228
28.88023
29.95686
29.71884
28.05753
25.07353
21.16628
16.97705
13.19502
10.29318
8.324844
7.006088
5.8535
4.511948
2.918854
1.331146
0.1135864
-0.5426636
-0.7377319
-0.8579559
-1.403305
-2.755356
-5.054337
-8.274612
-12.22081
-16.59708
-20.9456
-24.59747
-26.73734
-26.5976
-23.75877
-18.36154
-11.13214
-3.1353
4.562012
11.21715
16.53329
20.5358
23.36125
25.06049
25.53665
24.66039
22.41655
19.0278
14.91438
10.63625
6.669983
3.409866
1.127411
-0.04440308
-0.07658386
0.920105
2.615997
4.524673
6.095291
6.804123
6.296188
4.46344
1.365158
-2.79512
-7.769714
-13.28395
-18.97714
-24.33191
-28.70013
-31.34251
-31.67422
-29.43034
-24.75002
-18.17749
-10.51137
-2.609482
4.82634
11.26567
16.4171
20.15292
22.43565
23.36136
23.05573
21.71513
19.59926
16.95549
14.06924
11.22327
8.669403
6.595337
5.066452
4.021973
3.304108
2.757248
2.241501
1.719589
1.226257
0.8023987
0.4617462
0.1566925
-0.2580109
-0.9547729
-2.120071
-3.950577
-6.59436
-10.10461
-14.3613
-18.98479
-23.2744
-26.31067
-27.18095
-25.27757
-20.51389
-13.4086
-4.950562
3.694458
11.52174
17.90115
22.60872
25.74515
27.53918
28.20421
27.94174
26.92392
25.39627
23.65247
21.97612
20.55263
19.43852
18.60237
18.00581
17.65591
17.62592
17.99734
18.7774
19.82144
20.85201
21.50168
21.38333
20.12807
17.52823
13.58371
8.602875
3.092255
-2.342545
-7.208893
-11.31908
-14.82526
-18.17325
-21.86505
-26.27901
-31.46184
-37.00922
-42.14026
-45.80901
-47.02695
-45.12598
-39.99203
-32.07967
-22.3031
-11.78943
-1.588486
7.475281
14.91426
20.51065
24.31021
26.53085
27.4998
27.56358
27.03259
26.04951
24.64374
22.7879
20.51276
18.02454
15.65067
13.73477
12.48344
11.83153
11.50562
11.13
10.38797
9.16124
7.497787
5.560196
3.455673
1.227692
-1.131622
-3.633255
-6.322067
-9.24855
-12.52939
-16.32353
-20.70973
-25.51761
-30.3149
-34.36223
-36.88821
-37.28859
-35.36523
-31.36971
-25.86082
-19.5816
-13.16209
-6.963013
-0.9729004
5.117249
11.65779
18.76485
26.1315
32.99097
38.33774
41.35974
41.68712
39.55342
35.62589
30.70953
25.46297
20.2869
15.41023
10.97791
7.181946
4.153671
1.938202
0.3504181
-0.8895264
-2.059891
-3.311386
-4.586258
-5.722504
-6.567123
-7.138809
-7.683884
-8.628845
-10.40228
-13.22305
-16.91795
-20.84676
-24.0435
-25.50572
-24.53569
-20.97218
-15.23874
-8.166489
-0.7295532
6.276489
12.35367
17.31143
21.13478
23.8277
25.3511
25.63986
24.62929
22.35196
18.99059
15.01518
11.14886
8.338837
7.428253
8.912994
12.66208
17.95306
23.63443
28.54866
31.83858
33.1371
32.52122
30.30934
26.86772
22.55548
17.73895
12.85837
8.365204
4.567474
1.478813
-1.181374
-3.937691
-7.175789
-10.96218
-14.83954
-17.99773
-19.56143
-18.96137
-16.13097
-11.47231
-5.728096
0.3125687
6.021584
10.97315
14.97265
17.93177
19.8469
20.72428
20.63448
19.63838
17.84988
15.44032
12.62083
9.620834
6.677055
3.983578
1.686825
-0.1209373
-1.444187
-2.309624
-2.855564
-3.284653
-3.785889
-4.537497
-5.583887
-6.910748
-8.417927
-10.01088
-11.5784
-13.06252
-14.42372
-15.67517
-16.94496
-18.44499
-20.37892
-22.7828
-25.38399
-27.53353
-28.41126
-27.31607
-23.95136
-18.55008
-11.83351
-4.735197
1.91996
7.583302
12.01928
15.19201
17.12798
17.90126
17.56063
16.28654
14.33906
12.06271
9.790035
7.77795
6.101288
4.731049
3.596649
2.646965
1.903305
1.389
1.154694
1.178986
1.353745
1.480453
1.378517
0.9221268
0.101059
-0.9859924
-2.210854
-3.471336
-4.770798
-6.203323
-7.890411
-9.934738
-12.34653
-14.94949
-17.4181
-19.31507
-20.16544
-19.64433
-17.61749
-14.20543
-9.775696
-4.874054
-0.0683136
4.181671
7.567017
9.974503
11.43375
12.06821
12.06082
11.60768
10.8387
9.820084
8.529099
6.931122
5.070755
3.115265
1.312546
-0.1027222
-1.035065
-1.536713
-1.750443
-1.832474
-1.883865
-1.901581
-1.926239
-2.011322
-2.298431
-2.91777
-3.918442
-5.270782
-6.908478
-8.766464
-10.79999
-12.92393
-15.00917
-16.78864
-17.94966
-18.20494
-17.35493
-15.36919
-12.4398
-8.89592
-5.209351
-1.813583
0.9939575
3.106705
4.605652
5.632523
6.260742
6.460037
6.162384
5.369614
4.238785
3.05867
2.087158
1.445221
1.067719
0.7708435
0.3689575
-0.2218018
-0.9971924
-1.901703
-2.859711
-3.813995
-4.713104
-5.476837
-6.109283
-6.674164
-7.37616
-8.440735
-10.05542
-12.18799
-14.62375
-16.95828
-18.76434
-19.71295
-19.60834
-18.43381
-16.29388
-13.38693
-9.99295
-6.442596
-3.07782
-0.1985474
2.012909
3.502594
4.333435
4.649231
4.559082
4.081787
3.170044
1.783875
-0.0213623
-2.011353
-3.841095
-5.195068
-5.90329
-6.01001
-5.725616
-5.293213
-4.881622
-4.563171
-4.346558
-4.237366
-4.283295
-4.531189
-4.963409
-5.484802
-6.008667
-6.513184
-7.100037
-7.926788
-9.089752
-10.4856
-11.78189
-12.52234
-12.27112
-10.79977
-8.226868
-4.925232
-1.428558
1.721619
4.147858
5.662354
6.273712
6.116394
5.404297
4.358154
3.200531
2.116425
1.196289
0.4496155
-0.2014465
-0.834259
-1.458527
-1.997559
-2.329407
-2.348053
-2.06366
-1.563293
-0.9887085
-0.4746399
-0.1366882
-0.03375244
-0.1997375
-0.6486511
-1.338165
-2.194794
-3.125824
-4.067413
-5.039063
-6.090393
-7.237335
-8.373474
-9.284851
-9.648285
-9.163239
-7.650879
-5.134003
-1.853455
1.773956
5.259033
8.135956
10.09039
11.02829
11.05106
10.36707
9.206543
7.733002
6.055145
4.235809
2.392395
0.6430359
-0.8421631
-1.945892
-2.616791
-2.884552
-2.885193
-2.781647
-2.738861
-2.870056
-3.246796
-3.851776
-4.607819
-5.386566
-6.00238
-6.318329
-6.286224
-5.998962
-5.673828
-5.649658
-6.204132
-7.474396
-9.325562
-11.35025
-12.97025
-13.61969
-12.91858
-10.82904
-7.630188
-3.79599
0.1580811
3.804443
6.865173
9.219849
10.80212
11.5484
11.44882
10.55618
9.059631
7.247314
5.486359
4.051544
3.094116
2.552673
2.218842
1.824799
1.144623
0.1109924
-1.186707
-2.543945
-3.703461
-4.444031
-4.676819
-4.462738
-3.99588
-3.507111
-3.228363
-3.340363
-3.935303
-5.042969
-6.607056
-8.487
-10.40384
-11.92667
-12.59714
-12.03345
-10.0936
-7.005646
-3.25119
0.5450745
3.849548
6.377411
8.110931
9.234802
9.951385
10.39075
10.52597
10.23877
9.41568
8.051758
6.273071
4.343597
2.513031
0.9651184
-0.2431335
-1.178894
-1.959717
-2.675201
-3.347473
-3.924347
-4.341431
-4.603668
-4.797913
-5.105835
-5.709534
-6.72467
-8.129272
-9.79129
-11.50937
-13.13986
-14.56409
-15.69794
-16.46152
-16.67978
-16.14975
-14.69705
-12.2551
-8.962433
-5.131439
-1.184845
2.41861
5.311798
7.249725
8.164307
8.132751
7.34845
6.077484
4.617188
3.224884
2.09903
1.318726
0.8581543
0.6254578
0.4755554
0.3076782
0.05258179
-0.2971497
-0.7272339
-1.163116
-1.538483
-1.775238
-1.848969
-1.801727
-1.733643
-1.843201
-2.329529
-3.373566
-5.02005
-7.170624
-9.551392
-11.78735
-13.4563
-14.15515
-13.6236
-11.8063
-8.914063
-5.384369
-1.755554
1.457642
3.949829
5.616821
6.532715
6.836029
6.651611
6.085602
5.245667
4.305908
3.435425
2.795532
2.400085
2.156708
1.893372
1.522125
1.072906
0.6902161
0.526062
0.6386414
0.9558105
1.311157
1.517151
1.443237
1.014893
0.1846313
-1.110168
-2.928406
-5.279449
-8.022278
-10.8544
-13.34
-15.02637
-15.54944
-14.71448
-12.59097
-9.448364
-5.709229
-1.828033
1.805176
4.925598
7.420837
9.267822
10.46616
11.03436
10.99551
10.40765
9.390289
8.110626
6.761108
5.497253
4.386871
3.409332
2.50473
1.586151
0.6177063
-0.4080811
-1.461029
-2.459778
-3.326721
-3.991425
-4.419342
-4.627625
-4.694244
-4.804016
-5.19635
-6.092957
-7.630707
-9.76001
-12.18671
-14.43649
-15.95432
-16.28683
-15.22379
-12.77246
-9.234039
-5.016754
-0.6109009
3.503998
6.925323
9.342361
10.6297
10.84114
10.24425
9.196304
8.071457
7.096222
6.368118
5.838409
5.40094
4.94458
4.427689
3.853409
3.284592
2.742249
2.26799
1.816589
1.327393
0.7407684
0.004165649
-0.9129333
-2.009048
-3.271545
-4.665848
-6.14595
-7.717041
-9.397308
-11.25241
-13.36125
-15.71815
-18.20198
-20.45609
-21.98228
-22.27292
-20.97404
-18.02548
-13.68713
-8.459183
-2.938889
2.31575
6.887695
10.52986
13.11377
14.62172
15.14139
14.87196
14.04065
12.91254
11.69649
10.50137
9.362854
8.307312
7.376404
6.66304
6.257675
6.192627
6.461395
6.981979
7.62764
8.26918
8.739029
8.886185
8.550507
7.65506
6.224121
4.398483
2.38974
0.3922577
-1.48381
-3.281708
-5.087524
-7.061203
-9.301575
-11.8313
-14.55233
-17.22552
-19.49097
-20.82637
-20.75759
-18.94577
-15.39174
-10.45899
-4.832146
0.7496109
5.69268
9.737686
12.93133
15.42901
17.34924
18.60252
18.98658
18.35683
16.81911
14.77283
12.80445
11.46685
10.98595
11.19404
11.63404
11.83587
11.57365
10.95864
10.33752
10.0295
10.12184
10.33519
10.20582
9.338989
7.62574
5.342125
2.963539
0.9414978
-0.5688629
-1.710655
-2.837379
-4.248329
-6.079735
-8.275593
-10.71761
-13.34353
-16.13731
-18.97867
-21.48925
-23.06137
-22.99187
-20.83271
-16.63183
-10.97096
-4.74704
1.195507
6.297176
10.38234
13.54768
15.92111
17.51627
18.2428
18.02756
16.92684
15.21934
13.3204
11.63704
10.42145
9.676476
9.219296
8.806349
8.324463
7.80912
7.469139
7.512966
8.004391
8.786657
9.53171
9.875668
9.554264
8.562994
7.090261
5.441273
3.880163
2.530737
1.338472
0.1013622
-1.396666
-3.361904
-5.86085
-8.831104
-12.03777
-15.12079
-17.58054
-18.88316
-18.56982
-16.41746
-12.54889
-7.413915
-1.69188
3.88975
8.755705
12.57475
15.25414
16.85936
17.51224
17.34069
16.46149
14.99365
13.11647
11.0521
9.037796
7.262801
5.824195
4.751791
4.031286
3.650603
3.617807
3.896426
4.388272
4.910534
5.211961
5.059204
4.327654
3.058329
1.43391
-0.2899108
-1.896116
-3.247115
-4.30961
-5.153122
-5.913097
-6.849272
-8.245631
-10.36213
-13.2963
-16.84506
-20.46255
-23.36879
-24.76361
-24.10667
-21.29073
-16.66691
-10.94392
-4.926933
0.6780071
5.396698
9.017393
11.54264
13.14612
14.04159
14.45267
14.54778
14.42071
14.10278
13.66641
13.15175
12.62486
12.08078
11.47835
10.78347
10.05955
9.463415
9.206154
9.386532
9.850262
10.23087
10.07002
9.07476
7.259079
4.947193
2.579796
0.4539661
-1.355757
-3.017643
-4.74049
-6.665255
-8.839699
-11.28984
-14.0717
-17.18794
-20.46274
-23.44669
-25.45003
-25.76282
-23.94171
-20.04189
-14.56682
-8.297417
-2.039543
3.592838
8.235695
11.72561
14.09792
15.46807
15.99382
15.8586
15.21799
14.24565
13.1017
11.95443
10.92149
10.08376
9.391399
8.743946
8.047928
7.302891
6.620384
6.151211
5.980206
6.00116
5.923328
5.4156
4.257153
2.466175
0.3014526
-1.876125
-3.740116
-5.127033
-6.10302
-6.910866
-7.88467
-9.349224
-11.47508
-14.16189
-16.99641
-19.33225
-20.43348
-19.75891
-17.14494
-12.85725
-7.509434
-1.808357
3.567768
8.165161
11.75295
14.26867
15.7446
16.29364
16.08006
15.28734
14.10588
12.69258
11.17764
9.646351
8.212494
6.974731
6.025444
5.46405
5.308788
5.509808
5.913624
6.26614
6.325447
5.902924
4.94014
3.508503
1.777023
-0.1075325
-1.978451
-3.731503
-5.301952
-6.685959
-7.98642
-9.394238
-11.12175
-13.31921
-15.89169
-18.45377
-20.42869
-21.20329
-20.35484
-17.78238
-13.73692
-8.720833
-3.352547
1.784222
6.265327
9.845016
12.44291
14.09501
14.87251
14.86402
14.18647
12.93227
11.26338
9.33305
7.323505
5.441284
3.879505
2.755169
2.089874
1.81189
1.716244
1.594524
1.292999
0.7917557
0.19767
-0.3301392
-0.7155609
-1.040115
-1.480087
-2.299225
-3.619293
-5.461933
-7.692554
-10.13726
-12.6403
-15.10652
-17.43593
-19.41154
-20.69959
-20.84455
-19.48503
-16.50626
-12.13229
-6.894154
-1.461781
3.553329
7.755249
10.95664
13.13184
14.29425
14.4663
13.7358
12.27629
10.3928
8.437763
6.698769
5.307625
4.2169
3.312687
2.523678
1.896866
1.527088
1.479759
1.617561
1.658813
1.291245
0.3678665
-1.04364
-2.690262
-4.316513
-5.797798
-7.26944
-8.986595
-11.22552
-14.11699
-17.54748
-21.16953
-24.47486
-26.90775
-27.91929
-27.08515
-24.2397
-19.50591
-13.36592
-6.540237
0.1833725
6.127831
10.84338
14.18596
16.20764
17.07404
16.9759
16.07844
14.56034
12.61796
10.51385
8.494087
6.763786
5.4646
4.652184
4.344078
4.487282
4.994682
5.663696
6.229477
6.390915
5.964798
4.935974
3.470757
1.858749
0.3108215
-1.108498
-2.521111
-4.173241
-6.343704
-9.213379
-12.76069
-16.74027
-20.65035
-23.83766
-25.62407
-25.50652
-23.29461
-19.17934
-13.67241
-7.427933
-1.144356
4.570015
9.277435
12.75485
14.99654
16.19507
16.63885
16.62192
16.36766
15.93503
15.31902
14.47979
13.42699
12.21968
10.91653
9.588715
8.267441
7.043228
6.031876
5.344513
4.995041
4.862137
4.688751
4.188446
3.161896
1.575684
-0.4094391
-2.555878
-4.633362
-6.595383
-8.546707
-10.75775
-13.44531
-16.68394
-20.22362
-23.54898
-25.94972
-26.74236
-25.50174
-22.18431
-17.08372
-10.81364
-4.073639
2.459717
8.23407
12.88409
16.2648
18.44682
19.63106
20.08678
19.9976
19.46632
18.50996
17.16077
15.52757
13.8084
12.23582
10.97279
10.09579
9.587036
9.37999
9.375427
9.473938
9.503189
9.264435
8.557663
7.282257
5.481415
3.364243
1.174164
-0.8756104
-2.722214
-4.440979
-6.227859
-8.309189
-10.87079
-13.95824
-17.42551
-20.90041
-23.80612
-25.48747
-25.35312
-23.1275
-18.92645
-13.2444
-6.823471
-0.4134827
5.390137
10.23375
13.95932
16.50662
17.89232
18.17387
17.50133
16.1319
14.38365
12.56216
10.88715
9.443466
8.228546
7.234268
6.447998
5.883163
5.567825
5.478378
5.54071
5.620148
5.571411
5.210144
4.394241
3.037781
1.147583
-1.167175
-3.718842
-6.325287
-8.895554
-11.3997
-13.9377
-16.64163
-19.58195
-22.68536
-25.71584
-28.20219
-29.55748
-29.18465
-26.65709
-21.93219
-15.38278
-7.758667
0.05352783
7.232468
13.2148
17.73186
20.71014
22.22427
22.41208
21.53876
19.97035
18.14322
16.45508
15.158
14.30579
13.73303
13.20056
12.48924
11.55466
10.54785
9.721283
9.3004
9.344894
9.62767
9.687927
9.039108
7.374954
4.729095
1.474792
-1.849045
-4.796448
-7.198318
-9.214355
-11.20975
-13.58119
-16.62259
-20.43823
-24.89865
-29.62218
-33.95349
-37.0556
-38.0504
-36.30299
-31.66118
-24.58907
-16.04431
-7.147354
1.121002
8.206818
13.96022
18.4547
21.85266
24.22195
25.60681
26.01561
25.58945
24.56024
23.19214
21.69371
20.13673
18.48947
16.71884
14.88596
13.18907
11.89813
11.2404
11.23637
11.65671
12.06006
11.99713
11.15184
9.524612
7.377167
5.092834
3.006287
1.222198
-0.3534698
-1.963669
-3.857864
-6.243866
-9.211716
-12.77824
-16.843
-21.14246
-25.2412
-28.44742
-30.01985
-29.35159
-26.18065
-20.71567
-13.61162
-5.735687
2.064896
9.113235
14.99007
19.50847
22.61623
24.36916
24.90385
24.45847
23.32455
21.84099
20.241
18.65259
17.09299
15.50494
13.90302
12.36833
11.05513
10.06599
9.385605
8.853546
8.231735
7.33963
6.113998
4.637985
3.080429
1.595459
0.2435455
-1.024048
-2.316788
-3.757507
-5.441833
-7.478668
-9.952042
-12.94533
-16.46716
-20.37033
-24.2495
-27.45947
-29.24724
-28.97661
-26.32092
-21.41344
-14.79955
-7.291916
0.2677765
7.16539
12.90553
17.19121
19.91582
21.10237
20.94914
19.78407
17.9903
15.96614
13.98183
12.21269
10.67867
9.356415
8.176605
7.093246
6.094299
5.17598
4.354172
3.56189
2.712265
1.673492
0.3392029
-1.307999
-3.185944
-5.105103
-6.906769
-8.516235
-9.996384
-11.52086
-13.34019
-15.67108
-18.62027
-22.11258
-25.77646
-28.96898
-30.85533
-30.66861
-27.94235
-22.72153
-15.59927
-7.50444
0.5679016
7.8797
14.00481
18.84738
22.47018
24.94676
26.31934
26.55681
25.70219
23.86852
21.31967
18.37241
15.3643
12.54353
10.09872
8.095535
6.555054
5.425598
4.602005
3.96579
3.37793
2.667313
1.695709
0.3668365
-1.351471
-3.368713
-5.554764
-7.768005
-9.930237
-12.10345
-14.43585
-17.11031
-20.201
-23.5522
-26.72298
-28.99475
-29.61708
-27.99272
-23.90411
-17.62239
-9.870529
-1.626907
6.106705
12.59407
17.48421
20.79971
22.80627
23.77786
23.9198
23.31586
21.99779
20.06528
17.77179
15.44583
13.35524
11.64983
10.25816
9.021561
7.752579
6.39325
4.988342
3.64653
2.443085
1.360474
0.3358459
-0.7014923
-1.800446
-2.939316
-4.160553
-5.562714
-7.344254
-9.718231
-12.81502
-16.53471
-20.52527
-24.2114
-26.87036
-27.79791
-26.49782
-22.80394
-16.98949
-9.687134
-1.762436
5.871643
12.46077
17.54216
20.93956
22.72409
23.11934
22.42583
20.93839
18.96562
16.76146
14.49498
12.28322
10.18686
8.268845
6.588333
5.215256
4.193329
3.514862
3.084885
2.776459
2.446426
1.978287
1.28862
0.3588409
-0.7917786
-2.110168
-3.511154
-4.962708
-6.499374
-8.295685
-10.58464
-13.51613
-17.03839
-20.76993
-23.99574
-25.85175
-25.58589
-22.79767
-17.67351
-10.91307
-3.521774
3.506561
9.44632
13.94279
16.96805
18.6638
19.19357
18.67397
17.20796
15.00418
12.37354
9.681107
7.232925
5.18071
3.509781
2.109146
0.8946381
-0.1330414
-0.9279633
-1.435852
-1.692368
-1.813583
-1.995682
-2.384781
-3.08725
-4.13652
-5.528122
-7.261002
-9.374512
-11.90027
-14.81859
-18.01733
-21.22809
-23.99222
-25.74217
-25.89691
-24.04807
-20.10591
-14.40779
-7.602798
-0.5266418
6.059402
11.63472
15.96404
19.0296
20.87381
21.53535
21.0206
19.39545
16.83397
13.67181
10.30737
7.133469
4.485687
2.548859
1.373932
0.8693542
0.7996521
0.8743591
0.763504
0.2317963
-0.7989655
-2.225021
-3.837494
-5.425873
-6.877426
-8.2556
-9.762451
-11.66049
-14.16849
-17.36766
-21.09482
-24.92175
-28.19081
-30.12837
-30.07971
-27.65559
-22.92056
-16.36772
-8.795731
-1.112564
5.913284
11.76624
16.24785
19.36807
21.27679
22.13518
22.12125
21.37663
20.04837
18.306
16.3167
14.24936
12.27177
10.50687
9.066177
7.989685
7.206772
6.589523
5.916962
4.991592
3.688217
1.982605
-0.04829407
-2.294449
-4.616821
-6.890076
-9.018463
-10.98828
-12.9304
-15.05371
-17.56221
-20.4369
-23.30103
-25.40866
-25.89937
-24.0692
-19.70332
-13.19702
-5.42215
2.573059
9.867554
15.83835
20.21489
22.98621
24.29005
24.36942
23.50348
21.99545
20.12076
18.12764
16.19059
14.45803
13.03873
11.97997
11.25592
10.75547
10.27041
9.585831
8.547447
7.148598
5.530106
3.897598
2.378952
0.9957886
-0.3830719
-1.946037
-3.850937
-6.135391
-8.715782
-11.48308
-14.38683
-17.47657
-20.76251
-24.07455
-26.87914
-28.37762
-27.73098
-24.43128
-18.56278
-10.8412
-2.393684
5.657028
12.49603
17.74297
21.3787
23.57443
24.51017
24.35628
23.27254
21.45306
19.13091
16.53333
13.88116
11.34496
9.063072
7.142921
5.645874
4.616028
4.031731
3.784508
3.738953
3.688805
3.480202
2.994667
2.192139
1.079636
-0.3106537
-1.91716
-3.74263
-5.844215
-8.296005
-11.15074
-14.41624
-17.93708
-21.39318
-24.2724
-25.93018
-25.75934
-23.38292
-18.83801
-12.59162
-5.478165
1.590324
7.863571
12.89896
16.57259
18.95408
20.20257
20.4673
19.87894
18.56311
16.65895
14.36968
11.91786
9.545261
7.487995
5.916679
4.934593
4.453949
4.294052
4.163284
3.841297
3.223076
2.328259
1.235371
0.005455017
-1.370323
-2.930569
-4.674046
-6.538685
-8.445465
-10.35066
-12.3205
-14.49548
-16.99805
-19.74725
-22.39141
-24.29348
-24.74704
-23.18963
-19.46523
-13.8857
-7.169048
-0.2091103
6.198919
11.49321
15.42424
17.97595
19.22074
19.27768
18.317
16.57652
14.37505
12.10432
10.11119
8.620182
7.739533
7.378441
7.370319
7.434215
7.295833
6.779372
5.873938
4.74135
3.6848
2.965371
2.610922
2.445926
2.086788
1.190214
-0.4254808
-2.681468
-5.345737
-8.163357
-11.01278
-13.96044
-17.13127
-20.59619
-24.20233
-27.50445
-29.81211
-30.3945
-28.72418
-24.67164
-18.65604
-11.47803
-4.050604
2.839108
8.727922
13.45094
17.03362
19.49807
20.81498
20.96395
20.02656
18.21982
15.91122
13.47928
11.19397
9.204348
7.521795
6.130653
5.019306
4.249268
3.895111
3.91777
4.156521
4.263897
3.850056
2.635185
0.5957794
-2.019264
-4.767216
-7.208645
-9.119469
-10.54319
-11.7669
-13.18254
-15.14725
-17.81612
-21.11164
-24.66359
-27.83318
-29.81414
-29.82668
-27.37706
-22.45011
-15.58745
-7.723999
0.04874039
6.802719
11.9402
15.27929
16.99416
17.51126
17.33155
16.93538
16.61343
16.46584
16.36009
16.02563
15.20165
13.8063
11.96962
9.984436
8.193481
6.875443
6.081772
5.69857
5.500534
5.229462
4.668198
3.679512
2.227173
0.344574
-1.824554
-4.060135
-6.125023
-7.861183
-9.254974
-10.4798
-11.83191
-13.57465
-15.75689
-18.0883
-20.0227
-20.90859
-20.26283
-17.92155
-14.0994
-9.27993
-4.046844
1.06736
5.636246
9.399353
12.18868
13.92542
14.61704
14.36123
13.3009
11.62753
9.565865
7.389137
5.370453
3.75
2.651749
2.047813
1.769394
1.624573
1.475677
1.312317
1.193817
1.142036
1.123627
0.9533234
0.4506302
-0.4893799
-1.799988
-3.308228
-4.81633
-6.230148
-7.626656
-9.216621
-11.19043
-13.5287
-15.92455
-17.77468
-18.41315
-17.36495
-14.53925
-10.28703
-5.231018
-0.06762695
4.668076
8.65239
11.75047
13.90654
15.08398
15.25784
14.48331
12.98428
11.09358
9.142258
7.330765
5.740311
4.3255
3.03447
1.8918
0.9739227
0.3672485
0.07341003
0.02096558
0.03189087
0.01385498
-0.1401978
-0.4916534
-1.119247
-2.137009
-3.651672
-5.698761
-8.193634
-10.95856
-13.77286
-16.50784
-19.0612
-21.27892
-22.86839
-23.36829
-22.2937
-19.34926
-14.67645
-8.828995
-2.66687
2.976105
7.522919
10.75879
12.75452
13.72444
13.88823
13.37514
12.25841
10.61092
8.570953
6.356094
4.200043
2.344666
0.9406586
0.05667114
-0.3600464
-0.4364777
-0.3598785
-0.298584
-0.4004517
-0.7799835
-1.496307
-2.564575
-3.964249
-5.614624
-7.363403
-9.11171
-10.84274
-12.62509
-14.60588
-16.81674
-19.10139
-21.05327
-22.13884
-21.83377
-19.81676
-16.17813
-11.28938
-5.781082
-0.3036804
4.603378
8.618439
11.64494
13.81978
15.34967
16.4216
17.13174
17.43059
17.22424
16.45357
15.14238
13.50356
11.80949
10.31235
9.125641
8.199783
7.339905
6.343262
5.104919
3.655869
2.117294
0.6112518
-0.8195343
-2.229675
-3.692123
-5.271255
-6.961044
-8.673264
-10.37402
-12.09885
-13.99954
-16.19734
-18.6284
-20.93417
-22.49686
-22.64717
-20.9102
-17.26727
-12.1452
-6.295654
-0.5357819
4.530045
8.568451
11.55057
13.57477
14.78268
15.26306
15.09218
14.39572
13.33008
12.06604
10.69606
9.242004
7.670197
6.020538
4.373962
2.902512
1.774582
1.07309
0.7492676
0.6070557
0.376709
-0.193634
-1.257507
-2.820175
-4.738464
-6.767471
-8.664734
-10.23589
-11.39235
-12.17535
-12.73665
-13.31715
-14.17186
-15.44508
-17.06134
-18.69235
-19.77312
-19.66617
-17.89351
-14.35052
-9.362717
-3.581177
2.217606
7.380905
11.46922
14.36189
16.10802
16.87337
16.84062
16.18503
15.0659
13.64609
12.09541
10.58069
9.220459
8.031601
6.967834
5.905624
4.768738
3.586151
2.521317
1.832718
1.745804
2.344742
3.468658
4.771225
5.818375
6.262527
5.930145
4.866959
3.283295
1.436356
-0.456543
-2.317276
-4.194534
-6.227905
-8.532135
-11.10674
-13.76143
-16.09314
-17.59172
-17.74132
-16.22096
-12.98993
-8.348312
-2.848297
2.838409
8.093826
12.43576
15.56453
17.37637
17.90128
17.28502
15.76765
13.63187
11.27751
9.087082
7.375259
6.303162
5.822906
5.73056
5.766556
5.719604
5.510345
5.194397
4.911331
4.784195
4.833862
4.9823
5.049088
4.82225
4.103058
2.817749
0.9896393
-1.214615
-3.583328
-5.910095
-8.08931
-10.14343
-12.16362
-14.20563
-16.14377
-17.66068
-18.26572
-17.51015
-15.14812
-11.3192
-6.525574
-1.474121
3.143478
6.846527
9.425491
10.94028
11.58438
11.56012
11.02922
10.10149
8.895523
7.525589
6.142517
4.857162
3.785736
2.968262
2.399033
2.042374
1.80368
1.615082
1.375015
1.007492
0.4070282
-0.4919891
-1.712082
-3.214478
-4.870377
-6.519363
-7.994949
-9.263641
-10.42574
-11.67163
-13.20488
-15.11427
-17.29675
-19.43214
-21.08766
-21.77531
-21.12804
-18.96283
-15.36891
-10.7067
-5.524963
-0.451828
3.970291
7.360901
9.653366
11.01421
11.73723
12.10876
12.30264
12.30821
12.01784
11.36823
10.32739
9.027832
7.643112
6.378311
5.38768
4.77858
4.566162
4.673508
4.942261
5.093185
4.841019
3.974213
2.439224
0.393219
-1.861069
-4.00621
-5.874146
-7.450485
-8.935089
-10.57156
-12.55678
-14.97331
-17.68608
-20.40187
-22.66202
-23.92046
-23.67876
-21.65169
-17.86856
-12.74622
-7.023697
-1.535553
3.040237
6.35733
8.428925
9.582901
10.1895
10.58217
10.91977
11.19603
11.32906
11.22391
10.81322
10.08684
9.111237
7.952408
6.714813
5.485275
4.348312
3.371933
2.593948
1.996201
1.495621
0.9574738
0.2212372
-0.8156128
-2.194534
-3.793579
-5.438629
-6.981415
-8.407867
-9.876816
-11.61104
-13.79005
-16.33401
-18.88147
-20.89351
-21.80334
-21.23865
-19.12863
-15.67418
-11.28928
-6.456161
-1.627121
2.815918
6.569687
9.403122
11.16586
11.81578
11.47678
10.39651
8.894485
7.25679
5.680511
4.244522
2.945313
1.761414
0.702301
-0.1580658
-0.7476654
-1.044479
-1.144669
-1.224106
-1.432236
-1.830429
-2.310501
-2.622757
-2.501678
-1.838135
-0.6830292
0.6974335
1.939178
2.745285
2.934052
2.396988
1.103729
-0.9624481
-3.690689
-6.768066
-9.614014
-11.52382
-11.89171
-10.44679
-7.414444
-3.394867
0.8466949
4.647049
7.647812
9.805832
11.26448
12.22301
12.76639
12.86716
12.45551
11.47754
10.02519
8.277649
6.492264
4.929214
3.833694
3.369614
3.644608
4.61232
6.050674
7.622726
8.955536
9.726593
9.755859
9.074753
7.827316
6.225143
4.46875
2.689713
0.9567871
-0.7129517
-2.353241
-4.083939
-6.010712
-8.183304
-10.49687
-12.65465
-14.24818
-14.82762
-14.0748
-11.86833
-8.381119
-4.045059
0.5566711
4.802048
8.210022
10.57088
11.92891
12.49594
12.52963
12.15678
11.35938
10.04048
8.180511
5.919357
3.570068
1.510513
0.00668335
-0.8389435
-1.13472
-1.071671
-0.8671417
-0.6783447
-0.5865784
-0.680954
-1.032394
-1.737366
-2.82254
-4.245422
-5.871155
-7.610733
-9.466934
-11.50926
-13.83093
-16.38499
-18.85786
-20.72681
-21.40131
-20.44232
-17.78558
-13.72437
-8.819778
-3.686066
1.106735
5.184433
8.328339
10.38774
11.33553
11.22081
10.18977
8.519562
6.505295
4.432098
2.483292
0.7748413
-0.6333008
-1.697571
-2.338074
-2.517349
-2.27037
-1.782944
-1.286057
-1.014877
-1.088165
-1.516418
-2.194244
-3.043549
-4.033707
-5.240982
-6.752151
-8.619705
-10.83572
-13.33238
-16.02069
-18.71539
-21.11406
-22.77248
-23.15686
-21.84622
-18.71069
-14.02684
-8.452728
-2.735779
2.48082
6.865311
10.39192
13.15054
15.23264
16.5583
17.0139
16.52812
15.20676
13.30943
11.1683
9.056038
7.095169
5.299088
3.644272
2.140434
0.8636246
-0.1146088
-0.7963257
-1.292313
-1.763695
-2.403091
-3.26461
-4.315376
-5.485825
-6.759933
-8.249352
-10.19251
-12.79209
-16.10666
-19.97504
-23.91808
-27.31248
-29.52398
-30.02757
-28.55765
-25.15753
-20.19601
-14.24496
-7.990479
-2.056526
3.075951
7.146965
10.14307
12.20674
13.53923
14.29011
14.52257
14.18978
13.26944
11.78922
9.929222
8.013126
6.316425
5.034451
4.181454
3.612453
3.140137
2.661289
2.131557
1.546761
0.8917007
0.08852768
-0.945013
-2.220198
-3.706041
-5.384321
-7.296154
-9.599525
-12.39231
-15.54947
-18.62853
-20.90106
-21.56379
-20.06126
-16.31469
-10.7208
-4.036201
2.892359
9.352103
14.83121
19.10563
22.12728
23.99179
24.87123
24.97785
24.51728
23.6324
22.35628
20.67996
18.5802
16.09923
13.41488
10.77435
8.504332
6.854895
5.942348
5.636707
5.625061
5.533585
5.020096
3.9179
2.206024
0.04411697
-2.401688
-4.940243
-7.460617
-9.920551
-12.38805
-14.99115
-17.82889
-20.84951
-23.7419
-25.94199
-26.76916
-25.61728
-22.24831
-16.88904
-10.16828
-2.916748
4.057663
10.18896
15.1613
18.85075
21.28564
22.54657
22.75636
22.06048
20.64935
18.71584
16.47417
14.13007
11.8902
9.964859
8.501129
7.589027
7.181145
7.133614
7.239723
7.325363
7.27282
7.030235
6.584587
5.89782
4.927666
3.657906
2.11647
0.341423
-1.689194
-4.105812
-7.08107
-10.69733
-14.74582
-18.62212
-21.42722
-22.26198
-20.55883
-16.35483
-10.25497
-3.220383
3.75708
9.939186
14.93089
18.64105
21.12601
22.48341
22.80223
22.20451
20.83975
18.93913
16.76064
14.53824
12.44371
10.57121
8.958237
7.6008
6.483749
5.554428
4.724762
3.926865
3.093323
2.212601
1.294189
0.356369
-0.6134949
-1.659164
-2.849487
-4.280594
-6.03447
-8.284195
-11.20589
-14.9066
-19.25038
-23.74612
-27.55162
-29.69392
-29.4332
-26.53282
-21.41803
-14.93736
-8.053177
-1.51973
4.256866
9.111603
12.96574
15.65015
17.00777
16.96814
15.72322
13.70644
11.43654
9.357925
7.700073
6.495834
5.634933
5.031921
4.591934
4.217804
3.794647
3.182877
2.337234
1.317352
0.3119507
-0.477951
-0.9091492
-1.014984
-1.027161
-1.290573
-2.18779
-4.01857
-6.870789
-10.57481
-14.67529
-18.48407
-21.18657
-22.06415
-20.58351
-16.64375
-10.56927
-3.113174
4.763611
12.07225
18.03758
22.26521
24.73825
25.70355
25.49538
24.37015
22.44946
19.84225
16.73047
13.46992
10.53302
8.341339
7.080063
6.56189
6.351578
5.937347
4.98407
3.418839
1.462753
-0.5635071
-2.404907
-3.999588
-5.452438
-7.003738
-8.879715
-11.24994
-14.22455
-17.80264
-21.89406
-26.22632
-30.27898
-33.32867
-34.55057
-33.27394
-29.22006
-22.64743
-14.343
-5.390167
3.09314
10.2888
15.80238
19.62094
21.98293
23.16884
23.37717
22.78023
21.57735
20.01663
18.46283
17.21797
16.39748
15.92056
15.53127
14.94131
13.964
12.60257
10.97371
9.249542
7.530136
5.822159
4.092239
2.272873
0.3191223
-1.831879
-4.275131
-7.1819
-10.69646
-14.82472
-19.33026
-23.65897
-27.03546
-28.64857
-27.94347
-24.81911
-19.67607
-13.2587
-6.386139
0.2605286
6.276031
11.42978
15.60803
18.70056
20.66617
21.51483
21.41183
20.58289
19.24149
17.51727
15.49619
13.26862
11.03958
9.068665
7.591492
6.665283
6.119904
5.639526
4.954193
3.94458
2.671173
1.277374
-0.1494751
-1.661255
-3.388916
-5.486816
-8.052551
-11.09836
-14.54343
-18.1889
-21.67542
-24.43793
-25.79965
-25.13029
-22.08752
-16.82004
-9.930237
-2.367004
4.901367
11.11954
15.89743
19.19772
21.2128
22.19684
22.34741
21.76907
20.52734
18.71323
16.51871
14.21564
12.12643
10.45285
9.221161
8.26712
7.301666
6.052826
4.429443
2.53772
0.5858154
-1.192108
-2.670044
-3.869019
-4.943268
-6.109772
-7.599854
-9.588104
-12.13013
-15.07712
-18.04153
-20.44836
-21.63568
-21.10422
-18.68521
-14.64545
-9.561249
-4.168884
0.9000549
5.25766
8.737671
11.32556
13.00824
13.68375
13.18945
11.44122
8.578552
5.094574
1.839569
-0.2659912
-0.5002747
1.33493
4.755096
8.758179
12.20456
14.22391
14.52768
13.37473
11.33441
8.970215
6.561646
4.063507
1.262177
-2.039673
-5.822418
-9.819153
-13.60605
-16.66675
-18.5148
-18.79144
-17.28491
-14.01373
-9.251312
-3.470459
2.690948
8.624023
13.77618
17.77277
20.39301
21.55017
21.31891
19.92487
17.71658
15.15366
12.67822
10.61993
9.12616
8.132019
7.484192
6.992096
6.544006
6.124878
5.740906
5.385406
4.985657
4.442108
3.610504
2.395477
0.6885681
-1.585602
-4.493835
-8.067352
-12.17972
-16.52826
-20.51385
-23.37512
-24.37112
-23.01563
-19.29163
-13.68646
-7.044098
-0.3167114
5.732666
10.66974
14.34387
16.84232
18.245
18.59186
17.92639
16.35904
14.14206
11.61041
9.116058
6.9039
5.076965
3.620941
2.502716
1.707336
1.24704
1.117004
1.236877
1.448761
1.556183
1.382751
0.8191528
-0.2156677
-1.765289
-3.917389
-6.769684
-10.37378
-14.61467
-19.14435
-23.35112
-26.4541
-27.66754
-26.40611
-22.52786
-16.39714
-8.838638
-0.921936
6.341064
12.25812
16.52792
19.18808
20.49573
20.74438
20.18561
19.03464
17.49014
15.77368
14.09482
12.57867
11.2457
9.998718
8.720245
7.353577
5.904099
4.47139
3.143051
1.98732
0.9893646
0.09338379
-0.791214
-1.758911
-2.899353
-4.356598
-6.259552
-8.738861
-11.81091
-15.36317
-19.07455
-22.42578
-24.8156
-25.63086
-24.42366
-21.0687
-15.78697
-9.154984
-1.953949
5.045883
11.24585
16.29523
20.10646
22.77612
24.46465
25.33659
25.52037
25.12907
24.27516
23.07368
21.601
19.9279
18.13757
16.37033
14.80241
13.56894
12.73367
12.11389
11.38861
10.19028
8.2771
5.622559
2.397354
-1.076828
-4.488785
-7.572464
-10.17972
-12.28285
-13.97585
-15.48087
-17.14928
-19.28589
-22.0177
-25.11455
-27.97319
-29.72057
-29.54985
-26.98366
-22.04626
-15.28432
-7.571198
0.1699982
7.131027
12.80142
16.96286
19.60289
20.85814
20.94032
20.1228
18.70578
16.99135
15.20743
13.50049
11.93279
10.48488
9.105301
7.777771
6.516159
5.347855
4.386139
3.679581
3.260376
2.995514
2.697983
2.141144
1.153595
-0.2961731
-2.049286
-3.843994
-5.413452
-6.583099
-7.426849
-8.193268
-9.281342
-11.06796
-13.77881
-17.31659
-21.2162
-24.74922
-27.03166
-27.35831
-25.40233
-21.26669
-15.48354
-8.815529
-2.046448
4.171906
9.393166
13.39761
16.14513
17.70696
18.27978
18.0728
17.28411
16.03064
14.37144
12.32572
9.972961
7.520676
5.257385
3.502647
2.456467
2.130798
2.331009
2.75808
3.087677
3.113724
2.760384
2.037918
1.053604
-0.1260452
-1.40519
-2.678307
-3.851547
-4.87307
-5.799408
-6.79171
-8.095413
-9.897598
-12.27661
-15.0203
-17.68641
-19.65833
-20.32754
-19.26806
-16.3878
-11.97061
-6.545116
-0.7941399
4.630287
9.241047
12.76307
15.10551
16.35144
16.6757
16.27417
15.34917
14.06545
12.49833
10.71355
8.714214
6.589462
4.459293
2.559738
1.082813
0.2050209
-0.07452774
0.07273483
0.3646088
0.4810543
0.1840534
-0.6139145
-1.830486
-3.312258
-4.86562
-6.372902
-7.790703
-9.152226
-10.56012
-12.1451
-14.06658
-16.39843
-19.05902
-21.68431
-23.71041
-24.45411
-23.37536
-20.32019
-15.59857
-9.870432
-3.913416
1.604877
6.267748
9.889366
12.39973
13.76203
13.9591
13.10013
11.45758
9.44698
7.490703
5.890545
4.736572
3.95343
3.423643
3.052687
2.837286
2.784832
2.86973
2.988243
3.000631
2.780148
2.280727
1.487532
0.4175835
-0.8910427
-2.419399
-4.120344
-5.910257
-7.754261
-9.705647
-11.9198
-14.52657
-17.52841
-20.64618
-23.34276
-24.93275
-24.81933
-22.76501
-18.93723
-13.89094
-8.317863
-2.878422
2.002529
6.119286
9.426476
11.93214
13.58528
14.33081
14.1622
13.22878
11.80051
10.2191
8.759899
7.531071
6.510029
5.578068
4.714958
3.962482
3.447216
3.244694
3.326836
3.522007
3.557606
3.17757
2.168419
0.4866791
-1.771854
-4.371777
-7.036533
-9.491837
-11.58557
-13.37811
-15.07052
-16.96132
-19.24316
-21.87676
-24.53567
-26.64867
-27.60523
-26.89198
-24.31133
-19.98998
-14.34781
-7.978119
-1.495895
4.563919
9.826302
14.03711
17.07527
18.90443
19.58617
19.23673
18.03301
16.16224
13.85892
11.39787
9.065323
7.106323
5.66935
4.787468
4.360214
4.240524
4.29126
4.433243
4.618538
4.727448
4.611389
4.080399
3.020233
1.464699
-0.3863907
-2.244087
-3.863754
-5.146362
-6.17852
-7.222603
-8.624374
-10.68809
-13.57492
-17.17155
-21.04891
-24.50046
-26.71462
-27.04025
-25.14973
-21.20387
-15.73798
-9.488213
-3.183342
2.611809
7.50103
11.23956
13.69784
14.88639
14.95404
14.24393
13.19269
12.21301
11.58194
11.31026
11.22098
11.03623
10.57536
9.801033
8.81691
7.824493
7.014526
6.499832
6.302704
6.353836
6.491508
6.522316
6.218544
5.383789
3.919746
1.87426
-0.57621
-3.166428
-5.657143
-7.90136
-9.885971
-11.69519
-13.52998
-15.60661
-18.10495
-21.0257
-24.06942
-26.61319
-27.86884
-27.12171
-24.01243
-18.76379
-12.06307
-4.847221
1.973091
7.78688
12.27451
15.40652
17.27529
18.03065
17.83083
16.90398
15.51657
13.94149
12.43042
11.11822
10.01038
9.003952
7.975296
6.811501
5.545166
4.316589
3.336609
2.789276
2.723724
2.999969
3.33828
3.387985
2.886597
1.719139
-0.03968048
-2.144028
-4.258614
-6.072746
-7.410545
-8.329353
-9.082306
-10.05163
-11.59887
-13.88577
-16.76361
-19.75554
-22.19869
-23.42409
-22.94461
-20.61718
-16.63656
-11.43631
-5.595871
0.3143234
5.798683
10.4954
14.20116
16.78951
18.25861
18.65792
18.12794
16.85303
15.09937
13.12991
11.20269
9.491425
8.037552
6.805054
5.75116
4.860268
4.176933
3.750366
3.542084
3.373894
2.980972
2.132072
0.7322311
-1.06987
-2.971069
-4.646713
-5.862671
-6.601089
-7.033966
-7.448288
-8.131149
-9.33297
-11.16316
-13.52384
-16.08125
-18.27214
-19.44891
-19.06123
-16.83876
-12.94518
-7.921913
-2.514458
2.55999
6.867096
10.27142
12.8381
14.65864
15.69707
15.79333
14.82062
12.84003
10.16254
7.270149
4.7248
2.92688
2.049522
1.970497
2.402496
3.003014
3.491852
3.725174
3.647179
3.306839
2.762054
2.038689
1.132027
0.001976013
-1.347015
-2.877106
-4.485176
-6.076416
-7.639931
-9.307533
-11.27145
-13.67384
-16.43167
-19.18108
-21.33168
-22.20918
-21.35571
-18.65181
-14.4168
-9.283669
-3.977737
0.8529282
4.824547
7.809074
9.919868
11.3172
12.16007
12.5113
12.3582
11.66526
10.46727
8.927132
7.268379
5.71981
4.417542
3.380722
2.597504
2.039513
1.747551
1.779747
2.136681
2.645943
2.990715
2.815536
1.919823
0.3231659
-1.744957
-3.94548
-6.038055
-7.957275
-9.86834
-12.0408
-14.64757
-17.62151
-20.58553
-22.89899
-23.86634
-22.98687
-20.14749
-15.66606
-10.14865
-4.317047
1.22287
6.115128
10.19412
13.3791
15.59575
16.76206
16.89031
16.13667
14.80451
13.24409
11.73085
10.42491
9.350182
8.454857
7.708786
7.095383
6.595566
6.186668
5.77066
5.272614
4.627739
3.777527
2.711555
1.386536
-0.1956177
-1.958794
-3.732925
-5.303391
-6.594818
-7.723526
-9.022812
-10.92866
-13.72997
-17.38589
-21.45332
-25.21883
-27.86433
-28.79
-27.69846
-24.664
-20.04115
-14.35441
-8.192719
-2.084381
3.52372
8.342049
12.20322
15.05807
16.92915
17.92409
18.1517
17.7612
16.90004
15.70494
14.32221
12.85167
11.40252
10.09058
9.001671
8.184914
7.632622
7.278702
7.041565
6.835052
6.544518
6.08519
5.328644
4.201797
2.686867
0.8811951
-1.01931
-2.809921
-4.377754
-5.774879
-7.177055
-8.828232
-10.90406
-13.41766
-16.21937
-19.01099
-21.3822
-22.88614
-23.11689
-21.80303
-18.89232
-14.59274
-9.30761
-3.57082
2.113243
7.321831
11.78836
15.31917
17.82644
19.26572
19.69514
19.28749
18.28461
16.93108
15.41881
13.87592
12.38162
10.97735
9.733696
8.690834
7.885151
7.314781
6.931995
6.670532
6.407745
6.050289
5.510677
4.764778
3.81617
2.699894
1.487389
0.226326
-1.04496
-2.306976
-3.547855
-4.787914
-6.059402
-7.445435
-9.068356
-11.08136
-13.56918
-16.46593
-19.49846
-22.17426
-23.89975
-24.10553
-22.45401
-18.97435
-14.00388
-8.134888
-2.019291
3.80912
8.944241
13.15041
16.31176
18.40734
19.49027
19.71379
19.28455
18.44489
17.41217
16.32861
15.25313
14.18512
13.10281
11.95621
10.76566
9.598701
8.583256
7.862553
7.503799
7.442039
7.469894
7.304352
6.715298
5.613663
4.051254
2.19228
0.2085152
-1.765396
-3.641819
-5.345104
-6.825115
-8.095062
-9.263702
-10.58367
-12.29245
-14.55157
-17.21104
-19.84987
-21.78412
-22.32038
-20.99432
-17.71282
-12.81227
-6.94347
-0.8671112
4.786411
9.625275
13.49024
16.40041
18.37583
19.4147
19.46858
18.59328
16.97078
14.93233
12.87476
11.0938
9.734234
8.746986
8.019905
7.447323
6.969002
6.581261
6.273014
5.996655
5.651283
5.125317
4.327602
3.222729
1.858475
0.3726349
-1.086517
-2.379997
-3.475002
-4.492332
-5.654472
-7.219414
-9.348274
-12.0019
-14.92805
-17.68467
-19.735
-20.55142
-19.7322
-17.08469
-12.76085
-7.187672
-1.105316
4.710163
9.579288
13.12446
15.30854
16.33431
16.4772
15.96235
14.95112
13.53358
11.83662
10.02209
8.262939
6.686096
5.346222
4.278893
3.477131
2.99041
2.832905
2.991615
3.339127
3.655205
3.703026
3.273773
2.292549
0.8636169
-0.7707367
-2.375984
-3.79937
-5.018547
-6.172707
-7.424736
-8.935356
-10.75585
-12.93151
-15.41606
-18.09758
-20.71208
-22.79548
-23.74205
-22.94888
-20.08466
-15.3087
-9.288055
-2.941109
2.84288
7.515816
10.97602
13.38623
14.9822
15.89364
16.1235
15.65648
14.59896
13.18176
11.69762
10.39581
9.322449
8.410164
7.539856
6.670486
5.860336
5.228882
4.858994
4.690529
4.541611
4.170692
3.413597
2.254906
0.8140717
-0.6887436
-2.071632
-3.242737
-4.219063
-5.135216
-6.159706
-7.477943
-9.237839
-11.5352
-14.3445
-17.48781
-20.55531
-22.99061
-24.18094
-23.64017
-21.20115
-17.02863
-11.64783
-5.724838
0.06079865
5.198471
9.349518
12.40171
14.37489
15.3942
15.61707
15.24823
14.48367
13.48045
12.37183
11.25278
10.14636
9.03965
7.913773
6.787308
5.761536
5.00412
4.693565
4.91188
5.621368
6.596565
7.525642
8.073303
7.990349
7.192772
5.733185
3.790977
1.612366
-0.5631256
-2.564514
-4.326927
-5.922928
-7.538902
-9.40831
-11.74121
-14.60357
-17.85387
-21.13016
-23.86981
-25.4351
-25.26595
-23.03767
-18.81818
-13.05119
-6.49942
0.01381683
5.773979
10.34496
13.59147
15.61944
16.66993
16.98034
16.74416
16.01364
14.81567
13.15459
11.11176
8.855103
6.621048
4.649635
3.082375
1.990875
1.339081
1.057846
1.104797
1.444267
1.991905
2.568527
2.910095
2.737701
1.901886
0.4324493
-1.416031
-3.339676
-5.067612
-6.506332
-7.768524
-9.113327
-10.85396
-13.20358
-16.12309
-19.26857
-22.05304
-23.77795
-23.87778
-22.10811
-18.59915
-13.79601
-8.281708
-2.625717
2.718643
7.407394
11.14383
13.74773
15.16191
15.49933
14.98738
13.89516
12.4209
10.67703
8.731552
6.711609
4.836319
3.312958
2.300186
1.822128
1.773529
1.956848
2.203461
2.346863
2.263
1.828278
0.9268036
-0.4559784
-2.203323
-4.073029
-5.767502
-7.088135
-8.053757
-8.888885
-9.930862
-11.46613
-13.52943
-15.80759
-17.73633
-18.61951
-17.92194
-15.4603
-11.45691
-6.484955
-1.246353
3.643585
7.7556
10.8891
12.98924
14.0636
14.09865
13.13037
11.29095
8.822006
6.096817
3.513672
1.353683
-0.2424164
-1.313278
-2.026566
-2.529984
-2.943604
-3.294617
-3.527985
-3.572571
-3.386917
-3.022507
-2.633881
-2.462982
-2.744064
-3.606049
-5.07283
-7.055496
-9.46019
-12.24275
-15.37816
-18.7236
-21.93655
-24.4061
-25.40485
-24.36125
-21.12582
-16.10966
-10.13313
-4.126709
1.187866
5.440994
8.616974
10.83797
12.23399
12.84848
12.6839
11.79106
10.31187
8.497375
6.622406
4.92746
3.587738
2.668869
2.165161
1.99939
1.996994
1.984573
1.806046
1.393494
0.7453842
-0.1159592
-1.161041
-2.394859
-3.786972
-5.315689
-6.959068
-8.755547
-10.81373
-13.28864
-16.21528
-19.40199
-22.32263
-24.25784
-24.55227
-22.82072
-19.15143
-14.05872
-8.304115
-2.625061
2.417793
6.553497
9.720703
11.99526
13.48914
14.30453
14.49644
14.12375
13.2522
11.98146
10.42886
8.751244
7.085693
5.550018
4.212898
3.122292
2.310951
1.762489
1.436676
1.22081
0.9777451
0.5268097
-0.2901688
-1.54258
-3.225616
-5.211792
-7.382904
-9.649063
-12.0378
-14.65675
-17.578
-20.7017
-23.65853
-25.85291
-26.58398
-25.34505
-21.99802
-16.85962
-10.58718
-3.958057
2.360947
7.898277
12.42932
15.901
18.29743
19.67466
20.12617
19.84608
19.08716
18.09608
17.03327
15.93577
14.78255
13.49701
12.07479
10.57067
9.149155
7.999313
7.310455
7.154774
7.44482
7.89996
8.122681
7.741524
6.526146
4.52132
2.039093
-0.4835129
-2.661438
-4.314917
-5.600815
-6.837988
-8.408031
-10.62433
-13.57426
-17.09461
-20.7826
-24.06743
-26.33149
-27.02516
-25.77751
-22.54344
-17.54705
-11.32433
-4.535975
2.151866
8.219007
13.34745
17.3868
20.35626
22.32747
23.39696
23.6649
23.22828
22.20419
20.80239
19.29809
17.97157
17.05916
16.62102
16.57382
16.70048
16.75722
16.57629
16.142
15.55715
14.95394
14.42164
13.89796
13.23279
12.2373
10.72013
8.638169
6.053127
3.16755
0.2188234
-2.4951
-4.782624
-6.555647
-7.85589
-8.892162
-9.950489
-11.37179
-13.39552
-16.09317
-19.25786
-22.40184
-24.85561
-25.88431
-24.93039
-21.80441
-16.76192
-10.40836
-3.575617
3.022131
8.819979
13.57862
17.21116
19.72055
21.11403
21.39314
20.65001
19.14258
17.26683
15.42258
13.90462
12.83014
12.11102
11.62953
11.2855
11.069
10.98012
10.98356
11.00301
10.88849
10.56155
10.00232
9.283176
8.475443
7.579813
6.513203
5.196547
3.586805
1.744291
-0.1768074
-2.076431
-3.899255
-5.71314
-7.647348
-9.787075
-12.18101
-14.78524
-17.49532
-20.09904
-22.29572
-23.65401
-23.69172
-22.0272
-18.513
-13.40841
-7.313151
-1.042527
4.682164
9.368826
12.88761
15.35061
16.90986
17.66084
17.58577
16.67929
15.09416
13.15981
11.29672
9.903038
9.124426
8.839096
8.759218
8.576781
8.161601
7.60935
7.161841
7.034201
7.278238
7.713312
8.037449
7.926394
7.184718
5.840443
4.069695
2.149644
0.3124595
-1.299163
-2.682691
-3.936702
-5.237906
-6.803628
-8.846867
-11.45518
-14.52925
-17.71679
-20.48934
-22.28801
-22.663
-21.41977
-18.63477
-14.58716
-9.658031
-4.274393
1.079109
5.929279
9.824268
12.46473
13.78647
13.98314
13.43361
12.54359
11.61229
10.7622
9.987513
9.243118
8.530102
7.91275
7.463362
7.213621
7.131952
7.182568
7.3255
7.56319
7.840046
8.015205
7.846294
7.096989
5.624382
3.520485
1.067085
-1.354477
-3.409058
-4.932068
-5.980507
-6.766254
-7.608433
-8.821846
-10.64484
-13.1338
-16.11243
-19.16779
-21.72826
-23.14614
-22.90537
-20.77058
-16.88416
-11.73876
-6.0466
-0.5187874
4.3232
8.215168
11.10392
13.05838
14.11988
14.31484
13.67411
12.33714
10.52896
8.568188
6.734287
5.231255
4.162758
3.551544
3.389091
3.588989
4.03392
4.536217
4.911346
5.047523
4.875153
4.364525
3.488518
2.222977
0.5627441
-1.367325
-3.333519
-5.063545
-6.409813
-7.437546
-8.402237
-9.662254
-11.43761
-13.74107
-16.35268
-18.87768
-20.88339
-21.98215
-21.86234
-20.34134
-17.40317
-13.25734
-8.33152
-3.179863
1.643349
5.755943
8.989326
11.38341
13.04435
14.06809
14.50145
14.39931
13.84775
12.9999
11.98873
10.90616
9.785179
8.649117
7.548965
6.5867
5.855385
5.328453
4.900826
4.41082
3.781021
3.072021
2.406464
1.867844
1.393631
0.7812576
-0.2140656
-1.726242
-3.704926
-5.922455
-8.105797
-10.0425
-11.6307
-12.92892
-14.09202
-15.33913
-16.86024
-18.71085
-20.74468
-22.57154
-23.67345
-23.49796
-21.71947
-18.32026
-13.62463
-8.168373
-2.590813
2.546257
6.799309
9.923187
11.84364
12.71015
12.82702
12.54826
12.18203
11.88204
11.62804
11.29273
10.75047
9.920418
8.845963
7.632614
6.423935
5.336632
4.435959
3.789772
3.452332
3.493034
3.892555
4.540085
5.14949
5.392349
4.968773
3.741501
1.809288
-0.5414734
-2.949188
-5.122223
-6.902122
-8.311172
-9.507355
-10.70537
-12.14439
-14.03866
-16.49837
-19.45901
-22.59229
-25.29469
-26.88026
-26.75491
-24.6254
-20.63439
-15.27703
-9.28138
-3.356049
1.938393
6.283836
9.607018
11.99233
13.6055
14.56769
14.99926
14.95686
14.47072
13.62712
12.54149
11.40062
10.39169
9.646782
9.159721
8.836868
8.519096
8.087898
7.515312
6.869041
6.292877
5.901146
5.758621
5.821289
5.95787
5.968605
5.597076
4.642685
3.010513
0.8127975
-1.676529
-4.119698
-6.222801
-7.927658
-9.405998
-10.96078
-12.88729
-15.34767
-18.27866
-21.4098
-24.3228
-26.48006
-27.33434
-26.42722
-23.53317
-18.7827
-12.68309
-5.993706
0.506279
6.187157
10.70928
13.97268
16.06328
17.13779
17.38174
16.98804
16.12686
14.93141
13.48288
11.86421
10.16353
8.529037
7.124283
6.026108
5.23143
4.626144
4.114456
3.660118
3.356049
3.329544
3.620728
4.087402
4.404144
4.207275
3.23468
1.467064
-0.8397293
-3.236641
-5.291565
-6.762573
-7.703476
-8.431274
-9.39978
-10.99182
-13.31532
-16.10001
-18.7715
-20.64349
-21.1356
-19.97339
-17.21364
-13.17201
-8.365845
-3.333458
1.477242
5.718452
9.189117
11.78182
13.47972
14.29776
14.30768
13.59148
12.28289
10.58083
8.68457
6.811478
5.159096
3.867958
3.035522
2.685944
2.759499
3.094193
3.478905
3.72953
3.730339
3.453949
2.940308
2.233139
1.345642
0.2535858
-1.06575
-2.606232
-4.310234
-6.090446
-7.909325
-9.866333
-12.10159
-14.73206
-17.69072
-20.6239
-22.92667
-23.96674
-23.20541
-20.47007
-16.03193
-10.46878
-4.503052
1.182884
6.105927
9.998108
12.76005
14.38891
14.96433
14.63299
13.56596
11.97778
10.06443
7.98204
5.887787
3.948418
2.357681
1.320831
0.9188919
1.080101
1.558449
1.989891
2.060425
1.59346
0.6125412
-0.6962433
-2.093521
-3.408508
-4.559265
-5.643471
-6.836105
-8.370514
-10.44831
-13.17287
-16.47101
-20.02308
-23.28189
-25.58368
-26.26465
-24.94991
-21.65477
-16.80637
-11.1218
-5.376633
-0.1936035
4.073219
7.303078
9.549347
10.92801
11.53625
11.49026
10.84742
9.693855
8.154831
6.413902
4.686279
3.202934
2.135529
1.519745
1.232422
1.065063
0.8336105
0.4730072
0.03570557
-0.3626251
-0.6817169
-1.01123
-1.543007
-2.464493
-3.881203
-5.764946
-8.006027
-10.55258
-13.42611
-16.67305
-20.24144
-23.78677
-26.64558
-28.00211
-27.174
-23.88256
-18.49319
-11.85017
-5.037926
1.041416
5.908062
9.555168
12.26038
14.32328
15.8848
16.86712
17.09331
16.48664
15.15853
13.3838
11.44855
9.535614
7.673487
5.831932
4.038828
2.478519
1.417141
1.042639
1.354738
2.057846
2.702614
2.877865
2.382322
1.271761
-0.2374649
-1.942101
-3.807146
-5.918998
-8.46143
-11.56068
-15.21445
-19.23813
-23.24269
-26.69829
-28.9932
-29.61445
-28.24414
-24.87266
-19.80902
-13.60656
-6.92527
-0.4114532
5.41011
10.21287
13.86254
16.38259
17.8991
18.56557
18.55398
18.02912
17.20373
16.30702
15.52439
14.95962
14.58512
14.24975
13.82428
13.25515
12.58484
11.92281
11.34568
10.81159
10.16644
9.239697
7.903793
6.136452
4.062256
1.822357
-0.4067307
-2.537132
-4.560974
-6.610519
-8.88736
-11.62087
-14.97559
-18.92001
-23.18932
-27.27102
-30.47438
-32.08817
-31.55846
-28.67066
-23.6345
-17.01814
-9.613304
-2.198059
4.637688
10.51884
15.27971
18.87898
21.3258
22.6775
23.06982
22.71494
21.88653
20.86359
19.82851
18.88195
18.01085
17.15292
16.23927
15.19676
14.03876
12.82593
11.66115
10.65984
9.869522
9.208847
8.495926
7.484314
5.986969
3.974564
1.567627
-0.9656067
-3.335724
-5.363617
-7.032181
-8.499435
-10.05304
-12.02345
-14.64381
-17.93547
-21.65256
-25.26526
-28.07341
-29.38942
-28.68378
-25.77879
-20.9035
-14.61826
-7.676483
-0.8170166
5.385513
10.58215
14.67485
17.74165
19.92509
21.35175
22.08344
22.14552
21.60107
20.58121
19.31987
18.08037
17.06032
16.2966
15.69409
15.12935
14.52271
13.9164
13.44914
13.21526
13.1884
13.19112
12.94818
12.23651
10.98592
9.240173
7.148743
4.861526
2.476761
0.04975891
-2.404648
-4.90509
-7.495392
-10.28021
-13.36273
-16.79353
-20.45604
-24.00804
-26.89265
-28.48093
-28.18506
-25.70586
-21.08434
-14.76445
-7.433426
0.1273193
7.196701
13.26994
18.07428
21.54315
23.73865
24.81509
24.96967
24.43597
23.46756
22.29405
21.0847
19.89816
18.73276
17.54019
16.31781
15.10172
13.97412
13.05708
12.42287
12.10797
12.00333
11.90375
11.54831
10.6937
9.232178
7.209686
4.823471
2.31749
-0.09140015
-2.340836
-4.522842
-6.795563
-9.34256
-12.27405
-15.56367
-19.02541
-22.31961
-24.92108
-26.22049
-25.67741
-22.98674
-18.19302
-11.73146
-4.372009
2.974487
9.4711
14.53392
17.91504
19.66353
20.08305
19.53072
18.36412
16.85786
15.18274
13.43919
11.71414
10.08253
8.660294
7.560287
6.872314
6.653336
6.903183
7.577057
8.549316
9.602341
10.403
10.60991
9.946396
8.333466
5.954987
3.194946
0.5060425
-1.823029
-3.761765
-5.584122
-7.652557
-10.30478
-13.61241
-17.28944
-20.75494
-23.24818
-24.09615
-22.88403
-19.57762
-14.52042
-8.359116
-1.848587
4.319336
9.596527
13.64149
16.30742
17.58354
17.58379
16.51674
14.66519
12.37117
9.981628
7.743988
5.853302
4.409729
3.447617
2.95517
2.829224
2.90451
2.965088
2.804016
2.282089
1.419434
0.3649139
-0.6933899
-1.653946
-2.538345
-3.5392
-4.876846
-6.753799
-9.289154
-12.47635
-16.19397
-20.17172
-23.95937
-26.89232
-28.23738
-27.37138
-24.03557
-18.52196
-11.60204
-4.300827
2.395477
7.872131
11.93362
14.70512
16.43797
17.34941
17.56181
17.15347
16.18657
14.79123
13.1075
11.27805
9.423309
7.650833
6.05899
4.699814
3.617554
2.762604
2.05014
1.371658
0.6332245
-0.2254944
-1.195236
-2.248505
-3.395203
-4.71344
-6.355637
-8.504929
-11.3044
-14.7538
-18.65413
-22.5182
-25.70044
-27.50964
-27.39629
-25.08566
-20.69279
-14.67276
-7.738953
-0.6730042
5.839737
11.34966
15.64384
18.74417
20.78378
21.90669
22.24672
21.87479
20.86343
19.26706
17.17683
14.73967
12.14644
9.591995
7.270187
5.305862
3.746704
2.541183
1.616867
0.8826141
0.2499237
-0.395813
-1.207153
-2.336456
-3.896912
-5.890884
-8.250916
-10.91882
-13.89735
-17.27112
-21.11612
-25.29048
-29.33717
-32.4772
-33.84885
-32.83911
-29.33879
-23.79726
-17.01025
-9.809418
-2.799789
3.698029
9.527283
14.51312
18.40154
20.95468
22.127
22.13396
21.42793
20.41299
19.28441
17.95923
16.26509
14.13335
11.73409
9.441376
7.583328
6.293213
5.450974
4.802567
4.132019
3.371445
2.512741
1.521408
0.2711029
-1.387177
-3.526321
-6.040161
-8.762772
-11.54927
-14.44646
-17.614
-21.19421
-25.00531
-28.46429
-30.68704
-30.78883
-28.30495
-23.33609
-16.60402
-9.139694
-1.944534
4.318726
9.410751
13.41092
16.5327
18.9518
20.72426
21.81273
22.21597
22.00125
21.30376
20.26421
18.9718
17.463
15.78458
14.06987
12.51608
11.34709
10.67532
10.43204
10.35799
10.15247
9.545944
8.39418
6.690491
4.520859
2.011032
-0.6876221
-3.465897
-6.205841
-8.84494
-11.4453
-14.16982
-17.22784
-20.76901
-24.73576
-28.78183
-32.26782
-34.42336
-34.54124
-32.26459
-27.66977
-21.23169
-13.71054
-5.862671
1.642471
8.336441
13.94368
18.26311
21.19933
22.74574
23.03766
22.33105
20.97775
19.30797
17.58214
15.95773
14.45894
13.07748
11.81697
10.69745
9.781204
9.147995
8.843277
8.798111
8.856033
8.790878
8.349167
7.345749
5.722839
3.557587
1.06572
-1.50119
-3.931686
-6.09938
-8.040344
-9.913818
-11.94733
-14.38976
-17.32169
-20.59933
-23.81944
-26.33507
-27.45638
-26.64757
-23.67696
-18.70071
-12.26118
-5.056839
2.161179
8.762909
14.34277
18.69562
21.77567
23.63023
24.39937
24.18382
23.10376
21.27728
18.8743
16.1368
13.39488
10.97995
9.121506
7.912262
7.24765
6.972748
6.917557
6.972031
7.026947
6.957764
6.58844
5.742233
4.370789
2.573639
0.628479
-1.191925
-2.713257
-3.972092
-5.206345
-6.75209
-8.931015
-11.86722
-15.4572
-19.26424
-22.60732
-24.66751
-24.72281
-22.38539
-17.76634
-11.50835
-4.550674
2.127289
7.822479
12.20694
15.31302
17.33104
18.43571
18.67667
18.02052
16.48174
14.17097
11.37752
8.510727
5.924606
3.873367
2.404556
1.439713
0.7759705
0.2568207
-0.2444916
-0.7778015
-1.344543
-1.925842
-2.5224
-3.192062
-3.98262
-4.989578
-6.220795
-7.61261
-9.043701
-10.42262
-11.79582
-13.36978
-15.44926
-18.17747
-21.37338
