-21.61462
-21.60306
-19.98813
-16.90155
-12.75455
-8.110901
-3.508057
0.6852036
4.32309
7.395424
9.930481
11.88391
13.17876
13.72083
13.51313
12.7005
11.5377
10.31872
9.292877
8.641991
8.425949
8.61393
9.045891
9.535728
9.904907
10.04504
9.971794
9.762642
9.553696
9.393509
9.280228
9.086609
8.631233
7.765182
6.43483
4.704872
2.745598
0.80793
-0.9101257
-2.296158
-3.409836
-4.456791
-5.675667
-7.286301
-9.430553
-12.09494
-15.13512
-18.26758
-21.04382
-22.89737
-23.28618
-21.8166
-18.4532
-13.6177
-8.038208
-2.523518
2.294086
6.152618
9.093498
11.29471
12.91059
13.91851
14.20861
13.77496
12.7648
11.51248
10.43406
9.790419
9.630413
9.8076
10.10857
10.35686
10.55232
10.76488
11.05746
11.42575
11.73035
11.78664
11.47551
10.81286
9.906741
8.922909
7.958196
6.985621
5.907674
4.603833
3.014736
1.173436
-0.8637486
-3.057293
-5.466167
-8.202253
-11.32567
-14.70946
-17.96855
-20.50692
-21.65603
-20.93644
-18.15652
-13.58354
-7.772266
-1.487528
4.549088
9.773613
13.8665
16.75182
18.45704
19.12315
18.92923
18.10202
16.89654
15.5945
14.44196
13.5666
12.99206
12.59613
12.25603
11.86156
11.44661
11.10333
10.96043
11.05168
11.29041
11.47759
11.36185
10.72665
9.445671
7.520504
5.077751
2.354427
-0.4186211
-3.031715
-5.393383
-7.562256
-9.734169
-12.15621
-15.01229
-18.30492
-21.75958
-24.86494
-26.93679
-27.36235
-25.74975
-22.09769
-16.77534
-10.42227
-3.778511
2.499985
7.908501
12.15546
15.10068
16.73197
17.12889
16.49292
15.12475
13.3652
11.55077
9.901901
8.527954
7.397957
6.392242
5.444122
4.529449
3.722672
3.12915
2.850166
2.853561
2.997078
3.104393
2.996147
2.577637
1.833603
0.8178635
-0.4379044
-1.917686
-3.631096
-5.644814
-8.047775
-10.89063
-14.14417
-17.58763
-20.76445
-23.05562
-23.80845
-22.60314
-19.35962
-14.425
-8.456337
-2.214394
3.685295
8.857811
13.15302
16.50764
18.8957
20.20673
20.33785
19.27119
17.17368
14.40874
11.46541
8.833366
6.872192
5.748909
5.339386
5.372047
5.486176
5.373138
4.898743
4.100334
3.152687
2.227348
1.382751
0.5108719
-0.5392303
-1.928215
-3.737923
-6.020607
-8.775833
-11.95219
-15.41828
-18.80534
-21.54456
-22.95438
-22.44878
-19.80099
-15.23312
-9.353676
-2.973083
3.168228
8.548691
12.96367
16.38101
18.8539
20.41702
21.06743
20.8062
19.67439
17.84256
15.59079
13.26663
11.18712
9.53894
8.359955
7.560852
6.980087
6.460419
5.899765
5.250458
4.477646
3.594696
2.59964
1.459457
0.1358337
-1.423218
-3.30368
-5.548233
-8.248367
-11.40784
-14.89659
-18.38098
-21.28378
-22.91261
-22.6483
-20.15596
-15.57825
-9.450912
-2.617691
4.091202
10.03908
14.86728
18.47157
20.90387
22.27745
22.74034
22.45401
21.59186
20.30949
18.69991
16.80905
14.71869
12.54761
10.49802
8.791962
7.559464
6.76358
6.212921
5.631866
4.850021
3.863022
2.803497
1.838943
0.9960022
0.1543121
-0.941925
-2.561981
-4.865997
-7.87915
-11.42102
-15.1232
-18.45151
-20.7272
-21.30234
-19.73978
-16.00835
-10.57321
-4.212128
2.1922
7.966705
12.75299
16.50316
19.2774
21.12601
22.05693
22.08894
21.33051
19.99196
18.35135
16.68782
15.19652
13.97658
13.04362
12.33038
11.72327
11.04253
10.15559
9.00267
7.602112
6.059875
4.487572
2.952766
1.41877
-0.1949921
-1.956184
-3.871346
-5.885223
-7.949577
-10.10416
-12.42896
-14.92824
-17.43873
-19.5147
-20.52966
-19.8541
-17.14397
-12.56485
-6.710915
-0.4816895
5.267365
9.921097
13.23476
15.2305
16.1197
16.13371
15.46182
14.33809
12.95946
11.56238
10.34089
9.453568
8.935593
8.716583
8.673058
8.612274
8.393417
7.950279
7.329659
6.628441
5.938965
5.233406
4.381065
3.247726
1.812683
0.210144
-1.398232
-2.92981
-4.508507
-6.447845
-9.029968
-12.27406
-15.78271
-18.88681
-20.80885
-21.03827
-19.41695
-16.19755
-11.83448
-6.882389
-1.873383
2.703064
6.47319
9.188442
10.78447
11.35113
11.12335
10.39607
9.404598
8.316853
7.205036
6.083
4.960087
3.863819
2.893446
2.17161
1.845528
1.928242
2.300957
2.684376
2.752659
2.292221
1.282188
-0.07409286
-1.47661
-2.657763
-3.53818
-4.178956
-4.80299
-5.668241
-7.006279
-8.945062
-11.46825
-14.3282
-17.05073
-19.02678
-19.6281
-18.48993
-15.59715
-11.34347
-6.37249
-1.387949
3.046185
6.618089
9.249449
11.02969
12.10148
12.54625
12.41754
11.72529
10.5535
9.064377
7.506201
6.112812
5.059986
4.394979
4.036308
3.853645
3.703873
3.490803
3.164085
2.692463
2.045044
1.21508
0.2189293
-0.8952026
-2.050289
-3.193916
-4.292873
-5.378235
-6.488956
-7.735558
-9.238834
-11.1465
-13.56888
-16.43776
-19.46593
-22.10563
-23.64591
-23.45912
-21.21757
-17.08038
-11.6527
-5.812366
-0.4027634
3.998787
7.192688
9.289894
10.57939
11.32135
11.64475
11.54736
10.97845
9.928688
8.499535
6.930748
5.4562
4.294601
3.502205
3.071297
2.909073
2.87867
2.898804
2.880157
2.758011
2.429527
1.824768
0.9131546
-0.2708588
-1.635048
-3.090515
-4.532288
-5.90242
-7.153976
-8.319557
-9.496086
-10.86982
-12.62594
-14.78092
-17.10037
-19.02205
-19.85561
-19.00542
-16.22881
-11.77293
-6.290588
-0.6112823
4.562462
8.785431
11.91164
13.96139
14.99175
15.09246
14.3552
12.96396
11.1731
9.307831
7.60936
6.239105
5.243919
4.607834
4.25988
4.125816
4.147621
4.280685
4.512146
4.820526
5.223892
5.688492
6.12355
6.370514
6.260391
5.668503
4.584702
3.12233
1.453384
-0.2449951
-1.853165
-3.310669
-4.622833
-5.84053
-7.079666
-8.542679
-10.45274
-12.97142
-15.99742
-19.1022
-21.58585
-22.66856
-21.79799
-18.89197
-14.3903
-9.081558
-3.836655
0.7146759
4.278152
6.902679
8.786774
10.06627
10.78766
10.9095
10.40543
9.348053
7.944382
6.48436
5.185272
4.165085
3.394974
2.724991
2.03479
1.302963
0.6095581
0.08157349
-0.1730042
-0.1615143
-0.002166748
0.1194611
-0.0025177
-0.4666138
-1.278244
-2.356888
-3.544418
-4.696945
-5.756424
-6.777542
-7.896622
-9.319992
-11.18552
-13.44945
-15.81377
-17.79463
-18.84271
-18.55766
-16.78372
-13.67319
-9.636154
-5.176331
-0.8629913
2.804306
5.446106
6.909042
7.249435
6.774826
5.927551
5.076477
4.455612
4.03717
3.677063
3.176895
2.504013
1.770554
1.20787
0.9850311
1.148834
1.574539
2.019424
2.267563
2.181717
1.758575
1.073593
0.2326965
-0.726944
-1.834839
-3.13382
-4.663406
-6.379013
-8.205292
-10.02158
-11.76547
-13.41249
-14.94688
-16.29385
-17.21916
-17.39833
-16.43037
-14.07442
-10.35651
-5.665222
-0.6677246
3.921524
7.540604
9.968445
11.33165
11.96194
12.13231
12.00073
11.51859
10.60547
9.288895
7.710037
6.105469
4.661713
3.435852
2.357788
1.341293
0.3812714
-0.4412079
-0.9943542
-1.25206
-1.333603
-1.505554
-2.052063
-3.147049
-4.734543
-6.565796
-8.322708
-9.789246
-10.98303
-12.15228
-13.63124
-15.68112
-18.26697
-20.95633
-23.04987
-23.79825
-22.67491
-19.60365
-14.95364
-9.463028
-3.970505
0.8380585
4.580826
7.19548
8.851532
9.801987
10.23047
10.23659
9.838913
9.059738
8.007339
6.865448
5.836212
5.104294
4.71312
4.569366
4.494278
4.343063
4.052948
3.644043
3.169464
2.666229
2.111176
1.459061
0.6626587
-0.2227936
-1.110275
-1.929047
-2.700958
-3.593506
-4.846024
-6.658081
-9.056824
-11.80585
-14.42676
-16.32913
-16.94473
-15.95122
-13.32162
-9.375504
-4.654297
0.2220459
4.727295
8.528458
11.39932
13.2709
14.12871
14.04083
13.16521
11.73262
10.03346
8.275635
6.598267
5.055405
3.709702
2.67012
2.037521
1.838287
1.959656
2.12468
2.062836
1.653595
0.9730682
0.223465
-0.4208984
-0.9377594
-1.446579
-2.128967
-3.126556
-4.493042
-6.227936
-8.35257
-10.83038
-13.52617
-16.12263
-18.11694
-18.96347
-18.23637
-15.81519
-11.89647
-6.97966
-1.713577
3.198242
7.137329
9.678467
10.71519
10.44263
9.286285
7.746048
6.235107
5.01062
4.165314
3.681473
3.488983
3.441269
3.356934
3.064041
2.459015
1.527435
0.4170837
-0.6654053
-1.540939
-2.125748
-2.508041
-2.864395
-3.407883
-4.323654
-5.743927
-7.750381
-10.35738
-13.47868
-16.8868
-20.15108
-22.68024
-23.86359
-23.22723
-20.62563
-16.31044
-10.85829
-5.010742
0.5729218
5.444397
9.413589
12.45462
14.59557
15.87526
16.28641
15.84592
14.6216
12.79884
10.61612
8.376465
6.387177
4.910416
4.123001
4.025345
4.473648
5.20314
5.90567
6.313568
6.297882
5.834229
4.996704
3.890823
2.606216
1.173462
-0.429184
-2.27475
-4.496765
-7.206512
-10.41538
-13.92814
-17.29044
-19.84269
-20.93021
-20.08179
-17.25721
-12.85809
-7.604225
-2.287453
2.48703
6.415993
9.456787
11.7034
13.26302
14.17213
14.45773
14.18382
13.50389
12.63903
11.81806
11.15446
10.63786
10.1841
9.695984
9.155693
8.638908
8.241112
8.014046
7.915947
7.816856
7.560638
7.066177
6.287025
5.242615
3.96373
2.403641
0.4907303
-1.871727
-4.707047
-7.955841
-11.44054
-14.87288
-17.85153
-19.87173
-20.44585
-19.20609
-16.10802
-11.47437
-5.987854
-0.4981461
4.258667
7.848518
10.21807
11.57381
12.20933
12.37166
12.20005
11.79967
11.2362
10.62108
10.03496
9.483856
8.892998
8.184135
7.331627
6.414009
5.551491
4.855881
4.369064
4.022682
3.711456
3.292526
2.676231
1.835304
0.7923584
-0.3425522
-1.442268
-2.39827
-3.178215
-3.895798
-4.739418
-6.023773
-7.971764
-10.65062
-13.80231
-16.8768
-19.16167
-19.95821
-18.88959
-15.95241
-11.61105
-6.546577
-1.480949
3.074142
6.874107
9.904243
12.21765
13.83862
14.74432
14.90559
14.37611
13.3192
11.97728
10.57479
9.246002
8.088421
7.106968
6.332172
5.8083
5.560028
5.573151
5.739021
5.906193
5.874741
5.508064
4.69923
3.442688
1.778843
-0.1917152
-2.312763
-4.401749
-6.272179
-7.847279
-9.178265
-10.45725
-11.92792
-13.75213
-15.82085
-17.72835
-18.87364
-18.65535
-16.73345
-13.16467
-8.399624
-3.106575
2.056988
6.638371
10.40338
13.28687
15.2687
16.29692
16.34034
15.4427
13.84661
11.9245
10.10077
8.687546
7.756245
7.194283
6.806377
6.478298
6.196358
6.063656
6.135391
6.359169
6.552792
6.504734
6.059925
5.20348
4.037399
2.717369
1.380558
0.09053421
-1.134956
-2.344341
-3.638515
-5.146278
-7.040291
-9.460678
-12.45426
-15.89769
-19.44471
-22.56663
-24.59346
-24.95401
-23.29905
-19.66924
-14.48427
-8.436253
-2.322071
3.167408
7.556774
10.66117
12.54865
13.46132
13.73986
13.69624
13.52499
13.28954
12.93893
12.40334
11.68037
10.82662
9.955498
9.143517
8.448959
7.902218
7.547523
7.458668
7.640324
7.989693
8.242786
8.087868
7.313187
5.909962
4.094425
2.216484
0.5546837
-0.7650185
-1.805508
-2.715492
-3.652664
-4.778275
-6.272251
-8.295391
-10.92305
-13.97345
-16.94549
-19.07439
-19.61797
-18.13298
-14.72398
-9.952019
-4.654037
0.3659286
4.579494
7.765041
9.93792
11.22761
11.79311
11.8145
11.45559
10.93466
10.45897
10.20972
10.28144
10.65224
11.16811
11.62265
11.85462
11.81482
11.59346
11.33574
11.17363
11.09858
10.95646
10.54181
9.686256
8.365005
6.660725
4.762642
2.82983
1.005955
-0.6911888
-2.310249
-3.945873
-5.737404
-7.821358
-10.28717
-13.14397
-16.21639
-19.16955
-21.53851
-22.81036
-22.57154
-20.62537
-17.09188
-12.39046
-7.159233
-2.150284
1.967739
4.760567
6.118755
6.288265
5.734077
5.018333
4.577103
4.576332
4.892548
5.18367
5.140404
4.643539
3.813087
2.948586
2.353432
2.185448
2.385193
2.7537
3.059387
3.1297
2.883286
2.322693
1.425545
0.198555
-1.349121
-3.13324
-5.023781
-6.911209
-8.76326
-10.67097
-12.73962
-14.97909
-17.17995
-18.88516
-19.50476
-18.54113
-15.83934
-11.62103
-6.443733
-1.04274
3.950638
8.111855
11.25626
13.35666
14.47591
14.71426
14.22933
13.21644
11.90023
10.45543
8.948036
7.360695
5.651314
3.878052
2.227325
0.9662094
0.301918
0.2355042
0.5773163
0.9971542
1.165192
0.8837509
0.143364
-1.009132
-2.489395
-4.265335
-6.306091
-8.573868
-11.04427
-13.65377
-16.37016
-19.13569
-21.8139
-24.10367
-25.54454
-25.62193
-23.9843
-20.61606
-15.8774
-10.41615
-4.950539
-0.0411911
3.999924
7.097626
9.316277
10.76392
11.5696
11.84903
11.75934
11.41863
10.9108
10.24482
9.38736
8.351486
7.241302
6.242111
5.499176
5.053032
4.774147
4.435421
3.792233
2.778778
1.496574
0.1803513
-0.9578362
-1.895
-2.823814
-4.056759
-5.897354
-8.487785
-11.70474
-15.17944
-18.39754
-20.77608
-21.77659
-21.05859
-18.54077
-14.50125
-9.531895
-4.40826
0.1939735
3.861183
6.566422
8.599304
10.27478
11.79466
13.0555
13.78286
13.69687
12.7189
11.00411
8.924377
6.847099
5.040672
3.649426
2.682053
2.108143
1.900661
1.965458
2.1357
2.186928
1.895523
1.141884
-0.05722809
-1.564659
-3.214668
-4.884369
-6.580002
-8.463078
-10.74102
-13.54569
-16.79958
-20.10942
-22.8121
-24.17317
-23.58774
-20.86597
-16.27477
-10.48899
-4.3605
1.315857
6.042112
9.587788
11.95643
13.2299
13.49648
12.86274
11.46795
9.541288
7.384235
5.290899
3.517982
2.196234
1.328489
0.83848
0.6241436
0.5903625
0.6397815
0.6716032
0.5843978
0.2723694
-0.3200531
-1.193009
-2.298974
-3.631312
-5.200201
-7.091702
-9.387321
-12.11748
-15.16268
-18.22523
-20.84338
-22.49334
-22.66843
-21.04133
-17.56429
-12.50883
-6.451887
-0.101656
5.873699
10.94382
14.86437
17.57568
19.1264
19.58573
19.02239
17.56199
15.43628
12.97858
10.57277
8.527386
6.984402
5.90498
5.123257
4.461334
3.808437
3.167816
2.615345
2.232002
1.999321
1.813862
1.487701
0.8284302
-0.3057594
-1.975822
-4.192593
-6.935703
-10.14569
-13.67448
-17.20121
-20.22144
-22.03942
-22.04129
-19.89775
-15.73438
-10.16383
-4.074089
1.650513
6.431885
10.09167
12.75443
14.67168
16.01514
16.78856
16.91109
16.35195
15.25172
13.8843
12.55562
11.48871
10.74371
10.25657
9.88961
9.513947
9.023239
8.315346
7.353127
6.135368
4.722122
3.221718
1.703506
0.156456
-1.574905
-3.682846
-6.332001
-9.534378
-13.12245
-16.77263
-20.02473
-22.39185
-23.38962
-22.58083
-19.7676
-15.01887
-8.799301
-1.853294
4.95195
10.86356
15.40161
18.41896
20.00228
20.40593
19.91801
18.81893
17.36787
15.78953
14.2496
12.85448
11.63116
10.5915
9.722366
8.983055
8.313721
7.633133
6.879967
6.048851
5.1903
4.371452
3.631035
2.865494
1.881287
0.4719849
-1.537155
-4.169159
-7.38208
-11.0439
-14.98605
-18.92314
-22.39038
-24.799
-25.51598
-24.09683
-20.48499
-15.10458
-8.710281
-2.179855
3.769958
8.740692
12.64554
15.56883
17.56758
18.63672
18.72495
17.85954
16.21112
14.11856
11.9639
10.10196
8.74559
7.911362
7.48732
7.26767
7.01384
6.547607
5.778885
4.740189
3.587006
2.455429
1.412247
0.3360596
-0.9966583
-2.838226
-5.337219
-8.47377
-12.07629
-15.86162
-19.43994
-22.34999
-24.04565
-23.99918
-21.88596
-17.73616
-12.02998
-5.549255
0.8353577
6.470184
11.01373
14.44182
16.87157
18.37978
19.01094
18.77145
17.7278
16.12671
14.30992
12.66931
11.444
10.69482
10.28072
9.967651
9.578598
9.024063
8.310684
7.492432
6.570267
5.503357
4.242081
2.794754
1.247482
-0.2662964
-1.698151
-3.10527
-4.695419
-6.739822
-9.481201
-12.96619
-17.01106
-21.12808
-24.61736
-26.71049
-26.76372
-24.48701
-20.01109
-13.93227
-7.113159
-0.4473724
5.390579
10.10414
13.66484
16.26198
18.11166
19.30992
19.88692
19.82559
19.16376
18.03596
16.6767
15.32127
14.11362
13.09915
12.21233
11.39146
10.65469
10.09724
9.813446
9.796082
9.84938
9.645233
8.897568
7.451981
5.443466
3.220566
1.187256
-0.461441
-1.776855
-3.078674
-4.762726
-7.088379
-10.1234
-13.64824
-17.24268
-20.38541
-22.50081
-23.09291
-21.84517
-18.71313
-13.98396
-8.258972
-2.258804
3.317108
7.994751
11.60681
14.24269
16.1235
17.44933
18.33478
18.78636
18.739
18.17709
17.15575
15.86372
14.54369
13.42213
12.63319
12.19168
11.98778
11.91341
11.88033
11.84105
11.78709
11.67442
11.43005
10.96144
10.19275
9.109039
7.768784
6.285339
4.763672
3.244492
1.690475
0.04563904
-1.765289
-3.758621
-5.910934
-8.169617
-10.52629
-13.04781
-15.81169
-18.78027
-21.69781
-24.07434
-25.30824
-24.88186
-22.57291
-18.53193
-13.21763
-7.222488
-1.167885
4.444008
9.1978
12.82281
15.17552
16.27991
16.32652
15.6046
14.42805
13.03809
11.60083
10.25283
9.140648
8.380173
7.963577
7.765015
7.532578
7.080414
6.378845
5.608871
5.018234
4.770302
4.79538
4.812904
4.510162
3.727196
2.549347
1.236366
0.0583725
-0.8796844
-1.656754
-2.50032
-3.635056
-5.177467
-7.156471
-9.50309
-12.13789
-14.9226
-17.60564
-19.78915
-20.97842
-20.7345
-18.81264
-15.34248
-10.75341
-5.6838
-0.7761917
3.503769
6.933681
9.506165
11.28498
12.34975
12.70933
12.37686
11.42501
10.06762
8.622536
7.398643
6.597752
6.239658
6.219391
6.338764
6.422161
6.382023
6.19371
5.888248
5.445606
4.847717
4.040379
2.968391
1.624567
0.02904892
-1.733215
-3.533661
-5.250933
-6.793207
-8.14328
-9.401705
-10.70646
-12.24358
-14.15552
-16.44743
-19.01592
-21.53811
-23.55155
-24.50705
-23.95427
-21.67907
-17.81609
-12.8319
-7.367561
-2.0562
2.686147
6.653252
9.801538
12.15468
13.70475
14.45838
14.45647
13.84091
12.84187
11.73338
10.75051
9.977177
9.379984
8.800832
8.081828
7.141672
6.057371
5.022968
4.311668
4.075541
4.281874
4.688078
4.871508
4.459129
3.280865
1.448116
-0.7108879
-2.796688
-4.522989
-5.816414
-6.8381
-7.873089
-9.214333
-11.03706
-13.3526
-15.98055
-18.56176
-20.63
-21.62363
-21.05514
-18.6822
-14.61298
-9.334232
-3.635365
1.700027
6.074226
9.235134
11.23388
12.29864
12.64215
12.38584
11.55934
10.12547
8.170853
5.869789
3.52417
1.492241
0.07556915
-0.5563049
-0.4706345
0.08765411
0.7486038
1.19516
1.22287
0.8137512
0.06666565
-0.8765945
-1.903229
-2.954811
-4.023674
-5.151512
-6.353935
-7.704582
-9.232109
-10.95169
-12.85698
-14.88404
-17.01526
-19.24755
-21.6719
-24.28733
-26.96105
-29.33106
-30.84708
-30.9808
-29.35072
-25.98335
-21.31774
-16.1505
-11.46058
-8.171066
-6.978874
-8.171494
-11.54523
-16.27895
-21.02263
-24.13959
-24.1786
-20.38105
-13.01023
-3.301262
6.960396
16.01662
22.72187
26.67939
28.19003
27.82833
26.13177
23.46726
20.0687
16.23304
12.37502
8.970184
6.422615
4.87722
4.125244
3.673264
2.880028
1.204521
-1.581665
-5.312916
-9.446896
-13.25962
-16.04412
-17.28538
-16.80104
-14.68475
-11.2597
-6.970585
-2.312572
2.256359
6.332535
9.578152
11.76056
12.73357
12.52542
11.28823
9.329426
7.051498
4.863499
3.094257
1.951347
1.450302
1.446064
1.713577
2.071568
2.45224
2.901604
3.528164
4.386246
5.377628
6.30666
6.948303
7.203762
7.120445
6.835178
6.477089
6.040199
5.364529
4.20768
2.412544
-0.1059456
-3.252716
-6.753571
-10.22382
-13.10105
-14.77194
-14.69752
-12.6059
-8.63937
-3.376579
2.350578
7.656437
11.91282
14.84026
16.50733
17.20912
17.32328
17.20946
17.09812
17.08536
17.08167
16.88119
16.2396
14.98625
13.1609
10.98602
8.802197
6.895977
5.412815
4.262005
3.213833
2.043167
0.6290436
-1.02499
-2.842609
-4.731075
-6.676884
-8.667953
-10.72469
-12.84798
-15.07474
-17.50584
-20.29627
-23.54233
-27.11341
-30.54285
-33.05059
-33.82821
-32.28099
-28.35711
-22.60965
-15.97274
-9.430424
-3.6772
1.001999
4.677505
7.535339
9.707603
11.13335
11.63059
11.10519
9.642048
7.585869
5.371578
3.373768
1.777573
0.5537224
-0.3913956
-1.152187
-1.71991
-2.024178
-1.992886
-1.651371
-1.179955
-0.8486214
-0.9079285
-1.553051
-2.83149
-4.675995
-6.975052
-9.608513
-12.50045
-15.6207
-18.93401
-22.29311
-25.38332
-27.67622
-28.52775
-27.41177
-24.06101
-18.73936
-12.10922
-5.070354
1.511574
7.0895
11.45785
14.71265
17.02441
18.43869
18.89125
18.2512
16.53976
14.05072
11.28325
8.808338
7.03797
6.036863
5.614419
5.472464
5.397383
5.374372
5.510342
5.890617
6.432232
6.860893
6.838258
6.132811
4.728675
2.808494
0.6309931
-1.681696
-4.16921
-7.00609
-10.28305
-13.84945
-17.20946
-19.63052
-20.37878
-18.95889
-15.3282
-9.969267
-3.655171
2.73137
8.481052
13.18115
16.70036
19.031
20.22143
20.25694
19.13661
17.01491
14.21705
11.25951
8.612976
6.61651
5.293171
4.438606
3.736687
2.934488
1.916162
0.7168312
-0.5290565
-1.714029
-2.763437
-3.694672
-4.563042
-5.464428
-6.497623
-7.780212
-9.453865
-11.64256
-14.43466
-17.80544
-21.52498
-25.11216
-27.87947
-29.09315
-28.22524
-25.16259
-20.21116
-14.06238
-7.503628
-1.206577
4.398769
9.12302
12.9138
15.76335
17.65407
18.55436
18.50447
17.64547
16.19971
14.47939
12.7876
11.37518
10.39803
9.836937
9.559853
9.360687
9.051277
8.561996
7.930176
7.245941
6.575035
5.851158
4.902054
3.538795
1.648849
-0.766777
-3.633102
-6.876007
-10.46571
-14.39482
-18.51228
-22.41561
-25.40472
-26.6628
-25.54948
-21.8605
-15.98803
-8.79583
-1.305977
5.611778
11.45399
16.10679
19.65221
22.19885
23.80786
24.43491
24.0495
22.73978
20.76087
18.48578
16.31331
14.518
13.20351
12.27078
11.53517
10.82037
10.04322
9.229164
8.418831
7.605843
6.729477
5.67907
4.41272
2.96579
1.407265
-0.2407227
-2.148712
-4.63604
-8.04924
-12.52772
-17.78523
-23.09482
-27.4337
-29.77561
-29.38741
-26.12206
-20.45241
-13.28551
-5.729134
1.262497
7.081398
11.56865
14.83499
17.12411
18.58977
19.25663
19.07527
18.04337
16.29172
14.13648
11.98637
10.21143
9.016663
8.376862
8.071609
7.82634
7.398972
6.686295
5.721481
4.592484
3.384323
2.137329
0.8278351
-0.5854645
-2.138596
-3.88475
-5.91539
-8.300201
-11.10478
-14.21237
-17.28615
-19.79347
-21.08109
-20.61043
-18.13966
-13.81622
-8.1633
-1.9142
4.22171
9.710251
14.26131
17.78252
20.24214
21.58897
21.70493
20.54852
18.24814
15.21826
12.03613
9.287735
7.346298
6.249802
5.785065
5.618851
5.498062
5.28627
4.950424
4.478088
3.821762
2.916367
1.730362
0.3046265
-1.277542
-2.929291
-4.62796
-6.457855
-8.577866
-11.14629
-14.20175
-17.64597
-21.09566
-23.99774
-25.68161
-25.5468
-23.28302
-18.97287
-13.09608
-6.395065
0.3614349
6.566422
11.87733
16.17186
19.44055
21.67592
22.85718
22.99467
22.22798
20.83281
19.16998
17.54515
16.12361
14.88293
13.71507
12.5332
11.37772
10.41977
9.813034
9.596985
9.630981
9.620361
9.270508
8.395264
7.018112
5.256134
3.243225
1.036011
-1.392975
-4.09613
-7.083176
-10.27217
-13.59373
-16.91733
-20.05606
-22.6768
-24.28468
-24.29548
-22.26446
-18.1278
-12.30118
-5.582047
1.194786
7.34584
12.52631
16.67152
19.81863
21.95579
23.02716
23.05378
22.20564
20.82814
19.31429
17.99032
16.96926
16.20692
15.5634
14.90106
14.17315
13.36761
12.4627
11.39797
10.07278
8.465195
6.618408
4.675583
2.815689
1.168365
-0.2247772
-1.440514
-2.59037
-3.752945
-4.923286
-6.115784
-7.374168
-8.815994
-10.64157
-13.0061
-15.86705
-18.88051
-21.47848
-22.89025
-22.49128
-19.93042
-15.36069
-9.397743
-2.961662
2.994423
7.82444
11.26479
13.46455
14.74603
15.36388
15.43713
14.95088
13.94525
12.60341
11.24494
10.21697
9.675636
9.521294
9.494297
9.313042
8.869598
8.318096
7.902096
7.842453
8.113701
8.443302
8.42004
7.715569
6.235046
4.145411
1.844952
-0.2662392
-1.927269
-3.143654
-4.151701
-5.299986
-6.917152
-9.152294
-11.91564
-14.87273
-17.51216
-19.28524
-19.69925
-18.51065
-15.75219
-11.7486
-7.058682
-2.300529
1.99067
5.483468
8.0969
9.927812
11.11648
11.73772
11.75003
11.06709
9.686712
7.759073
5.601419
3.621651
2.180664
1.476009
1.4799
2.024525
2.823563
3.593067
4.090504
4.128811
3.616714
2.604176
1.206432
-0.3610306
-1.92577
-3.400303
-4.765949
-6.096474
-7.49218
-9.064938
-10.92506
-13.1226
-15.61889
-18.17805
-20.37025
-21.60203
-21.30585
-19.17961
-15.34064
-10.35608
-5.049454
-0.1651382
3.811646
6.754265
8.772751
10.06317
10.7284
10.78415
10.21264
9.07206
7.522491
5.813721
4.17379
2.751907
1.58387
0.6495667
-0.105896
-0.6816406
-1.09996
-1.38195
-1.593025
-1.841675
-2.244522
-2.85685
-3.678215
-4.635071
-5.631737
-6.588715
-7.489876
-8.389877
-9.380104
-10.58599
-12.13608
-14.05372
-16.19974
-18.22209
-19.56937
-19.68413
-18.14148
-14.87311
-10.20421
-4.795074
0.6021423
5.349182
9.039124
11.55089
12.96786
13.50104
13.39386
12.8886
12.14397
11.24901
10.22832
9.098862
7.908432
6.737228
5.705826
4.894455
4.301498
3.870575
3.517883
3.173599
2.808273
2.405594
1.932053
1.319687
0.5005951
-0.5511017
-1.792465
-3.09845
-4.356308
-5.54097
-6.780746
-8.354721
-10.52791
-13.33269
-16.43814
-19.17157
-20.74597
-20.58154
-18.54533
-14.99268
-10.57805
-5.976364
-1.680511
2.046616
5.098785
7.425323
8.966476
9.704865
9.689362
9.064896
7.992462
6.620728
5.077484
3.463104
1.958099
0.70784
-0.1849213
-0.7362518
-1.069717
-1.318405
-1.552582
-1.75531
-1.860489
-1.858444
-1.832504
-1.936417
-2.298447
-2.971344
-3.953705
-5.20253
-6.72467
-8.565781
-10.76387
-13.27226
-15.8961
-18.29198
-20.00128
-20.53969
-19.48709
-16.68207
-12.30519
-6.918747
-1.335892
3.621048
7.388657
9.801025
11.06265
11.53104
11.49924
11.08447
10.23479
8.884445
7.049774
4.935104
2.828537
1.02774
-0.2893219
-1.098846
-1.510925
-1.699448
-1.828964
-2.011688
-2.294495
-2.672134
-3.152405
-3.732056
-4.431824
-5.255157
-6.199463
-7.279282
-8.533936
-10.07474
-11.97139
-14.23674
-16.67204
-18.87274
-20.26059
-20.27222
-18.55174
-15.11165
-10.34874
-4.943634
0.3428192
4.898453
8.375931
10.70789
12.00153
12.41885
12.1185
11.25081
9.98233
8.503983
7.02301
5.701904
4.626831
3.801193
3.176865
2.698746
2.322144
1.971909
1.573242
1.051163
0.3907623
-0.3866119
-1.213028
-2.058777
-2.944565
-3.984512
-5.33754
-7.119781
-9.400497
-12.18155
-15.37581
-18.77629
-22.02695
-24.62457
-25.97893
-25.5746
-23.1227
-18.70502
-12.77945
-6.097076
0.5127258
6.306305
10.77049
13.70209
15.20604
15.62999
15.4043
14.88728
14.27881
13.61804
12.8284
11.85413
10.73828
9.587189
8.500778
7.492432
6.467743
5.308502
3.953934
2.487427
1.080338
-0.1219482
-1.103989
-1.968353
-2.902893
-4.029221
-5.365707
-6.850601
-8.441574
-10.13869
-12.02611
-14.14781
-16.39355
-18.41992
-19.69498
-19.66898
-17.99306
-14.64522
-9.976685
-4.588226
0.8493958
5.749252
9.748825
12.66615
14.54042
15.49176
15.6765
15.25084
14.38327
13.23891
11.96599
10.71208
9.567108
8.573914
7.70636
6.908447
6.144119
5.433594
4.827469
4.380966
4.081772
3.847961
3.519012
2.953445
2.04657
0.8223572
-0.6145325
-2.146896
-3.68364
-5.220596
-6.819809
-8.616837
-10.71248
-13.16789
-15.84909
-18.42418
-20.37149
-21.05338
-19.95383
-16.89514
-12.14641
-6.409042
-0.6022186
4.42099
8.135025
10.41478
11.50226
11.76445
11.56793
11.11768
10.49649
9.695572
8.724716
7.636765
6.543701
5.622086
5.001175
4.739151
4.783875
5.00412
5.245972
5.402863
5.408569
5.219589
4.834946
4.217529
3.343781
2.197739
0.7934418
-0.8394928
-2.64389
-4.621567
-6.841965
-9.388245
-12.30447
-15.47443
-18.57787
-21.09677
-22.42915
-22.06949
-19.75056
-15.62851
-10.2289
-4.348404
1.219681
5.852905
9.220474
11.25917
12.09305
11.94095
11.05696
9.715164
8.170395
6.663025
5.330551
4.211227
3.228134
2.204742
1.011581
-0.3843994
-1.866699
-3.21936
-4.150177
-4.431519
-3.94603
-2.796112
-1.305084
0.07957458
0.9124146
0.934906
0.1227264
-1.355148
-3.278473
-5.523529
-8.11412
-11.12158
-14.47676
-17.83086
-20.51031
-21.7041
-20.77132
-17.51694
-12.3364
-6.083618
0.2189484
5.740097
10.00693
12.96848
14.82649
15.84181
16.19499
15.94952
15.15909
13.94089
12.51245
11.0928
9.814682
8.644958
7.425415
6.012939
4.438385
2.922501
1.803848
1.316742
1.465515
1.941574
2.290009
2.115326
1.29921
0.0272522
-1.36441
-2.59938
-3.653198
-4.706558
-6.046036
-7.931168
-10.43985
-13.46056
-16.72534
-19.81694
-22.20508
-23.33801
-22.75014
-20.24213
-15.9624
-10.45291
-4.45697
1.26268
6.146729
9.906921
12.50392
14.04861
14.72252
14.69023
14.1595
13.30232
12.25366
11.08635
9.830032
8.517975
7.245895
6.153915
5.390244
4.995178
4.899734
4.975021
5.108627
5.239548
5.339096
5.374451
5.231796
4.711411
3.712708
2.299072
0.7257233
-0.6697998
-1.691467
-2.420898
-3.242905
-4.633301
-6.886429
-9.925613
-13.29221
-16.28242
-18.21372
-18.62188
-17.35037
-14.53006
-10.47108
-5.594238
-0.3752899
4.711716
9.262131
12.9602
15.67035
17.37875
18.13091
18.04726
17.25412
15.94907
14.39298
12.90211
11.76205
11.09363
10.82952
10.70853
10.45353
9.90596
9.052719
8.044128
7.064362
6.190529
5.373444
4.508469
3.483795
2.280594
0.9721146
-0.3660889
-1.679085
-2.996033
-4.368011
-5.8032
-7.31871
-8.959167
-10.84035
-13.10454
-15.75825
-18.54529
-20.89279
-22.02464
-21.27103
-18.35989
-13.58459
-7.702202
-1.695457
3.550262
7.548195
10.19807
11.73435
12.5067
12.75075
12.53576
11.82205
10.55965
8.844933
6.947906
5.230888
4.030029
3.473625
3.472382
3.773766
4.094528
4.213654
4.067253
3.66568
3.042099
2.227219
1.224617
0.07928467
-1.166862
-2.44796
-3.690338
-4.884537
-6.111488
-7.537415
-9.353279
-11.7198
-14.60229
-17.66261
-20.26577
-21.64977
-21.16393
-18.55456
-14.07999
-8.406906
-2.405502
3.1633
7.826836
11.38992
13.89729
15.47392
16.23271
16.28767
15.75052
14.72311
13.32249
11.66351
9.878914
8.119675
6.548073
5.316612
4.498795
4.076256
3.936462
3.9151
3.839081
3.53212
2.886185
1.858772
0.4882736
-1.082199
-2.63723
-3.998787
-5.107651
-6.079483
-7.181412
-8.719414
-10.9624
-13.93929
-17.4088
-20.86662
-23.63718
-25.0257
-24.4995
-21.86097
-17.33924
-11.52708
-5.227654
0.7682877
5.892715
9.868088
12.65028
14.35068
15.11423
15.12032
14.54202
13.58836
12.43658
11.23728
10.04571
8.908463
7.862953
6.974983
6.360756
6.108643
6.186691
6.407433
6.497627
6.186432
5.33902
3.98735
2.335663
0.6326599
-0.9163437
-2.278839
-3.540695
-4.885025
-6.466942
-8.38662
-10.64603
-13.1935
-15.88725
-18.42735
-20.35476
-21.07043
-20.04035
-17.03521
-12.31215
-6.567795
-0.7075768
4.470085
8.535435
11.46297
13.48437
14.8283
15.56108
15.63126
15.00311
13.71776
11.97427
10.02821
8.065643
6.177547
4.403519
2.78437
1.436726
0.490078
0.0416069
0.0371666
0.2675095
0.4478149
0.3524666
-0.08786011
-0.7769241
-1.543945
-2.244946
-2.877647
-3.609394
-4.688309
-6.340054
-8.695625
-11.63687
-14.8185
-17.7227
-19.75993
-20.41391
-19.37724
-16.67614
-12.6079
-7.665215
-2.438919
2.529362
6.867512
10.35101
12.88655
14.46772
15.10875
14.86961
13.83519
12.1371
9.994236
7.672459
5.45726
3.615183
2.305603
1.56245
1.264887
1.206303
1.162262
0.9665737
0.5650826
0.03537369
-0.5129757
-1.024887
-1.555309
-2.291008
-3.443815
-5.207182
-7.636663
-10.65673
-14.05446
-17.44237
-20.34036
-22.19368
-22.50267
-20.97741
-17.62284
-12.77156
-7.034047
-1.101421
4.395672
9.016703
12.49555
14.73796
15.72512
15.54771
14.40766
12.6292
10.58569
8.639799
7.046743
5.889649
5.092002
4.488028
3.907729
3.244781
2.459445
1.56168
0.5836706
-0.4444761
-1.47
-2.458056
-3.383739
-4.29336
-5.334797
-6.779016
-8.88734
-11.80369
-15.42987
-19.31273
-22.75562
-24.94235
-25.23879
-23.34575
-19.39905
-13.95282
-7.777861
-1.629904
3.892576
8.471123
11.99769
14.46668
15.92043
16.402
15.98528
14.83293
13.19114
11.33686
9.51379
7.84248
6.329807
4.854542
3.295303
1.580833
-0.2071724
-1.87133
-3.212982
-4.101021
-4.579384
-4.850365
-5.189617
-5.833145
-6.921463
-8.49691
-10.57327
-13.20748
-16.40734
-20.03384
-23.66867
-26.56723
-27.89311
-27.00172
-23.72572
-18.47075
-12.08244
-5.502174
0.5103302
5.554871
9.566872
12.64156
14.85776
16.2366
16.77235
16.46593
15.47852
14.05389
12.48383
11.03468
9.834991
8.853966
7.975731
7.047165
5.965477
4.742012
3.476402
2.270668
1.153465
0.05518341
-1.188065
-2.695465
-4.529915
-6.679947
-9.088562
-11.7946
-14.85115
-18.20255
-21.56551
-24.34454
-25.81689
-25.34581
-22.69951
-18.12321
-12.26617
-5.887878
0.3626862
6.063416
11.01492
15.07779
18.1324
20.03227
20.74821
20.37036
19.17088
17.51144
15.76869
14.26408
13.17038
12.54012
12.28984
12.30397
12.44463
12.63521
12.84439
12.9922
13.00977
12.71004
11.91777
10.54149
8.600082
6.226196
3.558975
0.6596069
-2.533966
-6.153061
-10.28868
-14.83231
-19.41393
-23.44221
-26.22792
-27.15646
-25.82912
-22.23503
-16.71378
-9.93248
-2.729218
4.095978
9.936493
14.51421
17.81448
20.01245
21.24992
21.61864
21.12381
19.7814
17.77052
15.40979
13.14049
11.32707
10.14503
9.574936
9.438614
9.593674
9.936462
10.41809
10.95526
11.36525
11.37996
10.77716
9.480713
7.651642
5.617279
3.70874
2.157745
0.9486389
-0.1526489
-1.514832
-3.541687
-6.493805
-10.39383
-14.89478
-19.31564
-22.73987
-24.28143
-23.33868
-19.80328
-14.13971
-7.20697
-0.02639771
6.549957
12.00568
16.22482
19.36127
21.61194
23.10834
23.83197
23.73492
22.80853
21.22589
19.30661
17.43176
15.90576
14.85977
14.24045
13.8317
13.49539
13.14413
12.82953
12.67764
12.75977
13.02954
13.3078
13.3103
12.78448
11.617
9.841614
7.654022
5.292175
2.960541
0.7846985
-1.206024
-3.091644
-5.003845
-7.10202
-9.577515
-12.54126
-15.91068
-19.35754
-22.28012
-23.98273
-23.86981
-21.69745
-17.62146
-12.21188
-6.189575
-0.2249451
5.204529
9.859436
13.69464
16.70389
18.88818
20.21692
20.64191
20.24661
19.19202
17.78284
16.35416
15.17496
14.42093
14.10013
14.12668
14.33047
14.55966
14.68787
14.62268
14.3275
13.82695
13.18987
12.51279
11.86089
11.22469
10.45952
9.411819
7.932068
6.043945
3.900482
1.743896
-0.2229767
-1.943665
-3.496292
-5.082764
-6.912079
-9.160004
-11.91826
-15.17612
-18.71611
-22.12297
-24.74655
-25.87384
-24.9706
-21.87047
-16.90005
-10.76495
-4.350494
1.56221
6.453156
10.07701
12.39432
13.48233
13.53664
12.81766
11.66794
10.43382
9.396957
8.650009
8.163345
7.852264
7.677109
7.692627
7.986099
8.616638
9.528152
10.5945
11.61568
12.44287
12.9736
13.15007
12.94426
12.27654
11.12613
9.514862
7.572464
5.490646
3.498856
1.737198
0.2263489
-1.120865
-2.468567
-3.938629
-5.669449
-7.719849
-10.12895
-12.87335
-15.80208
-18.59135
-20.73766
-21.68388
-20.98256
-18.49159
-14.44333
-9.389709
-4.012665
1.071609
5.418396
8.815521
11.20025
12.60976
13.09863
12.83443
12.02785
10.95302
9.865463
8.926613
8.168663
7.517868
6.906204
6.300461
5.730995
5.251976
4.869171
4.560013
4.254036
3.917412
3.554695
3.210052
2.924629
2.662773
2.315613
1.717781
0.7689362
-0.5278778
-2.04583
-3.604164
-5.070946
-6.391891
-7.638969
-8.977444
-10.57161
-12.52921
-14.84368
-17.33913
-19.68124
-21.42532
-22.06475
-21.17099
-18.54892
-14.33595
-9.026604
-3.370216
1.828045
5.96254
8.750603
10.27044
10.82515
10.80796
10.47641
9.951344
9.215946
8.248081
7.117929
5.962662
4.974705
4.312969
4.029402
4.06347
4.297055
4.551546
4.68001
4.606554
4.329151
3.922471
3.502087
3.145174
2.86976
2.606604
2.214546
1.573647
0.5888252
-0.7441883
-2.362257
-4.153114
-5.969994
-7.654984
-9.106525
-10.29705
-11.34994
-12.47001
-13.9076
-15.78032
-17.95822
-20.06457
-21.52753
-21.81495
-20.60117
-17.91426
-14.06936
-9.625488
-5.145844
-1.085079
2.295021
4.920029
6.795197
7.948189
8.433472
8.309898
7.708229
6.8172
5.849579
4.965935
4.216377
3.59935
3.066811
2.607208
2.25705
2.060371
2.051048
2.216354
2.480774
2.710098
2.775589
2.553879
1.969879
1.015266
-0.2544098
-1.684502
-3.173172
-4.618034
-5.9702
-7.170944
-8.133415
-8.783043
-9.108246
-9.278893
-9.621284
-10.50155
-12.10767
-14.30096
-16.59464
-18.33819
-18.92377
-18.00629
-15.61954
-12.05066
-7.7547
-3.222855
1.074615
4.729797
7.427078
8.992172
9.498505
9.206818
8.500656
7.706589
6.984543
6.329453
5.608994
4.796844
3.922974
3.134094
2.541122
2.153336
1.919937
1.784119
1.789871
2.066315
2.659897
3.485825
4.254791
4.599274
4.246429
3.126129
1.398178
-0.6332703
-2.665131
-4.522812
-6.155838
-7.628891
-9.059799
-10.59344
-12.30783
-14.19287
-16.10919
-17.77628
-18.82729
-18.8945
-17.7543
-15.39375
-12.006
-7.932617
-3.605911
0.5496216
4.156967
6.880249
8.499207
8.943802
8.287003
6.824936
4.963898
3.147324
1.738541
0.8829956
0.541748
0.5425262
0.6578979
0.7534332
0.7759247
0.7355804
0.6676025
0.581543
0.4638824
0.2713318
-0.05447388
-0.5524445
-1.298904
-2.335068
-3.677612
-5.279251
-7.008667
-8.690308
-10.1404
-11.22987
-11.99452
-12.65268
-13.481
-14.7636
-16.55826
-18.56335
-20.24207
-20.92462
-20.12119
-17.71259
-13.9912
-9.511841
-4.892151
-0.5926514
3.146896
6.252808
8.700409
10.44547
11.43544
11.66235
11.20113
10.23662
8.959
7.545074
6.102325
4.69487
3.399429
2.291718
1.457291
0.9494629
0.7635193
0.8611908
1.152542
1.506348
1.72554
1.590424
0.9161682
-0.3636475
-2.117386
-4.04422
-5.831177
-7.296158
-8.535873
-9.865143
-11.62634
-13.99809
-16.79268
-19.51649
-21.54878
-22.36583
-21.68152
-19.48976
-15.98132
-11.46346
-6.357803
-1.14975
3.633835
7.522934
10.18935
11.57245
11.86792
11.45242
10.71848
9.977692
9.341599
8.787827
8.201248
7.455643
6.520966
5.445038
4.318619
3.25618
2.354004
1.651917
1.150009
0.7951965
0.5075684
0.1724243
-0.3157196
-0.9883881
-1.816879
-2.708359
-3.569855
-4.372253
-5.165222
-6.068008
-7.228836
-8.747284
-10.64597
-12.84535
-15.14928
-17.28642
-18.86557
-19.44633
-18.62061
-16.15584
-12.12326
-6.925034
-1.201767
4.314011
8.985825
12.43719
14.50728
15.27711
14.9782
13.89467
12.31633
10.4883
8.591614
6.75119
5.059967
3.566803
2.313248
1.320984
0.5942993
0.1188507
-0.1260071
-0.1953888
-0.1895905
-0.2369995
-0.5002899
-1.122116
-2.199112
-3.729874
-5.560165
-7.493668
-9.348892
-11.06059
-12.72211
-14.51221
-16.52846
-18.59206
-20.26453
-20.92596
-20.02377
-17.35376
-13.11359
-7.869171
-2.321075
2.917786
7.450867
11.09268
13.78276
15.50911
16.28185
16.13695
15.16838
13.52872
11.40591
9.05217
6.782623
4.90094
3.633026
3.005112
2.758926
2.459381
1.726273
0.4154205
-1.284698
-2.910309
-4.012512
-4.368759
-4.146683
-3.777588
-3.81012
-4.650543
-6.454926
-9.124641
-12.38309
-15.83182
-19.01699
-21.42735
-22.54104
-21.95506
-19.47287
-15.27533
-9.857384
-3.941444
1.763374
6.713188
10.64861
13.56648
15.52969
16.59175
16.72183
15.92194
14.31332
12.18567
9.934517
7.956032
6.450737
5.381943
4.572922
3.785927
2.893181
1.93605
1.059914
0.3928604
-0.03354645
-0.3408432
-0.7671509
-1.527824
-2.737587
-4.400284
-6.431862
-8.784447
-11.45016
-14.45956
-17.7206
-20.92273
-23.4697
-24.61646
-23.72739
-20.55939
-15.38528
-8.966797
-2.293468
3.736942
8.558922
12.02865
14.30031
15.66737
16.37537
16.51452
16.09806
15.13714
13.7272
12.09391
10.49626
9.11908
7.985317
7.003536
6.013008
4.923637
3.776989
2.701668
1.83745
1.181847
0.6233273
-0.04710388
-1.021606
-2.430592
-4.331486
-6.771761
-9.749186
-13.15226
-16.6377
-19.6165
-21.39193
-21.38386
-19.36966
-15.60662
-10.68827
-5.322071
-0.05518496
4.802279
9.107353
12.72367
15.42065
16.93455
17.12684
16.1392
14.36699
12.40393
10.74481
9.660517
9.11335
8.851948
8.591673
8.090605
7.295254
6.288212
5.236258
4.25555
3.359222
2.432938
1.322502
-0.105854
-1.942574
-4.178482
-6.790257
-9.700859
-12.78507
-15.78141
-18.24177
-19.62273
-19.43952
-17.467
-13.8498
-9.120136
-3.97216
0.9269371
5.184906
8.670063
11.44064
13.58759
15.08751
15.82463
15.67893
14.67494
13.03676
11.13659
9.387802
8.067154
7.247963
6.746857
6.282318
5.555771
4.417038
2.869125
1.092239
-0.6824493
-2.312134
-3.765404
-5.188896
-6.797401
-8.782494
-11.22614
-14.12019
-17.36415
-20.81001
-24.21589
-27.10491
-28.78304
-28.4062
-25.28178
-19.22025
-10.7103
-0.8544922
8.967346
17.5048
24.00166
28.24469
30.41203
30.8765
30.01444
28.14188
25.56489
22.59229
19.56931
16.81557
14.55223
12.84453
11.62102
10.68727
9.857239
8.990295
8.062195
7.1147
6.181168
5.217163
4.074478
2.614517
0.760498
-1.399124
-3.662552
-5.805069
-7.727112
-9.500687
-11.37366
-13.71109
-16.76672
-20.55786
-24.68622
-28.38179
-30.67325
-30.72133
-28.10907
-23.05759
-16.32149
-8.940308
-1.873718
4.290543
9.3508
13.377
16.50302
18.83374
20.44583
21.40686
21.84258
21.90565
21.71678
21.36954
20.91026
20.39128
19.89468
19.48746
19.20772
19.05525
18.98193
18.93185
18.88783
18.84474
18.7803
18.64095
18.34694
17.82539
17.05495
16.06747
14.88606
13.51801
11.92157
10.02882
7.77182
5.170441
2.298141
-0.6929932
-3.62001
-6.357697
-8.901779
-11.39404
-14.0862
-17.17769
-20.73778
-24.4855
-27.84326
-30.03354
-30.35962
-28.4464
-24.38419
-18.75229
-12.33066
-5.938202
-0.1656647
4.707672
8.645798
11.74138
14.09467
15.76315
16.75134
17.10828
16.90857
16.32268
15.57974
14.90372
14.47351
14.39571
14.6758
15.22188
15.89803
16.52887
16.97003
17.08043
16.76871
16.02135
14.86293
13.39426
11.73915
10.03644
8.353577
6.723724
5.098511
3.379089
1.534485
-0.4152222
-2.376434
-4.23201
-5.899445
-7.433029
-8.998459
-10.82248
-13.10934
-15.88437
-18.93419
-21.82713
-23.98058
-24.81094
-23.94162
-21.21408
-16.80704
-11.23683
-5.220322
0.4736023
5.242859
8.782959
11.12842
12.50403
13.17416
13.28299
12.8403
11.81934
10.29582
8.527756
6.943008
5.951904
5.791428
6.433182
7.592163
8.849136
9.852921
10.41504
10.52214
10.32419
10.01828
9.7229
9.48233
9.215714
8.787598
8.083633
7.038177
5.624786
3.89682
1.908203
-0.2512665
-2.455688
-4.544739
-6.390594
-7.951447
-9.330246
-10.78958
-12.60277
-14.90773
-17.56802
-20.14232
-22.00719
-22.56387
-21.48206
-18.79938
-14.93901
-10.50726
-6.078529
-2.01506
1.587746
4.825737
7.846573
10.68761
13.22129
15.1982
16.40662
16.75826
16.3455
15.3875
14.15142
12.81577
11.49409
10.28143
9.300903
8.714233
8.624115
9.03891
9.765526
10.49957
10.90785
10.75752
10.03228
8.877403
7.541153
6.221008
4.959427
3.649796
2.14225
0.3497772
-1.665627
-3.713486
-5.628258
-7.34903
-8.986725
-10.77448
-12.90601
-15.42645
-18.18892
-20.85169
-23.00373
-24.25063
-24.26077
-22.82695
-19.94131
-15.80524
-10.83788
-5.605957
-0.6823044
3.544815
6.875298
9.298271
10.92491
11.84679
12.1702
11.971
11.33308
10.41315
9.42662
8.518196
7.783905
7.274406
6.975639
6.896675
7.04174
7.381733
7.832302
8.274784
8.571774
8.636806
8.477482
8.13866
7.684273
7.143066
6.456692
5.552647
4.380016
2.95723
1.389875
-0.2031269
-1.778692
-3.33741
-4.93148
-6.63048
-8.489555
-10.59327
-13.0188
-15.74589
-18.61339
-21.27793
-23.18068
-23.77028
-22.7007
-19.94367
-15.83246
-10.95042
-5.879594
-1.118608
2.998477
6.278471
8.590551
9.877642
10.18817
9.669245
8.568449
7.184532
5.760813
4.459309
3.373619
2.505831
1.868053
1.491643
1.396994
1.553606
1.926235
2.429226
2.949869
3.36797
3.551983
3.384502
2.787012
1.74884
0.3367653
-1.302074
-2.970869
-4.480686
-5.693623
-6.632732
-7.447754
-8.407265
-9.787067
-11.75394
-14.24393
-16.92495
-19.2474
-20.60919
-20.57058
-18.9795
-16.00046
-12.00697
-7.458286
-2.768127
1.712906
5.721695
9.037148
11.50283
13.06951
13.75208
13.65785
12.90556
11.63461
9.995895
8.17522
6.387959
4.84013
3.661556
2.834167
2.242992
1.753246
1.330502
1.039783
0.9392166
1.036327
1.199657
1.181671
0.7496262
-0.1521606
-1.416008
-2.790115
-3.999321
-4.899216
-5.578209
-6.278877
-7.324226
-8.983566
-11.31097
-14.22507
-17.492
-20.75558
-23.6086
-25.58943
-26.22248
-25.16877
-22.34129
-17.97381
-12.59291
-6.909279
-1.568962
3.015015
6.685143
9.483192
11.52021
12.84338
13.43153
13.28883
12.5256
11.42035
10.28429
9.405243
8.912903
8.699837
8.547005
8.264771
7.77903
7.171112
6.653717
6.368248
6.342133
6.393669
6.259064
5.672203
4.522072
2.865395
0.8930664
-1.16008
-3.142273
-4.983505
-6.713478
-8.408676
-10.18672
-12.18568
-14.50143
-17.145
-19.91646
-22.4017
-24.00009
-24.14387
-22.46373
-18.96569
-14.05347
-8.364525
-2.586143
2.708763
7.125092
10.46827
12.68032
13.80685
13.98542
13.39468
12.25172
10.771
9.153641
7.578339
6.164124
4.991013
4.048897
3.314224
2.732445
2.288269
2.011742
1.967537
2.179535
2.582527
3.00209
3.19355
2.940308
2.128082
0.8118057
-0.806282
-2.492065
-4.053131
-5.474335
-6.942558
-8.758469
-11.17709
-14.20831
-17.49968
-20.36998
-22.05383
-21.91886
-19.74541
-15.80452
-10.76494
-5.463394
-0.603096
3.39843
6.470177
8.751686
10.42441
11.58295
12.20054
12.20475
11.58949
10.52077
9.285347
8.198997
7.45034
7.029251
6.75383
6.369202
5.705025
4.750603
3.603386
2.395744
1.207191
0.07167053
-1.032166
-2.11248
-3.196198
-4.329338
-5.615486
-7.195465
-9.19989
-11.64732
-14.42608
-17.25666
-19.7289
-21.38014
-21.77774
-20.6516
-17.95071
-13.91122
-9.00843
-3.876801
0.8988647
4.937416
8.036583
10.20669
11.49313
11.93829
11.63467
10.72369
9.445343
8.059464
6.799904
5.751007
4.909218
4.183884
3.507538
2.864197
2.280846
1.764725
1.283485
0.7534561
0.08847809
-0.7544785
-1.79866
-3.062088
-4.616096
-6.526062
-8.823112
-11.47696
-14.36083
-17.27743
-19.93849
-22.00878
-23.07442
-22.71482
-20.64371
-16.80228
-11.45509
-5.217941
1.139183
6.852646
11.39261
14.53699
16.37964
17.15459
17.14892
16.57864
15.59008
14.24239
12.59865
10.7728
8.9319
7.317078
6.118759
5.428398
5.166153
5.116631
5.008759
4.647102
3.971741
3.044022
1.99118
0.9125061
-0.1861725
-1.37487
-2.745529
-4.408363
-6.446625
-8.952187
-11.94019
-15.28315
-18.58867
-21.22842
-22.49057
-21.79685
-18.92181
-14.10561
-7.983406
-1.429874
4.709305
9.797581
13.51789
15.87316
17.1006
17.53809
17.45893
17.03237
16.27868
15.14859
13.65638
11.91677
10.18209
8.721882
7.719009
7.184418
6.931393
6.706211
6.284233
5.499302
4.282574
2.637253
0.646183
-1.540672
-3.718182
-5.678173
-7.32209
-8.719517
-10.08823
-11.76378
-13.96865
-16.65894
-19.45264
-21.68219
-22.56673
-21.54246
-18.40683
-13.41313
-7.251537
-0.7663651
5.227634
10.15928
13.78672
16.12107
17.31111
17.5564
17.04988
15.97833
14.54666
12.9471
11.33275
9.802135
8.402199
7.208504
6.311543
5.747929
5.492702
5.397713
5.233791
4.758724
3.864811
2.599617
1.100048
-0.460495
-2.021351
-3.585224
-5.215942
-6.978771
-8.938339
-11.10962
-13.47945
-15.92914
-18.1494
-19.67747
-19.97882
-18.71452
-15.83512
-11.66298
-6.753704
-1.706522
2.963234
6.934965
10.0332
12.20455
13.46679
13.91375
13.69261
12.9619
11.87967
10.59911
9.288567
8.080629
7.136723
6.534315
6.253862
6.189104
6.132202
5.9517
5.551695
4.8874
3.936611
2.682953
1.114193
-0.7361431
-2.795692
-4.977898
-7.204346
-9.490463
-11.88976
-14.4574
-17.14011
-19.68704
-21.70684
-22.68344
-22.15764
-19.87493
-15.89286
-10.59279
-4.610018
1.341213
6.646347
10.89651
13.9966
15.98911
17.04123
17.32084
16.95208
16.0683
14.81105
13.37824
11.9778
10.81615
9.985638
9.465595
9.149
8.890617
8.574217
8.134897
7.561888
6.820105
5.895811
4.723667
3.279491
1.60028
-0.2332611
-2.113849
-3.997404
-5.940939
-8.126072
-10.72775
-13.82267
-17.23758
-20.51067
-23.00465
-24.03503
-23.13785
-20.18706
-15.48345
-9.626889
-3.393994
2.435361
7.300118
10.87864
13.17147
14.36635
14.77767
14.68952
14.28331
13.65929
12.84337
11.91306
10.94054
10.05497
9.309244
8.682381
8.090587
7.476264
6.868008
6.3834
6.17086
6.231256
6.419945
6.41859
5.926112
4.813553
3.185019
1.29617
-0.5768175
-2.280723
-3.892235
-5.644808
-7.802135
-10.51564
-13.67423
-16.89202
-19.55855
-21.00433
-20.66723
-18.27288
-13.97004
-8.331757
-2.189108
3.594152
8.319719
11.69865
13.78835
14.91479
15.44078
15.62084
15.51547
15.05443
14.10936
12.68085
10.94514
9.20577
7.76919
6.786058
6.239622
5.923346
5.605715
5.151478
4.551392
3.911837
3.321068
2.768833
2.093279
1.13476
-0.1898708
-1.80208
-3.497316
-5.101948
-6.552851
-8.0585
-9.898649
-12.28746
-15.14893
-18.02842
-20.1328
-20.64622
-19.03338
-15.29154
-10.00617
-4.079784
1.552698
6.287876
9.874207
12.37346
13.93516
14.62629
14.49111
13.54559
11.93811
9.938446
7.891815
6.0872
4.670174
3.688324
3.099758
2.838478
2.802818
2.867565
2.847763
2.569874
1.956913
1.022118
-0.1256905
-1.392212
-2.743835
-4.219025
-5.846924
-7.646481
-9.561798
-11.5579
-13.62104
-15.71247
-17.71042
-19.29939
-19.99329
-19.29849
-16.96875
-13.13766
-8.331764
-3.248203
1.487499
5.487549
8.611969
10.87075
12.30697
12.89197
12.62258
11.5621
9.903458
7.940903
5.971344
4.192551
2.683949
1.413349
0.2809601
-0.7718544
-1.772446
-2.701576
-3.517586
-4.208687
-4.828888
-5.481026
-6.318295
-7.552444
-9.386353
-11.963
-15.21299
-18.77049
-22.00838
-24.16997
-24.61512
-23.04815
-19.59489
-14.70093
-8.954285
-2.897041
3.072113
8.644085
13.53777
17.46995
20.18618
21.62824
22.0076
21.72866
21.277
20.97111
20.86387
20.74643
20.25405
19.1289
17.29142
14.93276
12.41449
10.11905
8.325066
7.082546
6.269093
5.598431
4.811661
3.73238
2.328384
0.6958694
-1.006344
-2.672478
-4.313122
-6.005512
-7.888657
-10.06018
-12.52059
-15.20296
-17.94329
-20.49059
-22.47692
-23.47331
-23.05704
-20.9719
-17.26423
-12.35305
-6.920391
-1.687508
2.767117
6.175217
8.560402
10.075
10.9094
11.11769
10.69077
9.630474
8.064232
6.294159
4.693478
3.547371
2.943707
2.746857
2.705055
2.58485
2.275669
1.807007
1.279442
0.7583923
0.2332115
-0.3883629
-1.19046
-2.222134
-3.499416
-5.023087
-6.869499
-9.147404
-11.89119
-14.99153
-18.08506
-20.57476
-21.77137
-21.15358
-18.54338
-14.24277
-8.910847
-3.363113
1.717709
5.973888
9.3279
11.86416
13.63451
14.58818
14.60484
13.64766
11.83415
9.507576
7.124115
5.087303
3.63694
2.819397
2.506744
2.524914
2.693604
2.870529
2.935677
2.810143
2.41161
1.715847
0.7389221
-0.486515
-1.924095
-3.590218
-5.550037
-7.897003
-10.66663
-13.77468
-16.92784
-19.63899
-21.31718
-21.43198
-19.69545
-16.19685
-11.39804
-6.002262
-0.7485962
3.825943
7.438938
10.01595
11.59226
12.20461
11.82878
10.51808
8.47794
6.075607
3.777905
1.988602
0.8545952
0.2731094
-0.03164291
-0.3660927
-0.8745575
-1.56163
-2.295273
-2.928963
-3.3773
-3.681541
-3.984364
-4.498909
-5.449024
-7.040165
-9.356915
-12.31082
-15.59501
-18.67794
-20.94925
-21.84857
-21.03097
-18.45623
-14.41139
-9.384918
-3.960812
1.317427
6.056339
10.01275
13.0701
15.14809
16.21299
16.24559
15.28847
13.49865
11.17366
8.691204
6.455362
4.767023
3.72488
3.214388
3.01425
2.844061
2.494829
1.851151
0.9285355
-0.1876335
-1.339102
-2.413459
-3.381487
-4.351237
-5.575701
-7.34864
-9.883505
-13.13967
-16.75846
-20.05922
-22.25881
-22.67495
-20.97005
-17.22453
-11.87999
-5.663518
0.6865239
6.516606
11.38319
15.07003
17.56925
18.98425
19.48476
19.20792
18.28695
16.8265
14.95459
12.87909
10.86722
9.197536
8.046018
7.441488
7.246922
7.234058
7.154526
6.853456
6.275637
5.398149
4.195705
2.573263
0.4395447
-2.244394
-5.379517
-8.783943
-12.28182
-15.69337
-18.85852
-21.4894
-23.16906
-23.3484
-21.57368
-17.71402
-12.10837
-5.488636
1.215927
7.20607
12.01091
15.50486
17.82975
19.17846
19.71072
19.50726
18.66781
17.3129
15.64875
13.90926
12.30859
11.00356
10.00554
9.204681
8.409065
7.438274
6.210087
4.784508
3.365047
2.171951
1.335812
0.781086
0.2283783
-0.6843834
-2.290722
-4.73885
-7.97036
-11.68836
-15.49731
-18.89117
-21.36245
-22.42839
-21.72067
-19.11483
-14.80696
-9.271233
-3.187817
2.726467
7.892445
11.96421
14.86556
16.70012
17.62699
17.83061
17.45441
16.63887
15.49663
14.21059
12.95545
11.888
11.10726
10.65248
10.45774
10.43147
10.4182
10.25789
9.868813
9.170223
8.164284
6.867519
5.32
3.547649
1.561882
-0.6636963
-3.158508
-5.935001
-8.984455
-12.20821
-15.38433
-18.15847
-20.05185
-20.57353
-19.33992
-16.20917
-11.41454
-5.535553
0.6292
6.224777
10.59312
13.4215
14.77155
15.01742
14.62523
13.98087
13.23287
12.38228
11.3642
10.18252
8.984959
8.006275
7.426273
7.259235
7.320023
7.320023
7.030949
6.368843
5.454411
4.497894
3.654224
2.917675
2.121704
1.026428
-0.5594063
-2.711132
-5.37886
-8.41457
-11.64724
-14.86359
-17.76015
-19.93074
-20.86069
-20.07169
-17.322
-12.75819
-6.952526
-0.762825
4.91959
9.431446
12.51547
14.29235
15.07113
15.19595
14.86616
14.13602
13.02085
11.55834
9.914627
8.31715
7.023371
6.201073
5.878618
5.974094
6.286821
6.595371
6.723034
6.521862
5.940971
5.010206
3.805666
2.432142
0.9822636
-0.4716434
-1.912266
-3.407011
-5.112331
-7.199396
-9.796888
-12.81511
-15.86555
-18.32685
-19.48384
-18.79347
-16.1071
-11.71529
-6.2353
-0.4547496
4.914911
9.349432
12.55243
14.47645
15.2497
15.17593
14.61415
13.89508
13.18788
12.51008
11.78174
10.92563
9.980176
9.121004
8.553919
8.438107
8.745971
9.277628
9.741709
9.851182
9.446609
8.500406
7.1159
5.406963
3.505936
1.503693
-0.537714
-2.586494
-4.660646
-6.825432
-9.152842
-11.68653
-14.42276
-17.15555
-19.53773
-21.07767
-21.29227
-19.86666
-16.76091
-12.2691
-6.946205
-1.472908
3.492935
7.454884
10.16616
11.61466
12.00929
11.66268
10.93167
10.05491
9.154652
8.193756
7.064461
5.713905
4.250603
2.945492
2.099632
1.881493
2.212196
2.751701
3.072319
2.852585
2.01371
0.772522
-0.5486679
-1.670662
-2.500961
-3.146439
-3.81855
-4.713226
-5.908852
-7.417198
-9.18531
-11.15505
-13.23409
-15.22309
-16.72678
-17.27489
-16.39931
-13.90971
-10.00748
-5.272797
-0.4697876
3.707497
6.849655
8.919441
10.08353
10.56066
10.47124
9.796951
8.508148
6.676704
4.547455
2.456978
0.7315903
-0.4537735
-1.098701
-1.348495
-1.430092
-1.546997
-1.842186
-2.350639
-2.992081
-3.626144
-4.150764
-4.550362
-4.942604
-5.540146
-6.561272
-8.082458
-10.0283
-12.21705
-14.4343
-16.48808
-18.16854
-19.21957
-19.31248
-18.09398
-15.38478
-11.29631
-6.281601
-1.013748
3.808517
7.690048
10.41995
12.00502
12.59518
12.36644
11.45824
10.03442
8.2556
6.333359
4.494293
2.915024
1.706436
0.9272156
0.5770569
0.5908203
0.8361969
1.114029
1.156891
0.8141785
0.04107666
-1.021927
-2.166962
-3.212601
-4.119644
-5.015549
-6.103806
-7.618042
-9.696426
-12.31834
-15.27113
-18.1566
-20.4518
-21.60931
-21.1825
-18.96404
-15.05511
-9.884674
-4.126678
1.469238
6.211578
9.675735
11.74672
12.61736
12.67868
12.34827
11.9048
11.38383
10.67174
9.634537
8.271133
6.77475
5.450775
4.553497
4.143906
4.08667
4.090042
3.840485
3.16246
2.046295
0.6291351
-0.8560486
-2.192795
-3.27298
-4.123291
-4.91507
-5.883377
-7.264679
-9.216339
-11.76447
-14.73482
-17.76285
-20.31245
-21.75858
-21.57478
-19.47232
-15.58127
-10.41707
-4.764008
0.5796204
5.015671
8.280457
10.4527
11.74567
12.36801
12.36737
11.67433
10.2375
8.18573
5.880417
3.807938
2.404907
1.84552
1.968185
2.354706
2.554077
2.280121
1.495193
0.3788605
-0.8240356
-1.937714
-2.945435
-3.907913
-4.935944
-6.087524
-7.36586
-8.734894
-10.19775
-11.78911
-13.54938
-15.42841
-17.1891
-18.38672
-18.46228
-16.9631
-13.75446
-9.156372
-3.798935
1.517776
6.112701
9.578735
11.78279
12.77141
12.66736
11.61758
9.847351
7.658691
5.433609
3.526459
2.138672
1.261505
0.7138519
0.2328949
-0.3820648
-1.201187
-2.169708
-3.124939
-3.891541
-4.383453
-4.633301
-4.818802
-5.160889
-5.856827
-7.014984
-8.678879
-10.83345
-13.41447
-16.2484
-18.97595
-20.99927
-21.66747
-20.45473
-17.23671
-12.43968
-6.882416
-1.457932
3.178925
6.770309
9.404633
11.27403
12.48764
13.00981
12.74525
11.7485
10.25322
8.638855
7.296509
6.449799
6.088608
5.996674
5.893509
5.533386
4.793594
3.694199
2.34787
0.9171753
-0.4278107
-1.55954
-2.452034
-3.219101
-4.121819
-5.484344
-7.613731
-10.62503
-14.32425
-18.16607
-21.40668
-23.2692
-23.19839
-21.07227
-17.15469
-12.03103
-6.371727
-0.7374268
4.495308
9.092972
12.92189
15.84534
17.74496
18.51512
18.14417
16.72421
14.5259
11.91975
9.323692
7.091713
5.445869
4.392563
3.771378
3.322327
2.816643
2.181145
1.513382
1.024994
0.8460007
0.9641953
1.146461
1.056076
0.3303833
-1.275146
-3.81945
-7.178535
-11.06793
-15.05265
-18.57867
-21.05811
-21.94569
-20.94252
-18.07504
-13.7217
-8.515015
-3.125999
1.877136
6.149551
9.558762
12.15211
14.02045
15.25157
15.88699
15.93016
15.41853
14.40834
13.0358
11.44877
9.785664
8.172062
6.672039
5.374649
4.352192
3.670898
3.321175
3.243084
3.266026
3.244667
3.030479
2.538219
1.699093
0.4355659
-1.383373
-3.861031
-6.965206
-10.46671
-13.88472
-16.56115
-17.84089
-17.29402
-14.83838
-10.80291
-5.809406
-0.6010361
4.176384
8.110146
11.05388
13.04414
14.17315
14.55109
14.23137
13.29101
11.83328
10.04479
8.192715
6.553307
5.346649
4.667011
4.465206
4.567844
4.749012
4.825411
4.68004
4.283836
3.661943
2.80761
1.705917
0.307909
-1.400118
-3.391788
-5.585835
-7.971889
-10.53218
-13.22331
-15.86177
-18.0499
-19.23824
-18.89859
-16.77404
-12.95858
-7.94455
-2.425125
2.944181
7.663532
11.452
14.19083
15.83471
16.35195
15.78474
14.28193
12.17762
9.903119
7.870087
6.37568
5.473369
5.005024
4.669457
4.184593
3.366494
2.211617
0.83113
-0.5999036
-1.952442
-3.162031
-4.256498
-5.321431
-6.460582
-7.829103
-9.577509
-11.81352
-14.53708
-17.50849
-20.27961
-22.22976
-22.71749
-21.28298
-17.84993
-12.7559
-6.684262
-0.4515095
5.255715
10.01554
13.69895
16.3346
18.01775
18.79977
18.75595
18.00747
16.76891
15.32762
13.92935
12.69217
11.57012
10.41866
9.097616
7.575775
5.973396
4.488146
3.283186
2.423742
1.81217
1.230743
0.4360657
-0.7804222
-2.497274
-4.66189
-7.128931
-9.748003
-12.38644
-14.90662
-17.10258
-18.65388
-19.13952
-18.13365
-15.35315
-10.86294
-5.091152
1.231941
7.300997
12.4467
16.30674
18.88124
20.4301
21.28519
21.70809
21.78916
21.46534
20.65119
19.36666
17.81218
16.26851
15.00545
14.11799
13.49782
12.9155
12.13824
11.04001
9.676868
8.230282
6.886459
5.766529
4.830711
3.943684
2.949364
1.692924
0.1089573
-1.825356
-4.11027
-6.763704
-9.75791
-12.94786
-15.98648
-18.29521
-19.21737
-18.20947
-15.07009
-10.1433
-4.147327
1.978691
7.380064
11.52849
14.26005
15.66762
16.00237
15.53724
14.47219
13.00196
11.29454
9.514439
7.847219
6.482538
5.55657
5.159893
5.24199
5.612329
5.991657
6.137826
5.9301
5.422033
4.782298
4.149547
3.549622
2.888308
2.017306
0.8510513
-0.5543733
-2.09085
-3.647101
-5.262069
-7.089922
-9.312532
-11.97315
-14.81328
-17.32252
-18.81097
-18.71782
-16.76357
-13.10574
-8.269595
-2.984778
2.065551
6.379247
9.696135
11.98043
13.27911
13.69915
13.39353
12.55562
11.41244
10.17299
8.940499
7.729711
6.501434
5.269274
4.185656
3.45042
3.192408
3.323277
3.548286
3.489841
2.862438
1.668287
0.1642303
-1.304264
-2.513388
-3.451069
-4.326927
-5.384937
-6.825619
-8.665401
-10.80727
-13.12621
-15.47895
-17.71064
-19.56246
-20.66493
-20.57851
-18.95349
-15.70076
-11.07594
-5.650032
-0.1342621
4.804535
8.735836
11.50537
13.19073
13.99957
14.16329
13.8632
13.24129
12.38754
11.36107
10.20253
8.927326
7.567486
6.200478
4.950054
3.966141
3.364983
3.169834
3.230419
3.308464
3.153385
2.604229
1.636093
0.3574257
-1.085976
-2.56649
-4.030479
-5.502319
-7.067085
-8.799713
-10.75865
-12.89209
-15.00805
-16.76044
-17.68272
-17.34523
-15.51482
-12.27519
-8.042885
-3.418602
0.9758911
4.689392
7.48835
9.37014
10.45034
10.89589
10.86339
10.46206
9.779274
8.895882
7.888535
6.878334
5.962105
5.246231
4.746674
4.378853
3.994881
3.513641
2.936829
2.381989
1.994484
1.857864
1.881989
1.852898
1.546646
0.8424988
-0.2061157
-1.417694
-2.671562
-3.98468
-5.539612
-7.534309
-9.999344
-12.59635
-14.68808
-15.51605
-14.54169
-11.73363
-7.576294
-2.897812
1.442406
4.860771
7.172455
8.504311
9.079971
9.102028
8.670578
7.862221
6.788979
5.666389
4.690254
3.988411
3.509666
3.109604
2.630569
2.026184
1.38681
0.8687744
0.5841217
0.504364
0.4735565
0.3157959
-0.09869385
-0.7448425
-1.517395
-2.262543
-2.914368
-3.518661
-4.211502
-5.190186
-6.596649
-8.441711
-10.57159
-12.63412
-14.1851
-14.75566
-14.06099
-12.1171
-9.226761
-5.872559
-2.556747
0.3872986
2.834381
4.772766
6.198486
7.04129
7.165695
6.503769
5.140274
3.338638
1.478439
-0.06239319
-1.07692
-1.547058
-1.654037
-1.641647
-1.718262
-2.020477
-2.573654
-3.334183
-4.225601
-5.16568
-6.117172
-7.088898
-8.157761
-9.435852
-11.07802
-13.16252
-15.56691
-17.9442
-19.7471
-20.38416
-19.4417
-16.8537
-12.90289
-8.159821
-3.253693
1.309845
5.205322
8.327438
10.69081
12.31316
13.11948
13.00916
11.92035
9.943054
7.388245
4.724243
2.473633
0.9991913
0.3782043
0.384964
0.6039276
0.6455536
0.3371124
-0.2685699
-0.9733887
-1.590118
-2.074295
-2.501984
-3.035583
-3.802887
-4.900635
-6.400772
-8.328735
-10.70561
-13.36493
-15.9519
-17.8716
-18.44748
-17.18956
-14.04073
-9.435699
-4.153946
0.9166412
5.118057
8.167862
10.13885
11.26723
11.76857
11.74844
11.23273
10.24184
8.890076
7.391922
5.974899
4.783005
3.79007
2.87674
1.918823
0.8751678
-0.1642456
-1.072128
-1.762939
-2.231003
-2.561447
-2.85437
-3.212051
-3.737427
-4.532959
-5.730057
-7.436981
-9.616638
-12.04999
-14.33289
-15.92503
-16.33278
-15.28326
-12.80664
-9.258026
-5.188934
-1.177307
2.317963
5.055664
6.99675
8.22023
8.810791
8.835358
8.336929
7.347046
5.962082
4.329315
2.642578
1.086853
-0.1786194
-1.05423
-1.498505
-1.560089
-1.396118
-1.19487
-1.144791
-1.356674
-1.80867
-2.438614
-3.187103
-4.138809
-5.456879
-7.322922
-9.818649
-12.81419
-15.9285
-18.56926
-20.12234
-20.12065
-18.39366
-15.11958
-10.74182
-5.864807
-1.054459
3.223831
6.695694
9.21727
10.73071
11.24385
10.84647
9.724503
8.163132
6.491669
5.036591
4.015839
3.472275
3.290787
3.229568
3.042969
2.567261
1.786407
0.8164063
-0.188324
-1.091553
-1.843002
-2.521835
-3.276604
-4.279938
-5.700439
-7.611443
-9.962807
-12.55263
-15.01424
-16.8708
-17.61497
-16.85639
-14.49139
-10.74888
-6.128822
-1.280846
3.179977
6.852837
9.551231
11.26888
12.09163
12.09596
11.39013
10.11309
8.497498
6.810768
5.305244
4.125504
3.273773
2.625259
2.005203
1.269058
0.4016876
-0.5124817
-1.298637
-1.817154
-2.060059
-2.186539
-2.51075
-3.369522
-4.979218
-7.345886
-10.27323
-13.44201
-16.50006
-19.11417
-20.88537
-21.38897
-20.25146
-17.34743
-12.90395
-7.501221
-1.907944
3.191185
7.405678
10.68795
13.13373
14.80531
15.63077
15.43442
14.17432
12.07567
9.618015
7.354031
5.632252
4.486881
3.625454
2.688667
1.436577
-0.1054764
-1.718773
-3.117458
-4.088112
-4.613163
-4.814198
-4.951365
-5.287477
-6.091009
-7.549372
-9.718548
-12.50639
-15.60422
-18.54406
-20.74185
-21.65952
-20.91798
-18.41976
-14.37786
-9.291918
-3.792961
1.535317
6.271289
10.23726
13.40919
15.81605
17.42719
18.15837
17.98485
17.02977
15.5867
14.05246
12.78116
11.93448
11.47399
11.18981
10.84763
10.28134
9.443197
8.408058
7.296068
6.211998
5.22332
4.333786
3.476273
2.516663
1.236217
-0.6005249
-3.187103
-6.574497
-10.5613
-14.71919
-18.40877
-20.94854
-21.76155
-20.52268
-17.26647
-12.37864
-6.503853
-0.3737755
5.285812
9.988228
13.48817
15.78477
17.05029
17.48953
17.28955
16.55341
15.37372
13.85915
12.19756
10.58772
9.209106
8.151939
7.390488
6.813156
6.285606
5.700821
4.993675
4.125816
3.057457
1.767227
0.2915802
-1.275169
-2.811531
-4.229195
-5.601189
-7.146149
-9.172043
-11.87143
-15.11923
-18.3987
-20.88123
-21.69138
-20.24069
-16.46568
-10.83738
-4.229744
2.422523
8.359077
13.11893
16.58392
18.82761
19.95695
20.04832
19.13172
17.31237
14.79633
11.97649
9.283844
7.12114
5.713211
5.08699
5.088104
5.493912
6.07724
6.630173
7.009094
7.04541
6.630783
5.693329
4.315109
2.6987
1.102448
-0.2785797
-1.432877
-2.580811
-4.135742
-6.470612
-9.791077
-13.86766
-18.06071
-21.49786
-23.31206
-22.95738
-20.38042
-15.96799
-10.40909
-4.459183
1.212738
6.098938
9.862045
12.33803
13.55283
13.69223
13.09692
12.14343
11.16199
10.33261
9.692261
9.192245
8.749817
8.278717
7.723938
7.089584
6.436798
5.854126
5.454819
5.29335
5.310303
5.327881
5.076187
4.309448
2.8797
0.789917
-1.803177
-4.720764
-7.837982
-11.10666
-14.51118
-17.92654
-20.99655
-23.11148
-23.57083
-21.81726
-17.72704
-11.71667
-4.668427
2.382019
8.578552
13.46556
17.02693
19.49741
21.16966
22.20343
22.59546
22.26526
21.18796
19.48543
17.41245
15.3107
13.43121
11.91783
10.77902
9.923035
9.266586
8.726151
8.204437
7.608566
6.857544
5.861649
4.601044
3.147827
1.617523
0.1547241
-1.21933
-2.586609
-4.212448
-6.364349
-9.235764
-12.75436
-16.54849
-19.98022
-22.27243
-22.76692
-21.11206
-17.40445
-12.12126
-5.998154
0.2089691
5.891037
10.65767
14.31747
16.82715
18.21262
18.53888
17.90662
16.45987
14.42651
12.15376
9.995331
8.26091
7.09758
6.46553
6.162354
5.958893
5.647797
5.162384
4.54068
3.884644
3.286652
2.760773
2.259857
1.656342
0.8213501
-0.3818512
-2.090591
-4.396194
-7.30455
-10.67967
-14.17108
-17.26131
-19.31894
-19.78662
-18.35207
-15.03621
-10.18977
-4.43074
1.550873
7.112686
11.75645
15.19293
17.33939
18.22147
17.99754
16.88864
15.11081
12.93147
10.61876
8.466629
6.740341
5.636978
5.160843
5.129257
5.21402
5.062454
4.472961
3.428711
2.059067
0.5423431
-0.9524841
-2.346268
-3.633224
-4.878143
-6.204376
-7.818604
-9.966919
-12.84222
-16.39716
-20.21956
-23.55435
-25.47534
-25.2458
-22.5938
-17.81271
-11.68018
-5.104431
1.148987
6.65593
11.27654
15.02696
17.89362
19.78607
20.59209
20.29306
19.03607
17.12038
14.9196
12.74091
10.78769
9.120102
7.740631
6.601685
5.633667
4.770355
3.934006
3.05777
2.097626
1.076691
0.05227661
-0.919632
-1.837067
-2.776093
-3.908783
-5.456558
-7.652435
-10.59268
-14.11763
-17.71931
-20.64249
-22.02515
-21.25293
-18.15579
-13.13789
-7.03653
-0.7677612
4.917023
9.645142
13.36626
16.16907
18.09769
19.10847
19.11024
18.12575
16.39552
14.30464
12.30132
10.72005
9.706329
9.204391
8.979279
8.757553
8.313766
7.529434
6.444489
5.210037
4.035187
3.08371
2.410355
1.898468
1.306808
0.3121185
-1.371338
-3.911819
-7.280746
-11.17722
-15.10521
-18.3932
-20.35565
-20.43108
-18.40425
-14.43382
-9.092712
-3.160812
2.57724
7.535797
11.45348
14.33722
16.34793
17.62463
18.22206
18.13361
17.31802
15.84343
13.88049
11.69208
9.544342
7.658371
6.126892
4.942429
4.02124
3.266586
2.575195
1.88118
1.160934
0.4107666
-0.3637543
-1.177887
-2.062408
-3.12204
-4.493469
-6.30188
-8.621033
-11.39177
-14.39243
-17.23007
-19.38913
-20.32257
-19.57233
-16.97748
-12.69455
-7.244522
-1.380478
4.152267
8.758789
12.16479
14.35049
15.46312
15.65739
15.04395
13.69792
11.75415
9.435776
7.078308
4.990234
3.342377
2.15921
1.297195
0.5834045
-0.1352844
-0.8697815
-1.577881
-2.199638
-2.705132
-3.128746
-3.562286
-4.122269
-4.912071
-6.047729
-7.644562
-9.764206
-12.36638
-15.22503
-17.92113
-19.90376
-20.65287
-19.81544
-17.34229
-13.49421
-8.752022
-3.695663
1.195221
5.572502
9.283997
12.25295
14.41126
15.64649
15.801
14.79851
12.72148
9.944435
7.019272
4.553574
2.939941
2.268761
2.223404
2.338898
2.146904
1.432808
0.2844696
-1.004395
-2.100685
-2.834778
-3.257568
-3.647827
-4.368286
-5.727188
-7.911285
-10.8957
-14.46417
-18.17015
-21.43284
-23.56596
-24.00488
-22.43741
-18.95979
-14.04449
-8.421005
-2.828262
2.179649
6.355782
9.675888
12.19685
13.96092
14.91799
15.02077
14.33349
13.04108
11.43302
9.76474
8.214699
6.770676
5.349068
3.840828
2.183151
0.4030685
-1.381317
-3.023689
-4.357689
-5.278023
-5.780556
-5.983768
-6.123703
-6.577473
-7.725716
-9.802795
-12.8045
-16.36108
-19.80087
-22.30183
-23.13848
-21.89796
-18.61906
-13.732
-7.967152
-2.085175
3.302372
7.812828
11.31942
13.85657
15.52252
16.38537
16.5152
15.95746
14.77799
13.12161
11.2057
9.266544
7.487507
5.962742
4.692379
3.577316
2.51112
1.417107
0.2834129
-0.8112068
-1.730247
-2.341667
-2.6105
-2.708851
-2.986988
-3.876881
-5.720272
-8.574432
-12.12913
-15.77285
-18.77316
-20.52052
-20.68287
-19.2155
-16.31485
-12.29688
-7.542706
-2.465626
2.4795
6.846134
10.21058
12.28303
12.97984
12.43666
10.97555
8.963982
6.788521
4.697613
2.793655
1.118118
-0.3035889
-1.42783
-2.187744
-2.616535
-2.859241
-3.108437
-3.525986
-4.136585
-4.826195
-5.442089
-5.953068
-6.549816
-7.566334
-9.307713
-11.8694
-15.01294
-18.21115
-20.77402
-22.09351
-21.73823
-19.57344
-15.73556
-10.66719
-4.989597
0.6042061
5.501289
9.320583
11.92147
13.35363
13.76541
13.31387
12.19339
10.63078
8.911583
7.338371
6.120865
5.276741
4.595482
3.779736
2.576809
0.9633942
-0.8621254
-2.55603
-3.841824
-4.611923
-5.042545
-5.475231
-6.304806
-7.844135
-10.22379
-13.39306
-17.10125
-20.86613
-24.02298
-25.82647
-25.64779
-23.17019
-18.54867
-12.39451
-5.597935
0.9277115
6.501396
10.74381
13.60043
15.18063
15.65514
15.19662
13.96323
12.18668
10.1278
8.072212
6.211655
4.649048
3.336601
2.188484
1.08139
-0.03196716
-1.114143
-2.070724
-2.772751
-3.173721
-3.344093
-3.490425
-3.924232
-4.98098
-6.920807
-9.83609
-13.5736
-17.73232
-21.70699
-24.76615
-26.2053
-25.48227
-22.37453
-17.08776
-10.24457
-2.767151
4.373802
10.39753
14.90372
17.86093
19.54594
20.29927
20.39214
19.97694
19.11572
17.88672
16.40356
14.80695
13.21075
11.61308
9.947807
8.192345
6.377945
4.691689
3.339424
2.457985
2.031021
1.827393
1.539581
0.8576889
-0.4185486
-2.354813
-4.955269
-8.178757
-11.94891
-16.0596
-20.09642
-23.4137
-25.28432
-25.06395
-22.47267
-17.71802
-11.42712
-4.470322
2.321045
8.345276
13.33554
17.25406
20.20692
22.26762
23.44765
23.68094
22.95891
21.38634
19.22334
16.81941
14.51868
12.5452
10.96248
9.684555
8.545029
7.423019
6.259613
5.075867
3.919357
2.83252
1.801941
0.733078
-0.4843445
-1.966797
-3.834412
-6.167145
-9.01059
-12.31508
-15.91046
-19.43887
-22.33881
-23.9185
-23.5892
-21.04503
-16.44513
-10.37854
-3.704727
2.739059
8.357224
12.88896
16.34755
18.84637
20.47441
21.25078
21.16542
20.27309
18.73889
16.83537
14.8681
13.13409
11.80023
10.89508
10.33632
9.941788
9.506607
8.879364
7.993988
6.852173
5.502747
4.009644
2.413162
0.7182159
-1.115051
-3.151886
-5.489273
-8.201691
-11.28038
-14.52466
-17.52618
-19.69002
-20.4261
-19.33469
-16.31958
-11.65695
-5.913696
0.1894226
5.982361
10.9184
14.68633
17.20009
18.52032
18.79152
18.1776
16.82092
14.85272
12.44916
9.856247
7.352798
5.194641
3.550171
2.44664
1.783707
1.396408
1.096939
0.7340698
0.1863251
-0.6077271
-1.674347
-2.995956
-4.507889
-6.180771
-8.017456
-10.09137
-12.50597
-15.30202
-18.3717
-21.38356
-23.84485
-25.11995
-24.64001
-22.06169
-17.40051
-11.08009
-3.846848
3.426224
9.951111
15.16086
18.80077
20.88783
21.66132
21.42525
20.48389
19.0596
17.31752
15.37599
13.34293
11.35358
9.550613
8.064972
6.953644
6.171265
5.59697
5.065063
4.476318
3.770432
2.966309
2.095444
1.150177
0.1056519
-1.097397
-2.52652
-4.253769
-6.389923
-9.036804
-12.22643
-15.76907
-19.22475
-21.89896
-23.01376
-22.00549
-18.72949
-13.56149
-7.274963
-0.7754822
5.170105
10.11409
13.94139
16.72797
18.59776
19.61786
19.83192
19.31056
18.1821
16.67676
15.00735
13.37343
11.87956
10.56386
9.427673
8.434219
7.570801
6.800476
6.131805
5.558731
5.047653
4.53656
3.898102
2.991821
1.701981
-0.03909302
-2.191483
-4.676819
-7.445618
-10.49614
-13.76895
-17.08359
-20.03363
-22.04332
-22.48674
-20.99303
-17.58199
-12.6907
-7.018875
-1.265076
4.025925
8.59108
12.33838
15.25292
17.28961
18.3563
18.37675
17.38831
15.58023
13.25126
10.76459
8.438103
6.49276
4.993095
3.922165
3.168518
2.5952
2.098129
1.61277
1.107162
0.5954208
0.09804535
-0.3891602
-0.9089966
-1.578911
-2.581261
-4.110542
-6.306404
-9.188538
-12.58853
-16.11572
-19.19883
-21.21568
-21.65469
-20.24886
-17.07146
-12.51128
-7.179947
-1.74588
3.235306
7.392723
10.56461
12.71597
13.85806
14.01402
13.21947
11.60614
9.416054
6.994148
4.693565
2.84243
1.56739
0.8375854
0.4779358
0.2500076
-0.0522995
-0.5660858
-1.280838
-2.127327
-2.978249
-3.725693
-4.338417
-4.908173
-5.601425
-6.632942
-8.193161
-10.36224
-13.03557
-15.85566
-18.24526
-19.48371
-18.93655
-16.30331
-11.7496
-5.913406
0.2928543
6.005013
10.65223
14.02503
16.20556
17.3579
17.54289
16.75981
15.02567
12.5448
9.734032
7.109035
5.1161
3.934719
3.427307
3.239628
2.975853
2.397297
1.475506
0.3418236
-0.7675591
-1.686062
-2.339191
-2.817978
-3.353348
-4.255409
-5.836552
-8.297306
-11.6267
-15.54996
-19.5341
-22.87876
-24.88195
-25.0061
-22.99727
-18.97824
-13.4366
-7.075077
-0.7271652
4.890316
9.276817
12.21388
13.80052
14.29739
14.02032
13.22446
12.04491
10.54576
8.750114
6.780861
4.81588
3.069668
1.633156
0.4875908
-0.5262547
-1.563782
-2.619619
-3.576075
-4.212172
-4.434401
-4.348061
-4.305742
-4.744335
-5.968307
-8.047853
-10.7712
-13.75336
-16.51495
-18.6168
-19.61807
-19.15928
-16.98772
-13.09085
-7.784029
-1.704086
4.327848
9.553627
13.48542
16.00493
17.30746
17.69621
17.43672
16.62832
15.304
13.49461
11.37833
9.211199
7.241821
5.621212
4.325703
3.211208
2.113184
0.94734
-0.2631245
-1.390537
-2.302696
-2.897932
-3.180977
-3.282557
-3.423858
-3.882224
-4.901947
-6.617839
-8.965423
-11.68266
-14.2796
-16.17325
-16.81507
-15.8459
-13.18441
-9.092812
-4.087675
1.16046
6.009891
9.991703
12.8632
14.59716
15.2946
15.09623
14.11529
12.49275
10.44532
8.203756
6.042138
4.151839
2.60302
1.360612
0.3242807
-0.6036036
-1.457194
-2.201337
-2.787366
-3.182176
-3.417046
-3.591203
-3.848366
-4.401476
-5.481517
-7.332677
-10.06022
-13.5542
-17.34604
-20.72373
-22.84249
-23.01311
-20.95995
-16.89261
-11.44373
-5.446695
0.3516788
5.431378
9.547681
12.60388
14.58407
15.43616
15.10243
13.61384
11.22484
8.34376
5.495327
3.123029
1.417364
0.3146133
-0.4316821
-1.081717
-1.780138
-2.499634
-3.143371
-3.622536
-3.933745
-4.203951
-4.599543
-5.281871
-6.378137
-8.021544
-10.29436
-13.17427
-16.42894
-19.56447
-21.90168
-22.77158
-21.7687
-18.91342
-14.62492
-9.577206
-4.433781
0.3268392
4.437829
7.823253
10.45706
12.3229
13.38982
13.6448
13.17918
12.17487
10.90498
9.675173
8.716986
8.134963
7.873828
7.717143
7.419033
6.783866
5.721568
4.287964
2.671173
1.056317
-0.3753107
-1.557243
-2.527343
-3.43925
-4.566717
-6.219898
-8.580984
-11.61788
-14.98037
-18.05488
-20.1218
-20.54938
-19.01356
-15.5166
-10.39848
-4.244599
2.228216
8.259922
13.22122
16.71399
18.64587
19.24041
18.94538
18.20998
17.38474
16.5879
15.77479
14.87418
13.85522
12.77185
11.71713
10.72823
9.766121
8.738295
7.532247
6.118273
4.506214
2.747701
0.9003243
-0.9692211
-2.844831
-4.731835
-6.663331
-8.709988
-10.98706
-13.55751
-16.37783
-19.19499
-21.56148
-22.92778
-22.81241
-20.95248
-17.40656
-12.54715
-6.945491
-1.286738
3.816117
7.938252
10.86632
12.67949
13.61208
13.98313
14.05723
13.99245
13.81922
13.51587
13.05085
12.474
11.88817
11.4144
11.06873
10.78893
10.47429
10.0318
9.472216
8.853064
8.170883
7.359427
6.243618
4.668507
2.555002
0.001192093
-2.798748
-5.63907
-8.419077
-11.20301
-14.09945
-17.12109
-20.05149
-22.44213
-23.69924
-23.30077
-21.00873
-16.96938
-11.68937
-5.895568
-0.3202634
4.467554
8.156986
10.69561
12.16837
12.71213
12.46015
11.52193
10.05936
8.273475
6.428015
4.758222
3.438005
2.508821
1.92221
1.569428
1.333819
1.134562
0.9095659
0.6508636
0.3715057
0.07734299
-0.2489023
-0.6523046
-1.222105
-2.051691
-3.227722
-4.809547
-6.781755
-9.112926
-11.71986
-14.40203
-16.81122
-18.43184
-18.71899
-17.26515
-14.02277
-9.386733
-4.101805
1.009679
5.31953
8.569776
10.80213
12.21325
12.93725
12.94166
12.12819
10.48581
8.223411
5.779268
3.655582
2.223136
1.568474
1.489813
1.61408
1.585036
1.216679
0.5104675
-0.3517132
-1.152073
-1.80969
-2.327735
-2.883666
-3.687801
-4.907661
-6.652364
-8.975921
-11.84701
-15.13083
-18.52461
-21.51296
-23.41676
-23.5861
-21.57539
-17.38837
-11.49542
-4.725509
1.969781
7.807834
12.33212
15.40611
17.11694
17.67099
17.29153
16.17806
14.55462
12.62171
10.58753
8.671423
7.010633
5.691659
4.717958
4.004268
3.422178
2.856568
2.215107
1.461185
0.6413684
-0.2204828
-1.097892
-2.000623
-2.999305
-4.164531
-5.602107
-7.420064
-9.718974
-12.52145
-15.66422
-18.69478
-20.93529
-21.63007
-20.21164
-16.57406
-11.13756
-4.732696
1.711041
7.429725
12.04785
15.50695
17.94461
19.5296
20.32483
20.32277
19.50674
17.93621
15.73751
13.14101
10.42095
7.848025
5.663979
4.02322
2.906223
2.141834
1.534478
0.9121287
0.2180175
-0.490459
-1.171284
-1.857818
-2.646572
-3.672661
-5.026175
-6.738714
-8.834387
-11.34727
-14.25566
-17.40258
-20.34923
-22.44039
-22.96378
-21.43797
-17.81343
-12.52761
-6.372872
-0.1918845
5.34867
9.862689
13.23456
15.47208
16.67666
16.98383
16.5307
15.4823
14.02948
12.35456
10.63312
9.058855
7.762191
6.773576
6.000211
5.214015
4.210568
2.87429
1.318058
-0.2004013
-1.381334
-2.080291
-2.439149
-2.834981
-3.779993
-5.6401
-8.473524
-12.00401
-15.69006
-18.84966
-20.85579
-21.2331
-19.74654
-16.47527
-11.77295
-6.215949
-0.4962764
4.7489
9.05105
12.19007
14.148
15.0692
15.117
14.45203
13.20077
11.49213
9.499505
7.440869
5.563527
4.039093
2.942721
2.219093
1.723277
1.285659
0.7766075
0.1948605
-0.4109163
-0.957037
-1.44463
-1.995071
-2.820964
-4.160926
-6.210335
-9.023776
-12.47821
-16.26891
-19.89082
-22.73485
-24.15228
-23.62042
-20.94821
-16.31153
-10.28078
-3.659554
2.740533
8.295909
12.71909
15.97986
18.20136
19.48716
19.86708
19.34265
17.96201
15.90311
13.45117
10.94593
8.639959
6.632318
4.877014
3.241074
1.658812
0.1302872
-1.227381
-2.286575
-2.970995
-3.333683
-3.531502
-3.812454
-4.428638
-5.612194
-7.522385
-10.17232
-13.44013
-16.98427
-20.27844
-22.657
-23.45976
-22.25994
-18.97643
-13.96019
-7.871176
-1.499924
4.439161
9.470474
13.367
16.10412
17.78174
18.55286
18.58143
18.04002
17.07067
15.79557
14.336
12.83103
11.43779
10.27038
9.356634
8.605453
7.877842
7.03997
6.069452
5.02549
3.996887
3.005957
1.96332
0.7017174
-0.9332676
-3.018574
-5.553728
-8.506144
-11.76378
-15.13534
-18.24206
-20.49953
-21.26874
-20.0221
-16.63907
-11.45544
-5.1917
1.281574
7.196117
12.07982
15.73008
18.14801
19.39141
19.53427
18.65872
16.89301
14.46154
11.67437
8.891706
6.438015
4.554821
3.289703
2.55126
2.118452
1.773752
1.339457
0.757513
0.09050751
-0.5840874
-1.21497
-1.820328
-2.518904
-3.494932
-4.949566
-7.065794
-9.908108
-13.36149
-17.07283
-20.44288
-22.71944
-23.24195
-21.62441
-17.94111
-12.71435
-6.734112
-0.8097248
4.449116
8.756649
12.057
14.42208
15.92604
16.53081
16.17826
14.86923
12.76821
10.23034
7.67959
5.492022
3.842241
2.738316
2.036898
1.609011
1.386229
1.347601
1.477058
1.683935
1.806885
1.673536
1.11348
0.005971909
-1.74604
-4.23262
-7.492752
-11.41908
-15.65667
-19.61173
-22.53838
-23.76869
-22.93946
-20.08141
-15.62241
-10.22887
-4.60906
0.6460094
5.115927
8.614063
11.09336
12.63
13.31293
13.26511
12.61826
11.53574
10.16785
8.693769
7.260267
6.029638
5.107605
4.538849
4.251095
4.115414
4.000191
3.818405
3.580626
3.322142
3.001572
2.466625
1.471992
-0.1960888
-2.62187
-5.704813
-9.190817
-12.7956
-16.24581
-19.25887
-21.51647
-22.58846
-22.04892
-19.61903
-15.33993
-9.631466
-3.202446
3.168497
8.819948
13.31765
16.49711
18.40297
19.23072
19.25926
18.71953
17.80606
16.64256
15.31021
13.91363
12.56393
11.38205
10.42503
9.655548
8.936146
8.117771
7.147308
6.057203
4.963757
3.989101
3.138609
2.288902
1.268906
-0.05000877
-1.686728
-3.525303
-5.496357
-7.588301
-9.94804
-12.7344
-15.9401
-19.18336
-21.72434
-22.65958
-21.3199
-17.5662
-11.88381
-5.223448
1.409771
7.244078
11.87941
15.24718
17.46408
18.65736
18.92222
18.38111
17.20211
15.62403
13.93173
12.38853
11.17467
10.37779
9.967963
9.820017
9.77482
9.682585
9.496513
9.297108
9.163861
9.101983
8.931481
8.373781
7.153325
5.219041
2.752392
0.1524383
-2.185728
-4.023521
-5.353987
-6.42424
-7.574256
-9.161667
-11.38617
-14.25965
-17.5273
-20.67798
-23.03993
-23.94416
-22.88832
-19.70375
-14.68904
-8.451266
-1.826764
4.407956
9.631091
13.5159
15.98273
17.12353
17.12194
16.19204
14.55311
12.49235
10.30001
8.270775
6.602835
5.386641
4.565374
4.037802
3.655264
3.31496
2.96096
2.578882
2.136545
1.614853
0.9522018
0.07849503
-1.081078
-2.524551
-4.133305
-5.67791
-6.92334
-7.765923
-8.356209
-9.053265
-10.3005
-12.35006
-15.09806
-18.0104
-20.32908
-21.28917
-20.40704
-17.60825
-13.25431
-7.972424
-2.485863
2.542629
6.630451
9.519691
11.19606
11.84133
11.76488
11.3027
10.68217
10.01696
9.270981
8.381317
7.285713
6.090836
4.977081
4.200863
3.92569
4.145664
4.698524
5.273315
5.543579
5.295341
4.510857
3.296326
1.893181
0.5224915
-0.7008896
-1.820518
-2.970467
-4.30275
-5.930725
-7.887871
-10.15854
-12.725
-15.5218
-18.36845
-20.85327
-22.37786
-22.30109
-20.19834
-16.0953
-10.51884
-4.336403
1.535164
6.41861
10.0306
12.41814
13.79913
14.38376
14.31365
13.67946
12.61063
11.30431
9.969551
8.792931
7.827942
7.043472
6.329613
5.619003
4.890167
4.19545
3.608063
3.110321
2.643532
2.089882
1.336151
0.2948608
-0.9935608
-2.44104
-3.91951
-5.300835
-6.554367
-7.786644
-9.208595
-11.08609
-13.58391
-16.55008
-19.51431
-21.7069
-22.31225
-20.78629
-17.07431
-11.70055
-5.563011
0.4218597
5.564064
9.563049
12.42374
14.2789
15.20765
15.24519
14.44206
12.99208
11.21551
9.436501
7.865372
6.529167
5.364586
4.282852
3.376678
2.807602
2.70491
3.024414
3.505501
3.742393
3.430801
2.441727
0.9055328
-0.8818665
-2.611557
-4.119095
-5.44429
-6.77079
-8.3293
-10.27346
-12.5865
-15.04819
-17.31233
-18.95155
-19.54907
-18.81519
-16.64427
-13.11166
-8.550858
-3.419373
1.743896
6.402985
10.15993
12.74432
14.03856
14.04942
12.91917
10.92647
8.442215
5.909653
3.734314
2.172424
1.302704
0.9821167
0.9702454
1.006134
0.8924255
0.5563965
0.0223999
-0.6009216
-1.212173
-1.73053
-2.207993
-2.754486
-3.530838
-4.676987
-6.257538
-8.243652
-10.56873
-13.13194
-15.8093
-18.37096
-20.45245
-21.55678
-21.19203
-19.02676
-15.09465
-9.840988
-4.000366
1.633331
6.430725
10.05446
12.46864
13.76947
14.10994
13.54614
12.12796
9.965164
7.299942
4.491272
1.950531
-0.001220703
-1.248276
-1.872025
-2.159225
-2.435181
-2.935181
-3.713394
-4.635284
-5.432678
-5.88266
-5.945984
-5.812408
-5.858994
-6.490829
-8.007202
-10.4743
-13.68236
-17.20583
-20.45636
-22.79968
-23.63216
-22.54449
-19.41605
-14.4976
-8.410446
-1.945175
4.122543
9.24823
13.1584
15.8252
17.28281
17.58989
16.77847
14.94411
12.32152
9.277481
6.275269
3.715424
1.876297
0.7748413
0.2467804
-0.01998901
-0.3196259
-0.8411407
-1.619125
-2.505981
-3.336243
-3.960938
-4.373932
-4.742859
-5.344299
-6.479218
-8.335846
-10.91199
-14.00623
-17.18612
-19.88139
-21.51166
-21.62299
-19.98379
-16.67351
-12.02991
-6.603432
-1.016403
4.15078
8.475906
11.74097
13.9357
15.22644
15.78383
15.73235
15.10983
13.96249
12.37912
10.59843
8.89917
7.480156
6.415298
5.530365
4.614128
3.45298
2.050537
0.5401993
-0.8988266
-2.138351
-3.185272
-4.164299
-5.282532
-6.72422
-8.620819
-11.04154
-13.92448
-17.05973
-20.04482
-22.3373
-23.33139
-22.5403
-19.74553
-15.0841
-9.081703
-2.466461
4.01387
9.727486
14.27808
17.4991
19.35612
19.90872
19.28828
17.67093
15.3324
12.59453
9.843895
7.420525
5.595253
4.449257
3.866333
3.621002
3.43438
3.1185
2.622871
1.995628
1.310829
0.5721741
-0.343338
-1.646042
-3.556274
-6.220409
-9.600483
-13.44477
-17.26839
-20.40861
-22.18792
-22.08201
-19.8686
-15.75794
-10.29003
-4.188557
1.885567
7.470863
12.31375
16.29174
19.29123
21.1863
21.83364
21.23287
19.59565
17.33894
14.96594
12.91267
11.38561
10.29689
9.369473
8.266499
6.750393
4.783482
2.470863
0.01282883
-2.405991
-4.67017
-6.755054
-8.727837
-10.74412
-12.99792
-15.71615
-19.04289
-22.93148
-27.02461
-30.65808
-32.98774
-33.27357
-31.10258
-26.58173
-20.29539
-13.08522
-5.838453
0.7874641
6.355474
10.68085
13.70758
15.47121
16.03816
15.56998
14.31207
12.5865
10.74748
9.072528
7.765011
6.892112
6.409157
6.189549
6.051735
5.828598
5.422425
4.819701
4.061246
3.209746
2.265522
1.210035
-0.03768349
-1.567843
-3.468217
-5.850685
-8.749504
-12.06452
-15.48066
-18.43777
-20.24308
-20.25901
-18.11915
-13.85589
-7.961914
-1.160995
5.725607
11.99964
17.16802
20.96004
23.31765
24.3834
24.44291
23.82172
22.81154
21.5599
20.08272
18.32126
16.27962
14.07945
11.97454
10.25901
9.113697
8.532845
8.333237
8.229527
7.978245
7.40062
6.413219
5.013859
3.270432
1.303753
-0.7242622
-2.681675
-4.555065
-6.471684
-8.687363
-11.39183
-14.55323
-17.7458
-20.17978
-20.96622
-19.43803
-15.45158
-9.447914
-2.334595
4.861206
11.25776
16.3124
19.85329
21.97984
22.9722
23.13322
22.75006
22.06823
21.25736
20.45319
19.72187
19.0739
18.49762
17.93392
17.32666
16.65297
15.93271
15.25467
14.71272
14.35715
14.13648
13.86444
13.25853
12.08204
10.21746
7.802032
5.146931
2.623344
0.5097847
-1.135574
-2.521599
-4.060768
-6.15469
-9.019371
-12.55337
-16.31213
-19.56897
-21.54618
-21.60896
-19.47375
-15.30189
-9.645519
-3.327152
2.776001
7.977089
11.89609
14.45555
15.79543
16.1011
15.53553
14.24313
12.39017
10.21077
8.006807
6.065149
4.589428
3.639086
3.15233
3.012396
3.108063
3.395102
3.839163
4.416859
5.004786
5.416847
5.475695
4.979901
3.832426
2.036395
-0.2754006
-2.857335
-5.402139
-7.647785
-9.441362
-10.83368
-12.0679
-13.49618
-15.42664
-17.95219
-20.8141
-23.40344
-24.95474
-24.77652
-22.50607
-18.27676
-12.66031
-6.503789
-0.6636944
4.24557
7.907616
10.32402
11.68983
12.26235
12.25464
11.81717
11.04931
10.04982
8.966797
7.988607
7.275534
6.933142
6.909447
7.035267
7.127693
7.077892
6.923229
6.784597
6.778339
6.868399
6.895149
6.593082
5.756893
4.356686
2.535507
0.5410004
-1.392776
-3.161152
-4.787151
-6.383663
-8.09993
-10.01292
-12.14026
-14.43055
-16.72493
-18.77512
-20.17724
-20.49596
-19.35423
-16.62511
-12.48236
-7.412746
-2.133614
2.657345
6.45034
9.03952
10.53088
11.23414
11.48376
11.52668
11.45818
11.22396
10.73128
9.954628
8.98233
7.994225
7.194275
6.681808
6.435646
6.31176
6.137009
5.830177
5.404007
4.969398
4.615364
4.37928
4.152557
3.775009
3.12159
2.152588
0.9394379
-0.4211502
-1.88681
-3.495453
-5.366493
-7.616547
-10.2871
-13.28317
-16.37032
-19.15108
-21.12804
-21.80057
-20.80043
-18.05788
-13.86738
-8.831955
-3.688118
0.9188766
4.591499
7.200325
8.803482
9.546333
9.573235
9.070259
8.228966
7.283264
6.416748
5.742096
5.268936
4.939262
4.694054
4.531403
4.478287
4.561935
4.760666
4.985909
5.096581
4.954384
4.488197
3.714951
2.739273
1.715103
0.743866
-0.1564789
-1.088226
-2.200607
-3.615021
-5.405045
-7.55365
-9.979996
-12.56613
-15.10397
-17.28053
-18.67416
-18.81839
-17.36388
-14.27226
-9.8526
-4.739029
0.320755
4.693817
7.99437
10.10896
11.118
11.18513
10.49966
9.2435
7.655838
5.95784
4.39473
3.137283
2.248672
1.676468
1.350204
1.156113
1.030365
0.939682
0.8386383
0.66539
0.3583984
-0.1503906
-0.8530426
-1.747421
-2.763031
-3.841583
-4.97319
-6.172974
-7.509735
-9.090408
-11.01096
-13.26952
-15.7188
-18.03102
-19.72842
-20.30646
-19.36319
-16.78737
-12.77495
-7.822571
-2.520416
2.518265
6.814682
10.03516
11.98135
12.63486
12.11716
10.73886
8.876938
6.929321
5.13382
3.540573
2.04213
0.4983368
-1.068024
-2.482544
-3.43454
-3.731857
-3.364227
-2.596939
-1.822296
-1.389648
-1.437393
-1.899979
-2.626419
-3.520523
-4.624588
-6.039612
-7.855423
-10.04813
-12.49905
-15.06444
-17.62532
-20.12112
-22.41821
-24.25549
-25.23967
-24.95673
-23.11525
-19.66849
-14.81337
-8.927673
-2.419083
4.271332
10.66507
16.28946
20.68494
23.57808
24.96608
25.07225
24.28932
22.94112
21.23799
19.22566
16.9287
14.44734
12.00195
9.844864
8.118591
6.815628
5.743912
4.679672
3.443329
2.021057
0.5109253
-0.9600067
-2.31105
-3.564301
-4.795731
-6.152405
-7.710846
-9.543686
-11.5959
-13.74648
-15.754
-17.25497
-17.85765
-17.23787
-15.306
-12.23134
-8.422577
-4.38353
-0.5158691
2.872955
5.602371
7.557526
8.666641
8.909821
8.392792
7.353287
6.089172
4.876022
3.830032
2.942963
2.167709
1.505219
1.063202
0.9797058
1.289459
1.858505
2.409744
2.619217
2.31723
1.50975
0.3767395
-0.8603668
-2.110596
-3.425232
-5.00972
-7.06131
-9.674576
-12.7794
-16.08498
-19.14281
-21.42593
-22.45876
-21.9102
-19.70509
-16.06464
-11.47318
-6.519775
-1.808701
2.198288
5.260712
7.313721
8.421402
8.715958
8.31665
7.340057
5.908127
4.172379
2.3302
0.5403748
-1.068161
-2.457214
-3.669373
-4.772705
-5.80748
-6.72287
-7.369202
-7.59053
-7.258835
-6.402039
-5.282578
-4.332001
-4.047943
-4.779556
-6.615875
-9.336014
-12.44815
-15.37471
-17.59467
-18.6787
-18.33365
-16.43887
-13.01411
-8.331482
-2.904053
2.597534
7.518021
11.42024
14.11031
15.63535
16.1402
15.75804
14.59708
12.7877
10.57933
8.267639
6.162674
4.446381
3.153152
2.177902
1.38414
0.7193298
0.1626587
-0.2785187
-0.6233521
-0.9245148
-1.264709
-1.698563
-2.267807
-3.033722
-4.130722
-5.746399
-8.055817
-11.10165
-14.66638
-18.26836
-21.18372
-22.67621
-22.22984
-19.71225
-15.48917
-10.23679
-4.744766
0.3463745
4.698517
8.260315
11.11789
13.30754
14.77115
15.36803
15.0379
13.89827
12.23607
10.41357
8.725067
7.289413
6.060074
4.903336
3.702087
2.429993
1.134796
-0.06584167
-1.060829
-1.775482
-2.208458
-2.415848
-2.52787
-2.770462
-3.386978
-4.617577
-6.607841
-9.316986
-12.48595
-15.6385
-18.16017
-19.43822
-18.98705
-16.58687
-12.35673
-6.803726
-0.6575317
5.257004
10.25278
13.92669
16.22153
17.30491
17.40511
16.69716
15.25648
13.16309
10.60752
7.946213
5.622078
3.989006
3.143349
2.915337
2.958443
2.89801
2.576431
2.002083
1.333328
0.7374725
0.2880707
-0.08409119
-0.5234299
-1.19593
-2.224007
-3.675446
-5.606346
-8.033127
-10.86195
-13.84689
-16.49733
-18.16562
-18.18681
-16.19672
-12.27679
-7.003883
-1.260586
4.079712
8.462658
11.73024
14.03127
15.57711
16.46799
16.64668
16.01201
14.57738
12.58269
10.433
8.571976
7.288597
6.598087
6.262058
5.917107
5.263878
4.204628
2.877869
1.557707
0.4893761
-0.2430649
-0.776226
-1.348217
-2.22983
-3.584763
-5.500101
-7.988344
-11.06863
-14.66505
-18.4867
-21.9292
-24.19339
-24.48837
-22.35497
-17.89519
-11.74842
-4.876608
1.716322
7.334364
11.66272
14.70756
16.64372
17.69089
17.92507
17.39865
16.18718
14.43317
12.46399
10.67766
9.433075
8.904793
8.983829
9.339991
9.541595
9.287004
8.458477
7.162616
5.61376
4.004541
2.416718
0.8244591
-0.8485222
-2.687748
-4.734926
-7.050974
-9.70303
-12.75943
-16.21919
-19.89377
-23.32915
-25.82737
-26.61753
-25.12664
-21.20163
-15.22139
-8.033482
-0.6917686
5.869335
11.0332
14.60421
16.73752
17.77097
18.08328
17.96326
17.57958
16.96861
16.10471
14.97405
13.63221
12.20554
10.84448
9.60297
8.422546
7.179714
5.715538
4.017235
2.201401
0.4825058
-0.9325294
-1.941452
-2.581573
-2.991894
-3.371578
-3.971584
-5.028999
-6.761002
-9.302589
-12.58656
-16.2663
-19.70246
-22.05962
-22.55928
-20.75749
-16.68161
-10.87129
-4.218979
2.326424
7.989777
12.36549
15.38979
17.24921
18.21162
18.57585
18.49329
18.063
17.32645
16.31052
15.06963
13.7085
12.38979
11.27519
10.50401
10.10329
10.0201
10.13869
10.28429
10.30717
10.09776
9.571159
8.682335
7.399689
5.703781
3.648148
1.369949
-0.9750519
-3.251945
-5.467949
-7.83152
-10.60961
-13.95856
-17.72213
-21.30977
-23.81696
-24.3187
-22.23344
-17.5956
-11.0657
-3.709618
3.377853
9.379936
13.87779
16.82156
18.39107
18.8539
18.42825
17.29167
15.6173
13.59336
11.43356
9.329987
7.433533
5.780327
4.356255
3.144043
2.166229
1.525017
1.292931
1.4431
1.781746
1.984634
1.71949
0.8358917
-0.5658951
-2.1679
-3.625626
-4.79525
-5.829948
-7.123894
-9.047127
-11.7399
-14.92544
-17.98206
-20.13133
-20.69009
-19.30295
-15.97185
-11.05664
-5.175941
0.9153214
6.508026
11.03815
14.20355
16.00648
16.68388
16.5789
16.01611
15.20299
14.26246
13.2305
12.14581
11.07433
10.12411
9.364861
8.815689
8.421776
8.018776
7.413544
6.466507
5.160751
3.608765
2.021164
0.5671692
-0.7365646
-2.019104
-3.513908
-5.412712
-7.792938
-10.59239
-13.66476
-16.8183
-19.80504
-22.27398
-23.73901
-23.64448
-21.59312
-17.58425
-12.03623
-5.777267
0.2632904
5.383041
9.215721
11.79671
13.36967
14.22845
14.56559
14.45014
13.89574
12.96236
11.79643
10.57994
9.521217
8.751221
8.28196
8.037796
7.844421
7.511032
6.902092
5.99369
4.851097
3.614532
2.411324
1.262756
0.09768677
-1.227524
-2.893532
-4.999496
-7.583824
-10.61743
-13.9993
-17.54595
-20.89072
-23.44401
-24.51335
-23.46813
-20.05402
-14.53459
-7.673691
-0.5023041
5.984184
11.13068
14.71816
16.89025
17.95103
18.22932
17.9265
17.16318
15.98269
14.44746
12.66836
10.85058
9.231125
8.052345
7.467674
7.444298
7.774452
8.129684
8.195663
7.783394
6.910835
5.726616
4.439026
3.173103
1.905396
0.5001373
-1.260818
-3.548988
-6.462852
-9.9562
-13.84563
-17.77045
-21.24118
-23.67726
-24.52463
-23.38328
-20.1229
-14.98486
-8.569939
-1.720963
4.702255
9.995857
13.79868
16.11696
17.2326
17.50487
17.22719
16.50591
15.28759
13.50121
11.17062
8.515045
5.884636
3.679596
2.142487
1.334892
1.038376
0.9385834
0.7286148
0.2120972
-0.6024551
-1.585129
-2.564873
-3.449982
-4.258316
-5.130745
-6.264961
-7.845016
-9.9496
-12.55846
-15.48632
-18.38416
-20.74076
-21.97319
-21.60277
-19.37761
-15.42474
-10.24314
-4.517296
1.051025
5.939537
9.843086
12.65607
14.38483
15.1019
14.90682
13.95216
12.4892
10.76788
9.047226
7.493248
6.175163
5.075119
4.191536
3.51326
3.048012
2.779076
2.629242
2.448669
2.077644
1.428589
0.5337753
-0.4820633
-1.457031
-2.337067
-3.207199
-4.333107
-6.025009
-8.499542
-11.76992
-15.5542
-19.29783
-22.28806
-23.81438
-23.38415
-20.81913
-16.35591
-10.55424
-4.186012
1.969643
7.279594
11.34697
14.04153
15.4428
15.75095
15.24779
14.25498
13.07502
11.93121
10.9575
10.13589
9.373032
8.515762
7.487671
6.293251
5.031647
3.844933
2.850075
2.0895
1.506233
0.9992752
0.4415512
-0.2809525
-1.25956
-2.52993
-4.069344
-5.883499
-7.965294
-10.39904
-13.2199
-16.32313
-19.32886
-21.55769
-22.22717
-20.71999
-16.91089
-11.25217
-4.664833
1.834534
7.460526
11.84355
14.97212
17.01824
18.15093
18.42619
17.88097
16.59214
14.7744
12.7193
10.72592
8.997162
7.628899
6.583496
5.751892
5.018661
4.276215
3.502846
2.697411
1.871071
1.022102
0.1645813
-0.7288971
-1.662506
-2.67514
-3.837822
-5.27636
-7.145981
-9.529907
-12.3837
-15.43771
-18.26794
-20.32753
-21.07671
-20.14141
-17.382
-12.9872
-7.400246
-1.287453
4.648079
9.827759
13.89102
16.73868
18.44134
19.1258
18.87987
17.7593
15.85001
13.34477
10.55888
7.904064
5.716549
4.161022
3.170197
2.470856
1.753616
0.796875
-0.3785172
-1.554054
-2.438202
-2.834221
-2.758823
-2.426064
-2.144302
-2.220562
-2.879047
-4.255337
-6.370079
-9.146477
-12.27454
-15.21115
-17.26557
-17.77867
-16.39188
-13.19056
-8.690182
-3.59763
1.432449
5.948071
9.692558
12.52964
14.3221
14.95932
14.40684
12.83496
10.61518
8.251091
6.19809
4.756252
3.982529
3.73613
3.760754
3.774197
3.554714
2.980057
2.045967
0.8426285
-0.4867935
-1.8176
-3.078232
-4.256268
-5.42342
-6.699078
-8.270763
-10.34763
-13.09459
-16.46805
-20.14367
-23.471
-25.62391
-25.86408
-23.81136
-19.61896
-13.91663
-7.613323
-1.594669
3.473572
7.298786
9.893528
11.47845
12.34512
12.74241
12.81461
12.5945
12.06144
11.21242
10.13483
9.026356
8.075737
7.379185
6.860985
6.299171
5.491402
4.354263
2.968903
1.53368
0.2268906
-0.9047585
-1.969578
-3.202831
-4.8377
-7.017647
-9.762539
-12.98067
-16.44581
-19.76834
-22.44501
-23.86257
-23.51438
-21.11795
-16.775
-10.97275
-4.449123
2.02322
7.805809
12.46109
15.79988
17.76906
18.42839
17.94122
16.58254
14.70593
12.69283
10.86872
9.389809
8.24107
7.287979
6.37339
5.426983
4.451706
3.516533
2.699146
2.02623
1.451233
0.9101677
0.3259659
-0.368763
-1.234821
-2.386414
-3.958248
-6.086678
-8.816677
-11.996
-15.20737
-17.82654
-19.17064
-18.70504
-16.2791
-12.15655
-6.986771
-1.556934
3.430365
7.555618
10.69183
12.92079
14.36535
15.09145
15.06983
14.2434
12.65261
10.51541
8.198446
6.094469
4.459734
3.35998
2.639437
2.034632
1.344887
0.492794
-0.4461613
-1.38405
-2.286255
-3.232624
-4.334444
-5.688847
-7.336782
-9.309645
-11.62798
-14.32149
-17.29228
-20.19353
-22.44092
-23.32583
-22.31904
-19.24744
-14.4385
-8.584312
-2.50498
3.117865
7.867195
11.55387
14.09334
15.41893
15.47511
14.28776
12.05777
9.186941
6.202999
3.595205
1.675962
0.5241508
-0.03041077
-0.3163071
-0.6948662
-1.431187
-2.565807
-3.947922
-5.320908
-6.471714
-7.357082
-8.148979
-9.148903
-10.6614
-12.88423
-15.76694
-19.03099
-22.1624
-24.53988
-25.53224
-24.67243
-21.78936
-17.10852
-11.2262
-4.971626
0.8511047
5.654629
9.217628
11.58147
12.93335
13.46265
13.27975
12.41132
10.91503
8.950943
6.799641
4.812401
3.283142
2.333012
1.865711
1.635006
1.373772
0.9294205
0.3038063
-0.4211235
-1.129303
-1.810371
-2.518433
-3.393288
-4.58466
-6.255005
-8.486664
-11.28401
-14.47374
-17.59917
-20.03369
-21.06605
-20.2234
-17.39445
-12.92142
-7.446022
-1.715813
3.65155
8.264542
11.90337
14.48391
16.00816
16.5651
16.32462
15.53892
14.46233
13.29387
12.16392
11.11162
10.17616
9.409439
8.869316
8.541199
8.351944
8.141762
7.741989
7.041573
5.989578
4.644997
3.13279
1.550171
-0.0144043
-1.55146
-3.131157
-4.907745
-7.04586
-9.670181
-12.72108
-15.90561
-18.71544
-20.49556
-20.63838
-18.74467
-14.82133
-9.259445
-2.802132
3.697906
9.463333
13.99213
17.10642
18.90475
19.61034
19.47852
18.76054
17.65896
16.39944
15.17085
14.12417
13.30183
12.64713
12.05685
11.45545
10.86407
10.36655
10.04131
9.873917
9.738022
9.464539
8.900673
7.984627
6.749603
5.302017
3.709435
1.983635
0.07871246
-2.05835
-4.504082
-7.334763
-10.54599
-14.02671
-17.46014
-20.30261
-21.88034
-21.61217
-19.20976
-14.84014
-9.128052
-2.917633
2.943932
7.882637
11.63168
14.1715
15.6323
16.15211
15.8968
15.06871
13.90873
12.65955
11.51551
10.53224
9.66748
8.842552
8.046455
7.350273
6.892067
6.765388
6.916809
7.162575
7.257874
6.959282
6.174294
4.950958
3.410515
1.724152
0.02732086
-1.605217
-3.149246
-4.627533
-6.113113
-7.75737
-9.737343
-12.19865
-15.08634
-18.10868
-20.67026
-22.07216
-21.70979
-19.28263
-14.941
-9.239822
-2.975624
3.026253
8.133743
11.99931
14.56921
15.9436
16.28275
15.76292
14.56873
12.91801
11.1431
9.610619
8.623474
8.294502
8.484123
8.905937
9.287369
9.475479
9.514832
9.533249
9.608772
9.658714
9.481087
8.825378
7.556145
5.739815
3.600166
1.433342
-0.5597229
-2.347229
-4.072289
-5.934959
-8.130859
-10.72616
-13.67685
-16.82699
-19.88004
-22.44014
-24.03265
-24.15585
-22.43158
-18.77859
-13.48872
-7.187439
-0.65242
5.373283
10.3587
14.0437
16.38933
17.54758
17.71907
17.19138
16.28102
15.26534
14.35955
13.62566
13.03548
12.48385
11.87193
11.18449
10.46819
9.79454
9.219864
8.775139
8.426598
8.10598
7.721512
7.169701
6.375381
5.316078
4.00782
2.497635
0.8464813
-0.9079514
-2.734955
-4.63092
-6.605659
-8.7103
-11.04151
-13.70034
-16.68013
-19.74197
-22.41026
-24.02289
-23.92799
-21.75711
-17.5975
-12.03565
-5.921654
-0.1118011
4.791233
8.528072
11.13914
12.79208
13.64435
13.80851
13.39021
12.53976
11.45275
10.35432
9.404835
8.651932
8.041626
7.520054
7.077812
6.773163
6.676821
6.804926
7.071686
7.278147
7.215906
6.688745
5.616663
4.05608
2.174166
0.2204132
-1.583385
-3.137178
-4.498936
-5.863033
-7.497845
-9.621317
-12.31091
-15.44462
-18.72455
-21.66663
-23.67921
-24.2023
-22.79209
-19.33031
-14.13028
-7.894159
-1.539782
4.08015
8.392146
11.2116
12.67707
13.08129
12.68705
11.63838
10.07271
8.130275
6.074816
4.235943
2.900323
2.231582
2.175956
2.52414
2.981168
3.293928
3.31115
3.008638
2.439682
1.688881
0.7921085
-0.2433987
-1.430544
-2.78875
-4.281315
-5.848442
-7.407038
-8.922821
-10.46317
-12.21755
-14.3982
-17.12179
-20.24716
-23.28982
-25.5224
-26.20951
-24.85556
-21.41184
-16.28637
-10.21156
-4.01207
1.61055
6.205353
9.572556
11.6832
12.62664
12.56286
11.72062
10.38733
8.887211
7.52457
6.496082
5.817677
5.371601
4.955894
4.418896
3.737846
3.053883
2.605946
2.599003
3.076511
3.822666
4.453045
4.554901
3.870293
2.407421
0.4055481
-1.760593
-3.798656
-5.5937
-7.273327
-9.116428
-11.42379
-14.32967
-17.70578
-21.11853
-23.86906
-25.19568
-24.47818
-21.48551
-16.53675
-10.42413
-4.179882
1.317245
5.586624
8.62315
10.70285
12.1424
13.06958
13.44598
13.16483
12.25474
10.96423
9.638741
8.599766
7.952396
7.593472
7.313789
6.94088
6.451344
5.914814
5.433372
5.003906
4.557133
3.918941
2.982872
1.737343
0.2631912
-1.281555
-2.83506
-4.43058
-6.216835
-8.353844
-10.95532
-13.952
-17.13042
-20.09105
-22.37372
-23.49243
-23.07793
-20.97375
-17.29412
-12.45583
-7.066689
-1.740295
2.99868
6.852165
9.7202
11.5673
12.38895
12.17316
10.96207
8.963608
6.532501
4.115677
2.140343
0.9152756
0.5325012
0.9277039
1.839378
2.932297
3.833122
4.253983
4.022522
3.162216
1.837234
0.2927856
-1.244003
-2.64328
-3.903564
-5.12989
-6.488693
-8.172539
-10.31565
-12.89227
-15.70229
-18.29752
-20.08517
-20.47272
-19.03217
-15.68157
-10.70324
-4.743385
1.371452
6.81884
10.99911
13.63073
14.76543
14.71241
13.85387
12.5094
10.82523
8.879189
6.702583
4.45792
2.367508
0.6468925
-0.5880775
-1.418594
-2.042389
-2.65823
-3.352665
-4.085217
-4.707653
-5.132931
-5.439686
-5.836037
-6.620361
-7.997299
-10.019
-12.54148
-15.3037
-18.01163
-20.32281
-21.9096
-22.45527
-21.6845
-19.47215
-15.88865
-11.23856
-6.042702
-0.8707047
3.808018
7.666786
10.6143
12.65662
13.83362
14.19644
13.72853
12.4722
10.56398
8.29987
6.033901
4.118263
2.739277
1.87323
1.323257
0.8462296
0.296463
-0.3209267
-0.8707638
-1.244171
-1.431293
-1.553391
-1.845802
-2.563845
-3.95649
-6.216679
-9.391314
-13.36387
-17.79131
-22.10302
-25.58585
-27.57076
-27.55082
-25.37075
-21.22231
-15.62804
-9.311776
-2.98281
2.777059
7.630471
11.48492
14.38878
16.39302
17.53255
17.77273
17.11612
15.68703
13.74548
11.65852
9.738993
8.194813
7.030284
6.120735
5.270701
4.358481
3.361624
2.398924
1.61092
1.069515
0.6992588
0.2393551
-0.6290169
-2.17849
-4.514349
-7.550123
-11.03468
-14.61711
-17.87464
-20.30125
-21.38337
-20.67078
-17.97047
-13.44814
-7.648712
-1.363396
4.6021
9.654907
13.47243
16.00638
17.368
17.72105
17.20732
15.97599
14.20551
12.14991
10.1129
8.406235
7.237255
6.62693
6.398418
6.222477
5.805439
4.973816
3.798546
2.473106
1.220657
0.1340179
-0.8674927
-1.950745
-3.300789
-5.043182
-7.227547
-9.865456
-12.94735
-16.3223
-19.63968
-22.26372
-23.41988
-22.44366
-19.12013
-13.81544
-7.380676
-0.8586349
4.871986
9.350555
12.55212
14.68312
15.96778
16.45371
16.07619
14.788
12.71622
10.20415
7.705009
5.615868
4.115074
3.145699
2.500122
1.965744
1.423676
0.850708
0.3212433
-0.1347656
-0.5368805
-1.008904
-1.71936
-2.86554
-4.62516
-7.109543
-10.35864
-14.19508
-18.21132
-21.77611
-24.134
-24.59714
-22.81146
-18.86304
-13.27042
-6.845428
-0.4042206
5.428375
10.33495
14.20938
17.09114
18.96977
19.78809
19.47701
18.11565
15.94023
13.36572
10.85223
8.775421
7.304764
6.383286
5.77713
5.20372
4.414993
3.316071
1.961227
0.4469757
-1.107315
-2.678268
-4.296326
-6.059753
-8.111084
-10.59578
-13.63779
-17.26015
-21.31357
-25.32622
-28.57599
-30.21585
-29.53627
-26.22749
-20.53485
-13.20596
-5.24968
2.355225
8.948883
14.24385
18.25661
21.12747
22.95898
23.78279
23.60596
22.54054
20.82526
18.83951
16.92415
15.30597
14.02031
12.95302
11.93541
10.82112
9.582581
8.211838
6.777512
5.318573
3.879791
2.481995
1.076828
-0.409729
-2.107162
-4.136581
-6.61702
-9.593796
-13.05019
-16.8692
-20.75253
-24.23602
-26.66403
-27.33237
-25.67108
-21.47842
-15.03735
-7.118469
1.232971
9.047913
15.59308
20.56696
23.99252
26.10443
27.11533
27.18677
26.41129
24.90591
22.88657
20.63379
18.46014
16.54489
14.91214
13.49493
12.23038
11.14917
10.32156
9.836243
9.616394
9.44635
9.02594
8.089874
6.595551
4.708252
2.719543
0.8739014
-0.7880859
-2.496277
-4.619659
-7.516418
-11.34406
-15.86282
-20.48141
-24.34012
-26.58688
-26.59283
-24.09033
-19.25797
-12.66031
-5.098969
2.537811
9.438751
15.02905
19.04623
21.54269
22.75906
22.99915
22.51389
21.45129
19.91287
18.05472
16.13272
14.46951
13.33759
12.81918
12.7948
12.99792
13.11719
12.98636
12.51038
11.69202
10.5145
8.937164
6.965424
4.661377
2.21167
-0.1492615
-2.264435
-4.118073
-5.897308
-7.913147
-10.49429
-13.84268
-17.82864
-21.97034
-25.479
-27.44458
-27.15784
-24.31891
-19.18906
-12.49158
-5.193146
1.79715
7.858307
12.66354
16.18658
18.47867
19.63123
19.73813
18.95346
17.51569
15.72705
13.90823
12.31384
11.07278
10.19659
9.576782
9.059906
8.512482
7.878326
7.180725
6.45874
5.717041
4.902466
3.899353
2.606506
1.000916
-0.8565674
-2.869293
-4.980682
-7.226868
-9.72348
-12.60605
-15.92798
-19.5249
-22.99225
-25.70715
-26.97205
-26.19812
-23.0798
-17.73807
-10.72678
-2.944
4.647369
11.21234
16.24976
19.60284
21.41782
21.99152
21.65228
20.68912
19.33887
17.82037
16.29712
14.8942
13.67868
12.66843
11.8147
11.08157
10.45306
9.948364
9.555695
9.197693
8.741333
7.982849
6.728363
4.901459
2.54953
-0.08905029
-2.718292
-5.080017
-7.100861
-8.938965
-10.94574
-13.49542
-16.76575
-20.6008
-24.4498
-27.51016
-28.93167
-28.07623
-24.75479
-19.24481
-12.23212
-4.595337
2.787842
9.23764
14.32584
17.92831
20.15936
21.24756
21.4487
20.97931
19.97812
18.55057
16.8483
15.05688
13.39471
12.08215
11.21423
10.77005
10.61606
10.5582
10.45816
10.24524
9.836334
9.126221
7.968536
6.252472
4.041656
1.562561
-0.8831329
-3.077164
-5.035294
-7.034851
-9.477997
-12.65384
-16.55624
-20.76041
-24.50316
-26.91202
-27.24147
-25.11273
-20.62102
-14.29419
-6.949219
0.483139
7.186554
12.58235
16.39232
18.61389
19.44728
19.18481
18.14914
16.63933
14.87302
13.01714
11.16608
9.384445
7.766663
6.410782
5.431137
4.871216
4.6763
4.624603
4.427429
3.814346
2.66214
1.045349
-0.8078613
-2.61554
-4.17305
-5.424988
-6.495377
-7.618927
-9.085236
-11.14114
-13.86102
-17.11621
-20.52647
-23.50594
-25.36552
-25.49152
-23.48579
-19.33498
-13.45061
-6.578018
0.3321686
6.405914
11.00803
13.88417
15.10849
15.01129
13.96756
12.32393
10.36389
8.317459
6.409729
4.830734
3.733719
3.148483
3.018784
3.158554
3.395935
3.548096
3.460938
3.05661
2.282928
1.149597
-0.2868042
-1.878723
-3.477859
-4.952759
-6.287933
-7.584763
-9.054733
-10.90363
-13.21712
-15.81807
-18.25154
-19.89023
-20.09053
-18.44913
-14.89815
-9.777008
-3.746277
2.423172
7.994385
12.46408
15.59636
17.39243
18.01563
17.66301
16.52589
14.74301
12.47284
9.898117
7.264221
4.822662
2.794876
1.298843
0.3283081
-0.223526
-0.4946518
-0.6039505
-0.6570511
-0.7342529
-0.9029922
-1.220581
-1.762611
-2.53978
-3.554482
-4.812744
-6.346497
-8.271278
-10.68393
-13.59453
-16.80183
-19.85384
-22.09678
-22.86225
-21.66102
-18.37609
-13.31802
-7.134628
-0.6363068
5.435448
10.51721
14.28223
16.63049
17.63784
17.4729
16.37321
14.60234
12.39397
9.95015
7.440765
5.03627
2.921478
1.253067
0.1479492
-0.4439621
-0.6966095
-0.8519516
-1.101639
-1.499863
-1.939133
-2.279129
-2.4524
-2.570992
-2.897957
-3.759369
-5.39798
-7.884117
-11.10619
-14.77128
-18.42225
-21.49847
-23.37425
-23.48182
-21.50403
-17.47022
-11.81596
-5.251663
1.417732
7.510254
12.54511
16.3135
18.78204
20.03584
20.21203
19.45704
17.94987
15.9378
13.6909
11.49927
9.621849
8.207073
7.258652
6.628677
6.093929
5.452988
4.64138
3.722672
2.857929
2.195801
1.74033
1.352913
0.7672615
-0.2637367
-1.921436
-4.255535
-7.186916
-10.54979
-14.10644
-17.56429
-20.51789
-22.49789
-22.98806
-21.62048
-18.31776
-13.39665
-7.504955
-1.427303
4.162594
8.876606
12.55402
15.16727
16.66809
16.94152
15.96301
13.88311
11.13576
8.275938
5.848885
4.147614
3.157366
2.607296
2.169052
1.611764
0.8497267
-0.01037407
-0.8335524
-1.498429
-1.981045
-2.348325
-2.713832
-3.210187
-3.963465
-5.132381
-6.884009
-9.335445
-12.46388
-16.00876
-19.40816
-21.92658
-22.85666
-21.74018
-18.58871
-13.8016
-8.110488
-2.307424
2.969284
7.267502
10.38503
12.26106
12.94591
12.55906
11.30841
9.465796
7.366837
5.335431
3.586061
2.19069
1.063071
0.0810709
-0.9257507
-2.007111
-3.133451
-4.203035
-5.088327
-5.690079
-5.966862
-6.00034
-5.96035
-6.107187
-6.745543
-8.109779
-10.28267
-13.14225
-16.39992
-19.62199
-22.3158
-23.95881
-24.07443
-22.30744
-18.53977
-13.04657
-6.457104
0.3528233
6.514383
11.39713
14.78639
16.78745
17.68633
17.73608
17.03249
15.58874
13.43583
10.75086
7.903131
5.348669
3.473372
2.435223
2.120684
2.178215
2.192221
1.909872
1.271578
0.4581738
-0.2978382
-0.8773708
-1.378519
-2.085052
-3.344532
-5.419771
-8.406324
-12.21295
-16.53335
-20.90372
-24.67991
-27.0687
-27.36652
-25.17704
-20.61074
-14.3094
-7.246111
-0.4056816
5.523964
10.24865
13.80497
16.3084
17.85449
18.46429
18.17259
17.15821
15.72385
14.19747
12.79822
11.60083
10.52552
9.456856
8.306606
7.073406
5.815556
4.579788
3.401518
2.295532
1.289377
0.3894157
-0.3988514
-1.179157
-2.17453
-3.630577
-5.764309
-8.668552
-12.25113
-16.22983
-20.12435
-23.34685
-25.24018
-25.24726
-23.07056
-18.80408
-12.94892
-6.335175
0.1147346
5.646515
9.831486
12.63887
14.29076
15.10309
15.29437
14.96278
14.10331
12.7002
10.85831
8.810749
6.875237
5.360641
4.393604
3.915295
3.680111
3.448204
3.059841
2.50581
1.901699
1.320194
0.7706833
0.1049271
-0.8585472
-2.272293
-4.156124
-6.43895
-9.034504
-11.86091
-14.78111
-17.50967
-19.54041
-20.23925
-19.07237
-15.83132
-10.82127
-4.769791
1.440025
7.033699
11.56041
14.87997
17.04278
18.10398
18.06855
16.95961
14.90722
12.22556
9.337662
6.679913
4.552082
3.080338
2.19846
1.692101
1.300919
0.8044281
0.06167603
-0.9362526
-2.088097
-3.223579
-4.16824
-4.887543
-5.508667
-6.296387
-7.536438
-9.436264
-12.04301
-15.15889
-18.40287
-21.23956
-23.05577
-23.28607
-21.53742
-17.75372
-12.28134
-5.82336
0.7080765
6.485264
10.99927
14.14382
16.10034
17.16696
17.51139
17.15482
16.07444
14.35338
12.23726
10.13383
8.421745
7.309978
6.798828
6.707539
6.775948
6.816723
6.709698
6.378349
5.786831
4.903023
3.70509
2.232815
0.557518
-1.264923
-3.217896
-5.339947
-7.701183
-10.37003
-13.36757
-16.59128
-19.76447
-22.43545
-23.9992
-23.86644
-21.68132
-17.43069
-11.57452
-4.877312
1.75296
7.549664
12.03328
15.10754
16.9427
17.8223
17.98665
17.58205
16.64646
15.20589
13.34409
11.26286
9.236832
7.58334
6.523994
6.116184
6.21283
6.522259
6.704472
6.523136
5.876747
4.847492
3.591496
2.252163
0.9419975
-0.318409
-1.536869
-2.788116
-4.192387
-5.920151
-8.156578
-10.9883
-14.31157
-17.71585
-20.5435
-22.03403
-21.56863
-18.84487
-14.06118
-7.820107
-1.031185
5.364071
10.62715
14.35091
16.51442
17.39595
17.40361
16.90713
16.14958
15.24765
14.21256
13.0762
11.8698
10.67386
9.560917
8.5951
7.811279
7.216259
6.763268
6.368313
5.910168
5.305897
4.499695
3.539932
2.488945
1.402504
0.2872009
-0.9235382
-2.354515
-4.072498
-6.131561
-8.542927
-11.2621
-14.19732
-17.14499
-19.7263
-21.41264
-21.61857
-19.91998
-16.21356
-10.87196
-4.595551
1.741463
7.381142
11.8371
14.97137
16.86096
17.69356
17.65015
16.8948
15.57567
13.8585
11.94948
10.02985
8.244072
6.726906
5.545845
4.763725
4.374962
4.310173
4.425743
4.538742
4.448807
3.963394
2.999802
1.569229
-0.1746597
-2.024582
-3.752121
-5.22718
-6.494644
-7.751892
-9.294228
-11.3142
-13.85239
-16.7123
-19.51322
-21.71788
-22.80236
-22.29945
-19.96803
-15.89005
-10.51268
-4.590057
1.043282
5.708519
9.026764
11.01824
11.94427
12.14436
11.88588
11.29182
10.36877
9.117203
7.605354
5.984779
4.46756
3.248306
2.439705
2.018463
1.890877
1.890846
1.871933
1.709503
1.312363
0.6182175
-0.3872604
-1.685135
-3.254715
-5.030037
-6.96048
-9.016258
-11.1688
-13.41792
-15.75516
-18.14704
-20.51418
-22.67326
-24.33234
-25.06918
-24.39941
-21.97581
-17.70795
-11.92474
-5.311256
1.269775
6.997261
11.3341
14.11163
15.47447
15.76044
15.31063
14.4231
13.30209
12.06927
10.85565
9.757004
8.8004
7.961662
7.179512
6.355591
5.470413
4.55629
3.681549
2.905151
2.22879
1.587234
0.8980103
0.1179352
-0.7775116
-1.773376
-2.865417
-4.087982
-5.516861
-7.246902
-9.395538
-12.00273
-14.96613
-18.03516
-20.74411
-22.47758
-22.63623
-20.811
-17.00247
-11.68604
-5.687546
0.0622406
4.821396
8.23349
10.37677
11.62209
12.42223
13.07494
13.65996
14.05347
14.03445
13.44827
12.29526
10.71086
8.933044
7.242889
5.840546
4.849182
4.232407
3.865631
3.520004
2.986557
2.075882
0.7059631
-1.071167
-3.167023
-5.413101
-7.683136
-9.876984
-11.92271
-13.83109
-15.6801
-17.58
-19.59401
-21.61559
-23.29077
-24.07228
-23.32648
-20.69093
-16.21404
-10.42737
-4.133072
1.894455
7.11116
11.32167
14.506
16.70534
17.92822
18.18997
17.58124
16.36795
14.90512
13.51323
12.36072
11.40974
10.4646
9.374557
8.091354
6.714798
5.429062
4.336426
3.427307
2.577423
1.643951
0.5524597
-0.6805115
-1.992722
-3.389328
-4.952454
-6.863159
-9.2939
-12.28421
-15.67157
-19.11566
-22.09561
-24.11108
-24.70044
-23.61349
-20.8237
-16.56865
-11.31291
-5.683578
-0.3222046
4.266251
7.798996
10.20682
11.62877
12.2364
12.19199
11.58562
10.46803
8.896042
6.986053
4.925629
2.929062
1.200256
-0.134201
-1.044365
-1.582558
-1.878807
-2.069046
-2.257645
-2.528343
-2.902916
-3.387917
-3.994644
-4.734604
-5.688187
-6.928848
-8.531296
-10.54692
-12.92591
-15.48769
-17.89384
-19.68514
-20.38193
-19.58175
-17.16614
-13.2972
-8.404655
-3.072891
2.11132
6.696465
10.41373
13.16155
14.98028
15.95267
16.15222
15.66579
14.53646
12.87148
10.83546
8.648407
6.555817
4.763191
3.377747
2.41774
1.822433
1.48188
1.264015
1.009026
0.593689
-0.1151199
-1.180382
-2.556732
-4.138176
-5.788956
-7.47126
-9.224899
-11.22385
-13.6608
-16.632
-20.01397
-23.37372
-26.05303
-27.3052
-26.55812
-23.57249
-18.62969
-12.39612
-5.753105
0.4655991
5.695679
9.723961
12.62804
14.59371
15.80383
16.33695
16.20138
15.43626
14.16998
12.61224
11.01978
9.597916
8.432053
7.504154
6.715164
5.960964
5.196796
4.430729
3.676777
2.960003
2.282677
1.602276
0.8631859
-0.03223419
-1.1782
-2.676804
-4.619888
-7.079235
-10.0727
-13.53756
-17.23295
-20.73584
-23.41032
-24.55492
-23.59692
-20.34588
-15.07878
-8.488358
-1.474827
5.132973
10.76588
15.15668
18.25152
20.10073
20.79166
20.47141
19.38279
17.82754
16.10249
14.42304
12.91236
11.61575
10.58797
9.856304
9.43634
9.242136
9.116777
8.854459
8.277392
7.322678
5.983745
4.317857
2.427057
0.4020462
-1.662135
-3.723224
-5.826237
-8.132157
-10.82231
-13.97822
-17.38465
-20.52345
-22.6296
-22.9735
-21.1375
-17.16548
-11.5535
-5.086833
1.40276
7.237461
12.00104
15.51645
17.78856
18.91271
19.02729
18.30848
16.96874
15.27486
13.48933
11.85032
10.49934
9.471758
8.693825
8.033324
7.397814
6.744392
6.087758
5.452403
4.808504
4.032051
2.969498
1.519962
-0.2977219
-2.356976
-4.487049
-6.591145
-8.73978
-11.09938
-13.82815
-16.84554
-19.75507
-21.88524
-22.47434
-20.9629
-17.20556
-11.58304
-4.877333
1.953949
8.049076
12.87866
16.25008
18.29599
19.27922
19.41956
18.84961
17.63502
15.84722
13.65547
11.34127
9.249382
7.680658
6.829777
6.67198
7.018467
7.543507
7.894495
7.830112
7.250771
6.189102
4.801079
3.24691
1.6455
0.05223083
-1.537262
-3.203781
-5.069923
-7.280571
-9.968102
-13.15304
-16.64296
-19.969
-22.42213
-23.24476
-21.86395
-18.11363
-12.33542
-5.294022
2.016975
8.685913
14.04398
17.77148
19.8963
20.64991
20.39932
19.51774
18.3148
17.02713
15.78457
14.63894
13.58105
12.58035
11.58699
10.57903
9.545586
8.464478
7.324604
6.132137
4.904076
3.713501
2.599197
1.568672
0.5311394
-0.6409912
-2.098831
-3.959652
-6.252537
-8.982983
-12.10749
-15.5047
-18.9266
-21.93316
-23.90806
-24.18289
-22.28919
-18.15017
-12.18329
-5.207388
1.80545
8.00535
12.88086
16.29075
18.40668
19.52048
19.89241
19.68923
19.01721
17.92985
16.54896
15.02768
13.52908
12.18062
11.02907
10.075
9.286652
8.646156
8.143278
7.780338
7.474997
7.120707
6.587038
5.753639
4.615219
3.223461
1.651303
-0.05673122
-1.945791
-4.152972
-6.831869
-10.06806
-13.82756
-17.87197
-21.79612
-25.02536
-26.93792
-26.9541
-24.72957
-20.29021
-14.08829
-6.939866
0.174035
6.364496
11.08357
14.21145
15.98658
16.82657
17.10849
17.04221
16.68974
16.01437
14.96217
13.56902
11.98841
10.43946
9.136478
8.230631
7.736599
7.548743
7.456359
7.244694
6.766396
6.014364
5.054375
4.001276
2.914217
1.771639
0.4585934
-1.12406
-3.02379
-5.214725
-7.678438
-10.41003
-13.42076
-16.59337
-19.61578
-21.93669
-22.86157
-21.84558
-18.71076
-13.81285
-7.90942
-1.932858
3.325092
7.399132
10.21442
11.94152
12.80425
12.98832
12.53782
11.45437
9.792496
7.710499
5.475361
3.436035
1.910107
1.067188
0.8725815
1.139584
1.55864
1.882202
1.946636
1.781506
1.507626
1.219246
0.9190292
0.4859924
-0.223671
-1.316147
-2.763847
-4.520294
-6.566399
-8.983543
-11.84227
-15.04678
-18.19299
-20.59521
-21.50145
-20.40285
-17.2764
-12.59872
-7.197052
-1.964302
2.405754
5.586884
7.572174
8.584663
8.943398
8.927544
8.634918
8.03418
7.047165
5.67437
4.098701
2.635536
1.614716
1.188248
1.230392
1.411674
1.357407
0.8826141
0.05848694
-0.8381805
-1.537331
-1.951424
-2.224571
-2.651031
-3.510788
-4.933037
-6.889893
-9.261284
-11.92564
-14.79451
-17.73871
-20.48206
-22.54188
-23.31039
-22.256
-19.1874
-14.41797
-8.652779
-2.810661
2.333038
6.297523
8.985649
10.56479
11.31636
11.48936
11.21332
10.56166
9.588264
8.401169
7.126663
5.893394
4.78125
3.794022
2.913712
2.104607
1.39019
0.8316422
0.5035172
0.4151154
0.4835434
0.5266647
0.354393
-0.1626511
-1.033836
-2.18869
-3.548569
-5.077759
-6.813812
-8.800369
-11.04352
-13.43111
-15.68488
-17.42489
-18.22602
-17.69833
-15.64866
-12.10336
-7.394646
-2.070488
3.195381
7.777199
11.23512
13.39471
14.34573
14.37073
13.8013
12.903
11.83439
10.6607
9.405357
8.118416
6.915375
5.913399
5.191971
4.704689
4.323456
3.86821
3.219589
2.381958
1.47303
0.6297531
-0.09133911
-0.7301178
-1.436363
-2.331917
-3.542183
-5.118202
-7.081306
-9.452187
-12.2126
-15.24451
-18.24413
-20.72782
-22.10964
-21.8603
-19.73789
-15.87962
-10.76382
-5.114204
0.3201218
4.951057
8.43856
10.73172
11.94537
12.28669
11.95959
11.10596
9.850693
8.344734
6.768646
5.326797
4.194061
3.45163
3.057152
2.865433
2.708122
2.469467
2.100212
1.649406
1.172249
0.6843567
0.1233063
-0.6395493
-1.71067
-3.119225
-4.852249
-6.848419
-9.09272
-11.57285
-14.25733
-16.96459
-19.31591
-20.77361
-20.77674
-18.94924
-15.2952
-10.234
-4.497032
1.096855
5.896423
9.549751
12.02518
13.44988
13.97858
13.72475
12.74936
11.16158
9.157372
7.045212
5.119194
3.567116
2.390587
1.459877
0.6325989
-0.1918716
-0.9983292
-1.694817
-2.189484
-2.432869
-2.486946
-2.509331
-2.6689
-3.127914
-3.965942
-5.208031
-6.87941
-8.987518
-11.51161
-14.28528
-16.91856
-18.75448
-19.07134
-17.38213
-13.68005
-8.511673
-2.800072
2.491531
6.696648
9.580849
11.26105
12.01526
12.08798
11.64048
10.73572
9.441528
7.856972
6.163078
4.572639
3.306641
2.478508
2.071144
1.931152
1.79689
1.431671
0.7007294
-0.3358536
-1.481773
-2.541588
-3.406342
-4.117287
-4.866173
-5.885681
-7.382133
-9.485329
-12.18419
-15.34563
-18.67893
-21.71715
-23.93275
-24.83974
-24.13715
-21.8013
-18.11841
-13.62433
-8.946716
-4.662918
-1.081459
1.813477
4.302322
6.715729
9.230598
11.69792
13.75571
15.02763
15.34172
14.90078
14.10813
13.37669
12.8978
12.56019
12.0533
11.13342
9.779144
8.217781
6.828251
5.853813
5.370834
5.176842
4.915264
4.219288
2.861626
0.7998962
-1.825134
-4.759552
-7.690983
-10.30388
-12.25694
-13.1972
-12.79803
-10.86585
-7.452969
-2.900211
2.230755
7.222481
11.48125
14.60305
16.43358
17.04259
16.60921
15.34411
13.42108
10.99911
8.246117
5.424492
2.837944
0.7830009
-0.5306702
-1.124687
-1.183041
-1.037769
-0.9588699
-1.078384
-1.365337
-1.712891
-2.084408
-2.585701
-3.395596
-4.678875
-6.444138
-8.520363
-10.65617
-12.63516
-14.36213
-15.79158
-16.79295
-17.08468
-16.25304
-13.92693
-10.03222
-4.905174
0.7319927
6.026726
10.30156
13.26049
15.03172
15.99546
16.47594
16.58228
16.21155
15.1454
13.29931
10.82147
8.067892
5.48004
3.404894
1.969997
1.115658
0.6490784
0.3714104
0.1091824
-0.3240633
-1.075283
-2.225079
-3.760106
-5.502988
-7.244819
-8.813914
-10.29809
-12.01637
-14.43108
-17.88438
-22.31886
-27.17273
-31.43314
-33.9952
-34.09243
-31.65864
-27.37181
-22.40663
-17.98845
-14.91163
-13.31451
-12.73316
-12.46146
-11.93486
-11.01065
-10.04212
-9.762234
-11.01107
-14.47723
-20.43051
-28.41476
-36.99313
-43.71263
-45.40602
-39.04659
-22.88021
2.646206
34.61858
68.29625
98.56367
121.3797
134.7591
138.8687
135.3468
126.3626
113.9177
99.60691
84.66631
70.20296
57.16361
46.26738
37.86197
31.92083
28.18657
26.31656
26.06989
27.30181
29.97881
33.95765
38.88257
44.10738
48.7065
51.65277
52.14444
49.89708
45.23949
39.03749
32.32963
26.02308
20.64543
16.27865
12.7582
9.831646
7.292755
5.006348
2.903
0.9092102
-1.113991
-3.370041
-6.112877
-9.635338
-14.18228
-19.89785
-26.79243
-34.72036
-43.39629
-52.49224
-61.63317
-70.45049
-78.4957
-85.26155
-90.1799
-92.75044
-92.6725
-89.93398
-84.89716
-78.19679
-70.5912
-62.80875
-55.39622
-48.68399
-42.78018
-37.64479
-33.15138
-29.14989
-25.50365
-22.12369
-19.0383
-16.32961
-14.15779
-12.58174
-11.51987
-10.74677
-9.970978
-9.007401
-7.838409
-6.649597
-5.672073
-5.075241
-4.836533
-4.788788
-4.732941
-4.563614
-4.371094
-4.356354
-4.767609
-5.765167
-7.451721
-9.82579
-12.80475
-16.16881
-19.45299
-21.96434
-22.86928
-21.47896
-17.50557
-11.29631
-3.75705
3.880646
10.44052
15.15955
17.81937
18.70436
18.36536
17.39346
16.21967
15.09834
14.12648
13.30951
12.61818
11.99083
11.41619
10.92796
10.63268
10.63961
10.99894
11.56995
12.07614
12.22565
11.83592
10.95242
9.74762
8.40773
6.960693
5.314331
3.380272
1.19268
-1.016495
-3.027222
-4.809883
-6.605049
-8.729012
-11.31288
-14.04854
-16.23269
-17.05336
-16.02087
-13.20469
-9.209297
-4.839928
-0.7696304
2.663033
5.435326
7.641922
9.30938
10.34274
10.62095
10.13882
9.047699
7.662239
6.343536
5.383804
4.934601
4.990974
5.437325
6.046577
6.564522
6.734222
6.39502
5.506508
4.201706
2.748688
1.432587
0.4341354
-0.256073
-0.8330383
-1.608688
-2.909676
-4.947708
-7.75296
-11.15946
-14.76846
-17.97742
-20.10662
-20.53142
-18.88548
-15.22263
-10.02592
-4.093491
1.720352
6.735222
10.58308
13.21891
14.84797
15.74081
16.11965
16.10816
15.73363
14.98824
13.89009
12.52343
11.07162
9.723881
8.627037
7.843067
7.304649
6.864124
6.40295
5.848911
5.185608
4.422146
3.591145
2.683285
1.686787
0.5772705
-0.670063
-2.069878
-3.636562
-5.404339
-7.449497
-9.81868
-12.46775
-15.15427
-17.4172
-18.64614
-18.25197
-15.96249
-11.92307
-6.723
-1.166721
3.925568
8.005524
10.82547
12.42656
13.0253
12.89925
12.33329
11.56444
10.76603
9.963554
9.084312
8.000938
6.635994
5.054707
3.498184
2.275978
1.632023
1.647484
2.200813
3.040199
3.915421
4.632786
5.076534
5.194588
4.953537
4.345295
3.374954
2.073177
0.5139885
-1.259216
-3.28743
-5.679867
-8.540771
-11.84377
-15.28306
-18.28606
-20.13297
-20.18494
-18.15274
-14.22611
-8.998375
-3.28565
2.131336
6.702032
10.15774
12.42283
13.56618
13.68884
12.92517
11.48139
9.645315
7.746239
6.061493
4.769356
3.875393
3.282732
2.834551
2.462168
2.18071
2.072376
2.235909
2.634102
3.148401
3.538624
3.597645
3.219046
2.430285
1.357817
0.1359844
-1.178333
-2.688234
-4.585497
-7.077435
-10.2088
-13.75827
-17.17823
-19.68167
-20.48705
-19.05629
-15.39941
-10.04261
-3.923002
1.946821
6.787182
10.22522
12.28045
13.2247
13.36591
12.90541
11.92416
10.44063
8.497076
6.26409
3.999599
2.011383
0.547966
-0.2867374
-0.5437489
-0.3969936
-0.09238052
0.1786146
0.3189707
0.3651924
0.3880501
0.4011478
0.2962189
-0.1419497
-1.131458
-2.767498
-5.025688
-7.727458
-10.64236
-13.55769
-16.26168
-18.46501
-19.74857
-19.62663
-17.70488
-13.93335
-8.682975
-2.732242
2.996428
7.782876
11.28528
13.57782
14.95548
15.72247
15.99588
15.74859
14.89375
13.44988
11.6197
9.735653
8.081024
6.821257
5.933296
5.252539
4.644269
4.017261
3.358572
2.694134
1.989222
1.169529
0.1577632
-1.093543
-2.606785
-4.408569
-6.580919
-9.191648
-12.22796
-15.5022
-18.58646
-20.89117
-21.84546
-21.11069
-18.66983
-14.83214
-10.10374
-5.015935
-0.0617466
4.38597
8.06565
10.81826
12.57375
13.39026
13.39026
12.73559
11.62114
10.21456
8.670527
7.127233
5.695087
4.427227
3.337008
2.375371
1.472004
0.5660744
-0.3271561
-1.119694
-1.696392
-1.975183
-2.002968
-2.008488
-2.390594
-3.566067
-5.77907
-8.949928
-12.66235
-16.23243
-18.98361
-20.37342
-20.16672
-18.39574
-15.27577
-11.12502
-6.311119
-1.213951
3.74843
8.185123
11.75598
14.21016
15.43258
15.47851
14.5788
13.06241
11.29438
9.579758
8.110943
6.940258
6.028187
5.307842
4.645676
3.942825
3.126011
2.190071
1.217178
0.3271217
-0.3915901
-0.9528313
-1.56522
-2.552952
-4.261726
-6.872074
-10.31292
-14.23046
-18.05865
-21.13492
-22.84766
-22.75484
-20.65961
-16.67417
-11.21739
-4.950359
1.379005
7.078094
11.64347
14.83123
16.60381
17.08786
16.49717
15.0569
13.03585
10.74979
8.532829
6.679893
5.347504
4.485451
3.874962
3.196045
2.18512
0.7533875
-0.9577713
-2.634659
-3.939453
-4.645599
-4.797531
-4.67601
-4.730721
-5.430237
-7.066109
-9.652458
-12.85534
-16.0474
-18.45428
-19.36137
-18.30254
-15.18132
-10.3276
-4.403618
1.784302
7.448296
12.02444
15.21661
16.9706
17.43016
16.81171
15.41462
13.54269
11.53143
9.668556
8.11338
6.902885
5.924644
5.0326
4.105537
3.168434
2.32988
1.745811
1.469551
1.42627
1.40052
1.15416
0.4779739
-0.7563934
-2.60376
-5.095032
-8.201126
-11.74617
-15.3019
-18.22345
-19.78113
-19.37521
-16.79317
-12.2647
-6.436638
-0.1507263
5.772774
10.7385
14.46861
16.96806
18.4325
19.0918
19.10176
18.53482
17.38541
15.72151
13.71642
11.70502
10.03279
8.945702
8.435608
8.249825
7.992859
7.36097
6.256454
4.835846
3.376686
2.144241
1.18531
0.3290329
-0.7242737
-2.289978
-4.53624
-7.449539
-10.808
-14.21904
-17.21483
-19.25813
-19.84985
-18.60977
-15.40797
-10.45149
-4.274597
2.392044
8.800125
14.35529
18.71631
21.7679
23.52527
24.06686
23.52411
22.1154
20.12845
17.95544
15.88145
14.08618
12.5526
11.16519
9.793091
8.435638
7.197311
6.237152
5.651245
5.383575
5.262848
5.045296
4.539673
3.681168
2.540428
1.270325
0.03855896
-1.076553
-2.101677
-3.158714
-4.393425
-5.91452
-7.791061
-10.01266
-12.52089
-15.12048
-17.49189
-19.14623
-19.53649
-18.21143
-15.042
-10.27272
-4.543755
1.322906
6.574677
10.72115
13.59901
15.33614
16.16827
16.32526
