1569410114.20368
1569410114.2193
1569410114.23493
1569410114.25055
1569410114.26618
1569410114.2818
1569410114.29743
1569410114.31306
1569410114.32868
1569410114.34431
1569410114.35993
1569410114.37556
1569410114.39118
1569410114.40681
1569410114.42244
1569410114.43806
1569410114.45369
1569410114.46931
1569410114.48494
1569410114.50056
1569410114.51619
1569410114.53182
1569410114.54744
1569410114.56307
1569410114.57869
1569410114.59432
1569410114.60994
1569410114.62557
1569410114.6412
1569410114.65682
1569410114.67245
1569410114.68807
1569410114.7037
1569410114.71932
1569410114.73495
1569410114.75058
1569410114.7662
1569410114.78183
1569410114.79745
1569410114.81308
1569410114.8287
1569410114.84433
1569410114.85996
1569410114.87558
1569410114.89121
1569410114.90683
1569410114.92246
1569410114.93808
1569410114.95371
1569410114.96934
1569410114.98496
1569410115.00059
1569410115.01621
1569410115.03184
1569410115.04746
1569410115.06309
1569410115.07872
1569410115.09434
1569410115.10997
1569410115.12559
1569410115.14122
1569410115.15684
1569410115.17247
1569410115.1881
1569410115.20372
1569410115.21935
1569410115.23497
1569410115.2506
1569410115.26622
1569410115.28185
1569410115.29748
1569410115.3131
1569410115.32873
1569410115.34435
1569410115.35998
1569410115.3756
1569410115.39123
1569410115.40686
1569410115.42248
1569410115.43811
1569410115.45373
1569410115.46936
1569410115.48498
1569410115.50061
1569410115.51624
1569410115.53186
1569410115.54749
1569410115.56311
1569410115.57874
1569410115.59436
1569410115.60999
1569410115.62562
1569410115.64124
1569410115.65687
1569410115.67249
1569410115.68812
1569410115.70374
1569410115.71937
1569410115.735
1569410115.75062
1569410115.76625
1569410115.78187
1569410115.7975
1569410115.81312
1569410115.82875
1569410115.84438
1569410115.86
1569410115.87563
1569410115.89125
1569410115.90688
1569410115.9225
1569410115.93813
1569410115.95376
1569410115.96938
1569410115.98501
1569410116.00063
1569410116.01626
1569410116.03188
1569410116.04751
1569410116.06314
1569410116.07876
1569410116.09439
1569410116.11001
1569410116.12564
1569410116.14126
1569410116.15689
1569410116.17252
1569410116.18814
1569410116.20377
1569410116.21939
1569410116.23502
1569410116.25064
1569410116.26627
1569410116.2819
1569410116.29752
1569410116.31315
1569410116.32877
1569410116.3444
1569410116.36002
1569410116.37565
1569410116.39128
1569410116.4069
1569410116.42253
1569410116.43815
1569410116.45378
1569410116.4694
1569410116.48503
1569410116.50066
1569410116.51628
1569410116.53191
1569410116.54753
1569410116.56316
1569410116.57879
1569410116.59441
1569410116.61004
1569410116.62566
1569410116.64129
1569410116.65691
1569410116.67254
1569410116.68817
1569410116.70379
1569410116.71942
1569410116.73504
1569410116.75067
1569410116.76629
1569410116.78192
1569410116.79755
1569410116.81317
1569410116.8288
1569410116.84442
1569410116.86005
1569410116.87567
1569410116.8913
1569410116.90693
1569410116.92255
1569410116.93818
1569410116.9538
1569410116.96943
1569410116.98505
1569410117.00068
1569410117.01631
1569410117.03193
1569410117.04756
1569410117.06318
1569410117.07881
1569410117.09443
1569410117.11006
1569410117.12569
1569410117.14131
1569410117.15694
1569410117.17256
1569410117.18819
1569410117.20381
1569410117.21944
1569410117.23507
1569410117.25069
1569410117.26632
1569410117.28194
1569410117.29757
1569410117.31319
1569410117.32882
1569410117.34445
1569410117.36007
1569410117.3757
1569410117.39132
1569410117.40695
1569410117.42257
1569410117.4382
1569410117.45383
1569410117.46945
1569410117.48508
1569410117.5007
1569410117.51633
1569410117.53195
1569410117.54758
1569410117.56321
1569410117.57883
1569410117.59446
1569410117.61008
1569410117.62571
1569410117.64133
1569410117.65696
1569410117.67259
1569410117.68821
1569410117.70384
1569410117.71946
1569410117.73509
1569410117.75071
1569410117.76634
1569410117.78197
1569410117.79759
1569410117.81322
1569410117.82884
1569410117.84447
1569410117.86009
1569410117.87572
1569410117.89135
1569410117.90697
1569410117.9226
1569410117.93822
1569410117.95385
1569410117.96947
1569410117.9851
1569410118.00073
1569410118.01635
1569410118.03198
1569410118.0476
1569410118.06323
1569410118.07885
1569410118.09448
1569410118.11011
1569410118.12573
1569410118.14136
1569410118.15698
1569410118.17261
1569410118.18823
1569410118.20386
1569410118.21949
1569410118.23511
1569410118.25074
1569410118.26636
1569410118.28199
1569410118.29761
1569410118.31324
1569410118.32887
1569410118.34449
1569410118.36012
1569410118.37574
1569410118.39137
1569410118.40699
1569410118.42262
1569410118.43825
1569410118.45387
1569410118.4695
1569410118.48512
1569410118.50075
1569410118.51637
1569410118.532
1569410118.54763
1569410118.56325
1569410118.57888
1569410118.5945
1569410118.61013
1569410118.62575
1569410118.64138
1569410118.65701
1569410118.67263
1569410118.68826
1569410118.70388
1569410118.71951
1569410118.73514
1569410118.75076
1569410118.76639
1569410118.78201
1569410118.79764
1569410118.81326
1569410118.82889
1569410118.84452
1569410118.86014
1569410118.87577
1569410118.89139
1569410118.90702
1569410118.92264
1569410118.93827
1569410118.9539
1569410118.96952
1569410118.98515
1569410119.00077
1569410119.0164
1569410119.03202
1569410119.04765
1569410119.06328
1569410119.0789
1569410119.09453
1569410119.11015
1569410119.12578
1569410119.1414
1569410119.15703
1569410119.17266
1569410119.18828
1569410119.20391
1569410119.21953
1569410119.23516
1569410119.25078
1569410119.26641
1569410119.28204
1569410119.29766
1569410119.31329
1569410119.32891
1569410119.34454
1569410119.36016
1569410119.37579
1569410119.39142
1569410119.40704
1569410119.42267
1569410119.43829
1569410119.45392
1569410119.46954
1569410119.48517
1569410119.5008
1569410119.51642
1569410119.53205
1569410119.54767
1569410119.5633
1569410119.57892
1569410119.59455
1569410119.61018
1569410119.6258
1569410119.64143
1569410119.65705
1569410119.67268
1569410119.6883
1569410119.70393
1569410119.71956
1569410119.73518
1569410119.75081
1569410119.76643
1569410119.78206
1569410119.79768
1569410119.81331
1569410119.82894
1569410119.84456
1569410119.86019
1569410119.87581
1569410119.89144
1569410119.90706
1569410119.92269
1569410119.93832
1569410119.95394
1569410119.96957
1569410119.98519
1569410120.00082
1569410120.01644
1569410120.03207
1569410120.0477
1569410120.06332
1569410120.07895
1569410120.09457
1569410120.1102
1569410120.12582
1569410120.14145
1569410120.15708
1569410120.1727
1569410120.18833
1569410120.20395
1569410120.21958
1569410120.2352
1569410120.25083
1569410120.26646
1569410120.28208
1569410120.29771
1569410120.31333
1569410120.32896
1569410120.34458
1569410120.36021
1569410120.37584
1569410120.39146
1569410120.40709
1569410120.42271
1569410120.43834
1569410120.45396
1569410120.46959
1569410120.48522
1569410120.50084
1569410120.51647
1569410120.53209
1569410120.54772
1569410120.56334
1569410120.57897
1569410120.5946
1569410120.61022
1569410120.62585
1569410120.64147
1569410120.6571
1569410120.67272
1569410120.68835
1569410120.70398
1569410120.7196
1569410120.73523
1569410120.75085
1569410120.76648
1569410120.7821
1569410120.79773
1569410120.81336
1569410120.82898
1569410120.84461
1569410120.86023
1569410120.87586
1569410120.89148
1569410120.90711
1569410120.92274
1569410120.93836
1569410120.95399
1569410120.96961
1569410120.98524
1569410121.00086
1569410121.01649
1569410121.03212
1569410121.04774
1569410121.06337
1569410121.07899
1569410121.09462
1569410121.11024
1569410121.12587
1569410121.1415
1569410121.15712
1569410121.17275
1569410121.18837
1569410121.204
1569410121.21963
1569410121.23525
1569410121.25088
1569410121.2665
1569410121.28213
1569410121.29775
1569410121.31338
1569410121.32901
1569410121.34463
1569410121.36026
1569410121.37588
1569410121.39151
1569410121.40713
1569410121.42276
1569410121.43839
1569410121.45401
1569410121.46964
1569410121.48526
1569410121.50089
1569410121.51651
1569410121.53214
1569410121.54777
1569410121.56339
1569410121.57902
1569410121.59464
1569410121.61027
1569410121.62589
1569410121.64152
1569410121.65715
1569410121.67277
1569410121.6884
1569410121.70402
1569410121.71965
1569410121.73527
1569410121.7509
1569410121.76653
1569410121.78215
1569410121.79778
1569410121.8134
1569410121.82903
1569410121.84465
1569410121.86028
1569410121.87591
1569410121.89153
1569410121.90716
1569410121.92278
1569410121.93841
1569410121.95403
1569410121.96966
1569410121.98529
1569410122.00091
1569410122.01654
1569410122.03216
1569410122.04779
1569410122.06341
1569410122.07904
1569410122.09467
1569410122.11029
1569410122.12592
1569410122.14154
1569410122.15717
1569410122.17279
1569410122.18842
1569410122.20405
1569410122.21967
1569410122.2353
1569410122.25092
1569410122.26655
1569410122.28217
1569410122.2978
1569410122.31343
1569410122.32905
1569410122.34468
1569410122.3603
1569410122.37593
1569410122.39155
1569410122.40718
1569410122.42281
1569410122.43843
1569410122.45406
1569410122.46968
1569410122.48531
1569410122.50093
1569410122.51656
1569410122.53219
1569410122.54781
1569410122.56344
1569410122.57906
1569410122.59469
1569410122.61031
1569410122.62594
1569410122.64157
1569410122.65719
1569410122.67282
1569410122.68844
1569410122.70407
1569410122.71969
1569410122.73532
1569410122.75095
1569410122.76657
1569410122.7822
1569410122.79782
1569410122.81345
1569410122.82907
1569410122.8447
1569410122.86033
1569410122.87595
1569410122.89158
1569410122.9072
1569410122.92283
1569410122.93845
1569410122.95408
1569410122.96971
1569410122.98533
1569410123.00096
1569410123.01658
1569410123.03221
1569410123.04783
1569410123.06346
1569410123.07909
1569410123.09471
1569410123.11034
1569410123.12596
1569410123.14159
1569410123.15721
1569410123.17284
1569410123.18847
1569410123.20409
1569410123.21972
1569410123.23534
1569410123.25097
1569410123.26659
1569410123.28222
1569410123.29785
1569410123.31347
1569410123.3291
1569410123.34472
1569410123.36035
1569410123.37597
1569410123.3916
1569410123.40723
1569410123.42285
1569410123.43848
1569410123.4541
1569410123.46973
1569410123.48535
1569410123.50098
1569410123.51661
1569410123.53223
1569410123.54786
1569410123.56348
1569410123.57911
1569410123.59473
1569410123.61036
1569410123.62599
1569410123.64161
1569410123.65724
1569410123.67286
1569410123.68849
1569410123.70412
1569410123.71974
1569410123.73537
1569410123.75099
1569410123.76662
1569410123.78224
1569410123.79787
1569410123.8135
1569410123.82912
1569410123.84475
1569410123.86037
1569410123.876
1569410123.89162
1569410123.90725
1569410123.92288
1569410123.9385
1569410123.95413
1569410123.96975
1569410123.98538
1569410124.001
1569410124.01663
1569410124.03226
1569410124.04788
1569410124.06351
1569410124.07913
1569410124.09476
1569410124.11038
1569410124.12601
1569410124.14164
1569410124.15726
1569410124.17289
1569410124.18851
1569410124.20414
1569410124.21976
1569410124.23539
1569410124.25102
1569410124.26664
1569410124.28227
1569410124.29789
1569410124.31352
1569410124.32914
1569410124.34477
1569410124.3604
1569410124.37602
1569410124.39165
1569410124.40727
1569410124.4229
1569410124.43852
1569410124.45415
1569410124.46978
1569410124.4854
1569410124.50103
1569410124.51665
1569410124.53228
1569410124.5479
1569410124.56353
1569410124.57916
1569410124.59478
1569410124.61041
1569410124.62603
1569410124.64166
1569410124.65728
1569410124.67291
1569410124.68854
1569410124.70416
1569410124.71979
1569410124.73541
1569410124.75104
1569410124.76666
1569410124.78229
1569410124.79792
1569410124.81354
1569410124.82917
1569410124.84479
1569410124.86042
1569410124.87604
1569410124.89167
1569410124.9073
1569410124.92292
1569410124.93855
1569410124.95417
1569410124.9698
1569410124.98542
1569410125.00105
1569410125.01668
1569410125.0323
1569410125.04793
1569410125.06355
1569410125.07918
1569410125.0948
1569410125.11043
1569410125.12606
1569410125.14168
1569410125.15731
1569410125.17293
1569410125.18856
1569410125.20418
1569410125.21981
1569410125.23544
1569410125.25106
1569410125.26669
1569410125.28231
1569410125.29794
1569410125.31356
1569410125.32919
1569410125.34482
1569410125.36044
1569410125.37607
1569410125.39169
1569410125.40732
1569410125.42294
1569410125.43857
1569410125.4542
1569410125.46982
1569410125.48545
1569410125.50107
1569410125.5167
1569410125.53232
1569410125.54795
1569410125.56358
1569410125.5792
1569410125.59483
1569410125.61045
1569410125.62608
1569410125.6417
1569410125.65733
1569410125.67296
1569410125.68858
1569410125.70421
1569410125.71983
1569410125.73546
1569410125.75108
1569410125.76671
1569410125.78234
1569410125.79796
1569410125.81359
1569410125.82921
1569410125.84484
1569410125.86047
1569410125.87609
1569410125.89172
1569410125.90734
1569410125.92297
1569410125.93859
1569410125.95422
1569410125.96985
1569410125.98547
1569410126.0011
1569410126.01672
1569410126.03235
1569410126.04797
1569410126.0636
1569410126.07923
1569410126.09485
1569410126.11048
1569410126.1261
1569410126.14173
1569410126.15735
1569410126.17298
1569410126.18861
1569410126.20423
1569410126.21986
1569410126.23548
1569410126.25111
1569410126.26673
1569410126.28236
1569410126.29799
1569410126.31361
1569410126.32924
1569410126.34486
1569410126.36049
1569410126.37611
1569410126.39174
1569410126.40737
1569410126.42299
1569410126.43862
1569410126.45424
1569410126.46987
1569410126.48549
1569410126.50112
1569410126.51675
1569410126.53237
1569410126.548
1569410126.56362
1569410126.57925
1569410126.59487
1569410126.6105
1569410126.62613
1569410126.64175
1569410126.65738
1569410126.673
1569410126.68863
1569410126.70425
1569410126.71988
1569410126.73551
1569410126.75113
1569410126.76676
1569410126.78238
1569410126.79801
1569410126.81363
1569410126.82926
1569410126.84489
1569410126.86051
1569410126.87614
1569410126.89176
1569410126.90739
1569410126.92301
1569410126.93864
1569410126.95427
1569410126.96989
1569410126.98552
1569410127.00114
1569410127.01677
1569410127.03239
1569410127.04802
1569410127.06365
1569410127.07927
1569410127.0949
1569410127.11052
1569410127.12615
1569410127.14177
1569410127.1574
1569410127.17303
1569410127.18865
1569410127.20428
1569410127.2199
1569410127.23553
1569410127.25115
1569410127.26678
1569410127.28241
1569410127.29803
1569410127.31366
1569410127.32928
1569410127.34491
1569410127.36053
1569410127.37616
1569410127.39179
1569410127.40741
1569410127.42304
1569410127.43866
1569410127.45429
1569410127.46991
1569410127.48554
1569410127.50117
1569410127.51679
1569410127.53242
1569410127.54804
1569410127.56367
1569410127.57929
1569410127.59492
1569410127.61055
1569410127.62617
1569410127.6418
1569410127.65742
1569410127.67305
1569410127.68867
1569410127.7043
1569410127.71993
1569410127.73555
1569410127.75118
1569410127.7668
1569410127.78243
1569410127.79805
1569410127.81368
1569410127.82931
1569410127.84493
1569410127.86056
1569410127.87618
1569410127.89181
1569410127.90743
1569410127.92306
1569410127.93869
1569410127.95431
1569410127.96994
1569410127.98556
1569410128.00119
1569410128.01681
1569410128.03244
1569410128.04807
1569410128.06369
1569410128.07932
1569410128.09494
1569410128.11057
1569410128.12619
1569410128.14182
1569410128.15745
1569410128.17307
1569410128.1887
1569410128.20432
1569410128.21995
1569410128.23557
1569410128.2512
1569410128.26683
1569410128.28245
1569410128.29808
1569410128.3137
1569410128.32933
1569410128.34495
1569410128.36058
1569410128.37621
1569410128.39183
1569410128.40746
1569410128.42308
1569410128.43871
1569410128.45433
1569410128.46996
1569410128.48559
1569410128.50121
1569410128.51684
1569410128.53246
1569410128.54809
1569410128.56372
1569410128.57934
1569410128.59497
1569410128.61059
1569410128.62622
1569410128.64184
1569410128.65747
1569410128.6731
1569410128.68872
1569410128.70435
1569410128.71997
1569410128.7356
1569410128.75122
1569410128.76685
1569410128.78248
1569410128.7981
1569410128.81373
1569410128.82935
1569410128.84498
1569410128.8606
1569410128.87623
1569410128.89186
1569410128.90748
1569410128.92311
1569410128.93873
1569410128.95436
1569410128.96998
1569410128.98561
1569410129.00124
1569410129.01686
1569410129.03249
1569410129.04811
1569410129.06374
1569410129.07936
1569410129.09499
1569410129.11062
1569410129.12624
1569410129.14187
1569410129.15749
1569410129.17312
1569410129.18874
1569410129.20437
1569410129.22
1569410129.23562
1569410129.25125
1569410129.26687
1569410129.2825
1569410129.29812
1569410129.31375
1569410129.32938
1569410129.345
1569410129.36063
1569410129.37625
1569410129.39188
1569410129.4075
1569410129.42313
1569410129.43876
1569410129.45438
1569410129.47001
1569410129.48563
1569410129.50126
1569410129.51688
1569410129.53251
1569410129.54814
1569410129.56376
1569410129.57939
1569410129.59501
1569410129.61064
1569410129.62626
1569410129.64189
1569410129.65752
1569410129.67314
1569410129.68877
1569410129.70439
1569410129.72002
1569410129.73564
1569410129.75127
1569410129.7669
1569410129.78252
1569410129.79815
1569410129.81377
1569410129.8294
1569410129.84502
1569410129.86065
1569410129.87628
1569410129.8919
1569410129.90753
1569410129.92315
1569410129.93878
1569410129.9544
1569410129.97003
1569410129.98566
1569410130.00128
1569410130.01691
1569410130.03253
1569410130.04816
1569410130.06378
1569410130.07941
1569410130.09504
1569410130.11066
1569410130.12629
1569410130.14191
1569410130.15754
1569410130.17316
1569410130.18879
1569410130.20442
1569410130.22004
1569410130.23567
1569410130.25129
1569410130.26692
1569410130.28254
1569410130.29817
1569410130.3138
1569410130.32942
1569410130.34505
1569410130.36067
1569410130.3763
1569410130.39192
1569410130.40755
1569410130.42318
1569410130.4388
1569410130.45443
1569410130.47005
1569410130.48568
1569410130.5013
1569410130.51693
1569410130.53256
1569410130.54818
1569410130.56381
1569410130.57943
1569410130.59506
1569410130.61068
1569410130.62631
1569410130.64194
1569410130.65756
1569410130.67319
1569410130.68881
1569410130.70444
1569410130.72007
1569410130.73569
1569410130.75132
1569410130.76694
1569410130.78257
1569410130.79819
1569410130.81382
1569410130.82945
1569410130.84507
1569410130.8607
1569410130.87632
1569410130.89195
1569410130.90757
1569410130.9232
1569410130.93883
1569410130.95445
1569410130.97008
1569410130.9857
1569410131.00133
1569410131.01695
1569410131.03258
1569410131.04821
1569410131.06383
1569410131.07946
1569410131.09508
1569410131.11071
1569410131.12633
1569410131.14196
1569410131.15759
1569410131.17321
1569410131.18884
1569410131.20446
1569410131.22009
1569410131.23571
1569410131.25134
1569410131.26697
1569410131.28259
1569410131.29822
1569410131.31384
1569410131.32947
1569410131.34509
1569410131.36072
1569410131.37635
1569410131.39197
1569410131.4076
1569410131.42322
1569410131.43885
1569410131.45447
1569410131.4701
1569410131.48573
1569410131.50135
1569410131.51698
1569410131.5326
1569410131.54823
1569410131.56385
1569410131.57948
1569410131.59511
1569410131.61073
1569410131.62636
1569410131.64198
1569410131.65761
1569410131.67323
1569410131.68886
1569410131.70449
1569410131.72011
1569410131.73574
1569410131.75136
1569410131.76699
1569410131.78261
1569410131.79824
1569410131.81387
1569410131.82949
1569410131.84512
1569410131.86074
1569410131.87637
1569410131.89199
1569410131.90762
1569410131.92325
1569410131.93887
1569410131.9545
1569410131.97012
1569410131.98575
1569410132.00137
1569410132.017
1569410132.03263
1569410132.04825
1569410132.06388
1569410132.0795
1569410132.09513
1569410132.11075
1569410132.12638
1569410132.14201
1569410132.15763
1569410132.17326
1569410132.18888
1569410132.20451
1569410132.22013
1569410132.23576
1569410132.25139
1569410132.26701
1569410132.28264
1569410132.29826
1569410132.31389
1569410132.32951
1569410132.34514
1569410132.36077
1569410132.37639
1569410132.39202
1569410132.40764
1569410132.42327
1569410132.43889
1569410132.45452
1569410132.47015
1569410132.48577
1569410132.5014
1569410132.51702
1569410132.53265
1569410132.54827
1569410132.5639
1569410132.57953
1569410132.59515
1569410132.61078
1569410132.6264
1569410132.64203
1569410132.65765
1569410132.67328
1569410132.68891
1569410132.70453
1569410132.72016
1569410132.73578
1569410132.75141
1569410132.76703
1569410132.78266
1569410132.79829
1569410132.81391
1569410132.82954
1569410132.84516
1569410132.86079
1569410132.87641
1569410132.89204
1569410132.90767
1569410132.92329
1569410132.93892
1569410132.95454
1569410132.97017
1569410132.9858
1569410133.00142
1569410133.01705
1569410133.03267
1569410133.0483
1569410133.06392
1569410133.07955
1569410133.09518
1569410133.1108
1569410133.12643
1569410133.14205
1569410133.15768
1569410133.1733
1569410133.18893
1569410133.20456
1569410133.22018
1569410133.23581
1569410133.25143
1569410133.26706
1569410133.28268
1569410133.29831
1569410133.31394
1569410133.32956
1569410133.34519
1569410133.36081
1569410133.37644
1569410133.39206
1569410133.40769
1569410133.42332
1569410133.43894
1569410133.45457
1569410133.47019
1569410133.48582
1569410133.50144
1569410133.51707
1569410133.5327
1569410133.54832
1569410133.56395
1569410133.57957
1569410133.5952
1569410133.61082
1569410133.62645
1569410133.64208
1569410133.6577
1569410133.67333
1569410133.68895
1569410133.70458
1569410133.7202
1569410133.73583
1569410133.75146
1569410133.76708
1569410133.78271
1569410133.79833
1569410133.81396
1569410133.82958
1569410133.84521
1569410133.86084
1569410133.87646
1569410133.89209
1569410133.90771
1569410133.92334
1569410133.93896
1569410133.95459
1569410133.97022
1569410133.98584
1569410134.00147
1569410134.01709
1569410134.03272
1569410134.04834
1569410134.06397
1569410134.0796
1569410134.09522
1569410134.11085
1569410134.12647
1569410134.1421
1569410134.15772
1569410134.17335
1569410134.18898
1569410134.2046
1569410134.22023
1569410134.23585
1569410134.25148
1569410134.2671
1569410134.28273
1569410134.29836
1569410134.31398
1569410134.32961
1569410134.34523
1569410134.36086
1569410134.37648
1569410134.39211
1569410134.40774
1569410134.42336
1569410134.43899
1569410134.45461
1569410134.47024
1569410134.48586
1569410134.50149
1569410134.51712
1569410134.53274
1569410134.54837
1569410134.56399
1569410134.57962
1569410134.59524
1569410134.61087
1569410134.6265
1569410134.64212
1569410134.65775
1569410134.67337
1569410134.689
1569410134.70462
1569410134.72025
1569410134.73588
1569410134.7515
1569410134.76713
1569410134.78275
1569410134.79838
1569410134.814
1569410134.82963
1569410134.84526
1569410134.86088
1569410134.87651
1569410134.89213
1569410134.90776
1569410134.92338
1569410134.93901
1569410134.95464
1569410134.97026
1569410134.98589
1569410135.00151
1569410135.01714
1569410135.03276
1569410135.04839
1569410135.06402
1569410135.07964
1569410135.09527
1569410135.11089
1569410135.12652
1569410135.14214
1569410135.15777
1569410135.1734
1569410135.18902
1569410135.20465
1569410135.22027
1569410135.2359
1569410135.25152
1569410135.26715
1569410135.28278
1569410135.2984
1569410135.31403
1569410135.32965
1569410135.34528
1569410135.3609
1569410135.37653
1569410135.39216
1569410135.40778
1569410135.42341
1569410135.43903
1569410135.45466
1569410135.47028
1569410135.48591
1569410135.50154
1569410135.51716
1569410135.53279
1569410135.54841
1569410135.56404
1569410135.57967
1569410135.59529
1569410135.61092
1569410135.62654
1569410135.64217
1569410135.65779
1569410135.67342
1569410135.68905
1569410135.70467
1569410135.7203
1569410135.73592
1569410135.75155
1569410135.76717
1569410135.7828
1569410135.79843
1569410135.81405
1569410135.82968
1569410135.8453
1569410135.86093
1569410135.87655
1569410135.89218
1569410135.90781
1569410135.92343
1569410135.93906
1569410135.95468
1569410135.97031
1569410135.98593
1569410136.00156
1569410136.01719
1569410136.03281
1569410136.04844
1569410136.06406
1569410136.07969
1569410136.09531
1569410136.11094
1569410136.12657
1569410136.14219
1569410136.15782
1569410136.17344
1569410136.18907
1569410136.20469
1569410136.22032
1569410136.23595
1569410136.25157
1569410136.2672
1569410136.28282
1569410136.29845
1569410136.31407
1569410136.3297
1569410136.34533
1569410136.36095
1569410136.37658
1569410136.3922
1569410136.40783
1569410136.42345
1569410136.43908
1569410136.45471
1569410136.47033
1569410136.48596
1569410136.50158
1569410136.51721
1569410136.53283
1569410136.54846
1569410136.56409
1569410136.57971
1569410136.59534
1569410136.61096
1569410136.62659
1569410136.64221
1569410136.65784
1569410136.67347
1569410136.68909
1569410136.70472
1569410136.72034
1569410136.73597
1569410136.75159
1569410136.76722
1569410136.78285
1569410136.79847
1569410136.8141
1569410136.82972
1569410136.84535
1569410136.86097
1569410136.8766
1569410136.89223
1569410136.90785
1569410136.92348
1569410136.9391
1569410136.95473
1569410136.97035
1569410136.98598
1569410137.00161
1569410137.01723
1569410137.03286
1569410137.04848
1569410137.06411
1569410137.07973
1569410137.09536
1569410137.11099
1569410137.12661
1569410137.14224
1569410137.15786
1569410137.17349
1569410137.18911
1569410137.20474
1569410137.22037
1569410137.23599
1569410137.25162
1569410137.26724
1569410137.28287
1569410137.29849
1569410137.31412
1569410137.32975
1569410137.34537
1569410137.361
1569410137.37662
1569410137.39225
1569410137.40787
1569410137.4235
1569410137.43913
1569410137.45475
1569410137.47038
1569410137.486
1569410137.50163
1569410137.51725
1569410137.53288
1569410137.54851
1569410137.56413
1569410137.57976
1569410137.59538
1569410137.61101
1569410137.62663
1569410137.64226
1569410137.65789
1569410137.67351
1569410137.68914
1569410137.70476
1569410137.72039
1569410137.73601
1569410137.75164
1569410137.76727
1569410137.78289
1569410137.79852
1569410137.81414
1569410137.82977
1569410137.8454
1569410137.86102
1569410137.87665
1569410137.89227
1569410137.9079
1569410137.92352
1569410137.93915
1569410137.95478
1569410137.9704
1569410137.98603
1569410138.00165
1569410138.01728
1569410138.0329
1569410138.04853
1569410138.06416
1569410138.07978
1569410138.09541
1569410138.11103
1569410138.12666
1569410138.14228
1569410138.15791
1569410138.17354
1569410138.18916
1569410138.20479
1569410138.22041
1569410138.23604
1569410138.25166
1569410138.26729
1569410138.28292
1569410138.29854
1569410138.31417
1569410138.32979
1569410138.34542
1569410138.36104
1569410138.37667
1569410138.3923
1569410138.40792
1569410138.42355
1569410138.43917
1569410138.4548
1569410138.47042
1569410138.48605
1569410138.50168
1569410138.5173
1569410138.53293
1569410138.54855
1569410138.56418
1569410138.5798
1569410138.59543
1569410138.61106
1569410138.62668
1569410138.64231
1569410138.65793
1569410138.67356
1569410138.68918
1569410138.70481
1569410138.72044
1569410138.73606
1569410138.75169
1569410138.76731
1569410138.78294
1569410138.79856
1569410138.81419
1569410138.82982
1569410138.84544
1569410138.86107
1569410138.87669
1569410138.89232
1569410138.90794
1569410138.92357
1569410138.9392
1569410138.95482
1569410138.97045
1569410138.98607
1569410139.0017
1569410139.01732
1569410139.03295
1569410139.04858
1569410139.0642
1569410139.07983
1569410139.09545
1569410139.11108
1569410139.1267
1569410139.14233
1569410139.15796
1569410139.17358
1569410139.18921
1569410139.20483
1569410139.22046
1569410139.23608
1569410139.25171
1569410139.26734
1569410139.28296
1569410139.29859
1569410139.31421
1569410139.32984
1569410139.34546
1569410139.36109
1569410139.37672
1569410139.39234
1569410139.40797
1569410139.42359
1569410139.43922
1569410139.45484
1569410139.47047
1569410139.4861
1569410139.50172
1569410139.51735
1569410139.53297
1569410139.5486
1569410139.56422
1569410139.57985
1569410139.59548
1569410139.6111
1569410139.62673
1569410139.64235
1569410139.65798
1569410139.6736
1569410139.68923
1569410139.70486
1569410139.72048
1569410139.73611
1569410139.75173
1569410139.76736
1569410139.78298
1569410139.79861
1569410139.81424
1569410139.82986
1569410139.84549
1569410139.86111
1569410139.87674
1569410139.89236
1569410139.90799
1569410139.92362
1569410139.93924
1569410139.95487
1569410139.97049
1569410139.98612
1569410140.00174
1569410140.01737
1569410140.033
1569410140.04862
1569410140.06425
1569410140.07987
1569410140.0955
1569410140.11112
1569410140.12675
1569410140.14238
1569410140.158
1569410140.17363
1569410140.18925
1569410140.20488
1569410140.22051
1569410140.23613
1569410140.25176
1569410140.26738
1569410140.28301
1569410140.29863
1569410140.31426
1569410140.32989
1569410140.34551
1569410140.36114
1569410140.37676
1569410140.39239
1569410140.40801
1569410140.42364
1569410140.43927
1569410140.45489
1569410140.47052
1569410140.48614
1569410140.50177
1569410140.51739
1569410140.53302
1569410140.54865
1569410140.56427
1569410140.5799
1569410140.59552
1569410140.61115
1569410140.62677
1569410140.6424
1569410140.65803
1569410140.67365
1569410140.68928
1569410140.7049
1569410140.72053
1569410140.73615
1569410140.75178
1569410140.76741
1569410140.78303
1569410140.79866
1569410140.81428
1569410140.82991
1569410140.84553
1569410140.86116
1569410140.87679
1569410140.89241
1569410140.90804
1569410140.92366
1569410140.93929
1569410140.95491
1569410140.97054
1569410140.98617
1569410141.00179
1569410141.01742
1569410141.03304
1569410141.04867
1569410141.06429
1569410141.07992
1569410141.09555
1569410141.11117
1569410141.1268
1569410141.14242
1569410141.15805
1569410141.17367
1569410141.1893
1569410141.20493
1569410141.22055
1569410141.23618
1569410141.2518
1569410141.26743
1569410141.28305
1569410141.29868
1569410141.31431
1569410141.32993
1569410141.34556
1569410141.36118
1569410141.37681
1569410141.39243
1569410141.40806
1569410141.42369
1569410141.43931
1569410141.45494
1569410141.47056
1569410141.48619
1569410141.50181
1569410141.51744
1569410141.53307
1569410141.54869
1569410141.56432
1569410141.57994
1569410141.59557
1569410141.61119
1569410141.62682
1569410141.64245
1569410141.65807
1569410141.6737
1569410141.68932
1569410141.70495
1569410141.72057
1569410141.7362
1569410141.75183
1569410141.76745
1569410141.78308
1569410141.7987
1569410141.81433
1569410141.82995
1569410141.84558
1569410141.86121
1569410141.87683
1569410141.89246
1569410141.90808
1569410141.92371
1569410141.93933
1569410141.95496
1569410141.97059
1569410141.98621
1569410142.00184
1569410142.01746
1569410142.03309
1569410142.04871
1569410142.06434
1569410142.07997
1569410142.09559
1569410142.11122
1569410142.12684
1569410142.14247
1569410142.15809
1569410142.17372
1569410142.18935
1569410142.20497
1569410142.2206
1569410142.23622
1569410142.25185
1569410142.26747
1569410142.2831
1569410142.29873
1569410142.31435
1569410142.32998
1569410142.3456
1569410142.36123
1569410142.37685
1569410142.39248
1569410142.40811
1569410142.42373
1569410142.43936
1569410142.45498
1569410142.47061
1569410142.48623
1569410142.50186
1569410142.51749
1569410142.53311
1569410142.54874
1569410142.56436
1569410142.57999
1569410142.59561
1569410142.61124
1569410142.62687
1569410142.64249
1569410142.65812
1569410142.67374
1569410142.68937
1569410142.705
1569410142.72062
1569410142.73625
1569410142.75187
1569410142.7675
1569410142.78312
1569410142.79875
1569410142.81438
1569410142.83
1569410142.84563
1569410142.86125
1569410142.87688
1569410142.8925
1569410142.90813
1569410142.92376
1569410142.93938
1569410142.95501
1569410142.97063
1569410142.98626
1569410143.00188
1569410143.01751
1569410143.03314
1569410143.04876
1569410143.06439
1569410143.08001
1569410143.09564
1569410143.11126
1569410143.12689
1569410143.14252
1569410143.15814
1569410143.17377
1569410143.18939
1569410143.20502
1569410143.22064
1569410143.23627
1569410143.2519
1569410143.26752
1569410143.28315
1569410143.29877
1569410143.3144
1569410143.33002
1569410143.34565
1569410143.36128
1569410143.3769
1569410143.39253
1569410143.40815
1569410143.42378
1569410143.4394
1569410143.45503
1569410143.47066
1569410143.48628
1569410143.50191
1569410143.51753
1569410143.53316
1569410143.54878
1569410143.56441
1569410143.58004
1569410143.59566
1569410143.61129
1569410143.62691
1569410143.64254
1569410143.65816
1569410143.67379
1569410143.68942
1569410143.70504
1569410143.72067
1569410143.73629
1569410143.75192
1569410143.76754
1569410143.78317
1569410143.7988
1569410143.81442
1569410143.83005
1569410143.84567
1569410143.8613
1569410143.87692
1569410143.89255
1569410143.90818
1569410143.9238
1569410143.93943
1569410143.95505
1569410143.97068
1569410143.9863
1569410144.00193
1569410144.01756
1569410144.03318
1569410144.04881
1569410144.06443
1569410144.08006
1569410144.09568
1569410144.11131
1569410144.12694
1569410144.14256
1569410144.15819
1569410144.17381
1569410144.18944
1569410144.20506
1569410144.22069
1569410144.23632
1569410144.25194
1569410144.26757
1569410144.28319
1569410144.29882
1569410144.31444
1569410144.33007
1569410144.3457
1569410144.36132
1569410144.37695
1569410144.39257
1569410144.4082
1569410144.42382
1569410144.43945
1569410144.45508
1569410144.4707
1569410144.48633
1569410144.50195
1569410144.51758
1569410144.5332
1569410144.54883
1569410144.56446
1569410144.58008
1569410144.59571
1569410144.61133
1569410144.62696
1569410144.64258
1569410144.65821
1569410144.67384
1569410144.68946
1569410144.70509
1569410144.72071
1569410144.73634
1569410144.75196
1569410144.76759
1569410144.78322
1569410144.79884
1569410144.81447
1569410144.83009
1569410144.84572
1569410144.86135
1569410144.87697
1569410144.8926
1569410144.90822
1569410144.92385
1569410144.93947
1569410144.9551
1569410144.97073
1569410144.98635
1569410145.00198
1569410145.0176
1569410145.03323
1569410145.04885
1569410145.06448
1569410145.08011
1569410145.09573
1569410145.11136
1569410145.12698
1569410145.14261
1569410145.15823
1569410145.17386
1569410145.18949
1569410145.20511
1569410145.22074
1569410145.23636
1569410145.25199
1569410145.26761
1569410145.28324
1569410145.29887
1569410145.31449
1569410145.33012
1569410145.34574
1569410145.36137
1569410145.37699
1569410145.39262
1569410145.40825
1569410145.42387
1569410145.4395
1569410145.45512
1569410145.47075
1569410145.48637
1569410145.502
1569410145.51763
1569410145.53325
1569410145.54888
1569410145.5645
1569410145.58013
1569410145.59575
1569410145.61138
1569410145.62701
1569410145.64263
1569410145.65826
1569410145.67388
1569410145.68951
1569410145.70513
1569410145.72076
1569410145.73639
1569410145.75201
1569410145.76764
1569410145.78326
1569410145.79889
1569410145.81451
1569410145.83014
1569410145.84577
1569410145.86139
1569410145.87702
1569410145.89264
1569410145.90827
1569410145.92389
1569410145.93952
1569410145.95515
1569410145.97077
1569410145.9864
1569410146.00202
1569410146.01765
1569410146.03327
1569410146.0489
1569410146.06453
1569410146.08015
1569410146.09578
1569410146.1114
1569410146.12703
1569410146.14265
1569410146.15828
1569410146.17391
1569410146.18953
1569410146.20516
1569410146.22078
1569410146.23641
1569410146.25203
1569410146.26766
1569410146.28329
1569410146.29891
1569410146.31454
1569410146.33016
1569410146.34579
1569410146.36141
1569410146.37704
1569410146.39267
1569410146.40829
1569410146.42392
1569410146.43954
1569410146.45517
1569410146.47079
1569410146.48642
1569410146.50205
1569410146.51767
1569410146.5333
1569410146.54892
1569410146.56455
1569410146.58017
1569410146.5958
1569410146.61143
1569410146.62705
1569410146.64268
1569410146.6583
1569410146.67393
1569410146.68955
1569410146.70518
1569410146.72081
1569410146.73643
1569410146.75206
1569410146.76768
1569410146.78331
1569410146.79893
1569410146.81456
1569410146.83019
1569410146.84581
1569410146.86144
1569410146.87706
1569410146.89269
1569410146.90831
1569410146.92394
1569410146.93957
1569410146.95519
1569410146.97082
1569410146.98644
1569410147.00207
1569410147.01769
1569410147.03332
1569410147.04895
1569410147.06457
1569410147.0802
1569410147.09582
1569410147.11145
1569410147.12707
1569410147.1427
1569410147.15833
1569410147.17395
1569410147.18958
1569410147.2052
1569410147.22083
1569410147.23645
1569410147.25208
1569410147.26771
1569410147.28333
1569410147.29896
1569410147.31458
1569410147.33021
1569410147.34583
1569410147.36146
1569410147.37709
1569410147.39271
1569410147.40834
1569410147.42396
1569410147.43959
1569410147.45521
1569410147.47084
1569410147.48647
1569410147.50209
1569410147.51772
1569410147.53334
1569410147.54897
1569410147.5646
1569410147.58022
1569410147.59585
1569410147.61147
1569410147.6271
1569410147.64272
1569410147.65835
1569410147.67398
1569410147.6896
1569410147.70523
1569410147.72085
1569410147.73648
1569410147.7521
1569410147.76773
1569410147.78336
1569410147.79898
1569410147.81461
1569410147.83023
1569410147.84586
1569410147.86148
1569410147.87711
1569410147.89274
1569410147.90836
1569410147.92399
1569410147.93961
1569410147.95524
1569410147.97086
1569410147.98649
1569410148.00212
1569410148.01774
1569410148.03337
1569410148.04899
1569410148.06462
1569410148.08024
1569410148.09587
1569410148.1115
1569410148.12712
1569410148.14275
1569410148.15837
1569410148.174
1569410148.18962
1569410148.20525
1569410148.22088
1569410148.2365
1569410148.25213
1569410148.26775
1569410148.28338
1569410148.299
1569410148.31463
1569410148.33026
1569410148.34588
1569410148.36151
1569410148.37713
1569410148.39276
1569410148.40838
1569410148.42401
1569410148.43964
1569410148.45526
1569410148.47089
1569410148.48651
1569410148.50214
1569410148.51776
1569410148.53339
1569410148.54902
1569410148.56464
1569410148.58027
1569410148.59589
1569410148.61152
1569410148.62714
1569410148.64277
1569410148.6584
1569410148.67402
1569410148.68965
1569410148.70527
1569410148.7209
1569410148.73652
1569410148.75215
1569410148.76778
1569410148.7834
1569410148.79903
1569410148.81465
1569410148.83028
1569410148.8459
1569410148.86153
1569410148.87716
1569410148.89278
1569410148.90841
1569410148.92403
1569410148.93966
1569410148.95528
1569410148.97091
1569410148.98654
1569410149.00216
1569410149.01779
1569410149.03341
1569410149.04904
1569410149.06466
1569410149.08029
1569410149.09592
1569410149.11154
1569410149.12717
1569410149.14279
1569410149.15842
1569410149.17404
1569410149.18967
1569410149.2053
1569410149.22092
1569410149.23655
1569410149.25217
1569410149.2678
1569410149.28342
1569410149.29905
1569410149.31468
1569410149.3303
1569410149.34593
1569410149.36155
1569410149.37718
1569410149.3928
1569410149.40843
1569410149.42406
1569410149.43968
1569410149.45531
1569410149.47093
1569410149.48656
1569410149.50218
1569410149.51781
1569410149.53344
1569410149.54906
1569410149.56469
1569410149.58031
1569410149.59594
1569410149.61156
1569410149.62719
1569410149.64282
1569410149.65844
1569410149.67407
1569410149.68969
1569410149.70532
1569410149.72095
1569410149.73657
1569410149.7522
1569410149.76782
1569410149.78345
1569410149.79907
1569410149.8147
1569410149.83033
1569410149.84595
1569410149.86158
1569410149.8772
1569410149.89283
1569410149.90845
1569410149.92408
1569410149.93971
1569410149.95533
1569410149.97096
1569410149.98658
1569410150.00221
1569410150.01783
1569410150.03346
1569410150.04909
1569410150.06471
1569410150.08034
1569410150.09596
1569410150.11159
1569410150.12721
1569410150.14284
1569410150.15847
1569410150.17409
1569410150.18972
1569410150.20534
1569410150.22097
1569410150.23659
1569410150.25222
1569410150.26785
1569410150.28347
1569410150.2991
1569410150.31472
1569410150.33035
1569410150.34597
1569410150.3616
1569410150.37723
1569410150.39285
1569410150.40848
1569410150.4241
1569410150.43973
1569410150.45535
1569410150.47098
1569410150.48661
1569410150.50223
1569410150.51786
1569410150.53348
1569410150.54911
1569410150.56473
1569410150.58036
1569410150.59599
1569410150.61161
1569410150.62724
1569410150.64286
1569410150.65849
1569410150.67411
1569410150.68974
1569410150.70537
1569410150.72099
1569410150.73662
1569410150.75224
1569410150.76787
1569410150.78349
1569410150.79912
1569410150.81475
1569410150.83037
1569410150.846
1569410150.86162
1569410150.87725
1569410150.89287
1569410150.9085
1569410150.92413
1569410150.93975
1569410150.95538
1569410150.971
1569410150.98663
1569410151.00225
1569410151.01788
1569410151.03351
1569410151.04913
1569410151.06476
1569410151.08038
1569410151.09601
1569410151.11163
1569410151.12726
1569410151.14289
1569410151.15851
1569410151.17414
1569410151.18976
1569410151.20539
1569410151.22101
1569410151.23664
1569410151.25227
1569410151.26789
1569410151.28352
1569410151.29914
1569410151.31477
1569410151.33039
1569410151.34602
1569410151.36165
1569410151.37727
1569410151.3929
1569410151.40852
1569410151.42415
1569410151.43977
1569410151.4554
1569410151.47103
1569410151.48665
1569410151.50228
1569410151.5179
1569410151.53353
1569410151.54915
1569410151.56478
1569410151.58041
1569410151.59603
1569410151.61166
1569410151.62728
1569410151.64291
1569410151.65853
1569410151.67416
1569410151.68979
1569410151.70541
1569410151.72104
1569410151.73666
1569410151.75229
1569410151.76791
1569410151.78354
1569410151.79917
1569410151.81479
1569410151.83042
1569410151.84604
1569410151.86167
1569410151.87729
1569410151.89292
1569410151.90855
1569410151.92417
1569410151.9398
1569410151.95542
1569410151.97105
1569410151.98668
1569410152.0023
1569410152.01793
1569410152.03355
1569410152.04918
1569410152.0648
1569410152.08043
1569410152.09606
1569410152.11168
1569410152.12731
1569410152.14293
1569410152.15856
1569410152.17418
1569410152.18981
1569410152.20544
1569410152.22106
1569410152.23669
1569410152.25231
1569410152.26794
1569410152.28356
1569410152.29919
1569410152.31482
1569410152.33044
1569410152.34607
1569410152.36169
1569410152.37732
1569410152.39294
1569410152.40857
1569410152.4242
1569410152.43982
1569410152.45545
1569410152.47107
1569410152.4867
1569410152.50232
1569410152.51795
1569410152.53358
1569410152.5492
1569410152.56483
1569410152.58045
1569410152.59608
1569410152.6117
1569410152.62733
1569410152.64296
1569410152.65858
1569410152.67421
1569410152.68983
1569410152.70546
1569410152.72108
1569410152.73671
1569410152.75234
1569410152.76796
1569410152.78359
1569410152.79921
1569410152.81484
1569410152.83046
1569410152.84609
1569410152.86172
1569410152.87734
1569410152.89297
1569410152.90859
1569410152.92422
1569410152.93984
1569410152.95547
1569410152.9711
1569410152.98672
1569410153.00235
1569410153.01797
1569410153.0336
1569410153.04922
1569410153.06485
1569410153.08048
1569410153.0961
1569410153.11173
1569410153.12735
1569410153.14298
1569410153.1586
1569410153.17423
1569410153.18986
1569410153.20548
1569410153.22111
1569410153.23673
1569410153.25236
1569410153.26798
1569410153.28361
1569410153.29924
1569410153.31486
1569410153.33049
1569410153.34611
1569410153.36174
1569410153.37736
1569410153.39299
1569410153.40862
1569410153.42424
1569410153.43987
1569410153.45549
1569410153.47112
1569410153.48674
1569410153.50237
1569410153.518
1569410153.53362
1569410153.54925
1569410153.56487
1569410153.5805
1569410153.59612
1569410153.61175
1569410153.62738
1569410153.643
1569410153.65863
1569410153.67425
1569410153.68988
1569410153.7055
1569410153.72113
1569410153.73676
1569410153.75238
1569410153.76801
1569410153.78363
1569410153.79926
1569410153.81488
1569410153.83051
1569410153.84614
1569410153.86176
1569410153.87739
1569410153.89301
1569410153.90864
1569410153.92426
1569410153.93989
1569410153.95552
1569410153.97114
1569410153.98677
1569410154.00239
1569410154.01802
1569410154.03364
1569410154.04927
1569410154.0649
1569410154.08052
1569410154.09615
1569410154.11177
1569410154.1274
1569410154.14302
1569410154.15865
1569410154.17428
1569410154.1899
1569410154.20553
1569410154.22115
1569410154.23678
1569410154.2524
1569410154.26803
1569410154.28366
1569410154.29928
1569410154.31491
1569410154.33053
1569410154.34616
1569410154.36178
1569410154.37741
1569410154.39304
1569410154.40866
1569410154.42429
1569410154.43991
1569410154.45554
1569410154.47116
1569410154.48679
1569410154.50242
1569410154.51804
1569410154.53367
1569410154.54929
1569410154.56492
1569410154.58054
1569410154.59617
1569410154.6118
1569410154.62742
1569410154.64305
1569410154.65867
1569410154.6743
1569410154.68993
1569410154.70555
1569410154.72118
1569410154.7368
1569410154.75243
1569410154.76805
1569410154.78368
1569410154.79931
1569410154.81493
1569410154.83056
1569410154.84618
1569410154.86181
1569410154.87743
1569410154.89306
1569410154.90869
1569410154.92431
1569410154.93994
1569410154.95556
1569410154.97119
1569410154.98681
1569410155.00244
1569410155.01807
1569410155.03369
1569410155.04932
1569410155.06494
1569410155.08057
1569410155.09619
1569410155.11182
1569410155.12745
1569410155.14307
1569410155.1587
1569410155.17432
1569410155.18995
1569410155.20557
1569410155.2212
1569410155.23683
1569410155.25245
1569410155.26808
1569410155.2837
1569410155.29933
1569410155.31495
1569410155.33058
1569410155.34621
1569410155.36183
1569410155.37746
1569410155.39308
1569410155.40871
1569410155.42433
1569410155.43996
1569410155.45559
1569410155.47121
1569410155.48684
1569410155.50246
1569410155.51809
1569410155.53371
1569410155.54934
1569410155.56497
1569410155.58059
1569410155.59622
1569410155.61184
1569410155.62747
1569410155.64309
1569410155.65872
1569410155.67435
1569410155.68997
1569410155.7056
1569410155.72122
1569410155.73685
1569410155.75247
1569410155.7681
1569410155.78373
1569410155.79935
1569410155.81498
1569410155.8306
1569410155.84623
1569410155.86185
1569410155.87748
1569410155.89311
1569410155.90873
1569410155.92436
1569410155.93998
1569410155.95561
1569410155.97123
1569410155.98686
1569410156.00249
1569410156.01811
1569410156.03374
1569410156.04936
1569410156.06499
1569410156.08061
1569410156.09624
1569410156.11187
1569410156.12749
1569410156.14312
1569410156.15874
1569410156.17437
1569410156.18999
1569410156.20562
1569410156.22125
1569410156.23687
1569410156.2525
1569410156.26812
1569410156.28375
1569410156.29937
1569410156.315
1569410156.33063
1569410156.34625
1569410156.36188
1569410156.3775
1569410156.39313
1569410156.40875
1569410156.42438
1569410156.44001
1569410156.45563
1569410156.47126
1569410156.48688
1569410156.50251
1569410156.51813
1569410156.53376
1569410156.54939
1569410156.56501
1569410156.58064
1569410156.59626
1569410156.61189
1569410156.62751
1569410156.64314
1569410156.65877
1569410156.67439
1569410156.69002
1569410156.70564
1569410156.72127
1569410156.73689
1569410156.75252
1569410156.76815
1569410156.78377
1569410156.7994
1569410156.81502
1569410156.83065
1569410156.84628
1569410156.8619
1569410156.87753
1569410156.89315
1569410156.90878
1569410156.9244
1569410156.94003
1569410156.95566
1569410156.97128
1569410156.98691
1569410157.00253
1569410157.01816
1569410157.03378
1569410157.04941
1569410157.06504
1569410157.08066
1569410157.09629
1569410157.11191
1569410157.12754
1569410157.14316
1569410157.15879
1569410157.17442
1569410157.19004
1569410157.20567
1569410157.22129
1569410157.23692
1569410157.25254
1569410157.26817
1569410157.2838
1569410157.29942
1569410157.31505
1569410157.33067
1569410157.3463
1569410157.36192
1569410157.37755
1569410157.39318
1569410157.4088
1569410157.42443
1569410157.44005
1569410157.45568
1569410157.4713
1569410157.48693
1569410157.50256
1569410157.51818
1569410157.53381
1569410157.54943
1569410157.56506
1569410157.58068
1569410157.59631
1569410157.61194
1569410157.62756
1569410157.64319
1569410157.65881
1569410157.67444
1569410157.69006
1569410157.70569
1569410157.72132
1569410157.73694
1569410157.75257
1569410157.76819
1569410157.78382
1569410157.79944
1569410157.81507
1569410157.8307
1569410157.84632
1569410157.86195
1569410157.87757
1569410157.8932
1569410157.90882
1569410157.92445
1569410157.94008
1569410157.9557
1569410157.97133
1569410157.98695
1569410158.00258
1569410158.0182
1569410158.03383
1569410158.04946
1569410158.06508
1569410158.08071
1569410158.09633
1569410158.11196
1569410158.12758
1569410158.14321
1569410158.15884
1569410158.17446
1569410158.19009
1569410158.20571
1569410158.22134
1569410158.23696
1569410158.25259
1569410158.26822
1569410158.28384
1569410158.29947
1569410158.31509
1569410158.33072
1569410158.34634
1569410158.36197
1569410158.3776
1569410158.39322
1569410158.40885
1569410158.42447
1569410158.4401
1569410158.45572
1569410158.47135
1569410158.48698
1569410158.5026
1569410158.51823
1569410158.53385
1569410158.54948
1569410158.5651
1569410158.58073
1569410158.59636
1569410158.61198
1569410158.62761
1569410158.64323
1569410158.65886
1569410158.67448
1569410158.69011
1569410158.70574
1569410158.72136
1569410158.73699
1569410158.75261
1569410158.76824
1569410158.78386
1569410158.79949
1569410158.81512
1569410158.83074
1569410158.84637
1569410158.86199
1569410158.87762
1569410158.89324
1569410158.90887
1569410158.9245
1569410158.94012
1569410158.95575
1569410158.97137
1569410158.987
1569410159.00262
1569410159.01825
1569410159.03388
1569410159.0495
1569410159.06513
1569410159.08075
1569410159.09638
1569410159.11201
1569410159.12763
1569410159.14326
1569410159.15888
1569410159.17451
1569410159.19013
1569410159.20576
1569410159.22139
1569410159.23701
1569410159.25264
1569410159.26826
1569410159.28389
1569410159.29951
1569410159.31514
1569410159.33077
1569410159.34639
1569410159.36202
1569410159.37764
1569410159.39327
1569410159.40889
1569410159.42452
1569410159.44015
1569410159.45577
1569410159.4714
1569410159.48702
1569410159.50265
1569410159.51827
1569410159.5339
1569410159.54953
1569410159.56515
1569410159.58078
1569410159.5964
1569410159.61203
1569410159.62765
1569410159.64328
1569410159.65891
1569410159.67453
1569410159.69016
1569410159.70578
1569410159.72141
1569410159.73703
1569410159.75266
1569410159.76829
1569410159.78391
1569410159.79954
1569410159.81516
1569410159.83079
1569410159.84641
1569410159.86204
1569410159.87767
1569410159.89329
1569410159.90892
1569410159.92454
1569410159.94017
1569410159.95579
1569410159.97142
1569410159.98705
1569410160.00267
1569410160.0183
1569410160.03392
1569410160.04955
1569410160.06517
1569410160.0808
1569410160.09643
1569410160.11205
1569410160.12768
1569410160.1433
1569410160.15893
1569410160.17455
1569410160.19018
1569410160.20581
1569410160.22143
1569410160.23706
1569410160.25268
1569410160.26831
1569410160.28393
1569410160.29956
1569410160.31519
1569410160.33081
1569410160.34644
1569410160.36206
1569410160.37769
1569410160.39331
1569410160.40894
1569410160.42457
1569410160.44019
1569410160.45582
1569410160.47144
1569410160.48707
1569410160.50269
1569410160.51832
1569410160.53395
1569410160.54957
1569410160.5652
1569410160.58082
1569410160.59645
1569410160.61207
1569410160.6277
1569410160.64333
1569410160.65895
1569410160.67458
1569410160.6902
1569410160.70583
1569410160.72145
1569410160.73708
1569410160.75271
1569410160.76833
1569410160.78396
1569410160.79958
1569410160.81521
1569410160.83083
1569410160.84646
1569410160.86209
1569410160.87771
1569410160.89334
1569410160.90896
1569410160.92459
1569410160.94021
1569410160.95584
1569410160.97147
1569410160.98709
1569410161.00272
1569410161.01834
1569410161.03397
1569410161.04959
1569410161.06522
1569410161.08085
1569410161.09647
1569410161.1121
1569410161.12772
1569410161.14335
1569410161.15897
1569410161.1746
1569410161.19023
1569410161.20585
1569410161.22148
1569410161.2371
1569410161.25273
1569410161.26835
1569410161.28398
1569410161.29961
1569410161.31523
1569410161.33086
1569410161.34648
1569410161.36211
1569410161.37773
1569410161.39336
1569410161.40899
1569410161.42461
1569410161.44024
1569410161.45586
1569410161.47149
1569410161.48711
1569410161.50274
1569410161.51837
1569410161.53399
1569410161.54962
1569410161.56524
1569410161.58087
1569410161.59649
1569410161.61212
1569410161.62775
1569410161.64337
1569410161.659
1569410161.67462
1569410161.69025
1569410161.70588
1569410161.7215
1569410161.73713
1569410161.75275
1569410161.76838
1569410161.784
1569410161.79963
1569410161.81526
1569410161.83088
1569410161.84651
1569410161.86213
1569410161.87776
1569410161.89338
1569410161.90901
1569410161.92464
1569410161.94026
1569410161.95589
1569410161.97151
1569410161.98714
1569410162.00276
1569410162.01839
1569410162.03402
1569410162.04964
1569410162.06527
1569410162.08089
1569410162.09652
1569410162.11214
1569410162.12777
1569410162.1434
1569410162.15902
1569410162.17465
1569410162.19027
1569410162.2059
1569410162.22152
1569410162.23715
1569410162.25278
1569410162.2684
1569410162.28403
1569410162.29965
1569410162.31528
1569410162.3309
1569410162.34653
1569410162.36216
1569410162.37778
1569410162.39341
1569410162.40903
1569410162.42466
1569410162.44028
1569410162.45591
1569410162.47154
1569410162.48716
1569410162.50279
1569410162.51841
1569410162.53404
1569410162.54966
1569410162.56529
1569410162.58092
1569410162.59654
1569410162.61217
1569410162.62779
1569410162.64342
1569410162.65904
1569410162.67467
1569410162.6903
1569410162.70592
1569410162.72155
1569410162.73717
1569410162.7528
1569410162.76842
1569410162.78405
1569410162.79968
1569410162.8153
1569410162.83093
1569410162.84655
1569410162.86218
1569410162.8778
1569410162.89343
1569410162.90906
1569410162.92468
1569410162.94031
1569410162.95593
1569410162.97156
1569410162.98718
1569410163.00281
1569410163.01844
1569410163.03406
1569410163.04969
1569410163.06531
1569410163.08094
1569410163.09656
1569410163.11219
1569410163.12782
1569410163.14344
1569410163.15907
1569410163.17469
1569410163.19032
1569410163.20594
1569410163.22157
1569410163.2372
1569410163.25282
1569410163.26845
1569410163.28407
1569410163.2997
1569410163.31532
1569410163.33095
1569410163.34658
1569410163.3622
1569410163.37783
1569410163.39345
1569410163.40908
1569410163.4247
1569410163.44033
1569410163.45596
1569410163.47158
1569410163.48721
1569410163.50283
1569410163.51846
1569410163.53408
1569410163.54971
1569410163.56534
1569410163.58096
1569410163.59659
1569410163.61221
1569410163.62784
1569410163.64346
1569410163.65909
1569410163.67472
1569410163.69034
1569410163.70597
1569410163.72159
1569410163.73722
1569410163.75284
1569410163.76847
1569410163.7841
1569410163.79972
1569410163.81535
1569410163.83097
1569410163.8466
1569410163.86222
1569410163.87785
1569410163.89348
1569410163.9091
1569410163.92473
1569410163.94035
1569410163.95598
1569410163.97161
1569410163.98723
1569410164.00286
1569410164.01848
1569410164.03411
1569410164.04973
1569410164.06536
1569410164.08099
1569410164.09661
1569410164.11224
1569410164.12786
1569410164.14349
1569410164.15911
1569410164.17474
1569410164.19037
1569410164.20599
1569410164.22162
1569410164.23724
1569410164.25287
1569410164.26849
1569410164.28412
1569410164.29975
1569410164.31537
1569410164.331
1569410164.34662
1569410164.36225
1569410164.37787
1569410164.3935
1569410164.40913
1569410164.42475
1569410164.44038
1569410164.456
1569410164.47163
1569410164.48725
1569410164.50288
1569410164.51851
1569410164.53413
1569410164.54976
1569410164.56538
1569410164.58101
1569410164.59663
1569410164.61226
1569410164.62789
1569410164.64351
1569410164.65914
1569410164.67476
1569410164.69039
1569410164.70601
1569410164.72164
1569410164.73727
1569410164.75289
1569410164.76852
1569410164.78414
1569410164.79977
1569410164.81539
1569410164.83102
1569410164.84665
1569410164.86227
1569410164.8779
1569410164.89352
1569410164.90915
1569410164.92477
1569410164.9404
1569410164.95603
1569410164.97165
1569410164.98728
1569410165.0029
1569410165.01853
1569410165.03415
1569410165.04978
1569410165.06541
1569410165.08103
1569410165.09666
1569410165.11228
1569410165.12791
1569410165.14353
1569410165.15916
1569410165.17479
1569410165.19041
1569410165.20604
1569410165.22166
1569410165.23729
1569410165.25291
1569410165.26854
1569410165.28417
1569410165.29979
1569410165.31542
1569410165.33104
1569410165.34667
1569410165.36229
1569410165.37792
1569410165.39355
1569410165.40917
1569410165.4248
1569410165.44042
1569410165.45605
1569410165.47167
1569410165.4873
1569410165.50293
1569410165.51855
1569410165.53418
1569410165.5498
1569410165.56543
1569410165.58105
1569410165.59668
1569410165.61231
1569410165.62793
1569410165.64356
1569410165.65918
1569410165.67481
1569410165.69043
1569410165.70606
1569410165.72169
1569410165.73731
1569410165.75294
1569410165.76856
1569410165.78419
1569410165.79981
1569410165.81544
1569410165.83107
1569410165.84669
1569410165.86232
1569410165.87794
1569410165.89357
1569410165.90919
1569410165.92482
1569410165.94045
1569410165.95607
1569410165.9717
1569410165.98732
1569410166.00295
1569410166.01857
1569410166.0342
1569410166.04983
1569410166.06545
1569410166.08108
1569410166.0967
1569410166.11233
1569410166.12795
1569410166.14358
1569410166.15921
1569410166.17483
1569410166.19046
1569410166.20608
1569410166.22171
1569410166.23733
1569410166.25296
1569410166.26859
1569410166.28421
1569410166.29984
1569410166.31546
1569410166.33109
1569410166.34671
1569410166.36234
1569410166.37797
1569410166.39359
1569410166.40922
1569410166.42484
1569410166.44047
1569410166.45609
1569410166.47172
1569410166.48735
1569410166.50297
1569410166.5186
1569410166.53422
1569410166.54985
1569410166.56548
1569410166.5811
1569410166.59673
1569410166.61235
1569410166.62798
1569410166.6436
1569410166.65923
1569410166.67486
1569410166.69048
1569410166.70611
1569410166.72173
1569410166.73736
1569410166.75298
1569410166.76861
1569410166.78424
1569410166.79986
1569410166.81549
1569410166.83111
1569410166.84674
1569410166.86236
1569410166.87799
1569410166.89362
1569410166.90924
1569410166.92487
1569410166.94049
1569410166.95612
1569410166.97174
1569410166.98737
1569410167.003
1569410167.01862
1569410167.03425
1569410167.04987
1569410167.0655
1569410167.08112
1569410167.09675
1569410167.11238
1569410167.128
1569410167.14363
1569410167.15925
1569410167.17488
1569410167.1905
1569410167.20613
1569410167.22176
1569410167.23738
1569410167.25301
1569410167.26863
1569410167.28426
1569410167.29988
1569410167.31551
1569410167.33114
1569410167.34676
1569410167.36239
1569410167.37801
1569410167.39364
1569410167.40926
1569410167.42489
1569410167.44052
1569410167.45614
1569410167.47177
1569410167.48739
1569410167.50302
1569410167.51864
1569410167.53427
1569410167.5499
1569410167.56552
1569410167.58115
1569410167.59677
1569410167.6124
1569410167.62802
1569410167.64365
1569410167.65928
1569410167.6749
1569410167.69053
1569410167.70615
1569410167.72178
1569410167.7374
1569410167.75303
1569410167.76866
1569410167.78428
1569410167.79991
1569410167.81553
1569410167.83116
1569410167.84678
1569410167.86241
1569410167.87804
1569410167.89366
1569410167.90929
1569410167.92491
1569410167.94054
1569410167.95616
1569410167.97179
1569410167.98742
1569410168.00304
1569410168.01867
1569410168.03429
1569410168.04992
1569410168.06554
1569410168.08117
1569410168.0968
1569410168.11242
1569410168.12805
1569410168.14367
1569410168.1593
1569410168.17492
1569410168.19055
1569410168.20618
1569410168.2218
1569410168.23743
1569410168.25305
1569410168.26868
1569410168.2843
1569410168.29993
1569410168.31556
1569410168.33118
1569410168.34681
1569410168.36243
1569410168.37806
1569410168.39368
1569410168.40931
1569410168.42494
1569410168.44056
1569410168.45619
1569410168.47181
1569410168.48744
1569410168.50306
1569410168.51869
1569410168.53432
1569410168.54994
1569410168.56557
1569410168.58119
1569410168.59682
1569410168.61244
1569410168.62807
1569410168.6437
1569410168.65932
1569410168.67495
1569410168.69057
1569410168.7062
1569410168.72182
1569410168.73745
1569410168.75308
1569410168.7687
1569410168.78433
1569410168.79995
1569410168.81558
1569410168.83121
1569410168.84683
1569410168.86246
1569410168.87808
1569410168.89371
1569410168.90933
1569410168.92496
1569410168.94059
1569410168.95621
1569410168.97184
1569410168.98746
1569410169.00309
1569410169.01871
1569410169.03434
1569410169.04997
1569410169.06559
1569410169.08122
1569410169.09684
1569410169.11247
1569410169.12809
1569410169.14372
1569410169.15935
1569410169.17497
1569410169.1906
1569410169.20622
1569410169.22185
1569410169.23747
1569410169.2531
1569410169.26873
1569410169.28435
1569410169.29998
1569410169.3156
1569410169.33123
1569410169.34685
1569410169.36248
1569410169.37811
1569410169.39373
1569410169.40936
1569410169.42498
1569410169.44061
1569410169.45623
1569410169.47186
1569410169.48749
1569410169.50311
1569410169.51874
1569410169.53436
1569410169.54999
1569410169.56561
1569410169.58124
1569410169.59687
1569410169.61249
1569410169.62812
1569410169.64374
1569410169.65937
1569410169.67499
1569410169.69062
1569410169.70625
1569410169.72187
1569410169.7375
1569410169.75312
1569410169.76875
1569410169.78437
1569410169.8
1569410169.81563
1569410169.83125
1569410169.84688
1569410169.8625
1569410169.87813
1569410169.89375
1569410169.90938
1569410169.92501
1569410169.94063
1569410169.95626
1569410169.97188
1569410169.98751
1569410170.00313
1569410170.01876
1569410170.03439
1569410170.05001
1569410170.06564
1569410170.08126
1569410170.09689
1569410170.11251
1569410170.12814
1569410170.14377
1569410170.15939
1569410170.17502
1569410170.19064
1569410170.20627
1569410170.22189
1569410170.23752
1569410170.25315
1569410170.26877
1569410170.2844
1569410170.30002
1569410170.31565
1569410170.33127
1569410170.3469
1569410170.36253
1569410170.37815
1569410170.39378
1569410170.4094
1569410170.42503
1569410170.44065
1569410170.45628
1569410170.47191
1569410170.48753
1569410170.50316
1569410170.51878
1569410170.53441
1569410170.55003
1569410170.56566
1569410170.58129
1569410170.59691
1569410170.61254
1569410170.62816
1569410170.64379
1569410170.65941
1569410170.67504
1569410170.69067
1569410170.70629
1569410170.72192
1569410170.73754
1569410170.75317
1569410170.76879
1569410170.78442
1569410170.80005
1569410170.81567
1569410170.8313
1569410170.84692
1569410170.86255
1569410170.87817
1569410170.8938
1569410170.90943
1569410170.92505
1569410170.94068
1569410170.9563
1569410170.97193
1569410170.98756
1569410171.00318
1569410171.01881
1569410171.03443
1569410171.05006
1569410171.06568
1569410171.08131
1569410171.09694
1569410171.11256
1569410171.12819
1569410171.14381
1569410171.15944
1569410171.17506
1569410171.19069
1569410171.20632
1569410171.22194
1569410171.23757
1569410171.25319
1569410171.26882
1569410171.28444
1569410171.30007
1569410171.3157
1569410171.33132
1569410171.34695
1569410171.36257
1569410171.3782
1569410171.39382
1569410171.40945
1569410171.42508
1569410171.4407
1569410171.45633
1569410171.47195
1569410171.48758
1569410171.5032
1569410171.51883
1569410171.53446
1569410171.55008
1569410171.56571
1569410171.58133
1569410171.59696
1569410171.61258
1569410171.62821
1569410171.64384
1569410171.65946
1569410171.67509
1569410171.69071
1569410171.70634
1569410171.72196
1569410171.73759
1569410171.75322
1569410171.76884
1569410171.78447
1569410171.80009
1569410171.81572
1569410171.83134
1569410171.84697
1569410171.8626
1569410171.87822
1569410171.89385
1569410171.90947
1569410171.9251
1569410171.94072
1569410171.95635
1569410171.97198
1569410171.9876
1569410172.00323
1569410172.01885
1569410172.03448
1569410172.0501
1569410172.06573
1569410172.08136
1569410172.09698
1569410172.11261
1569410172.12823
1569410172.14386
1569410172.15948
1569410172.17511
1569410172.19074
1569410172.20636
1569410172.22199
1569410172.23761
1569410172.25324
1569410172.26886
1569410172.28449
1569410172.30012
1569410172.31574
1569410172.33137
1569410172.34699
1569410172.36262
1569410172.37824
1569410172.39387
1569410172.4095
1569410172.42512
1569410172.44075
1569410172.45637
1569410172.472
1569410172.48762
1569410172.50325
1569410172.51888
1569410172.5345
1569410172.55013
1569410172.56575
1569410172.58138
1569410172.597
1569410172.61263
1569410172.62826
1569410172.64388
1569410172.65951
1569410172.67513
1569410172.69076
1569410172.70638
1569410172.72201
1569410172.73764
1569410172.75326
1569410172.76889
1569410172.78451
1569410172.80014
1569410172.81576
1569410172.83139
1569410172.84702
1569410172.86264
1569410172.87827
1569410172.89389
1569410172.90952
1569410172.92514
1569410172.94077
1569410172.9564
1569410172.97202
1569410172.98765
1569410173.00327
1569410173.0189
1569410173.03452
1569410173.05015
1569410173.06578
1569410173.0814
1569410173.09703
1569410173.11265
1569410173.12828
1569410173.1439
1569410173.15953
1569410173.17516
1569410173.19078
1569410173.20641
1569410173.22203
1569410173.23766
1569410173.25328
1569410173.26891
1569410173.28454
1569410173.30016
1569410173.31579
1569410173.33141
1569410173.34704
1569410173.36266
1569410173.37829
1569410173.39392
1569410173.40954
1569410173.42517
1569410173.44079
1569410173.45642
1569410173.47204
1569410173.48767
1569410173.5033
1569410173.51892
1569410173.53455
1569410173.55017
1569410173.5658
1569410173.58142
1569410173.59705
1569410173.61268
1569410173.6283
1569410173.64393
1569410173.65955
1569410173.67518
1569410173.69081
1569410173.70643
1569410173.72206
1569410173.73768
1569410173.75331
1569410173.76893
1569410173.78456
1569410173.80019
1569410173.81581
1569410173.83144
1569410173.84706
1569410173.86269
1569410173.87831
1569410173.89394
1569410173.90957
1569410173.92519
1569410173.94082
1569410173.95644
1569410173.97207
1569410173.98769
1569410174.00332
1569410174.01895
1569410174.03457
1569410174.0502
1569410174.06582
1569410174.08145
1569410174.09707
1569410174.1127
1569410174.12833
1569410174.14395
1569410174.15958
1569410174.1752
1569410174.19083
1569410174.20645
1569410174.22208
1569410174.23771
1569410174.25333
1569410174.26896
1569410174.28458
1569410174.30021
1569410174.31583
1569410174.33146
1569410174.34709
1569410174.36271
1569410174.37834
1569410174.39396
1569410174.40959
1569410174.42521
1569410174.44084
1569410174.45647
1569410174.47209
1569410174.48772
1569410174.50334
1569410174.51897
1569410174.53459
1569410174.55022
1569410174.56585
1569410174.58147
1569410174.5971
1569410174.61272
1569410174.62835
1569410174.64397
1569410174.6596
1569410174.67523
1569410174.69085
1569410174.70648
1569410174.7221
1569410174.73773
1569410174.75335
1569410174.76898
1569410174.78461
1569410174.80023
1569410174.81586
1569410174.83148
1569410174.84711
1569410174.86273
1569410174.87836
1569410174.89399
1569410174.90961
1569410174.92524
1569410174.94086
1569410174.95649
1569410174.97211
1569410174.98774
1569410175.00337
1569410175.01899
1569410175.03462
1569410175.05024
1569410175.06587
1569410175.08149
1569410175.09712
1569410175.11275
1569410175.12837
1569410175.144
1569410175.15962
1569410175.17525
1569410175.19087
1569410175.2065
1569410175.22213
1569410175.23775
1569410175.25338
1569410175.269
1569410175.28463
1569410175.30025
1569410175.31588
1569410175.33151
1569410175.34713
1569410175.36276
1569410175.37838
1569410175.39401
1569410175.40963
1569410175.42526
1569410175.44089
1569410175.45651
1569410175.47214
1569410175.48776
1569410175.50339
1569410175.51901
1569410175.53464
1569410175.55027
1569410175.56589
1569410175.58152
1569410175.59714
1569410175.61277
1569410175.62839
1569410175.64402
1569410175.65965
1569410175.67527
1569410175.6909
1569410175.70652
1569410175.72215
1569410175.73777
1569410175.7534
1569410175.76903
1569410175.78465
1569410175.80028
1569410175.8159
1569410175.83153
1569410175.84716
1569410175.86278
1569410175.87841
1569410175.89403
1569410175.90966
1569410175.92528
1569410175.94091
1569410175.95654
1569410175.97216
1569410175.98779
1569410176.00341
1569410176.01904
1569410176.03466
1569410176.05029
1569410176.06592
1569410176.08154
1569410176.09717
1569410176.11279
1569410176.12842
1569410176.14404
1569410176.15967
1569410176.1753
1569410176.19092
1569410176.20655
1569410176.22217
1569410176.2378
1569410176.25342
1569410176.26905
1569410176.28468
1569410176.3003
1569410176.31593
1569410176.33155
1569410176.34718
1569410176.3628
1569410176.37843
1569410176.39406
1569410176.40968
1569410176.42531
1569410176.44093
1569410176.45656
1569410176.47218
1569410176.48781
1569410176.50344
1569410176.51906
1569410176.53469
1569410176.55031
1569410176.56594
1569410176.58156
1569410176.59719
1569410176.61282
1569410176.62844
1569410176.64407
1569410176.65969
1569410176.67532
1569410176.69094
1569410176.70657
1569410176.7222
1569410176.73782
1569410176.75345
1569410176.76907
1569410176.7847
1569410176.80032
1569410176.81595
1569410176.83158
1569410176.8472
1569410176.86283
1569410176.87845
1569410176.89408
1569410176.9097
1569410176.92533
1569410176.94096
1569410176.95658
1569410176.97221
1569410176.98783
1569410177.00346
1569410177.01908
1569410177.03471
1569410177.05034
1569410177.06596
1569410177.08159
1569410177.09721
1569410177.11284
1569410177.12846
1569410177.14409
1569410177.15972
1569410177.17534
1569410177.19097
1569410177.20659
1569410177.22222
1569410177.23784
1569410177.25347
1569410177.2691
1569410177.28472
1569410177.30035
1569410177.31597
1569410177.3316
1569410177.34722
1569410177.36285
1569410177.37848
1569410177.3941
1569410177.40973
1569410177.42535
1569410177.44098
1569410177.4566
1569410177.47223
1569410177.48786
1569410177.50348
1569410177.51911
1569410177.53473
1569410177.55036
1569410177.56598
1569410177.58161
1569410177.59724
1569410177.61286
1569410177.62849
1569410177.64411
1569410177.65974
1569410177.67536
1569410177.69099
1569410177.70662
1569410177.72224
1569410177.73787
1569410177.75349
1569410177.76912
1569410177.78474
1569410177.80037
1569410177.816
1569410177.83162
1569410177.84725
1569410177.86287
1569410177.8785
1569410177.89412
1569410177.90975
1569410177.92538
1569410177.941
1569410177.95663
1569410177.97225
1569410177.98788
1569410178.0035
1569410178.01913
1569410178.03476
1569410178.05038
1569410178.06601
1569410178.08163
1569410178.09726
1569410178.11289
1569410178.12851
1569410178.14414
1569410178.15976
1569410178.17539
1569410178.19101
1569410178.20664
1569410178.22227
1569410178.23789
1569410178.25352
1569410178.26914
1569410178.28477
1569410178.30039
1569410178.31602
1569410178.33165
1569410178.34727
1569410178.3629
1569410178.37852
1569410178.39415
1569410178.40977
1569410178.4254
1569410178.44103
1569410178.45665
1569410178.47228
1569410178.4879
1569410178.50353
1569410178.51915
1569410178.53478
1569410178.55041
1569410178.56603
1569410178.58166
1569410178.59728
1569410178.61291
1569410178.62853
1569410178.64416
1569410178.65979
1569410178.67541
1569410178.69104
1569410178.70666
1569410178.72229
1569410178.73791
1569410178.75354
1569410178.76917
1569410178.78479
1569410178.80042
1569410178.81604
1569410178.83167
1569410178.84729
1569410178.86292
1569410178.87855
1569410178.89417
1569410178.9098
1569410178.92542
1569410178.94105
1569410178.95667
1569410178.9723
1569410178.98793
1569410179.00355
1569410179.01918
1569410179.0348
1569410179.05043
1569410179.06605
1569410179.08168
1569410179.09731
1569410179.11293
1569410179.12856
1569410179.14418
1569410179.15981
1569410179.17543
1569410179.19106
1569410179.20669
1569410179.22231
1569410179.23794
1569410179.25356
1569410179.26919
1569410179.28481
1569410179.30044
1569410179.31607
1569410179.33169
1569410179.34732
1569410179.36294
1569410179.37857
1569410179.39419
1569410179.40982
1569410179.42545
1569410179.44107
1569410179.4567
1569410179.47232
1569410179.48795
1569410179.50357
1569410179.5192
1569410179.53483
1569410179.55045
1569410179.56608
1569410179.5817
1569410179.59733
1569410179.61295
1569410179.62858
1569410179.64421
1569410179.65983
1569410179.67546
1569410179.69108
1569410179.70671
1569410179.72233
1569410179.73796
1569410179.75359
1569410179.76921
1569410179.78484
1569410179.80046
1569410179.81609
1569410179.83171
1569410179.84734
1569410179.86297
1569410179.87859
1569410179.89422
1569410179.90984
1569410179.92547
1569410179.94109
1569410179.95672
1569410179.97235
1569410179.98797
1569410180.0036
1569410180.01922
1569410180.03485
1569410180.05047
1569410180.0661
1569410180.08173
1569410180.09735
1569410180.11298
1569410180.1286
1569410180.14423
1569410180.15985
1569410180.17548
1569410180.19111
1569410180.20673
1569410180.22236
1569410180.23798
1569410180.25361
1569410180.26923
1569410180.28486
1569410180.30049
1569410180.31611
1569410180.33174
1569410180.34736
1569410180.36299
1569410180.37861
1569410180.39424
1569410180.40987
1569410180.42549
1569410180.44112
1569410180.45674
1569410180.47237
1569410180.48799
1569410180.50362
1569410180.51925
1569410180.53487
1569410180.5505
1569410180.56612
1569410180.58175
1569410180.59737
1569410180.613
1569410180.62863
1569410180.64425
1569410180.65988
1569410180.6755
1569410180.69113
1569410180.70676
1569410180.72238
1569410180.73801
1569410180.75363
1569410180.76926
1569410180.78488
1569410180.80051
1569410180.81614
1569410180.83176
1569410180.84739
1569410180.86301
1569410180.87864
1569410180.89426
1569410180.90989
1569410180.92552
1569410180.94114
1569410180.95677
1569410180.97239
1569410180.98802
1569410181.00364
1569410181.01927
1569410181.0349
1569410181.05052
1569410181.06615
1569410181.08177
1569410181.0974
1569410181.11302
1569410181.12865
1569410181.14428
1569410181.1599
1569410181.17553
1569410181.19115
1569410181.20678
1569410181.2224
1569410181.23803
1569410181.25366
1569410181.26928
1569410181.28491
1569410181.30053
1569410181.31616
1569410181.33178
1569410181.34741
1569410181.36304
1569410181.37866
1569410181.39429
1569410181.40991
1569410181.42554
1569410181.44116
1569410181.45679
1569410181.47242
1569410181.48804
1569410181.50367
1569410181.51929
1569410181.53492
1569410181.55054
1569410181.56617
1569410181.5818
1569410181.59742
1569410181.61305
1569410181.62867
1569410181.6443
1569410181.65992
1569410181.67555
1569410181.69118
1569410181.7068
1569410181.72243
1569410181.73805
1569410181.75368
1569410181.7693
1569410181.78493
1569410181.80056
1569410181.81618
1569410181.83181
1569410181.84743
1569410181.86306
1569410181.87868
1569410181.89431
1569410181.90994
1569410181.92556
1569410181.94119
1569410181.95681
1569410181.97244
1569410181.98806
1569410182.00369
1569410182.01932
1569410182.03494
1569410182.05057
1569410182.06619
1569410182.08182
1569410182.09744
1569410182.11307
1569410182.1287
1569410182.14432
1569410182.15995
1569410182.17557
1569410182.1912
1569410182.20682
1569410182.22245
1569410182.23808
1569410182.2537
1569410182.26933
1569410182.28495
1569410182.30058
1569410182.3162
1569410182.33183
1569410182.34746
1569410182.36308
1569410182.37871
1569410182.39433
1569410182.40996
1569410182.42558
1569410182.44121
1569410182.45684
1569410182.47246
1569410182.48809
1569410182.50371
1569410182.51934
1569410182.53496
1569410182.55059
1569410182.56622
1569410182.58184
1569410182.59747
1569410182.61309
1569410182.62872
1569410182.64434
1569410182.65997
1569410182.6756
1569410182.69122
1569410182.70685
1569410182.72247
1569410182.7381
1569410182.75372
1569410182.76935
1569410182.78498
1569410182.8006
1569410182.81623
1569410182.83185
1569410182.84748
1569410182.8631
1569410182.87873
1569410182.89436
1569410182.90998
1569410182.92561
1569410182.94123
1569410182.95686
1569410182.97249
1569410182.98811
1569410183.00374
1569410183.01936
1569410183.03499
1569410183.05061
1569410183.06624
1569410183.08187
1569410183.09749
1569410183.11312
1569410183.12874
1569410183.14437
1569410183.15999
1569410183.17562
1569410183.19125
1569410183.20687
1569410183.2225
1569410183.23812
1569410183.25375
1569410183.26937
1569410183.285
1569410183.30063
1569410183.31625
1569410183.33188
1569410183.3475
1569410183.36313
1569410183.37875
1569410183.39438
1569410183.41001
1569410183.42563
1569410183.44126
1569410183.45688
1569410183.47251
1569410183.48813
1569410183.50376
1569410183.51939
1569410183.53501
1569410183.55064
1569410183.56626
1569410183.58189
1569410183.59751
1569410183.61314
1569410183.62877
1569410183.64439
1569410183.66002
1569410183.67564
1569410183.69127
1569410183.70689
1569410183.72252
1569410183.73815
1569410183.75377
1569410183.7694
1569410183.78502
1569410183.80065
1569410183.81627
1569410183.8319
1569410183.84753
1569410183.86315
1569410183.87878
1569410183.8944
1569410183.91003
1569410183.92565
1569410183.94128
1569410183.95691
1569410183.97253
1569410183.98816
1569410184.00378
1569410184.01941
1569410184.03503
1569410184.05066
1569410184.06629
1569410184.08191
1569410184.09754
1569410184.11316
1569410184.12879
1569410184.14441
1569410184.16004
1569410184.17567
1569410184.19129
1569410184.20692
1569410184.22254
1569410184.23817
1569410184.25379
1569410184.26942
1569410184.28505
1569410184.30067
1569410184.3163
1569410184.33192
1569410184.34755
1569410184.36317
1569410184.3788
1569410184.39443
1569410184.41005
1569410184.42568
1569410184.4413
1569410184.45693
1569410184.47255
1569410184.48818
1569410184.50381
1569410184.51943
1569410184.53506
1569410184.55068
1569410184.56631
1569410184.58193
1569410184.59756
1569410184.61319
1569410184.62881
1569410184.64444
1569410184.66006
1569410184.67569
1569410184.69131
1569410184.70694
1569410184.72257
1569410184.73819
1569410184.75382
1569410184.76944
1569410184.78507
1569410184.80069
1569410184.81632
1569410184.83195
1569410184.84757
1569410184.8632
1569410184.87882
1569410184.89445
1569410184.91007
1569410184.9257
1569410184.94133
1569410184.95695
1569410184.97258
1569410184.9882
1569410185.00383
1569410185.01945
1569410185.03508
1569410185.05071
1569410185.06633
1569410185.08196
1569410185.09758
1569410185.11321
1569410185.12883
1569410185.14446
1569410185.16009
1569410185.17571
1569410185.19134
1569410185.20696
1569410185.22259
1569410185.23821
1569410185.25384
1569410185.26947
1569410185.28509
1569410185.30072
1569410185.31634
1569410185.33197
1569410185.34759
1569410185.36322
1569410185.37885
1569410185.39447
1569410185.4101
1569410185.42572
1569410185.44135
1569410185.45697
1569410185.4726
1569410185.48823
1569410185.50385
1569410185.51948
1569410185.5351
1569410185.55073
1569410185.56635
1569410185.58198
1569410185.59761
1569410185.61323
1569410185.62886
1569410185.64448
1569410185.66011
1569410185.67574
1569410185.69136
1569410185.70699
1569410185.72261
1569410185.73824
1569410185.75386
1569410185.76949
1569410185.78512
1569410185.80074
1569410185.81637
1569410185.83199
1569410185.84762
1569410185.86324
1569410185.87887
1569410185.8945
1569410185.91012
1569410185.92575
1569410185.94137
1569410185.957
1569410185.97262
1569410185.98825
1569410186.00388
1569410186.0195
1569410186.03513
1569410186.05075
1569410186.06638
1569410186.082
1569410186.09763
1569410186.11326
1569410186.12888
1569410186.14451
1569410186.16013
1569410186.17576
1569410186.19138
1569410186.20701
1569410186.22264
1569410186.23826
1569410186.25389
1569410186.26951
1569410186.28514
1569410186.30076
1569410186.31639
1569410186.33202
1569410186.34764
1569410186.36327
1569410186.37889
1569410186.39452
1569410186.41014
1569410186.42577
1569410186.4414
1569410186.45702
1569410186.47265
1569410186.48827
1569410186.5039
1569410186.51952
1569410186.53515
1569410186.55078
1569410186.5664
1569410186.58203
1569410186.59765
1569410186.61328
1569410186.6289
1569410186.64453
1569410186.66016
1569410186.67578
1569410186.69141
1569410186.70703
1569410186.72266
1569410186.73828
1569410186.75391
1569410186.76954
1569410186.78516
1569410186.80079
1569410186.81641
1569410186.83204
1569410186.84766
1569410186.86329
1569410186.87892
1569410186.89454
1569410186.91017
1569410186.92579
1569410186.94142
1569410186.95704
1569410186.97267
1569410186.9883
1569410187.00392
1569410187.01955
1569410187.03517
1569410187.0508
1569410187.06642
1569410187.08205
1569410187.09768
1569410187.1133
1569410187.12893
1569410187.14455
1569410187.16018
1569410187.1758
1569410187.19143
1569410187.20706
1569410187.22268
1569410187.23831
1569410187.25393
1569410187.26956
1569410187.28518
1569410187.30081
1569410187.31644
1569410187.33206
1569410187.34769
1569410187.36331
1569410187.37894
1569410187.39456
1569410187.41019
1569410187.42582
1569410187.44144
1569410187.45707
1569410187.47269
1569410187.48832
1569410187.50394
1569410187.51957
1569410187.5352
1569410187.55082
1569410187.56645
1569410187.58207
1569410187.5977
1569410187.61332
1569410187.62895
1569410187.64458
1569410187.6602
1569410187.67583
1569410187.69145
1569410187.70708
1569410187.7227
1569410187.73833
1569410187.75396
1569410187.76958
1569410187.78521
1569410187.80083
1569410187.81646
1569410187.83209
1569410187.84771
1569410187.86334
1569410187.87896
1569410187.89459
1569410187.91021
1569410187.92584
1569410187.94147
1569410187.95709
1569410187.97272
1569410187.98834
1569410188.00397
1569410188.01959
1569410188.03522
1569410188.05085
1569410188.06647
1569410188.0821
1569410188.09772
1569410188.11335
1569410188.12897
1569410188.1446
1569410188.16023
1569410188.17585
1569410188.19148
1569410188.2071
1569410188.22273
1569410188.23835
1569410188.25398
1569410188.26961
1569410188.28523
1569410188.30086
1569410188.31648
1569410188.33211
1569410188.34773
1569410188.36336
1569410188.37899
1569410188.39461
1569410188.41024
1569410188.42586
1569410188.44149
1569410188.45711
1569410188.47274
1569410188.48837
1569410188.50399
1569410188.51962
1569410188.53524
1569410188.55087
1569410188.56649
1569410188.58212
1569410188.59775
1569410188.61337
1569410188.629
1569410188.64462
1569410188.66025
1569410188.67587
1569410188.6915
1569410188.70713
1569410188.72275
1569410188.73838
1569410188.754
1569410188.76963
1569410188.78525
1569410188.80088
1569410188.81651
1569410188.83213
1569410188.84776
1569410188.86338
1569410188.87901
1569410188.89463
1569410188.91026
1569410188.92589
1569410188.94151
1569410188.95714
1569410188.97276
1569410188.98839
1569410189.00401
1569410189.01964
1569410189.03527
1569410189.05089
1569410189.06652
1569410189.08214
1569410189.09777
1569410189.11339
1569410189.12902
1569410189.14465
1569410189.16027
1569410189.1759
1569410189.19152
1569410189.20715
1569410189.22277
1569410189.2384
1569410189.25403
1569410189.26965
1569410189.28528
1569410189.3009
1569410189.31653
1569410189.33215
1569410189.34778
1569410189.36341
1569410189.37903
1569410189.39466
1569410189.41028
1569410189.42591
1569410189.44153
1569410189.45716
1569410189.47279
1569410189.48841
1569410189.50404
1569410189.51966
1569410189.53529
1569410189.55091
1569410189.56654
1569410189.58217
1569410189.59779
1569410189.61342
1569410189.62904
1569410189.64467
1569410189.66029
1569410189.67592
1569410189.69155
1569410189.70717
1569410189.7228
1569410189.73842
1569410189.75405
1569410189.76967
1569410189.7853
1569410189.80093
1569410189.81655
1569410189.83218
1569410189.8478
1569410189.86343
1569410189.87905
1569410189.89468
1569410189.91031
1569410189.92593
1569410189.94156
1569410189.95718
1569410189.97281
1569410189.98843
1569410190.00406
1569410190.01969
1569410190.03531
1569410190.05094
1569410190.06656
1569410190.08219
1569410190.09782
1569410190.11344
1569410190.12907
1569410190.14469
1569410190.16032
1569410190.17594
1569410190.19157
1569410190.2072
1569410190.22282
1569410190.23845
1569410190.25407
1569410190.2697
1569410190.28532
1569410190.30095
1569410190.31658
1569410190.3322
1569410190.34783
1569410190.36345
1569410190.37908
1569410190.3947
1569410190.41033
1569410190.42596
1569410190.44158
1569410190.45721
1569410190.47283
1569410190.48846
1569410190.50408
1569410190.51971
1569410190.53534
1569410190.55096
1569410190.56659
1569410190.58221
1569410190.59784
1569410190.61346
1569410190.62909
1569410190.64472
1569410190.66034
1569410190.67597
1569410190.69159
1569410190.70722
1569410190.72284
1569410190.73847
1569410190.7541
1569410190.76972
1569410190.78535
1569410190.80097
1569410190.8166
1569410190.83222
1569410190.84785
1569410190.86348
1569410190.8791
1569410190.89473
1569410190.91035
1569410190.92598
1569410190.9416
1569410190.95723
1569410190.97286
1569410190.98848
1569410191.00411
1569410191.01973
1569410191.03536
1569410191.05098
1569410191.06661
1569410191.08224
1569410191.09786
1569410191.11349
1569410191.12911
1569410191.14474
1569410191.16036
1569410191.17599
1569410191.19162
1569410191.20724
1569410191.22287
1569410191.23849
1569410191.25412
1569410191.26974
1569410191.28537
1569410191.301
1569410191.31662
1569410191.33225
1569410191.34787
1569410191.3635
1569410191.37912
1569410191.39475
1569410191.41038
1569410191.426
1569410191.44163
1569410191.45725
1569410191.47288
1569410191.4885
1569410191.50413
1569410191.51976
1569410191.53538
1569410191.55101
1569410191.56663
1569410191.58226
1569410191.59788
1569410191.61351
1569410191.62914
1569410191.64476
1569410191.66039
1569410191.67601
1569410191.69164
1569410191.70726
1569410191.72289
1569410191.73852
1569410191.75414
1569410191.76977
1569410191.78539
1569410191.80102
1569410191.81664
1569410191.83227
1569410191.8479
1569410191.86352
1569410191.87915
1569410191.89477
1569410191.9104
1569410191.92602
1569410191.94165
1569410191.95728
1569410191.9729
1569410191.98853
1569410192.00415
1569410192.01978
1569410192.0354
1569410192.05103
1569410192.06666
1569410192.08228
1569410192.09791
1569410192.11353
1569410192.12916
1569410192.14478
1569410192.16041
1569410192.17604
1569410192.19166
1569410192.20729
1569410192.22291
1569410192.23854
1569410192.25416
1569410192.26979
1569410192.28542
1569410192.30104
1569410192.31667
1569410192.33229
1569410192.34792
1569410192.36354
1569410192.37917
1569410192.3948
1569410192.41042
1569410192.42605
1569410192.44167
1569410192.4573
1569410192.47292
1569410192.48855
1569410192.50418
1569410192.5198
1569410192.53543
1569410192.55105
1569410192.56668
1569410192.5823
1569410192.59793
1569410192.61356
1569410192.62918
1569410192.64481
1569410192.66043
1569410192.67606
1569410192.69169
1569410192.70731
1569410192.72294
1569410192.73856
1569410192.75419
1569410192.76981
1569410192.78544
1569410192.80107
1569410192.81669
1569410192.83232
1569410192.84794
1569410192.86357
1569410192.87919
1569410192.89482
1569410192.91045
1569410192.92607
1569410192.9417
1569410192.95732
1569410192.97295
1569410192.98857
1569410193.0042
1569410193.01983
1569410193.03545
1569410193.05108
1569410193.0667
1569410193.08233
1569410193.09795
1569410193.11358
1569410193.12921
1569410193.14483
1569410193.16046
1569410193.17608
1569410193.19171
1569410193.20733
1569410193.22296
1569410193.23859
1569410193.25421
1569410193.26984
1569410193.28546
1569410193.30109
1569410193.31671
1569410193.33234
1569410193.34797
1569410193.36359
1569410193.37922
1569410193.39484
1569410193.41047
1569410193.42609
1569410193.44172
1569410193.45735
1569410193.47297
1569410193.4886
1569410193.50422
1569410193.51985
1569410193.53547
1569410193.5511
1569410193.56673
1569410193.58235
1569410193.59798
1569410193.6136
1569410193.62923
1569410193.64485
1569410193.66048
1569410193.67611
1569410193.69173
1569410193.70736
1569410193.72298
1569410193.73861
1569410193.75423
1569410193.76986
1569410193.78549
1569410193.80111
1569410193.81674
1569410193.83236
1569410193.84799
1569410193.86361
1569410193.87924
1569410193.89487
1569410193.91049
1569410193.92612
1569410193.94174
1569410193.95737
1569410193.97299
1569410193.98862
1569410194.00425
1569410194.01987
1569410194.0355
1569410194.05112
1569410194.06675
1569410194.08237
1569410194.098
1569410194.11363
1569410194.12925
1569410194.14488
1569410194.1605
1569410194.17613
1569410194.19175
1569410194.20738
1569410194.22301
1569410194.23863
1569410194.25426
1569410194.26988
1569410194.28551
1569410194.30113
1569410194.31676
1569410194.33239
1569410194.34801
1569410194.36364
1569410194.37926
1569410194.39489
1569410194.41051
1569410194.42614
1569410194.44177
1569410194.45739
1569410194.47302
1569410194.48864
1569410194.50427
1569410194.51989
1569410194.53552
1569410194.55115
1569410194.56677
1569410194.5824
1569410194.59802
1569410194.61365
1569410194.62927
1569410194.6449
1569410194.66053
1569410194.67615
1569410194.69178
1569410194.7074
1569410194.72303
1569410194.73865
1569410194.75428
1569410194.76991
1569410194.78553
1569410194.80116
1569410194.81678
1569410194.83241
1569410194.84803
1569410194.86366
1569410194.87929
1569410194.89491
1569410194.91054
1569410194.92616
1569410194.94179
1569410194.95742
1569410194.97304
1569410194.98867
1569410195.00429
1569410195.01992
1569410195.03554
1569410195.05117
1569410195.0668
1569410195.08242
1569410195.09805
1569410195.11367
1569410195.1293
1569410195.14492
1569410195.16055
1569410195.17618
1569410195.1918
1569410195.20743
1569410195.22305
1569410195.23868
1569410195.2543
1569410195.26993
1569410195.28556
1569410195.30118
1569410195.31681
1569410195.33243
1569410195.34806
1569410195.36368
1569410195.37931
1569410195.39494
1569410195.41056
1569410195.42619
1569410195.44181
1569410195.45744
1569410195.47306
1569410195.48869
1569410195.50432
1569410195.51994
1569410195.53557
1569410195.55119
1569410195.56682
1569410195.58244
1569410195.59807
1569410195.6137
1569410195.62932
1569410195.64495
1569410195.66057
1569410195.6762
1569410195.69182
1569410195.70745
1569410195.72308
1569410195.7387
1569410195.75433
1569410195.76995
1569410195.78558
1569410195.8012
1569410195.81683
1569410195.83246
1569410195.84808
1569410195.86371
1569410195.87933
1569410195.89496
1569410195.91058
1569410195.92621
1569410195.94184
1569410195.95746
1569410195.97309
1569410195.98871
1569410196.00434
1569410196.01996
1569410196.03559
1569410196.05122
1569410196.06684
1569410196.08247
1569410196.09809
1569410196.11372
1569410196.12934
1569410196.14497
1569410196.1606
1569410196.17622
1569410196.19185
1569410196.20747
1569410196.2231
1569410196.23872
1569410196.25435
1569410196.26998
1569410196.2856
1569410196.30123
1569410196.31685
1569410196.33248
1569410196.3481
1569410196.36373
1569410196.37936
1569410196.39498
1569410196.41061
1569410196.42623
1569410196.44186
1569410196.45748
1569410196.47311
1569410196.48874
1569410196.50436
1569410196.51999
1569410196.53561
1569410196.55124
1569410196.56686
1569410196.58249
1569410196.59812
1569410196.61374
1569410196.62937
1569410196.64499
1569410196.66062
1569410196.67624
1569410196.69187
1569410196.7075
1569410196.72312
1569410196.73875
1569410196.75437
1569410196.77
1569410196.78562
1569410196.80125
1569410196.81688
1569410196.8325
1569410196.84813
1569410196.86375
1569410196.87938
1569410196.895
1569410196.91063
1569410196.92626
1569410196.94188
1569410196.95751
1569410196.97313
1569410196.98876
1569410197.00438
1569410197.02001
1569410197.03564
1569410197.05126
1569410197.06689
1569410197.08251
1569410197.09814
1569410197.11377
1569410197.12939
1569410197.14502
1569410197.16064
1569410197.17627
1569410197.19189
1569410197.20752
1569410197.22315
1569410197.23877
1569410197.2544
1569410197.27002
1569410197.28565
1569410197.30127
1569410197.3169
1569410197.33253
1569410197.34815
1569410197.36378
1569410197.3794
1569410197.39503
1569410197.41065
1569410197.42628
1569410197.44191
1569410197.45753
1569410197.47316
1569410197.48878
1569410197.50441
1569410197.52003
1569410197.53566
1569410197.55129
1569410197.56691
1569410197.58254
1569410197.59816
1569410197.61379
1569410197.62941
1569410197.64504
1569410197.66067
1569410197.67629
1569410197.69192
1569410197.70754
1569410197.72317
1569410197.73879
1569410197.75442
1569410197.77005
1569410197.78567
1569410197.8013
1569410197.81692
1569410197.83255
1569410197.84817
1569410197.8638
1569410197.87943
1569410197.89505
1569410197.91068
1569410197.9263
1569410197.94193
1569410197.95755
1569410197.97318
1569410197.98881
1569410198.00443
1569410198.02006
1569410198.03568
1569410198.05131
1569410198.06693
1569410198.08256
1569410198.09819
1569410198.11381
1569410198.12944
1569410198.14506
1569410198.16069
1569410198.17631
1569410198.19194
1569410198.20757
1569410198.22319
1569410198.23882
1569410198.25444
1569410198.27007
1569410198.28569
1569410198.30132
1569410198.31695
1569410198.33257
1569410198.3482
1569410198.36382
1569410198.37945
1569410198.39507
1569410198.4107
1569410198.42633
1569410198.44195
1569410198.45758
1569410198.4732
1569410198.48883
1569410198.50445
1569410198.52008
1569410198.53571
1569410198.55133
1569410198.56696
1569410198.58258
1569410198.59821
1569410198.61383
1569410198.62946
1569410198.64509
1569410198.66071
1569410198.67634
1569410198.69196
1569410198.70759
1569410198.72321
1569410198.73884
1569410198.75447
1569410198.77009
1569410198.78572
1569410198.80134
1569410198.81697
1569410198.83259
1569410198.84822
1569410198.86385
1569410198.87947
1569410198.8951
1569410198.91072
1569410198.92635
1569410198.94197
1569410198.9576
1569410198.97323
1569410198.98885
1569410199.00448
1569410199.0201
1569410199.03573
1569410199.05135
1569410199.06698
1569410199.08261
1569410199.09823
1569410199.11386
1569410199.12948
1569410199.14511
1569410199.16073
1569410199.17636
1569410199.19199
1569410199.20761
1569410199.22324
1569410199.23886
1569410199.25449
1569410199.27011
1569410199.28574
1569410199.30137
1569410199.31699
1569410199.33262
1569410199.34824
1569410199.36387
1569410199.37949
1569410199.39512
1569410199.41075
1569410199.42637
1569410199.442
1569410199.45762
1569410199.47325
1569410199.48887
1569410199.5045
1569410199.52013
1569410199.53575
1569410199.55138
1569410199.567
1569410199.58263
1569410199.59825
1569410199.61388
1569410199.62951
1569410199.64513
1569410199.66076
1569410199.67638
1569410199.69201
1569410199.70763
1569410199.72326
1569410199.73889
1569410199.75451
1569410199.77014
1569410199.78576
1569410199.80139
1569410199.81702
1569410199.83264
1569410199.84827
1569410199.86389
1569410199.87952
1569410199.89514
1569410199.91077
1569410199.9264
1569410199.94202
1569410199.95765
1569410199.97327
1569410199.9889
1569410200.00452
1569410200.02015
1569410200.03578
1569410200.0514
1569410200.06703
1569410200.08265
1569410200.09828
1569410200.1139
1569410200.12953
1569410200.14516
1569410200.16078
1569410200.17641
1569410200.19203
1569410200.20766
1569410200.22328
1569410200.23891
1569410200.25454
1569410200.27016
1569410200.28579
1569410200.30141
1569410200.31704
1569410200.33266
1569410200.34829
1569410200.36392
1569410200.37954
1569410200.39517
1569410200.41079
1569410200.42642
1569410200.44204
1569410200.45767
1569410200.4733
1569410200.48892
1569410200.50455
1569410200.52017
1569410200.5358
1569410200.55142
1569410200.56705
1569410200.58268
1569410200.5983
1569410200.61393
1569410200.62955
1569410200.64518
1569410200.6608
1569410200.67643
1569410200.69206
1569410200.70768
1569410200.72331
1569410200.73893
1569410200.75456
1569410200.77018
1569410200.78581
1569410200.80144
1569410200.81706
1569410200.83269
1569410200.84831
1569410200.86394
1569410200.87956
1569410200.89519
1569410200.91082
1569410200.92644
1569410200.94207
1569410200.95769
1569410200.97332
1569410200.98894
1569410201.00457
1569410201.0202
1569410201.03582
1569410201.05145
1569410201.06707
1569410201.0827
1569410201.09832
1569410201.11395
1569410201.12958
1569410201.1452
1569410201.16083
1569410201.17645
1569410201.19208
1569410201.2077
1569410201.22333
1569410201.23896
1569410201.25458
1569410201.27021
1569410201.28583
1569410201.30146
1569410201.31708
1569410201.33271
1569410201.34834
1569410201.36396
1569410201.37959
1569410201.39521
1569410201.41084
1569410201.42646
1569410201.44209
1569410201.45772
1569410201.47334
1569410201.48897
1569410201.50459
1569410201.52022
1569410201.53584
1569410201.55147
1569410201.5671
1569410201.58272
1569410201.59835
1569410201.61397
1569410201.6296
1569410201.64522
1569410201.66085
1569410201.67648
1569410201.6921
1569410201.70773
1569410201.72335
1569410201.73898
1569410201.7546
1569410201.77023
1569410201.78586
1569410201.80148
1569410201.81711
1569410201.83273
1569410201.84836
1569410201.86398
1569410201.87961
1569410201.89524
1569410201.91086
1569410201.92649
1569410201.94211
1569410201.95774
1569410201.97337
1569410201.98899
1569410202.00462
1569410202.02024
1569410202.03587
1569410202.05149
1569410202.06712
1569410202.08275
1569410202.09837
1569410202.114
1569410202.12962
1569410202.14525
1569410202.16087
1569410202.1765
1569410202.19213
1569410202.20775
1569410202.22338
1569410202.239
1569410202.25463
1569410202.27025
1569410202.28588
1569410202.30151
1569410202.31713
1569410202.33276
1569410202.34838
1569410202.36401
1569410202.37963
1569410202.39526
1569410202.41089
1569410202.42651
1569410202.44214
1569410202.45776
1569410202.47339
1569410202.48901
1569410202.50464
1569410202.52027
1569410202.53589
1569410202.55152
1569410202.56714
1569410202.58277
1569410202.59839
1569410202.61402
1569410202.62965
1569410202.64527
1569410202.6609
1569410202.67652
1569410202.69215
1569410202.70777
1569410202.7234
1569410202.73903
1569410202.75465
1569410202.77028
1569410202.7859
1569410202.80153
1569410202.81715
1569410202.83278
1569410202.84841
1569410202.86403
1569410202.87966
1569410202.89528
1569410202.91091
1569410202.92653
1569410202.94216
1569410202.95779
1569410202.97341
1569410202.98904
1569410203.00466
1569410203.02029
1569410203.03591
1569410203.05154
1569410203.06717
1569410203.08279
1569410203.09842
1569410203.11404
1569410203.12967
1569410203.14529
1569410203.16092
1569410203.17655
1569410203.19217
1569410203.2078
1569410203.22342
1569410203.23905
1569410203.25467
1569410203.2703
1569410203.28593
1569410203.30155
1569410203.31718
1569410203.3328
1569410203.34843
1569410203.36405
1569410203.37968
1569410203.39531
1569410203.41093
1569410203.42656
1569410203.44218
1569410203.45781
1569410203.47343
1569410203.48906
1569410203.50469
1569410203.52031
1569410203.53594
1569410203.55156
1569410203.56719
1569410203.58281
1569410203.59844
1569410203.61407
1569410203.62969
1569410203.64532
1569410203.66094
1569410203.67657
1569410203.69219
1569410203.70782
1569410203.72345
1569410203.73907
1569410203.7547
1569410203.77032
1569410203.78595
1569410203.80157
1569410203.8172
1569410203.83283
1569410203.84845
1569410203.86408
1569410203.8797
1569410203.89533
1569410203.91095
1569410203.92658
1569410203.94221
1569410203.95783
1569410203.97346
1569410203.98908
1569410204.00471
1569410204.02033
1569410204.03596
1569410204.05159
1569410204.06721
1569410204.08284
1569410204.09846
1569410204.11409
1569410204.12971
1569410204.14534
1569410204.16097
1569410204.17659
1569410204.19222
1569410204.20784
1569410204.22347
1569410204.23909
1569410204.25472
1569410204.27035
1569410204.28597
1569410204.3016
1569410204.31722
1569410204.33285
1569410204.34847
1569410204.3641
1569410204.37973
1569410204.39535
1569410204.41098
1569410204.4266
1569410204.44223
1569410204.45785
1569410204.47348
1569410204.48911
1569410204.50473
1569410204.52036
1569410204.53598
1569410204.55161
1569410204.56723
1569410204.58286
1569410204.59849
1569410204.61411
1569410204.62974
1569410204.64536
1569410204.66099
1569410204.67662
1569410204.69224
1569410204.70787
1569410204.72349
1569410204.73912
1569410204.75474
1569410204.77037
1569410204.786
1569410204.80162
1569410204.81725
1569410204.83287
1569410204.8485
1569410204.86412
1569410204.87975
1569410204.89538
1569410204.911
1569410204.92663
1569410204.94225
1569410204.95788
1569410204.9735
1569410204.98913
1569410205.00476
1569410205.02038
1569410205.03601
1569410205.05163
1569410205.06726
1569410205.08288
1569410205.09851
1569410205.11414
1569410205.12976
1569410205.14539
1569410205.16101
1569410205.17664
1569410205.19226
1569410205.20789
1569410205.22352
1569410205.23914
1569410205.25477
1569410205.27039
1569410205.28602
1569410205.30164
1569410205.31727
1569410205.3329
1569410205.34852
1569410205.36415
1569410205.37977
1569410205.3954
1569410205.41102
1569410205.42665
1569410205.44228
1569410205.4579
1569410205.47353
1569410205.48915
1569410205.50478
1569410205.5204
1569410205.53603
1569410205.55166
1569410205.56728
1569410205.58291
1569410205.59853
1569410205.61416
1569410205.62978
1569410205.64541
1569410205.66104
1569410205.67666
1569410205.69229
1569410205.70791
1569410205.72354
1569410205.73916
1569410205.75479
1569410205.77042
1569410205.78604
1569410205.80167
1569410205.81729
1569410205.83292
1569410205.84854
1569410205.86417
1569410205.8798
1569410205.89542
1569410205.91105
1569410205.92667
1569410205.9423
1569410205.95792
1569410205.97355
1569410205.98918
1569410206.0048
1569410206.02043
1569410206.03605
1569410206.05168
1569410206.0673
1569410206.08293
1569410206.09856
1569410206.11418
1569410206.12981
1569410206.14543
1569410206.16106
1569410206.17668
1569410206.19231
1569410206.20794
1569410206.22356
1569410206.23919
1569410206.25481
1569410206.27044
1569410206.28606
1569410206.30169
1569410206.31732
1569410206.33294
1569410206.34857
1569410206.36419
1569410206.37982
1569410206.39544
1569410206.41107
1569410206.4267
1569410206.44232
1569410206.45795
1569410206.47357
1569410206.4892
1569410206.50482
1569410206.52045
1569410206.53608
1569410206.5517
1569410206.56733
1569410206.58295
1569410206.59858
1569410206.6142
1569410206.62983
1569410206.64546
1569410206.66108
1569410206.67671
1569410206.69233
1569410206.70796
1569410206.72358
1569410206.73921
1569410206.75484
1569410206.77046
1569410206.78609
1569410206.80171
1569410206.81734
1569410206.83297
1569410206.84859
1569410206.86422
1569410206.87984
1569410206.89547
1569410206.91109
1569410206.92672
1569410206.94235
1569410206.95797
1569410206.9736
1569410206.98922
1569410207.00485
1569410207.02047
1569410207.0361
1569410207.05173
1569410207.06735
1569410207.08298
1569410207.0986
1569410207.11423
1569410207.12985
1569410207.14548
1569410207.16111
1569410207.17673
1569410207.19236
1569410207.20798
1569410207.22361
1569410207.23923
1569410207.25486
1569410207.27049
1569410207.28611
1569410207.30174
1569410207.31736
1569410207.33299
1569410207.34861
1569410207.36424
1569410207.37987
1569410207.39549
1569410207.41112
1569410207.42674
1569410207.44237
1569410207.45799
1569410207.47362
1569410207.48925
1569410207.50487
1569410207.5205
1569410207.53612
1569410207.55175
1569410207.56737
1569410207.583
1569410207.59863
1569410207.61425
1569410207.62988
1569410207.6455
1569410207.66113
1569410207.67675
1569410207.69238
1569410207.70801
1569410207.72363
1569410207.73926
1569410207.75488
1569410207.77051
1569410207.78613
1569410207.80176
1569410207.81739
1569410207.83301
1569410207.84864
1569410207.86426
1569410207.87989
1569410207.89551
1569410207.91114
1569410207.92677
1569410207.94239
1569410207.95802
1569410207.97364
1569410207.98927
1569410208.00489
1569410208.02052
1569410208.03615
1569410208.05177
1569410208.0674
1569410208.08302
1569410208.09865
1569410208.11427
1569410208.1299
1569410208.14553
1569410208.16115
1569410208.17678
1569410208.1924
1569410208.20803
1569410208.22365
1569410208.23928
1569410208.25491
1569410208.27053
1569410208.28616
1569410208.30178
1569410208.31741
1569410208.33303
1569410208.34866
1569410208.36429
1569410208.37991
1569410208.39554
1569410208.41116
1569410208.42679
1569410208.44241
1569410208.45804
1569410208.47367
1569410208.48929
1569410208.50492
1569410208.52054
1569410208.53617
1569410208.55179
1569410208.56742
1569410208.58305
1569410208.59867
1569410208.6143
1569410208.62992
1569410208.64555
1569410208.66117
1569410208.6768
1569410208.69243
1569410208.70805
1569410208.72368
1569410208.7393
1569410208.75493
1569410208.77055
1569410208.78618
1569410208.80181
1569410208.81743
1569410208.83306
1569410208.84868
1569410208.86431
1569410208.87993
1569410208.89556
1569410208.91119
1569410208.92681
1569410208.94244
1569410208.95806
1569410208.97369
1569410208.98931
1569410209.00494
1569410209.02057
1569410209.03619
1569410209.05182
1569410209.06744
1569410209.08307
1569410209.0987
1569410209.11432
1569410209.12995
1569410209.14557
1569410209.1612
1569410209.17682
1569410209.19245
1569410209.20808
1569410209.2237
1569410209.23933
1569410209.25495
1569410209.27058
1569410209.2862
1569410209.30183
1569410209.31746
1569410209.33308
1569410209.34871
1569410209.36433
1569410209.37996
1569410209.39558
1569410209.41121
1569410209.42684
1569410209.44246
1569410209.45809
1569410209.47371
1569410209.48934
1569410209.50496
1569410209.52059
1569410209.53622
1569410209.55184
1569410209.56747
1569410209.58309
1569410209.59872
1569410209.61434
1569410209.62997
1569410209.6456
1569410209.66122
1569410209.67685
1569410209.69247
1569410209.7081
1569410209.72372
1569410209.73935
1569410209.75498
1569410209.7706
1569410209.78623
1569410209.80185
1569410209.81748
1569410209.8331
1569410209.84873
1569410209.86436
1569410209.87998
1569410209.89561
1569410209.91123
1569410209.92686
1569410209.94248
1569410209.95811
1569410209.97374
1569410209.98936
1569410210.00499
1569410210.02061
1569410210.03624
1569410210.05186
1569410210.06749
1569410210.08312
1569410210.09874
1569410210.11437
1569410210.12999
1569410210.14562
1569410210.16124
1569410210.17687
1569410210.1925
1569410210.20812
1569410210.22375
1569410210.23937
1569410210.255
1569410210.27062
1569410210.28625
1569410210.30188
1569410210.3175
1569410210.33313
1569410210.34875
1569410210.36438
1569410210.38
1569410210.39563
1569410210.41126
1569410210.42688
1569410210.44251
1569410210.45813
1569410210.47376
1569410210.48938
1569410210.50501
1569410210.52064
1569410210.53626
1569410210.55189
1569410210.56751
1569410210.58314
1569410210.59876
1569410210.61439
1569410210.63002
1569410210.64564
1569410210.66127
1569410210.67689
1569410210.69252
1569410210.70814
1569410210.72377
1569410210.7394
1569410210.75502
1569410210.77065
1569410210.78627
1569410210.8019
1569410210.81752
1569410210.83315
1569410210.84878
1569410210.8644
1569410210.88003
1569410210.89565
1569410210.91128
1569410210.9269
1569410210.94253
1569410210.95816
1569410210.97378
1569410210.98941
1569410211.00503
1569410211.02066
1569410211.03628
1569410211.05191
1569410211.06754
1569410211.08316
1569410211.09879
1569410211.11441
1569410211.13004
1569410211.14566
1569410211.16129
1569410211.17692
1569410211.19254
1569410211.20817
1569410211.22379
1569410211.23942
1569410211.25504
1569410211.27067
1569410211.2863
1569410211.30192
1569410211.31755
1569410211.33317
1569410211.3488
1569410211.36442
1569410211.38005
1569410211.39568
1569410211.4113
1569410211.42693
1569410211.44255
1569410211.45818
1569410211.4738
1569410211.48943
1569410211.50506
1569410211.52068
1569410211.53631
1569410211.55193
1569410211.56756
1569410211.58318
1569410211.59881
1569410211.61444
1569410211.63006
1569410211.64569
1569410211.66131
1569410211.67694
1569410211.69256
1569410211.70819
1569410211.72382
1569410211.73944
1569410211.75507
1569410211.77069
1569410211.78632
1569410211.80195
1569410211.81757
1569410211.8332
1569410211.84882
1569410211.86445
1569410211.88007
1569410211.8957
1569410211.91133
1569410211.92695
1569410211.94258
1569410211.9582
1569410211.97383
1569410211.98945
1569410212.00508
1569410212.02071
1569410212.03633
1569410212.05196
1569410212.06758
1569410212.08321
1569410212.09883
1569410212.11446
1569410212.13009
1569410212.14571
1569410212.16134
1569410212.17696
1569410212.19259
1569410212.20821
1569410212.22384
1569410212.23947
1569410212.25509
1569410212.27072
1569410212.28634
1569410212.30197
1569410212.31759
1569410212.33322
1569410212.34885
1569410212.36447
1569410212.3801
1569410212.39572
1569410212.41135
1569410212.42697
1569410212.4426
1569410212.45823
1569410212.47385
1569410212.48948
1569410212.5051
1569410212.52073
1569410212.53635
1569410212.55198
1569410212.56761
1569410212.58323
1569410212.59886
1569410212.61448
1569410212.63011
1569410212.64573
1569410212.66136
1569410212.67699
1569410212.69261
1569410212.70824
1569410212.72386
1569410212.73949
1569410212.75511
1569410212.77074
1569410212.78637
1569410212.80199
1569410212.81762
1569410212.83324
1569410212.84887
1569410212.86449
1569410212.88012
1569410212.89575
1569410212.91137
1569410212.927
1569410212.94262
1569410212.95825
1569410212.97387
1569410212.9895
1569410213.00513
1569410213.02075
1569410213.03638
1569410213.052
1569410213.06763
1569410213.08325
1569410213.09888
1569410213.11451
1569410213.13013
1569410213.14576
1569410213.16138
1569410213.17701
1569410213.19263
1569410213.20826
1569410213.22389
1569410213.23951
1569410213.25514
1569410213.27076
1569410213.28639
1569410213.30201
1569410213.31764
1569410213.33327
1569410213.34889
1569410213.36452
1569410213.38014
1569410213.39577
1569410213.41139
1569410213.42702
1569410213.44265
1569410213.45827
1569410213.4739
1569410213.48952
1569410213.50515
1569410213.52077
1569410213.5364
1569410213.55203
1569410213.56765
1569410213.58328
1569410213.5989
1569410213.61453
1569410213.63015
1569410213.64578
1569410213.66141
1569410213.67703
1569410213.69266
1569410213.70828
1569410213.72391
1569410213.73953
1569410213.75516
1569410213.77079
1569410213.78641
1569410213.80204
1569410213.81766
1569410213.83329
1569410213.84891
1569410213.86454
1569410213.88017
1569410213.89579
1569410213.91142
1569410213.92704
1569410213.94267
1569410213.9583
1569410213.97392
1569410213.98955
1569410214.00517
1569410214.0208
1569410214.03642
1569410214.05205
1569410214.06768
1569410214.0833
1569410214.09893
1569410214.11455
1569410214.13018
1569410214.1458
1569410214.16143
1569410214.17706
1569410214.19268
1569410214.20831
1569410214.22393
1569410214.23956
1569410214.25518
1569410214.27081
1569410214.28644
1569410214.30206
1569410214.31769
1569410214.33331
1569410214.34894
1569410214.36456
1569410214.38019
1569410214.39582
1569410214.41144
1569410214.42707
1569410214.44269
1569410214.45832
1569410214.47394
1569410214.48957
1569410214.5052
1569410214.52082
1569410214.53645
1569410214.55207
1569410214.5677
1569410214.58332
1569410214.59895
1569410214.61458
1569410214.6302
1569410214.64583
1569410214.66145
1569410214.67708
1569410214.6927
1569410214.70833
1569410214.72396
1569410214.73958
1569410214.75521
1569410214.77083
1569410214.78646
1569410214.80208
1569410214.81771
1569410214.83334
1569410214.84896
1569410214.86459
1569410214.88021
1569410214.89584
1569410214.91146
1569410214.92709
1569410214.94272
1569410214.95834
1569410214.97397
1569410214.98959
1569410215.00522
1569410215.02084
1569410215.03647
1569410215.0521
1569410215.06772
1569410215.08335
1569410215.09897
1569410215.1146
1569410215.13022
1569410215.14585
1569410215.16148
1569410215.1771
1569410215.19273
1569410215.20835
1569410215.22398
1569410215.2396
1569410215.25523
1569410215.27086
1569410215.28648
1569410215.30211
1569410215.31773
1569410215.33336
1569410215.34898
1569410215.36461
1569410215.38024
1569410215.39586
1569410215.41149
1569410215.42711
1569410215.44274
1569410215.45836
1569410215.47399
1569410215.48962
1569410215.50524
1569410215.52087
1569410215.53649
1569410215.55212
1569410215.56774
1569410215.58337
1569410215.599
1569410215.61462
1569410215.63025
1569410215.64587
1569410215.6615
1569410215.67712
1569410215.69275
1569410215.70838
1569410215.724
1569410215.73963
1569410215.75525
1569410215.77088
1569410215.7865
1569410215.80213
1569410215.81776
1569410215.83338
1569410215.84901
1569410215.86463
1569410215.88026
1569410215.89588
1569410215.91151
1569410215.92714
1569410215.94276
1569410215.95839
1569410215.97401
1569410215.98964
1569410216.00526
1569410216.02089
1569410216.03652
1569410216.05214
1569410216.06777
1569410216.08339
1569410216.09902
1569410216.11464
1569410216.13027
1569410216.1459
1569410216.16152
1569410216.17715
1569410216.19277
1569410216.2084
1569410216.22403
1569410216.23965
1569410216.25528
1569410216.2709
1569410216.28653
1569410216.30215
1569410216.31778
1569410216.33341
1569410216.34903
1569410216.36466
1569410216.38028
1569410216.39591
1569410216.41153
1569410216.42716
1569410216.44279
1569410216.45841
1569410216.47404
1569410216.48966
1569410216.50529
1569410216.52091
1569410216.53654
1569410216.55217
1569410216.56779
1569410216.58342
1569410216.59904
1569410216.61467
1569410216.63029
1569410216.64592
1569410216.66155
1569410216.67717
1569410216.6928
1569410216.70842
1569410216.72405
1569410216.73967
1569410216.7553
1569410216.77093
1569410216.78655
1569410216.80218
1569410216.8178
1569410216.83343
1569410216.84905
1569410216.86468
1569410216.88031
1569410216.89593
1569410216.91156
1569410216.92718
1569410216.94281
1569410216.95843
1569410216.97406
1569410216.98969
1569410217.00531
1569410217.02094
1569410217.03656
1569410217.05219
1569410217.06781
1569410217.08344
1569410217.09907
1569410217.11469
1569410217.13032
1569410217.14594
1569410217.16157
1569410217.17719
1569410217.19282
1569410217.20845
1569410217.22407
1569410217.2397
1569410217.25532
1569410217.27095
1569410217.28657
1569410217.3022
1569410217.31783
1569410217.33345
1569410217.34908
1569410217.3647
1569410217.38033
1569410217.39595
1569410217.41158
1569410217.42721
1569410217.44283
1569410217.45846
1569410217.47408
1569410217.48971
1569410217.50533
1569410217.52096
1569410217.53659
1569410217.55221
1569410217.56784
1569410217.58346
1569410217.59909
1569410217.61471
1569410217.63034
1569410217.64597
1569410217.66159
1569410217.67722
1569410217.69284
1569410217.70847
1569410217.72409
1569410217.73972
1569410217.75535
1569410217.77097
1569410217.7866
1569410217.80222
1569410217.81785
1569410217.83347
1569410217.8491
1569410217.86473
1569410217.88035
1569410217.89598
1569410217.9116
1569410217.92723
1569410217.94285
1569410217.95848
1569410217.97411
1569410217.98973
1569410218.00536
1569410218.02098
1569410218.03661
1569410218.05223
1569410218.06786
1569410218.08349
1569410218.09911
1569410218.11474
1569410218.13036
1569410218.14599
1569410218.16161
1569410218.17724
1569410218.19287
1569410218.20849
1569410218.22412
1569410218.23974
1569410218.25537
1569410218.27099
1569410218.28662
1569410218.30225
1569410218.31787
1569410218.3335
1569410218.34912
1569410218.36475
1569410218.38037
1569410218.396
1569410218.41163
1569410218.42725
1569410218.44288
1569410218.4585
1569410218.47413
1569410218.48975
1569410218.50538
1569410218.52101
1569410218.53663
1569410218.55226
1569410218.56788
1569410218.58351
1569410218.59913
1569410218.61476
1569410218.63039
1569410218.64601
1569410218.66164
1569410218.67726
1569410218.69289
1569410218.70851
1569410218.72414
1569410218.73977
1569410218.75539
1569410218.77102
1569410218.78664
1569410218.80227
1569410218.8179
1569410218.83352
1569410218.84915
1569410218.86477
1569410218.8804
1569410218.89602
1569410218.91165
1569410218.92728
1569410218.9429
1569410218.95853
1569410218.97415
1569410218.98978
1569410219.0054
1569410219.02103
1569410219.03666
1569410219.05228
1569410219.06791
1569410219.08353
1569410219.09916
1569410219.11478
1569410219.13041
1569410219.14604
1569410219.16166
1569410219.17729
1569410219.19291
1569410219.20854
1569410219.22416
1569410219.23979
1569410219.25542
1569410219.27104
1569410219.28667
1569410219.30229
1569410219.31792
1569410219.33354
1569410219.34917
1569410219.3648
1569410219.38042
1569410219.39605
1569410219.41167
1569410219.4273
1569410219.44292
1569410219.45855
1569410219.47418
1569410219.4898
1569410219.50543
1569410219.52105
1569410219.53668
1569410219.5523
1569410219.56793
1569410219.58356
1569410219.59918
1569410219.61481
1569410219.63043
1569410219.64606
1569410219.66168
1569410219.67731
1569410219.69294
1569410219.70856
1569410219.72419
1569410219.73981
1569410219.75544
1569410219.77106
1569410219.78669
1569410219.80232
1569410219.81794
1569410219.83357
1569410219.84919
1569410219.86482
1569410219.88044
1569410219.89607
1569410219.9117
1569410219.92732
1569410219.94295
1569410219.95857
1569410219.9742
1569410219.98982
1569410220.00545
1569410220.02108
1569410220.0367
1569410220.05233
1569410220.06795
1569410220.08358
1569410220.0992
1569410220.11483
1569410220.13046
1569410220.14608
1569410220.16171
1569410220.17733
1569410220.19296
1569410220.20858
1569410220.22421
1569410220.23984
1569410220.25546
1569410220.27109
1569410220.28671
1569410220.30234
1569410220.31796
1569410220.33359
1569410220.34922
1569410220.36484
1569410220.38047
1569410220.39609
1569410220.41172
1569410220.42734
1569410220.44297
1569410220.4586
1569410220.47422
1569410220.48985
1569410220.50547
1569410220.5211
1569410220.53672
1569410220.55235
1569410220.56798
1569410220.5836
1569410220.59923
1569410220.61485
1569410220.63048
1569410220.6461
1569410220.66173
1569410220.67736
1569410220.69298
1569410220.70861
1569410220.72423
1569410220.73986
1569410220.75548
1569410220.77111
1569410220.78674
1569410220.80236
1569410220.81799
1569410220.83361
1569410220.84924
1569410220.86486
1569410220.88049
1569410220.89612
1569410220.91174
1569410220.92737
1569410220.94299
1569410220.95862
1569410220.97424
1569410220.98987
1569410221.0055
1569410221.02112
1569410221.03675
1569410221.05237
1569410221.068
1569410221.08363
1569410221.09925
1569410221.11488
1569410221.1305
1569410221.14613
1569410221.16175
1569410221.17738
1569410221.19301
1569410221.20863
1569410221.22426
1569410221.23988
1569410221.25551
1569410221.27113
1569410221.28676
1569410221.30239
1569410221.31801
1569410221.33364
1569410221.34926
1569410221.36489
1569410221.38051
1569410221.39614
1569410221.41177
1569410221.42739
1569410221.44302
1569410221.45864
1569410221.47427
1569410221.48989
1569410221.50552
1569410221.52115
1569410221.53677
1569410221.5524
1569410221.56802
1569410221.58365
1569410221.59927
1569410221.6149
1569410221.63053
1569410221.64615
1569410221.66178
1569410221.6774
1569410221.69303
1569410221.70865
1569410221.72428
1569410221.73991
1569410221.75553
1569410221.77116
1569410221.78678
1569410221.80241
1569410221.81803
1569410221.83366
1569410221.84929
1569410221.86491
1569410221.88054
1569410221.89616
1569410221.91179
1569410221.92741
1569410221.94304
1569410221.95867
1569410221.97429
1569410221.98992
1569410222.00554
1569410222.02117
1569410222.03679
1569410222.05242
1569410222.06805
1569410222.08367
1569410222.0993
1569410222.11492
1569410222.13055
1569410222.14617
1569410222.1618
1569410222.17743
1569410222.19305
1569410222.20868
1569410222.2243
1569410222.23993
1569410222.25555
1569410222.27118
1569410222.28681
1569410222.30243
1569410222.31806
1569410222.33368
1569410222.34931
1569410222.36493
1569410222.38056
1569410222.39619
1569410222.41181
1569410222.42744
1569410222.44306
1569410222.45869
1569410222.47431
1569410222.48994
1569410222.50557
1569410222.52119
1569410222.53682
1569410222.55244
1569410222.56807
1569410222.58369
1569410222.59932
1569410222.61495
1569410222.63057
1569410222.6462
1569410222.66182
1569410222.67745
1569410222.69307
1569410222.7087
1569410222.72433
1569410222.73995
1569410222.75558
1569410222.7712
1569410222.78683
1569410222.80245
1569410222.81808
1569410222.83371
1569410222.84933
1569410222.86496
1569410222.88058
1569410222.89621
1569410222.91183
1569410222.92746
1569410222.94309
1569410222.95871
1569410222.97434
1569410222.98996
1569410223.00559
1569410223.02121
1569410223.03684
1569410223.05247
1569410223.06809
1569410223.08372
1569410223.09934
1569410223.11497
1569410223.13059
1569410223.14622
1569410223.16185
1569410223.17747
1569410223.1931
1569410223.20872
1569410223.22435
1569410223.23997
1569410223.2556
1569410223.27123
1569410223.28685
1569410223.30248
1569410223.3181
1569410223.33373
1569410223.34935
1569410223.36498
1569410223.38061
1569410223.39623
1569410223.41186
1569410223.42748
1569410223.44311
1569410223.45873
1569410223.47436
1569410223.48999
1569410223.50561
1569410223.52124
1569410223.53686
1569410223.55249
1569410223.56812
1569410223.58374
1569410223.59937
1569410223.61499
1569410223.63062
1569410223.64624
1569410223.66187
1569410223.6775
1569410223.69312
1569410223.70875
1569410223.72437
1569410223.74
1569410223.75562
1569410223.77125
1569410223.78688
1569410223.8025
1569410223.81813
1569410223.83375
1569410223.84938
1569410223.865
1569410223.88063
1569410223.89626
1569410223.91188
1569410223.92751
1569410223.94313
1569410223.95876
1569410223.97438
1569410223.99001
1569410224.00564
1569410224.02126
1569410224.03689
1569410224.05251
1569410224.06814
1569410224.08376
1569410224.09939
1569410224.11502
1569410224.13064
1569410224.14627
1569410224.16189
1569410224.17752
1569410224.19314
1569410224.20877
1569410224.2244
1569410224.24002
1569410224.25565
1569410224.27127
1569410224.2869
1569410224.30252
1569410224.31815
1569410224.33378
1569410224.3494
1569410224.36503
1569410224.38065
1569410224.39628
1569410224.4119
1569410224.42753
1569410224.44316
1569410224.45878
1569410224.47441
1569410224.49003
1569410224.50566
1569410224.52128
1569410224.53691
1569410224.55254
1569410224.56816
1569410224.58379
1569410224.59941
1569410224.61504
1569410224.63066
1569410224.64629
1569410224.66192
1569410224.67754
1569410224.69317
1569410224.70879
1569410224.72442
1569410224.74004
1569410224.75567
1569410224.7713
1569410224.78692
1569410224.80255
1569410224.81817
1569410224.8338
1569410224.84942
1569410224.86505
1569410224.88068
1569410224.8963
1569410224.91193
1569410224.92755
1569410224.94318
1569410224.9588
1569410224.97443
1569410224.99006
1569410225.00568
1569410225.02131
1569410225.03693
1569410225.05256
1569410225.06818
1569410225.08381
1569410225.09944
1569410225.11506
1569410225.13069
1569410225.14631
1569410225.16194
1569410225.17756
1569410225.19319
1569410225.20882
