19.41011
17.557
15.07777
12.18867
9.196108
6.361475
3.852723
1.733825
-0.1021312
-1.795653
-3.492814
-5.325947
-7.31787
-9.355355
-11.25891
-12.80355
-13.81794
-14.30326
-14.41661
-14.43505
-14.65402
-15.29437
-16.39429
-17.84683
-19.38346
-20.5813
-21.02413
-20.35377
-18.29285
-14.80412
-10.02205
-4.286398
1.920459
8.041233
13.63941
18.33626
21.90712
24.31423
25.59222
25.87472
25.33204
24.13434
22.45197
20.47132
18.37016
16.33596
14.56239
13.15445
12.12732
11.35426
10.57547
9.496775
7.900826
5.744387
3.140289
0.279623
-2.6798
-5.719112
-8.866079
-12.21745
-15.80407
-19.52655
-23.19423
-26.54629
-29.31515
-31.17908
-31.80493
-30.85473
-28.06958
-23.42658
-17.13319
-9.666697
-1.675091
6.159424
13.25493
19.1546
23.58022
26.41363
27.68381
27.5344
26.2212
24.0667
21.44522
18.73288
16.20363
14.05624
12.30736
10.83797
9.391457
7.711796
5.613438
3.072216
0.2406921
-2.641617
-5.316135
-7.60717
-9.516426
-11.14922
-12.69577
-14.38116
-16.39544
-18.84257
-21.69653
-24.6872
-27.35832
-29.15353
-29.46924
-27.81919
-24.02859
-18.2594
-11.01357
-3.062756
4.795753
11.89631
17.8287
22.50954
25.99986
28.4142
29.76101
30.00486
29.1046
27.1639
24.47817
21.45621
18.56964
16.16911
14.39049
13.17327
12.29566
11.45702
10.37891
8.88628
6.887447
4.437553
1.672768
-1.229198
-4.068359
-6.697235
-9.028664
-11.06459
-12.89993
-14.73299
-16.70324
-18.87174
-21.07211
-22.87955
-23.72287
-23.04208
-20.51726
-16.13518
-10.30695
-3.666939
3.048481
9.1749
14.21738
17.87442
20.0298
20.70789
20.12116
18.60049
16.52193
14.23219
11.97003
9.843361
7.837563
5.894508
3.94754
1.935299
-0.1846962
-2.499035
-5.028313
-7.783276
-10.63408
-13.42721
-15.97568
-18.20244
-20.16113
-22.04573
-24.12692
-26.53641
-29.30287
-32.19689
-34.75638
-36.41599
-36.57922
-34.7987
-30.89044
-25.03502
-17.66843
-9.433983
-1.027245
6.95649
14.04325
19.87754
24.20966
26.91461
27.98851
27.62534
26.1805
24.0518
21.57591
18.93678
16.23204
13.44843
10.57623
7.660454
4.760666
1.952019
-0.7075348
-3.206581
-5.584839
-7.886978
-10.15653
-12.49298
-14.95701
-17.68492
-20.75434
-24.17692
-27.80092
-31.27123
-34.02174
-35.41926
-34.90463
-32.16518
-27.2764
-20.64864
-12.91785
-4.762489
3.212364
10.53924
16.80293
21.71042
25.03791
26.62807
26.52243
25.0042
22.51151
19.57998
16.6792
14.06118
11.82825
9.889267
8.091965
6.237251
4.226112
1.993607
-0.4157639
-2.883469
-5.326233
-7.681473
-10.0135
-12.5092
-15.36057
-18.66876
-22.38411
-26.18277
-29.52786
-31.76846
-32.22256
-30.3517
-25.94893
-19.19389
-10.66267
-1.221405
8.257095
17.04253
24.60793
30.65984
35.03865
37.65282
38.49834
37.73727
35.71187
32.94629
29.97688
27.16766
24.60498
22.15375
19.53314
16.55908
13.19862
9.574783
5.949234
2.511124
-0.6804352
-3.690628
-6.64859
-9.613251
-12.55183
-15.40004
-18.15498
-20.92548
-23.89551
-27.13232
-30.38562
-33.04449
-34.17921
-32.91133
-28.75479
-21.85759
-12.97205
-3.158279
6.549149
15.45979
23.18056
29.53601
34.36574
37.50615
38.83066
38.41194
36.54149
33.68872
30.37151
26.95229
23.66202
20.6015
17.82472
15.34508
13.12247
10.98154
8.720352
6.15564
3.225525
0.03874207
-3.246078
-6.467957
-9.560547
-12.56224
-15.56657
-18.65225
-21.93637
-25.48578
-29.30325
-33.23802
-36.90251
-39.64098
-40.63843
-39.12239
-34.60204
-27.09741
-17.13478
-5.635239
6.291397
17.5217
27.13303
34.49777
39.38794
41.91998
42.50801
41.69199
39.99686
37.79903
35.27393
32.4973
29.48891
26.36743
23.28778
20.37517
17.68256
15.10992
12.50046
9.710648
6.722443
3.604034
0.4713287
-2.615982
-5.68129
-8.757339
-11.88646
-15.06169
-18.26741
-21.54044
-25.03859
-28.89877
-33.09059
-37.29199
-40.7952
-42.72128
-42.24574
-38.86057
-32.49947
-23.56206
-12.75958
-0.9737701
10.82066
21.70348
30.86311
37.72466
42.03894
43.91789
43.77728
42.22852
39.86533
37.14685
34.35431
31.56996
28.8255
26.08087
23.30386
20.54813
17.9294
15.57094
13.51106
11.74611
10.10287
8.402893
6.486771
4.260483
1.734756
-1.035324
-3.937164
-6.867432
-9.745728
-12.5896
-15.49854
-18.59398
-22.09993
-26.1376
-30.65565
-35.26338
-39.21645
-41.5477
-41.36371
-38.05711
-31.55443
-22.40112
-11.54164
-0.1755829
10.62344
20.04607
27.60027
33.04533
36.37192
37.71204
37.31033
35.54858
32.83272
29.5647
26.04144
22.42773
18.80803
15.20407
11.65453
8.242462
5.076447
2.202316
-0.3863831
-2.750107
-5.00885
-7.220215
-9.388916
-11.50597
-13.50414
-15.2751
-16.72882
-17.83684
-18.59694
-19.23834
-20.05893
-21.34631
-23.21959
-25.43303
-27.31654
-28.00253
-26.67816
-22.88861
-16.78217
-9.025085
-0.6116791
7.44873
14.33807
19.58246
22.99942
24.65175
24.75154
23.57007
21.40997
18.51913
15.16777
11.62013
8.139725
4.945831
2.208054
-0.04629517
-1.908752
-3.578308
-5.287552
-7.21965
-9.401901
-11.72743
-14.07283
-16.32399
-18.42868
-20.38951
-22.23276
-23.91652
-25.46274
-26.89182
-28.30635
-29.87827
-31.7486
-33.82401
-35.70332
-36.66978
-35.86751
-32.62088
-26.71061
-18.48022
-8.748573
1.451424
11.17699
19.76727
26.89449
32.46382
36.4775
38.92437
39.828
39.28475
37.55384
35.00946
32.06714
29.08891
26.27909
23.74502
21.41756
19.18768
16.86891
14.3477
11.54163
8.504196
5.409943
2.440208
-0.2322464
-2.567177
-4.631516
-6.571007
-8.521477
-10.55915
-12.69824
-14.88003
-17.01128
-18.81513
-19.83603
-19.42668
-16.91501
-11.85894
-4.223137
5.479164
16.32264
27.10854
36.80016
44.68829
50.52855
54.48608
56.8886
58.11214
58.40845
57.90022
56.48666
54.01646
50.20568
44.75017
37.45332
28.3121
17.6693
6.208611
-5.132347
-15.52413
-24.44444
-31.87238
-38.17309
-43.75917
-48.78959
-53.04998
-56.09547
-57.53864
-57.40582
-56.22002
-54.86128
-54.23621
-54.89894
-56.90994
-59.84363
-62.92877
-65.20963
-65.71628
-63.65531
-58.60767
-50.77664
-40.98209
-30.56223
-20.9692
-13.35766
-8.279381
-5.638103
-4.838047
-5.075645
-5.592403
-5.800812
-5.388268
-4.355667
-3.012066
-1.914238
-1.76181
-3.129333
-6.235306
-10.83007
-16.13465
-21.03859
-24.29187
-24.86572
-22.26299
-16.69417
-9.165916
-1.21096
5.492294
9.68824
10.88684
9.357941
5.84404
0.9752808
-4.971436
-12.0677
-20.29599
-29.12578
-37.25228
-42.94744
-44.71946
-42.04917
-35.65727
-27.27512
-18.88995
-11.98928
-7.114624
-3.970581
-1.846191
-0.1365967
1.321548
2.33345
2.592438
1.96228
0.7032623
-0.5589447
-1.084824
-0.2280426
2.316528
6.464188
11.83701
17.94948
24.33629
30.66011
36.7074
42.30553
47.25027
51.32834
54.42908
56.57262
57.92801
58.71532
59.13779
59.24692
59.02197
58.44485
57.59595
56.63986
55.79529
55.18192
54.73465
54.31964
53.76817
53.01147
52.13388
51.31554
50.6597
50.12959
49.49245
48.43752
46.77835
44.55534
42.03638
39.58755
37.45883
35.59822
33.72456
31.38452
28.17569
23.87326
18.45525
12.07312
4.936798
-2.731415
-10.7245
-18.82666
-26.81812
-34.44566
-41.4285
-47.48268
-52.34088
-55.65158
-57.05168
-56.1584
-52.65277
-46.47763
-37.89113
-27.50937
-16.20989
-4.939674
5.473099
14.44116
21.62796
26.88248
30.14828
31.41415
30.81155
28.56373
25.12056
21.03314
16.88943
13.1565
10.07516
7.70977
5.902756
4.405304
2.943825
1.366879
-0.4038887
-2.311943
-4.247803
-6.144028
-8.038971
-10.04889
-12.36047
-15.13128
-18.38373
-22.01605
-25.69746
-28.93628
-31.11864
-31.66272
-30.15177
-26.49525
-21.00773
-14.30227
-7.196791
-0.4392638
5.435477
10.1182
13.51875
15.59332
16.37261
15.90682
14.33494
11.87712
8.880707
5.702637
2.670689
0.0511837
-2.081306
-3.74168
-5.060726
-6.185478
-7.286953
-8.411861
-9.568268
-10.69395
-11.72389
-12.73679
-13.8686
-15.35944
-17.34891
-19.88136
-22.79899
-25.81786
-28.59837
-30.70901
-31.71474
-31.15855
-28.69223
-24.21426
-17.97165
-10.56477
-2.82634
4.424248
10.56175
15.19808
18.20979
19.58197
19.38988
17.81731
15.10918
11.58928
7.62616
3.551506
-0.3995667
-4.023201
-7.216812
-9.873894
-11.9241
-13.41572
-14.49871
-15.35355
-16.12607
-16.88319
-17.61073
-18.23228
-18.75346
-19.21866
-19.7
-20.27073
-20.87411
-21.30489
-21.26595
-20.39952
-18.39272
-15.06557
-10.38809
-4.554436
2.009796
8.706841
14.85728
19.81083
23.14973
24.68352
24.4886
22.8128
20.00454
16.43082
12.48682
8.524704
4.853249
1.676514
-0.9408951
-3.098961
-4.956985
-6.625114
-8.216179
-9.726929
-11.19246
-12.69656
-14.28819
-16.0154
-17.90414
-19.88507
-21.89543
-23.91541
-25.93318
-27.9111
-29.72232
-31.02211
-31.33984
-30.14421
-27.00209
-21.75272
-14.63739
-6.246735
2.63269
11.17183
18.71796
24.80841
29.22137
31.86501
32.76849
32.10069
30.20848
27.58379
24.74449
22.10345
19.80325
17.78108
15.85519
13.87187
11.82176
9.81636
8.009766
6.510971
5.362747
4.52153
3.833664
3.095993
1.986694
0.1566162
-2.675964
-6.548416
-11.1913
-15.9792
-20.10535
-22.78783
-23.41475
-21.65282
-17.50067
-11.25259
-3.440277
5.156509
13.60255
20.93076
26.28575
29.07066
29.08389
26.50864
21.91757
16.14325
10.14275
4.785416
0.716507
-1.792099
-2.867371
-2.958633
-2.66748
-2.529663
-2.920654
-3.916031
-5.419327
-7.215729
-9.084869
-10.86496
-12.49036
-13.90968
-15.1394
-16.20483
-17.14946
-17.98299
-18.65405
-18.96318
-18.60144
-17.18513
-14.40565
-10.23332
-4.90155
1.052567
7.006058
12.39165
16.8436
20.17274
22.26965
23.07552
22.52228
20.68729
17.77019
14.15114
10.3055
6.662247
3.518631
0.9818726
-0.9876556
-2.52626
-3.810806
-5.01593
-6.355774
-7.965317
-9.900452
-12.08675
-14.3994
-16.70908
-18.98608
-21.25893
-23.56853
-25.82159
-27.68777
-28.69475
-28.29964
-26.16876
-22.31065
-17.12006
-11.24582
-5.375977
-0.09298706
4.273956
7.472595
9.412827
10.07335
9.510666
7.949677
5.73613
3.340347
1.159531
-0.5228424
-1.729752
-2.592987
-3.264236
-3.860443
-4.415939
-4.970749
-5.566055
-6.278748
-7.109528
-8.053741
-9.01207
-9.942184
-10.89813
-12.07838
-13.67053
-15.73401
-18.02315
-19.98965
-20.95776
-20.29558
-17.68117
-13.20395
-7.262695
-0.4645996
6.530624
13.106
18.73656
23.02562
25.68652
26.63307
25.938
23.89909
20.97826
17.68991
14.52885
11.86914
9.873154
8.47139
7.454315
6.499664
5.388153
4.026794
2.478714
0.8513336
-0.77388
-2.429733
-4.275848
-6.457336
-9.058075
-11.9687
-14.92455
-17.54489
-19.38632
-20.04054
-19.12724
-16.43512
-11.98959
-6.068634
0.8003998
7.919617
14.59552
20.25565
24.52048
27.16681
28.14168
27.53104
25.59297
22.72749
19.43484
16.23021
13.45418
11.2197
9.393051
7.70903
5.922348
3.944977
1.79509
-0.3465271
-2.291397
-3.945816
-5.341049
-6.629898
-8.01738
-9.676483
-11.70326
-14.07822
-16.64397
-18.99704
-20.63997
-21.02859
-19.68269
-16.42448
-11.35634
-4.903831
2.261711
9.325638
15.50607
20.1398
22.83326
23.49676
22.31174
19.74491
16.39886
12.88237
9.670151
7.044533
5.045464
3.578102
2.447861
1.492836
0.6053391
-0.2870789
-1.199371
-2.158081
-3.206703
-4.341728
-5.55011
-6.822029
-8.219788
-9.885094
-12.01665
-14.68347
-17.65514
-20.35459
-21.95802
-21.65061
-18.97675
-14.03074
-7.420578
-0.08306885
7.07579
13.31903
18.19105
21.47115
23.09007
23.0607
21.5328
18.78902
15.25336
11.4213
7.704781
4.382965
1.557854
-0.8240509
-2.87738
-4.6875
-6.314537
-7.720192
-8.878883
-9.75795
-10.40498
-10.94228
-11.59901
-12.61339
-14.15388
-16.23577
-18.65141
-20.98742
-22.66661
-23.09734
-21.7797
-18.54549
-13.51115
-7.137886
-0.1397781
6.743828
12.89188
17.88308
21.55219
23.87454
24.90284
24.7218
23.42297
21.2029
18.37168
15.31786
12.4474
10.06649
8.243118
6.876434
5.745369
4.617317
3.36953
2.003822
0.5856323
-0.8547821
-2.379829
-4.149529
-6.33506
-9.055374
-12.23705
-15.63687
-18.79031
-21.15449
-22.1621
-21.41589
-18.72785
-14.15927
-8.038345
-0.9346848
6.408768
13.1916
18.71789
22.52973
24.42072
24.4593
22.94329
20.20419
16.62953
12.63263
8.5979
4.816528
1.527267
-1.244324
-3.59523
-5.637749
-7.464775
-9.0149
-10.14141
-10.73289
-10.8802
-10.89962
-11.22711
-12.30057
-14.32917
-17.27891
-20.74316
-24.13995
-26.74842
-27.88992
-27.04336
-23.93812
-18.66689
-11.67793
-3.764107
4.149612
11.15698
16.56567
20.04904
21.59576
21.41681
19.87883
17.40926
14.4021
11.22659
8.146469
5.302086
2.70813
0.3440475
-1.889435
-3.990402
-5.914436
-7.630089
-9.184875
-10.76064
-12.58366
-14.84027
-17.60207
-20.81212
-24.33384
-27.94341
-31.31715
-33.98762
-35.33593
-34.75883
-31.77669
-26.318
-18.7804
-9.91864
-0.6936646
8.019615
15.51092
21.30792
25.1096
26.85263
26.68712
24.98866
22.34875
19.40305
16.66972
14.41753
12.59541
10.92539
9.105278
6.937119
4.472282
1.92807
-0.4325447
-2.448486
-4.120312
-5.60239
-7.147903
-9.037674
-11.44187
-14.39622
-17.6996
-20.90984
-23.35773
-24.23449
-22.8167
-18.7186
-12.11144
-3.688942
5.483707
14.29219
21.82162
27.5058
31.201
33.00106
33.13486
31.86396
29.4987
26.38586
22.93119
19.56153
16.55475
14.0177
11.82996
9.74263
7.516296
5.053339
2.418818
-0.1749763
-2.48173
-4.37138
-5.853827
-7.109003
-8.414705
-10.06323
-12.26622
-15.03924
-18.11324
-20.92221
-22.69041
-22.62828
-20.20636
-15.33047
-8.362318
-0.05705833
8.658907
16.90511
23.93218
29.21705
32.50272
33.74221
33.09448
30.95059
27.78237
24.13425
20.45495
17.06637
14.09795
11.54526
9.223316
6.898726
4.419035
1.703736
-1.135795
-3.889508
-6.384392
-8.515556
-10.31714
-11.97929
-13.73964
-15.85192
-18.50543
-21.76443
-25.43754
-29.06532
-31.89241
-33.07912
-31.96249
-28.28003
-22.27853
-14.68581
-6.397217
1.754834
9.155238
15.42908
20.30243
23.5992
25.2022
25.18629
23.8167
21.5937
19.09566
16.75596
14.81043
13.22281
11.85647
10.55189
9.211442
7.85382
6.545053
5.407257
4.543919
4.019014
3.864229
3.989203
4.162524
3.994052
3.057413
1.050376
-2.054433
-5.905645
-9.843856
-13.01617
-14.57975
-13.92546
-10.78297
-5.294531
2.025787
10.41135
18.99736
26.95113
33.52773
38.16768
40.53895
40.54205
38.35535
34.38922
29.26075
23.62654
18.05241
12.94301
8.446859
4.518501
0.9993629
-2.314257
-5.537205
-8.641911
-11.47379
-13.87846
-15.77088
-17.21322
-18.48508
-19.94204
-21.91327
-24.62116
-28.05965
-32.00826
-36.12129
-39.93467
-42.84967
-44.23757
-43.48635
-40.18084
-34.30226
-26.2937
-16.9592
-7.327206
1.598953
9.078552
14.68044
18.25116
19.89868
19.85738
18.46732
16.20588
13.60628
11.19449
9.337185
8.178104
7.598812
7.319756
6.97311
6.289818
5.153259
3.592949
1.732109
-0.2932434
-2.478729
-4.866997
-7.596302
-10.83535
-14.69207
-19.12144
-23.86959
-28.41648
-32.06202
-34.05946
-33.78307
-30.9226
-25.5586
-18.16696
-9.515827
-0.5357018
7.930794
15.23423
20.9698
25.0049
27.32311
27.97136
27.04676
24.74929
21.42257
17.63668
14.02916
11.15765
9.290558
8.298874
7.77594
7.247055
6.365414
5.026035
3.337402
1.499065
-0.2987862
-2.009525
-3.701302
-5.519249
-7.664433
-10.29018
-13.49426
-17.23491
-21.25299
-25.03288
-27.862
-28.9722
-27.71384
-23.78611
-17.32448
-8.905659
0.5686989
10.04917
18.61689
25.60265
30.65594
33.74155
35.00096
34.64009
32.92262
30.15182
26.70913
23.06594
19.71393
16.96726
14.87416
13.17189
11.46372
9.400913
6.890999
4.157799
1.525692
-0.6934242
-2.453568
-3.950863
-5.521648
-7.463287
-9.911339
-12.83209
-16.06694
-19.38232
-22.43144
-24.75104
-25.75257
-24.84985
-21.65329
-16.147
-8.755333
-0.2706795
8.388756
16.34575
22.90895
27.60742
30.18058
30.60801
29.1037
26.10026
22.19313
17.97435
13.9115
10.24361
6.97501
4.033394
1.380611
-0.9309044
-2.787746
-4.090347
-4.903877
-5.433601
-5.966782
-6.751656
-7.956421
-9.633987
-11.8474
-14.63166
-17.95257
-21.68158
-25.42091
-28.55814
-30.36504
-30.22633
-27.8336
-23.29224
-17.06438
-9.819344
-2.352165
4.664551
10.64918
15.19068
17.97845
18.92699
18.11012
15.87124
12.7364
9.23027
5.828583
2.7435
-0.04999542
-2.679771
-5.251663
-7.785866
-10.23289
-12.50581
-14.60371
-16.52506
-18.24966
-19.74259
-20.92505
-21.83411
-22.67505
-23.80155
-25.54523
-28.06583
-31.09647
-33.97986
-35.82133
-35.72128
-33.08966
-27.78994
-20.21975
-11.11282
-1.460106
7.806351
15.90141
22.27103
26.64139
28.94817
29.34851
28.1813
25.91727
23.05929
20.10466
17.39437
15.04316
13.02612
11.18971
9.370144
7.458359
5.406929
3.230522
1.016666
-1.171619
-3.289829
-5.32375
-7.343254
-9.514423
-12.03899
-15.09073
-18.66092
-22.44336
-25.73869
-27.6903
-27.45531
-24.53152
-18.94157
-11.22371
-2.264797
6.9678
15.61182
23.03018
28.77
32.54599
34.17666
33.70265
31.38698
27.72215
23.36906
18.98685
15.04679
11.81934
9.338057
7.435078
5.814539
4.198484
2.377476
0.268034
-2.037195
-4.400303
-6.66799
-8.814804
-10.99618
-13.56779
-16.83371
-20.91798
-25.55799
-30.09071
-33.59143
-35.12829
-34.02223
-29.99051
-23.27516
-14.50889
-4.624041
5.353806
14.46184
21.94527
27.33212
30.40511
31.26544
30.2094
27.73169
24.38434
20.71859
17.24589
14.27213
11.94425
10.14646
8.654401
7.161066
5.455422
3.437601
1.190571
-1.086651
-3.179934
-4.972153
-6.543599
-8.097869
-9.948414
-12.29214
-15.2067
-18.45834
-21.52173
-23.68861
-24.16169
-22.31429
-17.83484
-10.92688
-2.246245
7.273048
16.61469
24.95189
31.71628
36.59825
39.42447
40.06005
38.45657
34.72038
29.32094
22.93999
16.42792
10.44321
5.337897
1.059814
-2.681237
-6.204632
-9.672609
-12.97378
-15.94467
-18.40357
-20.4164
-22.16726
-23.96966
-26.06972
-28.62729
-31.73059
-35.34229
-39.35426
-43.39391
-46.83265
-48.78119
-48.34115
-44.84161
-38.19772
-28.91713
-18.01346
-6.680246
4.051418
13.42379
20.98375
26.42406
29.55094
30.26353
28.72583
25.36781
20.92323
16.2063
11.94918
8.585163
6.191853
4.507294
3.117664
1.617668
-0.269352
-2.593189
-5.237495
-8.010254
-10.74386
-13.4053
-16.15801
-19.31804
-23.22354
-28.04569
-33.66471
-39.47524
-44.5198
-47.58795
-47.59277
-43.90262
-36.53771
-26.22617
-14.10352
-1.477943
10.60497
21.36574
30.33499
37.20186
41.72115
43.76633
43.37
40.91351
37.05188
32.674
28.57684
25.3301
23.01776
21.33449
19.72079
17.61731
14.6825
10.86431
6.435715
1.79599
-2.668304
-6.714783
-10.30217
-13.52928
-16.55928
-19.54848
-22.64713
-25.84746
-28.90349
-31.35185
-32.44481
-31.39555
-27.61438
-20.93968
-11.76346
-0.9990082
10.18585
20.70483
29.74142
36.8595
41.91399
44.95479
46.11113
45.61104
43.80246
41.13336
38.09219
35.05713
32.25494
29.64656
27.06146
24.29477
21.18394
17.68001
13.83826
9.747498
5.558334
1.476654
-2.280411
-5.548538
-8.244461
-10.48376
-12.57767
-14.95096
-18.01656
-21.89
-26.21397
-30.09589
-32.23524
-31.31183
-26.4467
-17.59428
-5.638412
7.874527
21.30441
33.34442
43.30016
50.94389
56.22176
58.92456
58.60808
54.74309
46.94791
35.28043
20.26433
2.928589
-15.3933
-33.17715
-49.04054
-62.0647
-72.06871
-79.82518
-86.81421
-94.69312
-104.4482
-115.6992
-126.4711
-133.6355
-134.0398
-125.7365
-108.9562
-86.2664
-61.95708
-40.73615
-26.32599
-20.46988
-22.5307
-29.82191
-38.37093
-43.91234
-42.82263
-32.93713
-13.95038
12.58395
43.71924
75.94434
105.9933
131.5074
151.2253
164.8629
172.8234
175.9174
175.201
171.8531
167.0483
161.6608
156.1414
150.4032
143.9552
136.3037
127.26
117.2234
107.2194
98.69135
92.96545
90.69977
91.35838
93.05661
92.89272
87.63541
74.69447
52.95584
23.21541
-11.93839
-48.73015
-83.08905
-111.5956
-132.1637
-144.3569
-149.2268
-148.7687
-145.2899
-140.7973
-136.6823
-133.5781
-131.4959
-129.8893
-127.9276
-124.6219
-119.0199
-110.5744
-99.36687
-86.12025
-72.01341
-58.25578
-45.6545
-34.47757
-24.52515
-15.4348
-7.040344
0.4954529
6.733383
11.14272
13.33794
13.16451
10.67412
6.159241
0.2418976
-6.104218
-11.51282
-14.52194
-13.98807
-9.454254
-1.3181
9.335815
21.08307
32.63449
42.98216
51.55763
58.09038
62.43495
64.6138
64.74637
63.08235
59.99782
55.89932
51.10194
45.86952
40.38498
34.71454
28.96024
23.2303
17.65196
12.40744
7.643646
3.376709
-0.4109497
-3.844193
-7.140244
-10.50842
-14.1534
-18.29591
-22.99297
-28.06752
-33.02376
-36.9761
-38.86873
-37.79306
-33.2545
-25.43498
-15.13599
-3.533798
8.073547
18.51921
26.96577
32.88622
36.05482
36.56181
34.74713
31.20139
26.68327
21.94966
17.59853
13.99095
11.11111
8.694992
6.358932
3.75679
0.7525635
-2.56015
-5.912079
-9.024506
-11.70627
-13.97844
-16.0499
-18.24902
-20.99094
-24.5728
-29.07472
-34.12727
-38.9277
-42.30846
-43.10123
-40.51064
-34.36909
-25.21696
-14.14151
-2.455612
8.64183
18.16568
25.43974
30.06758
31.87604
31.04135
28.05026
23.67799
18.74553
13.91963
9.551956
5.652573
2.126968
-1.195938
-4.36142
-7.321854
-10.00926
-12.41113
-14.57607
-16.58179
-18.51204
-20.43779
-22.51579
-24.98549
-28.14413
-32.13785
-36.7894
-41.4552
-45.1237
-46.64748
-45.08951
-40.02251
-31.63759
-20.69151
-8.292374
4.3685
16.23161
26.44887
34.4369
39.84265
42.59261
42.88426
41.1902
38.15689
34.47107
30.71194
27.23581
24.14774
21.38266
18.76706
16.10643
13.31519
10.39839
7.432755
4.533386
1.783981
-0.8408661
-3.518997
-6.590088
-10.39047
-15.07095
-20.41199
-25.74977
-30.03911
-32.12202
-31.07611
-26.50656
-18.7494
-8.722061
2.316208
13.13921
22.83771
30.90639
37.09018
41.23859
43.19916
42.86366
40.32875
36.077
30.9026
25.74686
21.33525
17.8911
15.16664
12.60463
9.709244
6.252441
2.391159
-1.531479
-5.144226
-8.271149
-11.00772
-13.57985
-16.25418
-19.24979
-22.66104
-26.46826
-30.51149
-34.43945
-37.64072
-39.31035
-38.53467
-34.66174
-27.5322
-17.64204
-6.099564
5.725586
16.55502
25.49937
32.10091
36.29861
38.11247
37.63788
35.01659
30.5813
24.93077
18.95546
13.5862
9.510941
7.008881
5.818085
5.367371
5.020996
4.34407
3.195206
1.736633
0.1717072
-1.4039
-3.07103
-5.08905
-7.755508
-11.29509
-15.79333
-21.11926
-26.92705
-32.60141
-37.29932
-40.04254
-39.97153
-36.582
-29.95137
-20.7679
-10.05788
1.035858
11.55577
20.76926
28.23875
33.59694
36.64317
37.32578
35.84413
32.70604
28.59555
24.23582
20.16301
16.70113
13.82425
11.39432
9.206268
7.076599
4.91243
2.691742
0.4624329
-1.697403
-3.757141
-5.802475
-8.020554
-10.64171
-13.92015
-18.03807
-23.00159
-28.54076
-34.01236
-38.44968
-40.76712
-39.9926
-35.59644
-27.71342
-17.08292
-4.932892
7.405945
18.73645
28.21329
35.29948
39.73981
41.48116
40.64757
37.63593
33.06076
27.73625
22.39807
17.64337
13.69498
10.44388
7.581329
4.739349
1.693375
-1.540848
-4.804535
-7.910873
-10.70334
-13.17145
-15.4212
-17.62968
-20.02164
-22.81088
-26.19801
-30.27707
-34.96727
-39.87021
-44.29131
-47.29279
-47.88023
-45.31245
-39.33461
-30.29843
-19.12589
-7.039505
4.735809
15.19737
23.70988
30.02678
34.11896
36.1064
36.16949
34.50316
31.4388
27.44211
23.06496
18.87369
15.2953
12.46466
10.24924
8.295746
6.209137
3.720444
0.8096313
-2.325226
-5.350357
-7.96582
-10.04962
-11.75156
-13.47121
-15.7131
-18.91765
-23.24417
-28.42537
-33.76872
-38.29984
-40.93544
-40.82994
-37.58064
-31.31728
-22.59775
-12.26097
-1.226883
9.634232
19.56902
28.01439
34.57884
39.07922
41.466
41.8718
40.59872
38.08612
34.86742
31.46742
28.30124
25.58565
23.29048
21.15114
18.80539
15.95044
12.49789
8.578781
4.50293
0.6359863
-2.778534
-5.660324
-8.139374
-10.54276
-13.30241
-16.74394
-21.08345
-26.21321
-31.65257
-36.58473
-39.95195
-40.69632
-38.02048
-31.66733
-22.04713
-10.16754
2.602127
14.80966
25.27788
33.24054
38.38219
40.72446
40.49495
38.10518
34.08231
29.1312
24.00934
19.44197
15.94374
13.67519
12.40036
11.66136
10.92082
9.771362
8.033295
5.748001
3.055695
0.1682281
-2.747421
-5.59111
-8.294922
-10.8718
-13.43533
-16.20206
-19.45999
-23.42657
-28.1048
-33.15895
-37.8308
-41.1169
-41.94833
-39.54611
-33.62839
-24.56493
-13.30974
-1.144363
10.5775
20.77136
28.72153
34.17191
37.16129
37.9899
37.02361
34.73526
31.65277
28.29356
25.0993
22.34966
20.11383
18.29735
16.7182
15.13275
13.37537
11.35248
9.020874
6.372292
3.430206
0.2399063
-3.135666
-6.557884
-9.914024
-13.11954
-16.17347
-19.24591
-22.54157
-26.24028
-30.27099
-34.24331
-37.48183
-39.14716
-38.48675
-34.98997
-28.59154
-19.66251
-8.970901
2.412071
13.37416
22.90134
30.27904
35.13754
37.48457
37.53016
35.66225
32.32785
28.01907
23.26241
18.59364
14.40853
10.90532
8.079582
5.717735
3.594315
1.513618
-0.6733551
-3.015358
-5.541222
-8.249039
-11.13435
-14.09792
-17.06735
-19.98612
-22.86127
-25.81669
-28.98656
-32.48093
-36.26148
-40.01015
-43.11176
-44.76785
-44.15561
-40.69547
-34.29504
-25.37617
-14.81647
-3.713379
6.869656
16.13162
23.52532
28.75694
31.71984
32.42508
31.08967
28.08121
23.98249
19.47459
15.22923
11.78218
9.406521
8.081768
7.458805
7.05806
6.371235
5.061119
3.046749
0.4911919
-2.31702
-5.121593
-7.78854
-10.42638
-13.22173
-16.38856
-20.06662
-24.28073
-28.91706
-33.62066
-37.86609
-40.87613
-41.81609
-39.91297
-34.79625
-26.5842
-16.01721
-4.249641
7.454262
17.96228
26.53502
32.82584
36.7927
38.58685
38.49985
36.84624
34.0232
30.50356
26.75698
23.2273
20.18314
17.69142
15.57804
13.54181
11.24827
8.450399
5.072903
1.198343
-2.963531
-7.129671
-11.12539
-14.86107
-18.36306
-21.73738
-25.1447
-28.71104
-32.51435
-36.45896
-40.18987
-43.10366
-44.43327
-43.42465
-39.58168
-32.87881
-23.76712
-13.09377
-1.876095
8.921623
18.52579
26.39026
32.20968
35.84263
37.34436
36.93388
35.00146
32.10008
28.83657
25.79457
23.38247
21.76745
20.80002
20.15025
19.39031
18.19209
16.42947
14.16961
11.64031
9.048956
6.549554
4.145517
1.710212
-0.9723167
-4.14658
-8.007296
-12.58407
-17.66512
-22.75974
-27.11696
-29.86643
-30.21992
-27.70694
-22.29646
-14.45701
-5.054512
4.856917
14.24078
22.24971
28.35835
32.26415
33.88881
33.36201
30.96426
27.17873
22.64911
18.10705
14.21772
11.36956
9.570984
8.489563
7.629921
6.501074
4.894245
2.829662
0.4679546
-1.959696
-4.326937
-6.623919
-8.952398
-11.4575
-14.33552
-17.73996
-21.71125
-26.17663
-30.77437
-34.91699
-37.79836
-38.63862
-36.84637
-32.24106
-25.08446
-16.06682
-6.199753
3.47916
12.05518
18.93946
23.87045
26.86408
28.09274
27.74356
26.05556
23.25707
19.74385
15.93944
12.2971
9.099907
6.372452
3.932747
1.476631
-1.179962
-4.058899
-6.930458
-9.53434
-11.63223
-13.16464
-14.26758
-15.22722
-16.39481
-18.01444
-20.20598
-22.81278
-25.44273
-27.48316
-28.23275
-27.10835
-23.79685
-18.33668
-11.09399
-2.727592
5.989326
14.22376
21.216
26.31068
29.07545
29.33392
27.23012
23.20602
17.92198
12.05208
6.231964
0.8699646
-3.835884
-7.891319
-11.34229
-14.24001
-16.63586
-18.59998
-20.25983
-21.7602
-23.28345
-24.90304
-26.65603
-28.52345
-30.55518
-32.84572
-35.49557
-38.45728
-41.3502
-43.49475
-44.02802
-42.18762
-37.59586
-30.43092
-21.32399
-11.20937
-1.031357
8.426468
16.58503
23.0466
27.57923
30.06516
30.62845
29.5995
27.56293
25.12418
22.80687
20.88234
19.29891
17.82637
16.15112
14.10644
11.65376
8.991974
6.294609
3.743118
1.324928
-1.125069
-3.846642
-7.123138
-11.12419
-15.83176
-20.955
-25.95551
-30.00852
-32.212
-31.82128
-28.44939
-22.24958
-13.86779
-4.287716
5.434971
14.39489
21.91337
27.57313
31.08884
32.37472
31.4906
28.77638
24.83051
20.40203
16.22064
12.75197
10.1127
8.039864
6.152901
4.091484
1.717155
-0.8327637
-3.307175
-5.463871
-7.232143
-8.746128
-10.32136
-12.28579
-14.91515
-18.34733
-22.48559
-26.9916
-31.2213
-34.32327
-35.38069
-33.66216
-28.87309
-21.28027
-11.67586
-1.075649
9.475197
19.1359
27.30345
33.55512
37.52064
38.93473
37.72358
34.1105
28.76016
22.5681
16.52139
11.36631
7.503796
4.907063
3.285793
2.25366
1.463245
0.7383461
-0.02168846
-0.8486309
-1.861677
-3.274879
-5.390104
-8.508947
-12.80547
-18.27647
-24.67034
-31.46568
-37.88441
-42.93831
-45.59535
-44.95283
-40.5158
-32.41407
-21.44748
-8.835986
4.024352
15.96042
26.12746
34.02773
39.42348
42.21074
42.46486
40.45703
36.77103
32.1724
27.48755
23.33513
19.97363
17.30534
14.97267
12.54432
9.699041
6.323249
2.546378
-1.335942
-4.976182
-8.142175
-10.82725
-13.30291
-15.96395
-19.22126
-23.32182
-28.1544
-33.22017
-37.65622
-40.46139
-40.70663
-37.88
-31.95222
-23.43376
-13.18645
-2.188757
8.635663
18.49307
26.74109
32.83739
36.38664
37.24483
35.60122
32.02254
27.31714
22.34831
17.78572
13.95031
10.80667
8.083843
5.452429
2.708326
-0.1747684
-3.053429
-5.743919
-8.110903
-10.12579
-11.94908
-13.88063
-16.28166
-19.518
-23.82158
-29.13917
-35.03345
-40.67811
-44.93147
-46.62953
-44.87658
-39.33384
-30.32974
-18.80132
-6.063538
6.482838
17.61591
26.48523
32.66741
36.08331
36.93594
35.67284
32.86006
29.17036
25.22471
21.52082
18.36759
15.81764
13.67789
11.6598
9.434265
6.830173
3.873226
0.7745972
-2.198597
-4.823429
-7.040821
-9.053165
-11.21568
-13.98655
-17.73517
-22.56391
-28.15506
-33.77792
-38.35397
-40.71241
-39.89252
-35.37382
-27.31281
-16.49167
-4.095711
8.603889
20.46145
30.65216
38.63824
44.12948
47.01752
47.3247
45.31005
41.47263
36.51476
31.22932
26.27632
22.02183
18.52152
15.6501
13.19213
10.99119
8.96328
7.026039
5.063011
2.918419
0.4498978
-2.389862
-5.508316
-8.778687
-12.16117
-15.73695
-19.68046
-23.98971
-28.31638
-31.92091
-33.75974
-32.89207
-28.79946
-21.60397
-12.01604
-1.139191
9.874077
20.05761
28.73297
35.52867
40.20286
42.6254
42.82387
41.02054
37.6596
33.3922
28.90539
24.77501
21.37711
18.77034
16.72639
14.89211
12.92094
10.56143
7.759827
4.652374
1.42894
-1.689468
-4.560974
-7.17382
-9.602768
-11.99001
-14.53571
-17.46599
-20.93213
-24.96104
-29.34502
-33.51263
-36.605
-37.64826
-35.84757
-30.89203
-23.06506
-13.22033
-2.495949
7.958977
17.24763
24.80618
30.38977
33.94623
35.53901
35.36691
33.70247
30.88799
27.36502
23.58867
19.95689
16.78531
14.28743
12.49035
11.2635
10.29706
9.1497
7.451668
5.031681
1.958229
-1.480511
-4.929966
-8.11409
-10.96643
-13.57414
-16.23139
-19.15728
-22.47385
-26.06255
-29.5545
-32.31052
-33.58129
-32.66506
-29.11075
-22.98595
-14.7871
-5.448002
4.022125
12.69716
19.95333
25.45298
29.12757
31.04007
31.33876
30.22417
27.98274
24.98899
21.67337
18.43167
15.5132
13.02214
10.88375
8.967886
7.081166
5.088943
2.919617
0.5958033
-1.822764
-4.232227
-6.525183
-8.650417
-10.62574
-12.56306
-14.63191
-17.06386
-20.00402
-23.4404
-27.14245
-30.63273
-33.20393
-34.08569
-32.68333
-28.68272
-22.2519
-14.00211
-4.831924
4.26742
12.42557
19.02705
23.75552
26.55671
27.54465
26.9935
25.25424
22.78792
20.05061
17.44339
15.21651
13.50448
12.23346
11.2566
10.3385
9.260017
7.855072
6.04575
3.895416
1.518272
-0.8990097
-3.218674
-5.362568
-7.344269
-9.231499
-11.12383
-13.22776
-15.71995
-18.7272
-22.15691
-25.65232
-28.54054
-30.01119
-29.35581
-26.19818
-20.65664
-13.24099
-4.758747
3.954044
12.11073
19.06462
24.36359
27.73399
29.16431
28.88171
27.27701
24.80894
21.87891
18.75455
15.5878
12.54156
9.74791
7.324547
5.334877
3.689644
2.208847
0.7023697
-0.9555206
-2.815804
-4.806198
-6.875031
-8.950844
-11.05003
-13.1947
-15.40211
-17.7132
-20.14533
-22.78706
-25.67261
-28.76026
-31.74679
-34.06763
-34.95293
-33.65617
-29.81484
-23.57381
-15.60101
-6.913918
1.484467
8.870003
14.87708
19.4094
22.49422
24.14623
24.34069
23.13432
20.75052
17.61951
14.31415
11.40378
9.201843
7.730713
6.712875
5.80294
4.674202
3.162727
1.221901
-1.04184
-3.487503
-6.020721
-8.550613
-11.01381
-13.39383
-15.73491
-18.21904
-21.06868
-24.43958
-28.33604
-32.45035
-36.21718
-38.92343
-39.85541
-38.48871
-34.67015
-28.63515
-21.00114
-12.63908
-4.47229
2.712555
8.347214
12.14206
14.07652
14.26782
12.99257
10.61128
7.615555
4.527908
1.921219
0.188446
-0.5417328
-0.3651428
0.3766632
1.2957
2.050354
2.454071
2.437119
2.07515
1.408966
0.4493866
-0.8353882
-2.518997
-4.61409
-7.102524
-9.943489
-13.08576
-16.44363
-19.83509
-22.85959
-24.84782
-25.0327
-22.70009
-17.49041
-9.590912
0.2660751
10.96943
21.29463
30.17735
36.96324
41.31501
43.24129
42.95466
40.76974
37.06381
32.259
26.79369
21.09857
15.59857
10.5721
6.175125
2.420319
-0.7720337
-3.472565
-5.724365
-7.533401
-8.922043
-9.950935
-10.76788
-11.51867
-12.34782
-13.40067
-14.78053
-16.57862
-18.87711
-21.63605
-24.60809
-27.29257
-28.94041
-28.72816
-26.10701
-20.95696
-13.68113
-5.081619
3.916756
12.50523
20.07115
26.27766
30.87056
33.66928
34.56783
33.59799
31.06495
27.51012
23.60343
19.85648
16.58928
13.79769
11.31483
8.937721
6.543633
4.137817
1.761101
-0.5114288
-2.720924
-4.873062
-7.050751
-9.281258
-11.57217
-13.9733
-16.63916
-19.73544
-23.30669
-27.16598
-30.73631
-33.22009
-33.84234
-32.05298
-27.80264
-21.47688
-13.82269
-5.63208
2.376053
9.711189
15.99603
20.93687
24.32003
25.97058
25.87226
24.19016
21.34013
17.83873
14.24818
11.04642
8.502129
6.649872
5.279335
4.096397
2.801773
1.217834
-0.6581955
-2.730019
-4.864182
-6.988037
-9.089485
-11.26773
-13.66232
-16.40297
-19.60246
-23.228
-27.06236
-30.66995
-33.42972
-34.60007
-33.56732
-29.98939
-23.90688
-15.80185
-6.483253
3.092033
12.02197
19.56928
25.26984
28.9414
30.64001
30.58253
29.11514
26.66404
23.65881
20.53178
17.64447
15.21493
13.32308
11.86997
10.61849
9.256081
7.570221
5.445602
2.964615
0.3293533
-2.268616
-4.738258
-7.137825
-9.645409
-12.47209
-15.73175
-19.43354
-23.46519
-27.5777
-31.37402
-34.30209
-35.72717
-35.00654
-31.71238
-25.76872
-17.5988
-8.034241
1.884544
11.08499
18.81942
24.62257
28.40434
30.28602
30.46893
29.23494
26.90804
23.89042
20.6082
17.50955
14.86596
12.80703
11.22599
9.872108
8.45459
6.769348
4.738205
2.417564
-0.03610229
-2.489594
-4.842087
-7.135681
-9.522057
-12.19733
-15.3547
-19.1061
-23.38943
-27.93608
-32.26684
-35.71016
-37.53289
-37.10329
-34.04184
-28.38759
-20.61568
-11.48946
-1.946808
7.109932
14.98051
21.17511
25.44241
27.72979
28.11136
26.79919
24.17451
20.71397
16.95519
13.36347
10.21099
7.550758
5.211288
2.889343
0.3435211
-2.533524
-5.671196
-8.918724
-12.07314
-15.04015
-17.77987
-20.35414
-22.90294
-25.6105
-28.67368
-32.23663
-36.28494
-40.47557
-44.21629
-46.64713
-46.85665
-44.16938
-38.34205
-29.63214
-18.80003
-6.898582
4.987247
15.87947
25.06527
32.09295
36.73871
38.97989
38.9772
37.07651
33.799
29.77506
25.62418
21.84394
18.72277
16.28458
14.35839
12.65266
10.90412
8.94561
6.771355
4.473715
2.194569
0.01263428
-2.14728
-4.443218
-7.152729
-10.53199
-14.69345
-19.49442
-24.51767
-29.02685
-32.10772
-32.89843
-30.80991
-25.70891
-17.99376
-8.41784
2.047953
12.42209
21.8723
29.80812
35.83797
39.74053
41.46456
41.1091
38.9762
35.50409
31.25631
26.80313
22.63833
19.07602
16.16674
13.78862
11.66124
9.512465
7.131152
4.442332
1.512991
-1.482815
-4.351963
-6.953005
-9.274052
-11.48605
-13.90583
-16.87878
-20.62327
-25.0237
-29.61185
-33.55416
-35.82676
-35.47461
-31.98264
-25.37407
-16.29017
-5.799765
4.95265
14.98035
23.63017
30.58119
35.67574
38.79214
39.89452
39.05746
36.56348
32.9464
28.84451
24.82838
21.2756
18.28695
15.72864
13.40905
11.14093
8.842308
6.50227
4.201614
1.987974
-0.1053467
-2.115931
-4.124783
-6.281189
-8.821945
-11.99713
-15.97504
-20.73652
-25.94012
-30.94434
-34.89003
-36.88119
-36.2576
-32.80798
-26.70217
-18.48213
-8.943491
1.083447
10.77204
19.3534
26.23114
31.04463
33.6979
34.41602
33.61223
31.73499
29.195
26.27377
23.16218
19.96742
16.80545
13.71806
10.73521
7.819729
4.905106
1.98563
-0.8890839
-3.59584
-5.99721
-8.053686
-9.912846
-11.88422
-14.38834
-17.72159
-21.88665
-26.52784
-31.014
-34.50251
-36.25111
-35.74697
-32.7401
-27.3066
-19.75496
-10.61222
-0.6303024
9.238535
18.03875
24.96413
29.56554
31.77596
31.84764
30.15419
27.05574
22.92941
18.13343
13.1436
8.485819
4.610207
1.699879
-0.3706207
-2.015662
-3.700917
-5.691725
-8.02359
-10.42549
-12.58437
-14.30851
-15.65335
-16.96962
-18.77219
-21.5274
-25.4188
-30.22821
-35.30867
-39.68899
-42.36559
-42.50925
-39.69341
-33.92416
-25.63057
-15.53404
-4.568926
6.270725
16.08542
24.10518
29.88788
33.25071
34.35682
33.55249
31.36794
28.32643
24.92614
21.52668
18.35489
15.53078
12.99024
10.58881
8.115549
5.406818
2.398087
-0.8125916
-3.970745
-6.784416
-9.043972
-10.77629
-12.32121
-14.21986
-17.0146
-20.94681
-25.79793
-30.81758
-34.92156
-37.0062
-36.25914
-32.40759
-25.71695
-16.87865
-6.777725
3.672028
13.68645
22.63548
30.04068
35.53299
38.87449
40.01347
39.09932
36.52227
32.84784
28.70251
24.63482
21.01741
17.95941
15.34673
12.93807
10.53396
8.027817
5.447742
2.871838
0.3906746
-1.941757
-4.175259
-6.432575
-8.912842
-11.84392
-15.42992
-19.73986
-24.55146
-29.30858
-33.10503
-34.8894
-33.80295
-29.46061
-22.07735
-12.42098
-1.59639
9.211979
18.98711
26.99244
32.82025
36.33822
37.62992
36.93669
34.6522
31.22335
27.16003
22.96129
19.05547
15.73792
13.11036
11.0511
9.270847
7.47723
5.464252
3.215858
0.8714294
-1.42992
-3.594002
-5.67091
-7.833302
-10.3251
-13.32572
-16.92747
-21.09418
-25.61056
-30.07784
-33.85656
-36.14613
-36.15281
-33.36293
-27.7024
-19.62617
-9.987934
0.2268753
10.0759
18.85433
26.08128
31.42791
34.69996
35.82746
34.96763
32.52144
29.1289
25.49244
22.15839
19.42051
17.25913
15.49072
13.80108
11.96836
9.871519
7.484205
4.839024
2.006794
-0.9173241
-3.83424
-6.654366
-9.351011
-12.01065
-14.8091
-17.98508
-21.72118
-25.95737
-30.26337
-33.98134
-36.26368
-36.36251
-33.82182
-28.63124
-21.17883
-12.21188
-2.642778
6.609079
14.68384
20.95452
25.06735
26.91701
26.65228
24.58767
21.19741
17.0293
12.67524
8.632744
5.231526
2.505433
0.233283
-1.896297
-4.159275
-6.635398
-9.214858
-11.69102
-13.95513
-15.95384
-17.81314
-19.76556
-22.03848
-24.82909
-28.2497
-32.22953
-36.42644
-40.25207
-42.84375
-43.33526
-41.08296
-35.86442
-27.96389
-18.12417
-7.356283
3.301289
12.94049
20.92455
26.83948
30.50198
31.93373
31.31441
29.02717
25.61933
21.72235
17.94745
14.75378
12.27615
10.36551
8.698429
6.941385
4.94005
2.777969
0.6948891
-1.10605
-2.523159
-3.684406
-4.885857
-6.458282
-8.725586
-11.88763
-15.98611
-20.78583
-25.79112
-30.18357
-32.93904
-33.10447
-30.05379
-23.75354
-14.79714
-4.239132
6.691151
16.90467
25.61607
32.40078
37.06586
39.59057
40.00096
38.49692
35.49786
31.62255
27.57491
23.92093
20.92659
18.48933
16.27776
13.89911
11.14518
8.028099
4.757717
1.552219
-1.433296
-4.145008
-6.674599
-9.180397
-11.83972
-14.90718
-18.60419
-23.06006
-28.16824
-33.50052
-38.27742
-41.51282
-42.24121
-39.77029
-33.94918
-25.16223
-14.25104
-2.307236
9.532276
20.23995
29.00289
35.28174
38.87003
39.88326
38.74586
36.07984
32.53201
28.67361
24.92926
21.53365
18.5797
16.0597
13.8542
11.81189
9.766338
7.578819
5.164356
2.52919
-0.2476692
-3.067402
-5.81142
-8.426659
-10.95384
-13.54907
-16.48737
-20.05278
-24.42867
-29.5315
-34.89856
-39.71781
-42.98801
-43.72179
-41.23993
-35.35259
-26.39487
-15.18464
-2.843475
9.414478
20.51097
29.63882
36.33341
40.46082
42.15201
41.75056
39.73114
36.66108
33.05285
29.36971
25.90278
22.81778
20.13902
17.76292
15.50953
13.15797
10.53271
7.526489
4.194447
0.7258224
-2.66906
-5.854794
-8.831509
-11.71058
-14.63342
-17.68369
-20.90725
-24.3182
-27.91373
-31.66255
-35.3192
-38.33138
-39.87158
-39.07794
-35.38535
-28.76369
-19.81347
-9.513783
1.003996
10.76526
19.11112
25.64148
30.10367
32.37383
32.4594
30.59359
27.2747
23.18406
19.03575
15.37932
12.49546
10.34391
8.663042
7.096504
5.362438
3.274313
0.8041058
-1.953659
-4.857479
-7.757103
-10.5459
-13.17252
-15.69377
-18.23944
-20.991
-24.08514
-27.58396
-31.38705
-35.15668
-38.25611
-39.83408
-39.0699
-35.41728
-28.84795
-19.8561
-9.385332
1.423027
11.51797
20.13255
26.81377
31.35942
33.70235
33.9129
32.20949
29.00996
24.87773
20.44449
16.23877
12.57596
9.542404
7.019848
4.805716
2.687607
0.5475197
-1.682148
-3.997601
-6.354116
-8.72316
-11.09189
-13.52413
-16.17306
-19.27961
-23.0472
-27.60134
-32.81318
-38.26369
-43.25644
-46.85522
-48.10841
-46.32068
-41.24866
-33.1829
-22.92264
-11.54729
-0.1492691
10.34736
19.28079
26.20886
30.8576
33.08115
32.98734
30.89762
27.40835
23.22617
18.9908
15.15201
11.88937
9.165157
6.835815
4.714626
2.65583
0.5310936
-1.735271
-4.180229
-6.776821
-9.499439
-12.32209
-15.26495
-18.45122
-22.06541
-26.30286
-31.25157
-36.75825
-42.25151
-46.80479
-49.33658
-48.83827
-44.76258
-37.19088
-26.82434
-14.79157
-2.388084
9.31842
19.56522
27.88999
34.07632
38.0337
39.7942
39.5512
37.71466
34.88453
31.77917
29.09444
27.25483
26.32922
26.03215
25.87634
25.3672
24.21399
22.37428
20.01001
17.34586
14.54091
11.62339
8.444626
4.804924
0.5464859
-4.384735
-9.929863
-15.93523
-22.09878
-27.94949
-32.76497
-35.73996
-36.10883
-33.37579
-27.57366
-19.32545
-9.659729
0.2301941
9.270752
16.78403
22.41637
26.09853
27.91982
28.01022
26.55333
23.8399
20.27763
16.40141
12.78673
9.9263
8.087326
7.206009
6.898819
6.649689
5.978851
4.643631
2.702316
0.4634399
-1.683411
-3.538956
-5.129486
-6.828033
-9.112228
-12.42273
-16.95731
-22.59378
-28.77289
-34.64053
-39.14218
-41.25407
-40.2905
-36.04691
-28.95854
-19.92664
-10.14906
-0.8204498
7.117188
13.07397
16.89879
18.71623
18.81728
17.50735
15.03479
11.53143
7.142395
2.152756
-2.912125
-7.237961
-9.986923
-10.55182
-8.726791
-4.757156
0.9431152
8.037918
16.36378
25.85374
36.3131
47.12329
57.26814
65.46964
70.47893
71.49809
68.39136
61.76357
52.79492
42.94568
33.49409
25.21724
18.19695
11.87906
5.441238
-1.897903
-10.5271
-20.39032
-31.02148
-41.74438
-51.89461
-61.08913
-69.37624
-77.2299
-85.44008
-94.68607
-105.2204
-116.6825
-128.2929
-139.1078
-148.2338
-154.7639
-157.5563
-155.1841
-146.2069
-129.8774
-106.9278
-79.83649
-52.40851
-28.742
-11.92813
-3.24588
-2.091553
-6.434387
-13.61743
-21.12061
-26.92801
-29.78256
-29.2438
-25.74585
-20.47501
-14.94736
-10.18323
-5.904602
-0.2314453
9.886383
27.20615
52.66324
84.49365
118.7204
150.7278
177.2167
197.2775
212.0546
223.318
231.9018
236.9142
236.2777
227.9872
211.2838
187.1217
157.6797
125.432
92.54074
60.71619
31.49756
6.558014
-12.34064
-23.82776
-27.32959
-23.2197
-12.61862
3.18158
23.07162
46.05457
70.89938
95.65961
117.5307
133.3842
140.6746
138.3247
127.1229
109.3305
87.75977
64.95157
42.64764
21.77182
2.776733
-14.07108
-28.56464
-40.61578
-50.39566
-58.41983
-65.36087
-71.88016
-78.37433
-84.80222
-90.76199
-95.60962
-98.67905
-99.55386
-98.29903
-95.41516
-91.73476
-88.10881
-85.15628
-83.18025
-82.15459
-81.78113
-81.60635
-81.06181
-79.51538
-76.43756
-71.49396
-64.68155
-56.38185
-47.29932
-38.27664
-30.07487
-23.21239
-17.87068
-13.9791
-11.3045
-9.518784
-8.264893
-7.096909
-5.515915
-3.053787
0.6116943
5.511673
11.35335
17.62363
23.72255
29.16055
33.64873
37.12115
39.66687
41.45599
42.6125
43.17471
43.07483
42.12502
40.07874
36.74217
32.08044
26.26117
19.72743
13.13499
7.23233
2.747849
0.2428741
-0.04866028
1.796265
5.340729
9.897644
14.78459
19.42314
23.45088
26.69798
29.11522
30.71185
31.52333
31.61923
31.09153
30.08501
28.73312
27.08637
25.0833
22.5628
19.34866
15.39294
10.84682
6.099388
1.662354
-2.040588
-4.833107
-6.839569
-8.469345
-10.29302
-12.85131
-16.55209
-21.55325
-27.68435
-34.48849
-41.16365
-46.71296
-50.17109
-50.92498
-48.88609
-44.54115
-38.76048
-32.52649
-26.70368
-21.89773
-18.49144
-16.66465
-16.41483
-17.52541
-19.51645
-21.82912
-23.94067
-25.58247
-26.81905
-27.91876
-29.12444
-30.34734
-31.19123
-30.99054
-29.21453
-25.61851
-20.38432
-13.98344
-6.926461
0.4022655
7.821135
15.13496
22.09977
28.25795
33.21889
36.77635
38.97358
40.06983
40.29262
39.71527
38.1257
35.29303
31.05558
25.58597
19.32938
12.80915
6.512526
0.7179222
-4.436256
-8.918228
-12.69701
-15.75846
-18.12621
-19.89851
-21.25157
-22.3558
-23.29408
-23.98264
-24.19383
-23.63454
-22.15069
-19.8378
-17.06622
-14.38958
-12.27508
-10.98103
-10.48624
-10.67508
-11.48275
-13.01855
-15.4255
-18.64083
-22.17857
-25.10656
-26.32524
-24.92931
-20.62256
-13.77085
-5.245216
3.954624
13.04663
21.55323
29.27557
36.03951
41.5649
45.44823
47.3195
47.02596
44.74715
41.00771
36.43834
31.64452
26.96297
22.43788
17.91066
13.17531
8.122162
2.870743
-2.253296
-6.833183
-10.51721
-13.11629
-14.56802
-14.91545
-14.19838
-12.50642
-10.06006
-7.2146
-4.42627
-1.958595
0.2092361
2.423592
5.169746
8.810471
13.45281
18.97064
25.16209
31.80165
38.65482
45.27283
50.8421
54.32912
54.70282
51.41971
44.67453
35.37292
24.80424
14.18382
4.372772
-4.268311
-11.68994
-17.96812
-23.19038
-27.44966
-30.85715
-33.61983
-36.01782
-38.22743
-40.26479
-41.91505
-42.86272
-42.84636
-41.85135
-40.15363
-38.18068
-36.41133
-35.09886
-34.18661
-33.27582
-31.78076
-29.13666
-25.06242
-19.72023
-13.58899
-7.416565
-1.831253
2.745117
6.20108
8.660934
10.31512
11.33699
11.77364
11.63248
10.87778
9.56279
7.784683
5.745819
3.688904
1.848755
0.352005
-0.803009
-1.71936
-2.57991
-3.510178
-4.585449
-5.83049
-7.262054
-8.907578
-10.87537
-13.25853
-16.16614
-19.62207
-23.53062
-27.68781
-31.81102
-35.53735
-38.51604
-40.45599
-41.12114
-40.45163
-38.51053
-35.52078
-31.7574
-27.55283
-23.17618
-18.8365
-14.68294
-10.83174
-7.482544
-4.901535
-3.318878
-2.794586
-3.091492
-3.666367
-3.853653
-3.173065
-1.541367
0.6663361
2.715881
3.890503
3.709686
2.07399
-0.7802277
-4.465454
-8.539597
-12.59123
-16.14038
-18.67268
-19.71564
-19.07433
-17.01047
-14.21173
-11.48235
-9.28067
-7.327423
-4.64183
0.05485535
7.721054
18.46967
31.50359
45.42865
58.82014
70.67174
80.54601
88.30431
93.80333
96.72845
96.64124
93.2075
86.49962
77.06192
65.77234
53.64529
41.50102
29.86623
18.94049
8.756149
-0.6822205
-9.245895
-16.66684
-22.69159
-27.19176
-30.32855
-32.52805
-34.40742
-36.60825
-39.49837
-43.09824
-46.95572
-50.28622
-52.13509
-51.57677
-47.98785
-41.216
-31.64359
-20.13155
-7.892563
3.729568
13.55434
20.74814
24.91232
26.09692
24.67271
21.18138
16.29214
10.69559
5.128906
0.2884674
-3.32103
-5.537262
-6.614075
-7.086212
-7.502731
-8.186737
-9.128922
-10.04279
-10.60912
-10.74243
-10.64743
-10.72105
-11.41998
-12.98311
-15.43539
-18.53726
-21.8262
-24.65935
-26.33508
-26.19609
-23.79529
-19.07796
-12.41145
-4.480453
3.856216
11.78053
18.64233
23.93933
27.36858
28.74492
28.0733
25.57062
21.71558
17.14252
12.50368
8.226181
4.382782
0.7378235
-3.156387
-7.645706
-12.6908
-17.84236
-22.3726
-25.5641
-27.06606
-27.03717
-26.01486
-24.68961
-23.62865
-23.11307
-23.20747
-23.87006
-24.99484
-26.38556
-27.72217
-28.46384
-27.95412
-25.60364
-21.08965
-14.50081
-6.368637
2.526062
11.31673
19.23567
25.7605
30.64676
33.82417
35.37326
35.41466
34.12848
31.79681
28.76906
25.44608
22.18828
19.23123
16.64073
14.35414
12.23842
10.15926
8.016525
5.672668
2.897308
-0.6227112
-5.211975
-11.05431
-17.96666
-25.35188
-32.24399
-37.51367
-40.16663
-39.58125
-35.67656
-28.91817
-20.18666
-10.50958
-0.8866119
7.901672
15.39552
21.38155
25.8336
28.75497
30.17223
30.1132
28.75317
26.38028
23.38297
20.1113
16.79347
13.52763
10.39555
7.585236
5.428864
4.306732
4.404968
5.596832
7.466507
9.522797
11.55643
13.65692
16.19113
19.52481
23.7451
28.65356
33.94185
39.53506
45.80154
53.51363
63.49899
76.16873
91.13176
107.0902
122.1934
134.5213
142.8167
146.8121
147.3536
145.9071
143.8564
141.7622
138.8569
133.1575
121.9535
102.5915
73.09271
32.68646
-17.76547
-75.37985
-134.9925
-189.6893
-232.0766
-256.4713
-260.9325
-248.2013
-224.851
-198.9384
-177.1832
-163.0478
-156.4786
-155.1247
-156.1044
-157.2747
-157.4871
-156.1818
-152.867
-147.0374
-138.5143
-127.8845
-116.4223
-105.7122
-96.90408
-90.22372
-84.93408
-79.76584
-73.53177
-65.60825
-56.13217
-45.84918
-35.67563
-26.34421
-18.16028
-11.06021
-4.877533
0.379425
4.3461
6.435165
6.140396
3.352234
-1.507309
-7.657791
-14.34448
-21.22849
-28.36629
-35.87907
-43.36636
-49.41289
-51.79774
-48.10244
-36.68373
-17.50685
7.633842
35.6318
62.98349
86.74987
105.2218
117.9609
125.4725
128.7491
128.9428
127.1511
124.4189
121.6413
119.4357
117.9841
116.9481
115.589
112.9765
108.4097
101.5979
92.79395
82.65695
71.92753
61.14804
50.40814
39.4481
27.82626
15.2508
1.907829
-11.43906
-23.54601
-33.01752
-38.64841
-39.87443
-36.8883
-30.62754
-22.48895
-13.86137
-5.697113
1.651306
8.280853
14.39221
19.90653
24.4043
27.35086
28.61716
28.79266
29.17299
31.32474
36.32803
44.3235
54.39736
65.06546
74.95144
83.43938
90.76117
97.64772
104.7594
112.0284
118.5704
122.9708
123.9112
120.8476
114.4255
106.43
99.1361
94.56658
93.68332
95.93813
99.32993
101.0575
98.43788
89.75801
74.71945
54.09251
29.23574
1.358871
-28.73613
-60.63011
-93.94324
-128.5107
-164.4421
-201.7772
-239.6229
-274.8902
-301.5102
-311.0856
-295.8674
-252.6271
-185.2365
-104.0615
-21.99229
50.67289
109.3824
154.6897
188.6997
211.3021
219.0369
207.4125
175.1497
127.068
73.39052
25.64356
-8.286297
-26.90568
-34.24166
-36.38789
-37.93752
-40.4549
-43.44558
-46.41672
-50.18273
-56.87592
-68.58634
-85.85174
-106.7091
-127.4252
-144.3643
-155.9295
-163.4894
-170.5303
-180.3505
-193.8212
-208.3833
-218.8444
-219.6772
-207.4697
-182.4005
-147.9387
-109.1889
-70.78711
-35.3511
-3.175045
26.9835
56.48424
85.70705
113.6134
138.1509
157.3797
170.4037
177.7343
180.8239
180.7935
177.0983
167.3258
148.8065
120.8162
86.26053
51.37276
23.38657
7.646303
5.432793
13.35755
24.94988
33.6524
35.60343
30.98827
23.30085
17.00546
15.17551
18.38519
24.61366
30.40905
32.7747
30.43032
23.95992
15.12996
6.265202
0.1018524
-0.1429863
7.83876
23.77128
43.71572
60.66934
66.80524
56.60308
29.32002
-11.7344
-57.29551
-95.56419
-117.5181
-121.0982
-110.6502
-92.75535
-72.30638
-51.49217
-30.93964
-11.13079
6.267113
18.92063
25.0814
24.87584
20.34276
14.61714
10.41551
9.160486
11.01399
14.75564
18.4768
20.46523
19.96298
17.38579
13.90279
10.67659
8.561962
8.067839
9.226736
11.67292
14.83621
18.12623
21.09239
23.47579
25.02511
25.6962
25.79433
25.65455
25.58387
25.03131
22.98202
18.23484
9.840546
-2.825522
-20.13201
-42.18116
-68.57346
-97.69951
-125.5253
-146.8624
-156.7237
-152.4334
-135.5368
-111.8268
-89.18147
-74.19772
-69.40918
-72.85258
-79.23934
-83.30626
-81.60103
-73.37296
-59.59988
-41.71317
-20.57772
3.200367
28.83427
55.02363
79.74986
101.0436
117.0985
127.096
131.3253
130.9909
127.8474
123.832
120.4937
118.5629
118.3641
119.5144
121.297
122.9671
124.1845
124.926
125.6566
127.8943
130.8617
134.086
137.0564
139.5282
141.1874
140.9677
136.5182
124.3507
101.1266
65.5658
20.46217
-27.66711
-70.53463
-101.1342
-116.4001
-117.5659
-108.8126
-94.81583
-78.92287
-62.21383
-44.65088
-26.28645
-7.908035
8.698166
22.27486
32.72347
41.02922
48.54337
56.46409
64.88728
72.98875
79.57393
83.03687
82.83243
79.5676
74.87315
70.7245
68.94345
70.5714
75.91629
84.73456
95.78534
108.1667
121.2249
134.4554
147.2236
158.5338
166.7718
169.5687
169.0303
165.1498
158.0933
148.3568
136.7061
123.9695
110.9517
98.25586
86.36005
75.72894
66.10669
57.52081
50.03235
43.56006
37.87823
32.68628
27.7052
22.81366
18.16107
13.49213
8.817261
4.039124
-1.155579
-7.266235
-14.88452
-24.44147
-36.00031
-49.08087
-63.29907
-78.07513
-93.15656
-108.7954
-125.5985
-144.3392
-165.4325
-188.6403
-212.7549
-236.2213
-257.1653
-274.1045
-286.2936
-293.8101
-297.4832
-298.7466
-299.4957
-301.5829
-306.283
-313.2567
-320.2991
-323.6228
-319.2433
-304.7268
-280.395
-249.4518
-216.7305
-186.816
-162.3987
-143.8674
-129.9321
-118.8931
-109.5558
-101.395
-94.16895
-87.52246
-80.77112
-73.15564
-64.23303
-54.10413
-43.13696
-31.76001
-19.98145
-7.314697
6.950684
23.31067
41.62415
60.89404
79.28833
94.57422
104.5339
107.5936
103.2478
92.18994
76.16382
57.47058
38.40515
20.74365
5.477905
-7.231445
-17.74475
-26.66614
-34.45337
-41.24316
-46.90894
-51.15942
-53.77332
-54.68359
-54.04724
-52.16541
-49.41174
-46.22424
-42.92438
-39.66296
-36.26379
-32.19763
-26.59546
-18.50946
-7.206177
7.550537
25.2644
44.77966
64.55188
82.80817
97.93378
108.696
114.3226
114.6359
109.9589
101.1061
89.19391
75.50372
61.2359
47.4046
34.74878
23.69446
14.44275
7.018555
1.421265
-2.421997
-4.588623
-5.303833
-4.936462
-4.03302
-3.295898
-3.399292
-4.802124
-7.447815
-10.75092
-13.59277
-14.65613
-12.78802
-7.327393
1.619812
13.32996
26.5686
39.9223
52.02026
61.75006
68.3678
71.43732
70.9007
67.0108
60.388
51.97577
42.88208
34.21252
26.80951
21.07623
16.89319
13.8111
11.23096
8.700745
6.11676
3.648926
1.631104
0.3234253
-0.2286987
-0.3409424
-0.5092773
-1.348022
-3.350403
-6.584717
-10.63971
-14.60767
-17.29462
-17.55206
-14.73468
-8.724976
-0.05682373
10.31232
21.28705
31.74744
40.6485
47.00446
50.02844
49.24738
44.75449
37.23813
27.95438
18.30045
9.504761
2.312775
-3.086334
-7.043427
-10.2128
-13.29465
-16.87079
-21.19415
-26.15433
-31.27924
-35.84677
-39.13718
-40.7146
-40.56836
-39.07455
-36.97253
-34.97943
-33.53644
-32.6001
-31.54959
-29.323
-24.77591
-17.07684
-5.974121
8.017151
23.82965
40.10471
55.48853
68.83527
79.29703
86.28952
89.48233
88.86472
84.71127
77.70688
68.81253
59.07379
49.40305
40.41412
32.25626
24.79095
17.68417
10.62418
3.560669
-3.224915
-9.299744
-14.09949
-17.35516
-19.22424
-20.24814
-21.28171
-23.25818
-26.91425
-32.51895
-39.83597
-47.9357
-55.50961
-61.06656
-63.23785
-61.14859
-54.59088
-44.05319
-30.64337
-15.90552
-1.538727
10.75293
19.4906
23.61099
22.55658
16.39856
5.958466
-7.226227
-20.95731
-32.57007
-39.41922
-39.47351
-31.84436
-17.14145
2.743347
25.14951
47.33786
67.00201
82.59476
93.22455
98.46381
98.17969
92.3541
81.15518
64.96442
44.38562
20.40411
-5.617981
-31.80652
-55.87195
-75.37888
-88.12866
-92.63809
-88.7041
-77.5274
-61.66495
-44.54758
-29.82401
-20.58862
-18.79855
-24.88638
-37.85397
-55.71916
-76.0452
-96.66026
-116.0059
-133.4089
-149.0866
-163.849
-178.6995
-194.3966
-211.1072
-228.1581
-244.2421
-257.6328
-266.6875
-270.1396
-267.2602
-257.7553
-241.7249
-219.4572
-191.2161
-157.3504
-118.2652
-74.6188
-27.63396
20.81788
68.36172
112.5882
151.6877
184.9628
212.7011
235.7252
254.7881
270.1523
281.8412
290.053
295.5339
299.6204
303.7885
308.8842
314.9386
321.1499
326.2958
329.2484
329.0236
324.8577
316.0775
302.1241
282.6982
258.1669
229.5116
198.1669
165.573
132.7854
100.3406
68.43394
37.51189
8.627991
-16.31851
-35.24625
-46.69478
-50.81949
-49.6599
-46.59338
-45.1907
-47.81075
-54.8362
-64.74387
-75.27538
-84.63707
-92.48737
-100.0073
-109.0455
-121.0503
-136.2423
-153.2419
-169.3721
-181.5084
-186.925
-184.2582
-174.0611
-158.7153
-141.7014
-126.3851
-114.9365
-107.6663
-103.1226
-98.8959
-92.64629
-83.01849
-69.96774
-54.49748
-38.04334
-21.86952
-6.77536
7.053909
19.80694
31.77193
43.16337
54.10576
64.72067
75.3349
86.38764
98.06526
109.8749
120.5129
128.1299
131.169
129.1472
123.0323
114.9063
107.0954
101.1968
97.51794
95.22378
92.87955
89.24286
83.66628
76.08177
66.63416
55.34058
42.01994
26.37716
8.338326
-11.80621
-33.25595
-54.71013
-74.44145
-90.35749
-100.3427
-102.6307
-96.32661
-81.87
-61.14447
-37.12051
-13.23214
7.335114
22.19909
29.95192
30.15543
23.28986
10.55171
-6.269302
-25.05064
-43.6812
-60.5022
-74.3987
-84.83047
-91.61308
-94.69946
-94.18166
-90.35347
-83.85215
-75.59291
-66.65752
-58.01274
-50.37461
-44.19337
-39.67779
-36.82948
-35.29227
-34.26798
-32.45948
-28.37119
-20.71696
-8.866758
6.790615
25.00505
43.96841
61.83737
77.05286
88.54794
95.69833
98.28016
96.39487
90.41954
81.03426
69.10581
55.65806
41.67336
27.96318
15.09674
3.336136
-7.336098
-17.15254
-26.51838
-35.8813
-45.67318
-56.26543
-67.97037
-80.99817
-95.36298
-110.7621
-126.3589
-140.7128
-151.9135
-157.9514
-157.2015
-148.938
-133.535
-112.4384
-87.76332
-61.87354
-36.95362
-14.90597
2.725929
14.83007
20.88786
21.11507
16.59979
9.181183
1.015945
-5.823074
-9.909332
-10.62747
-8.159592
-3.193741
3.350647
10.60318
17.79271
24.30783
29.67595
33.4771
35.48311
35.696
34.50928
32.76817
31.76263
33.02109
38.03694
47.90831
62.9828
82.74287
105.7426
129.8942
152.8401
172.4343
187.0745
195.8911
198.7623
196.0265
188.3307
176.3992
160.953
142.7517
122.6306
101.3983
79.8002
58.4549
37.7731
18.10153
-0.3496399
-17.35468
-32.73419
-46.45105
-58.65509
-69.67041
-79.85713
-89.42674
-98.06674
-105.0229
-109.0283
-108.6664
-102.7503
-90.71542
-72.82399
-50.29424
-25.03436
0.6987457
24.62338
44.88773
60.21043
69.98199
74.25389
73.58319
68.8624
61.15108
51.46416
40.54944
28.89032
16.67326
3.962891
-9.001892
-21.84096
-33.88985
-44.44307
-52.93622
-59.26584
-63.78955
-67.29572
-70.84535
-75.39378
-81.55437
-89.19763
-97.34995
-104.2378
-107.7845
-106.0343
-97.89793
-83.41122
-63.68544
-40.55716
-16.0674
7.930786
29.93073
48.73836
63.53302
73.73514
79.21938
80.43428
78.33867
74.19247
69.19771
64.17406
59.39069
54.61134
49.34009
43.05934
35.55547
26.90839
17.45717
7.651917
-2.072754
-11.45964
-20.42186
-29.02444
-37.50302
-46.03966
-54.74603
-63.40271
-71.34546
-77.41776
-80.20784
-78.22317
-70.39723
-56.51865
-37.27032
-14.29197
10.28386
34.24267
55.75166
73.47606
86.70847
95.27863
99.355
99.4318
96.18404
90.45074
83.09732
74.96542
66.64297
58.49603
50.70001
43.21502
36.03554
29.17796
22.72623
16.80541
11.41509
6.366829
1.329033
-4.022522
-9.920937
-16.27362
-22.80012
-29.08475
-34.75023
-39.74065
-44.35119
-49.17113
-54.7991
-61.61602
-69.39748
-77.2189
-83.54742
-86.59093
-84.85634
-77.58922
-65.02431
-48.29082
-29.12737
-9.416533
9.217966
25.50288
38.61867
48.12227
53.9227
56.22987
55.54778
52.63753
48.39574
43.78502
39.51786
36.06179
33.5885
31.95379
30.84081
29.83425
28.57202
26.88717
24.81819
22.45824
20.00568
17.57952
15.14966
12.50114
9.342426
5.403519
0.6202545
-4.838184
-10.59801
-16.1895
-21.23585
-25.67159
-29.65024
-33.54284
-37.75455
-42.55984
-48.00752
-53.80788
-59.27562
-63.40408
-65.07728
-63.15032
-56.93501
-46.36943
-32.10188
-15.43733
1.967659
18.4617
32.71017
43.83459
51.58257
56.11817
57.90545
57.63924
56.01483
53.7008
51.27771
49.13206
47.42073
46.07567
44.74927
42.95367
40.29494
36.53963
31.74672
26.28709
20.57912
14.96144
9.596405
4.407166
-0.7166748
-5.89978
-11.22096
-16.68436
-22.33989
-28.35197
-34.9528
-42.22321
-50.01674
-57.79768
-64.80275
-70.27655
-73.6974
-74.94882
-74.369
-72.5694
-70.15167
-67.59331
-64.9769
-61.98941
-57.96661
-52.06392
-43.54813
-32.04341
-17.75401
-1.433716
15.68008
32.17523
46.77655
58.55051
67.03305
72.14122
74.16974
73.5603
70.86948
66.61847
61.29437
55.29785
48.88681
42.24008
35.48447
28.78781
22.40128
16.6962
12.11087
8.960938
7.353973
7.047333
7.544891
8.258362
8.645721
8.373138
7.342133
5.665924
3.4758
0.8672791
-2.149292
-5.676666
-9.723541
-14.28033
-19.14944
-24.06747
-28.73648
-32.97443
-36.71774
-40.07889
-43.28882
-46.57465
-50.10345
-53.77621
-57.17859
-59.60165
-60.15918
-57.94998
-52.37659
-43.3786
-31.43066
-17.56451
-3.080109
10.74353
22.79895
32.3887
39.1731
43.15784
44.50421
43.59274
40.90112
36.99417
32.52414
28.00745
23.82397
20.05328
16.53296
12.90454
8.92099
4.488586
-0.2634888
-4.992126
-9.324799
-12.93661
-15.63062
-17.40067
-18.38193
-18.71375
-18.60696
-18.20642
-17.55658
-16.68976
-15.60434
-14.41263
-13.35648
-12.72949
-12.7594
-13.54922
-15.06247
-17.14828
-19.75397
-22.91943
-26.74768
-31.19354
-35.92535
-40.16855
-42.89575
-43.0722
-39.99161
-33.63116
-24.62772
-14.0842
-3.221863
6.896545
15.62027
22.61017
27.78864
31.15427
32.70102
32.51767
30.85129
28.10504
24.79593
21.42102
18.27246
15.42758
12.79523
10.18912
7.517639
4.789886
2.103088
-0.3997498
-2.541351
-4.268066
-5.674683
-6.96582
-8.490265
-10.49551
-13.05939
-16.03058
-19.05322
-21.73706
-23.85049
-25.44003
-26.7532
-28.18369
-30.05515
-32.47617
-35.33588
-38.27319
-40.72437
-42.01627
-41.45807
-38.45245
-32.72787
-24.42316
-14.10291
-2.723602
8.603119
18.84708
27.2395
33.30283
36.92374
38.19376
37.43347
35.08212
31.60605
27.48993
23.1265
18.82813
14.81042
11.16861
7.944794
5.109344
2.676971
0.615387
-1.010376
-2.209625
-3.056885
-3.726044
-4.467407
-5.464966
-6.849304
-8.53537
-10.36102
-12.0903
-13.59964
-14.9437
-16.34427
-18.15707
-20.664
-24.1174
-28.40207
-33.12125
-37.50391
-40.58011
-41.41083
-39.31305
-34.12012
-26.15231
-16.1965
-5.178497
5.858704
16.00015
24.50955
30.88544
34.94943
36.71103
36.4603
34.53033
31.36777
27.38058
22.93631
18.46579
14.24368
10.4776
7.169678
4.251282
1.530457
-1.083221
-3.630737
-6.146881
-8.578796
-10.98416
-13.37891
-15.77707
-18.09198
-20.2626
-22.24841
-24.16452
-26.26913
-28.85382
-32.21875
-36.43872
-41.25098
-46.01041
-49.7829
-51.51892
-50.39212
-46.09882
-38.89719
-29.63626
-19.46039
-9.495941
-0.6003723
6.787781
12.50488
16.62021
19.16302
20.16739
19.70349
18.02457
15.49786
12.55566
9.611206
6.883087
4.470215
2.26825
0.1524963
-2.010284
-4.272797
-6.63443
-9.131378
-11.71616
-14.38696
-17.09155
-19.78607
-22.41342
-24.97498
-27.53174
-30.18329
-33.15286
-36.55338
-40.35544
-44.14133
-47.15909
-48.396
-46.89453
-42.08002
-33.95563
-23.15482
-10.71454
2.078125
14.08029
24.36972
32.3403
37.71805
40.50876
40.98193
39.5871
36.93555
33.59494
30.06134
26.69354
23.71204
21.16779
18.95564
16.80339
14.38429
11.36989
7.61084
3.160126
-1.611023
-6.250092
-10.33566
-13.70013
-16.45753
-18.94795
-21.60547
-24.77956
-28.67624
-33.24884
-38.1644
-42.75684
-46.06099
-46.9507
-44.42924
-37.98886
-27.78159
-14.62898
0.1456146
15.00644
28.60063
39.94717
48.52971
54.2263
57.24506
57.97536
56.95924
54.69571
51.65449
48.14088
44.40303
40.57452
36.73994
32.95203
29.2066
25.41723
21.43369
17.16562
12.61015
7.908974
3.325527
-0.9234428
-4.72995
-8.19516
-11.60032
-15.29577
-19.55861
-24.54238
-30.25511
-36.53432
-43.01176
-48.97752
-53.36725
-54.94711
-52.6187
-45.81476
-34.7246
-20.37309
-4.30072
11.82036
26.61395
39.18646
49.12444
56.34454
60.98294
63.18474
63.18384
61.29358
57.89314
53.44552
48.40968
43.17027
38.01075
33.08403
28.32204
23.58174
18.73369
13.69011
8.505455
3.32299
-1.690224
-6.377625
-10.60254
-14.42113
-17.94096
-21.367
-25.03484
-29.39174
-34.83005
-41.42271
-48.73571
-55.66782
-60.68494
-62.20408
-59.09472
-51.03303
-38.60505
-23.16936
-6.36393
10.18547
25.24181
38.00146
48.09254
55.37758
59.90776
61.84322
61.49157
59.24913
55.62781
51.17383
46.3831
41.66226
37.23022
33.08025
29.1335
25.25581
21.25938
17.05489
12.60564
7.932007
3.149567
-1.601715
-6.27063
-10.84692
-15.41208
-20.14847
-25.34595
-31.25241
-38.01418
-45.51071
-53.15399
-59.94693
-64.57068
-65.67709
-62.30164
-54.11438
-41.54033
-25.71429
-8.198364
9.374664
25.49861
39.09645
49.50125
56.49284
60.20779
61.04889
59.5407
56.3027
51.94382
47.04802
42.16994
37.70377
33.84485
30.5359
27.45787
24.16702
20.30083
15.80104
10.86937
5.970428
1.536545
-2.294113
-5.645309
-8.906509
-12.53209
-16.83182
-21.96164
-27.89969
-34.52878
-41.45096
-47.94441
-52.88629
-54.95625
-52.99159
-46.42303
-35.4994
-21.30943
-5.451218
10.39423
24.83797
36.96188
46.36676
52.91936
56.64145
57.6707
56.25095
52.85808
48.11673
42.76718
37.46655
32.69118
28.5645
25.00458
21.72121
18.38684
14.79356
10.88023
6.752838
2.583115
-1.416855
-5.169525
-8.727921
-12.30588
-16.24677
-20.8692
-26.35495
-32.60777
-39.2296
-45.45847
-50.29251
-52.59706
-51.36459
-46.03226
-36.64539
-23.98521
-9.295746
5.856079
20.01779
32.01958
41.17062
47.23788
50.28351
50.64465
48.71501
45.03404
40.18008
34.79456
29.49048
24.70331
20.60652
17.01669
13.53561
9.72168
5.337509
0.4708405
-4.50528
-9.126175
-13.09395
-16.41713
-19.40964
-22.5822
-26.46762
-31.4207
-37.53102
-44.44151
-51.35742
-57.18082
-60.5555
-60.31975
-55.76888
-46.93117
-34.55162
-19.96504
-4.702621
9.83754
22.48186
32.49683
39.46451
43.2973
44.17206
42.51498
38.99219
34.37047
29.46721
24.91356
21.0739
17.93529
15.15895
12.23952
8.738541
4.520752
-0.2298737
-5.072998
-9.556503
-13.44147
-16.83649
-20.12425
-23.79518
-28.28554
-33.75975
-40.07182
-46.67461
-52.71761
-57.09499
-58.70926
-56.74785
-50.8252
-41.23376
-28.7563
-14.57996
0.05569458
13.9624
26.06903
35.52661
41.65445
44.1723
43.29385
39.84384
34.99467
29.97353
25.63426
22.20654
19.42441
16.65239
13.32079
9.146774
4.195236
-1.175629
-6.50943
-11.40775
-15.65855
-19.23709
-22.43402
-25.70628
-29.6555
-34.76427
-41.15968
-48.40152
-55.37254
-60.53455
-62.26973
-59.46054
-51.80217
-39.89183
-25.05971
-8.930054
6.939026
21.26529
33.11859
41.89392
47.3309
49.4787
48.74805
45.86075
41.7373
37.25696
33.01999
29.24533
25.73926
22.14297
18.05759
13.2821
7.899353
2.261108
-3.171448
-7.979065
-11.97296
-15.33832
-18.51712
-22.14514
-26.76343
-32.61896
-39.42438
-46.26624
-51.7373
-54.21173
-52.42822
-45.72479
-34.34473
-19.37625
-2.381744
14.87357
30.95889
44.85187
55.9494
63.91577
68.62918
70.17374
68.84314
65.25815
60.14188
54.34604
48.49985
42.944
37.61954
32.27182
26.59766
20.46426
14.0304
7.647491
1.783691
-3.316132
-7.583862
-11.31308
-15.01285
-19.28497
-24.65683
-31.26273
-38.77499
-46.2699
-52.39923
-55.61618
-54.60214
-48.7106
-38.11026
-23.86282
-7.461273
9.415558
25.31427
39.15417
50.23251
58.15955
62.7142
63.9054
62.03384
57.77277
52.03693
45.85287
40.07965
35.18066
31.14218
27.52777
23.79956
19.48706
14.46915
8.913269
3.224579
-2.13385
-6.907013
-11.13168
-15.10788
-19.31885
-24.24878
-30.30954
-37.63293
-45.95798
-54.48114
-61.95343
-66.75021
-67.35287
-62.79877
-53.03516
-38.97845
-22.24084
-4.645264
12.12259
26.79605
38.55881
46.91766
51.66089
52.80927
50.77005
46.28796
40.35513
33.91489
27.72238
22.14636
17.22748
12.81
8.711884
4.868286
1.267944
-2.022858
-4.988068
-7.581604
-9.861542
-11.95523
-14.08005
-16.55664
-19.78564
-24.18301
-29.9877
-37.05194
-44.68857
-51.68091
-56.51547
-57.71515
-54.33847
-46.1319
-33.71085
-18.28174
-1.320892
15.71881
31.59195
45.31638
56.189
63.63474
67.38208
67.50107
64.43787
59.06577
52.43204
45.56589
39.21954
33.72754
28.96793
24.58279
20.15088
15.42975
10.45023
5.449646
0.7417297
-3.511566
-7.388062
-11.23273
-15.55038
-20.84146
-27.42392
-35.26483
-43.87704
-52.27805
-59.1701
-63.0519
-62.63998
-57.19841
-46.74889
-32.19016
-15.00645
3.069992
20.43327
35.75597
48.1165
56.89909
61.80061
62.82649
60.38365
55.25639
48.48817
41.1066
33.88342
27.21475
21.1174
15.37587
9.744354
4.132294
-1.424728
-6.734222
-11.56331
-15.75508
-19.26225
-22.2468
-25.08517
-28.32478
-32.55974
-38.22672
-45.34657
-53.35828
-61.05765
-66.8092
-68.97263
-66.33401
-58.47194
-45.95706
-30.1086
-12.68561
4.556
20.16444
33.10629
42.77267
48.823
51.2475
50.28412
46.47649
40.63074
33.77916
26.84198
20.55385
15.25117
10.8206
6.852219
2.845566
-1.530411
-6.322678
-11.18217
-15.73213
-19.68425
-23.09009
-26.36937
-30.16669
-35.07582
-41.39238
-49.02419
-57.3474
-65.32446
-71.61256
-74.7834
-73.63528
-67.50587
-56.49925
-41.51334
-24.07544
-6.006287
10.97066
25.51672
36.76193
44.27679
48.04506
48.37009
45.81763
41.2252
35.54828
29.66385
24.2122
19.41766
15.06293
10.7263
6.036163
0.8202057
-4.695526
-10.04745
-14.82089
-18.76501
-21.97137
-24.87463
-28.10027
-32.29758
-37.93831
-45.07014
-53.15341
-61.07167
-67.23473
-69.90306
-67.69785
-59.97595
-47.09364
-30.28177
-11.25429
8.12912
26.24117
41.90787
54.37523
63.20699
68.30775
69.83968
68.33025
64.6001
59.60692
54.20001
48.91917
43.91356
38.9118
33.57784
27.63637
21.10159
14.26854
7.616928
1.579712
-3.627914
-8.044678
-12.04054
-16.14159
-20.96712
-27.06204
-34.67886
-43.4911
-52.465
-59.96692
-64.03105
-62.96349
-55.8062
-42.79102
-25.24292
-5.199753
15.16797
34.01285
50.04541
62.64494
71.59946
76.98982
78.96982
77.78853
73.85236
67.7971
60.42789
52.62494
45.15271
38.43674
32.51157
27.06908
21.65627
15.94069
9.843018
3.511093
-2.764359
-8.675049
-14.10023
-19.0972
-23.80859
-28.51726
-33.47171
-38.94308
-45.21013
-52.44769
-60.5097
-68.71811
-75.769
-79.83597
-79.11214
-72.33784
-59.35674
-41.18376
-19.78795
2.527374
23.70883
42.28976
57.45863
68.86563
76.44547
80.28177
80.69212
78.21341
73.61647
67.71254
61.20148
54.50595
47.77161
41.00969
34.29538
27.77959
21.71971
16.25844
11.40887
7.006714
2.803024
-1.373322
-5.548935
-9.583542
-13.30103
-16.62057
-19.70277
-22.87375
-26.71234
-31.84552
-38.75015
-47.48599
-57.48061
-67.34454
-75.11621
-78.74258
-76.5408
-67.84222
-53.18439
-34.16751
-12.98778
8.097092
27.27591
43.41431
55.97211
64.92957
70.53955
73.1185
73.04913
70.77208
66.75539
61.56026
55.73016
49.64449
43.49185
37.2906
30.9583
24.50261
17.95468
11.47097
5.233704
-0.6427231
-6.132652
-11.16975
-15.75581
-19.89099
-23.58257
-26.99441
-30.43987
-34.26726
-38.90299
-44.74565
-51.9427
-60.28783
-69.0579
-76.96698
-82.35252
-83.56034
-79.43565
-69.72708
-55.30787
-37.85648
-19.43494
-1.950348
13.202
25.30043
34.11697
39.80661
42.67235
43.11892
41.68172
38.95518
35.56392
31.99153
28.50669
25.11638
21.67418
18.00594
14.01099
9.696739
5.103676
0.3470078
-4.429363
-9.104782
-13.54632
-17.68181
-21.4672
-24.96774
-28.36845
-31.94366
-36.04346
-40.92589
-46.72588
-53.24119
-59.76055
-65.14655
-67.92453
-66.71027
-60.61077
-49.5595
-34.36814
-16.55109
2.072495
19.77058
35.19075
47.47551
56.29005
61.63934
63.74552
63.01885
59.99419
55.33214
49.76528
43.9963
38.5602
33.74253
29.52306
25.68477
21.924
17.95928
13.66637
9.028328
4.114426
-0.9435539
-5.984062
-10.85067
-15.42199
-19.69115
-23.81746
-28.09932
-32.89579
-38.4982
-44.96178
-51.88396
-58.34517
-63.01127
-64.33609
-61.12727
-52.80967
-39.74744
-23.20562
-5.010788
12.89926
28.93705
42.09473
51.97916
58.52831
62.02609
62.76413
61.12518
57.54545
52.52925
46.70944
40.76143
35.23407
30.40634
26.24556
22.44497
18.59225
14.3751
9.699551
4.708609
-0.3750038
-5.332762
-10.0688
-14.66106
-19.1928
-23.81148
-28.64623
-33.91956
-39.8427
-46.54843
-53.81931
-60.93356
-66.7607
-69.85791
-68.9511
-63.24691
-52.78598
-38.36829
-21.42641
-3.642658
13.39651
28.39061
40.53987
49.50584
55.34369
58.33899
58.88257
57.35666
54.15687
49.74593
44.5985
39.29888
34.30077
29.84313
25.95742
22.37169
18.72806
14.72178
10.22344
5.253157
-0.02268505
-5.429316
-10.86892
-16.20581
-21.48953
-26.80654
-32.27284
-38.07298
-44.38709
-51.20094
-58.21969
-64.69402
-69.38319
-70.91595
-68.09605
-60.30244
-47.8147
-31.78101
-13.84618
4.148956
20.64212
34.64701
45.65312
53.56614
58.56457
60.87271
60.83386
58.87193
55.40081
50.8396
45.59645
39.95785
34.12368
28.26339
22.38388
16.60183
10.98037
5.509426
0.1488953
-5.114803
-10.3201
-15.44156
-20.37062
-25.01474
-29.26736
-33.13971
-36.88394
-40.94814
-45.73883
-51.59166
-58.32018
-65.16711
-70.91192
-74.04999
-73.31064
-67.97388
-58.13224
-44.63001
-28.94029
-12.6539
2.751553
16.18015
26.97804
34.90773
40.04508
42.63325
42.98167
41.41573
38.36761
34.3352
29.79636
25.17276
20.78375
16.7689
13.06952
9.563709
6.061874
2.457272
-1.283039
-5.244228
-9.40872
-13.7484
-18.1918
-22.68367
-27.21739
-31.89317
-36.9512
-42.73844
-49.56354
-57.41119
-65.78963
-73.62365
-79.38503
-81.35948
-78.1778
-69.27481
-55.0918
-37.02362
-17.0455
2.831393
20.96638
36.31
48.41563
57.18706
62.66818
65.06887
64.74661
62.24184
58.28553
53.644
48.91849
44.48045
40.31627
36.22132
31.86605
26.99023
21.42499
15.22178
8.644882
2.075203
-4.110546
-9.687683
-14.69295
-19.42672
-24.39066
-30.15942
-37.14615
-45.45375
-54.72372
-64.0535
-72.08147
-77.20895
-77.91881
-73.192
-62.85185
-47.64175
-29.05034
-8.9151
11.00637
29.29556
44.96078
57.48678
66.58794
72.2649
74.68292
74.24486
71.5404
67.30764
62.27161
57.02216
51.9516
47.17242
42.56532
37.91011
32.96693
27.62233
21.88942
15.95074
10.0061
4.257378
-1.227234
-6.522804
-11.87977
-17.65634
-24.23528
-31.90701
-40.60008
-49.84553
-58.59191
-65.4049
-68.65363
-66.99131
-59.72173
-47.01156
-29.95838
-10.25037
10.12201
29.32482
45.96286
59.18777
68.65746
74.40034
76.69718
76.01717
72.95995
68.20564
62.43011
56.29188
50.26908
44.62705
39.38641
34.39363
29.39048
24.158
18.55959
12.56184
6.287125
-0.09509277
-6.343857
-12.25454
-17.65099
-22.42215
-26.55691
-30.2458
-33.91071
-38.14642
-43.47763
-50.04819
-57.34437
-64.10978
-68.60116
-69.05257
-64.27573
-54.01733
-39.10152
-21.12949
-2.035767
16.38245
32.74525
46.17962
56.24397
62.74438
65.74953
65.51704
62.56496
57.64348
51.5638
45.02163
38.564
32.4135
26.59483
21.0568
15.72575
10.6186
5.834827
1.496113
-2.330307
-5.684837
-8.724209
-11.71078
-14.90491
-18.46842
-22.47573
-26.86666
-31.62481
-36.83533
-42.73125
-49.53615
-57.18157
-65.04282
-71.85278
-75.95922
-75.75745
-70.2564
-59.44575
-44.35683
-26.78934
-8.797684
7.839073
21.91172
32.86382
40.59111
45.25795
47.13798
46.58777
44.05671
40.1395
35.52605
30.82464
26.43096
22.48886
18.90871
15.46173
12.00618
8.453426
4.782131
0.9792786
-3.00259
-7.2173
-11.6771
-16.3256
-21.10699
-25.86861
-30.56589
-35.33149
-40.46791
-46.27613
-52.80561
-59.62523
-65.7263
-69.69461
-69.99941
-65.50715
-55.83615
-41.53382
-23.94824
-4.884026
13.78637
30.52266
44.22404
54.31478
60.6399
63.3529
62.86673
59.76456
54.80893
48.8356
42.68696
36.97504
32.05111
27.88296
24.1977
20.6191
16.79359
12.55922
8.025543
3.507462
-0.6418877
-4.154812
-7.018845
-9.502373
-12.06755
-15.24403
-19.46569
-24.92983
-31.47751
-38.56013
-45.25974
-50.39064
-52.6965
-51.0956
-44.9414
-34.25462
-19.79641
-2.888103
14.80303
31.69961
46.48212
58.36704
67.02353
72.44135
74.84081
74.49518
71.7598
67.00417
60.74702
53.62971
46.40365
39.85715
34.55943
30.83397
28.66354
27.7931
27.76905
28.15009
28.56217
28.6799
28.21413
26.8762
24.41182
20.60434
15.35242
8.545646
0.1406555
-9.937578
-21.6414
-34.57611
-47.84865
-59.92141
-69.00352
-73.46323
-72.46545
-66.20657
-55.89915
-43.43236
-30.76083
-19.5752
-11.03545
-5.794881
-4.075697
-5.743965
-10.36586
-17.15465
-25.08392
-32.93745
-39.63087
-44.33607
-46.73655
-46.92675
-45.36898
-42.78783
-39.91784
-37.48703
-36.02168
-35.87968
-37.12723
-39.49921
-42.49046
-45.44262
-47.85328
-49.504
-50.59025
-51.56564
-52.98995
-55.23894
-58.2049
-61.2972
-63.3792
-63.12239
-59.29049
-51.18844
-38.89021
-23.26657
-5.811726
11.7848
27.98952
41.79984
52.69844
60.69988
66.04568
69.07515
70.19312
69.76147
68.15791
65.66161
62.52359
58.81131
54.48197
49.44645
43.71694
37.48071
31.0929
25.03574
19.7081
15.34872
11.94977
9.224274
6.774925
4.06472
0.6557465
-3.918228
-9.954834
-17.59077
-26.7476
-36.97697
-47.43427
-56.81676
-63.66521
-66.56394
-64.67645
-57.92623
-47.09686
-33.58557
-18.92024
-4.401093
9.087296
20.99283
30.97046
38.68855
43.86636
46.40854
46.5009
44.74261
41.91936
38.83615
36.10539
34.06583
32.7639
31.96696
31.24113
29.93886
27.44049
23.25348
17.26767
9.778839
1.354279
-7.351059
-15.90007
-24.04814
-31.77495
-39.02681
-45.58406
-50.91052
-54.12927
-54.18857
-49.88826
-40.20828
-24.59131
-3.292633
22.38618
50.10915
76.80811
99.45074
115.5995
124.0637
125.0042
119.6643
109.8574
97.43674
83.93269
70.46925
57.88152
46.77393
37.61372
30.64256
25.84709
22.89627
21.22946
20.12924
18.81706
16.57536
12.83847
7.322998
0.1285858
-8.338684
-17.43137
-26.48906
-34.99374
-42.64709
-49.41487
-55.43083
-60.91296
-65.94411
-70.44368
-73.95529
-75.77122
-74.99858
-70.76739
-62.60169
-50.56847
-35.4426
-18.50638
-1.33564
14.60566
28.17715
38.69743
45.93846
49.97864
51.10504
49.6669
46.10595
40.93051
34.7261
28.0901
21.56799
15.60828
10.4247
6.051666
2.31987
-1.045578
-4.317131
-7.707619
-11.27415
-14.92822
-18.51223
-21.93082
-25.20285
-28.51861
-32.1885
-36.59065
-42.0081
-48.51443
-55.84591
-63.2713
-69.63992
-73.51111
-73.53017
-68.74477
-58.93164
-44.69096
-27.24392
-8.173294
10.91115
28.58508
43.83073
56.00494
64.84565
70.50716
73.35002
73.90642
72.70816
70.21402
66.77461
62.65826
58.10784
53.25843
48.24155
43.05656
37.59256
31.68805
25.25359
18.27169
10.92976
3.550335
-3.584091
-10.22804
-16.37634
-22.16101
-27.8751
-33.88666
-40.52908
-48.00587
-56.22524
-64.68881
-72.33753
-77.79329
-79.55733
-76.52592
-68.38662
-55.71475
-39.87256
-22.59542
-5.613247
9.739853
22.60371
32.54881
39.51433
43.58518
45.02322
44.26391
41.9052
38.56924
34.82918
31.10803
27.59702
24.35412
21.26236
18.18045
14.93601
11.47146
7.74393
3.761385
-0.3928611
-4.635755
-8.881613
-13.16038
-17.55453
-22.24888
-27.41507
-33.22657
-39.80825
-47.126
-54.90272
-62.43838
-68.65747
-72.19183
-71.79256
-66.71981
-57.03962
-43.62459
-27.90492
-11.54002
4.037445
17.77007
28.99885
37.36658
42.80071
45.41941
45.59753
43.94129
41.06409
37.65414
34.20276
30.96913
27.96477
25.00658
21.81776
18.13131
13.85658
9.120792
4.318087
-0.09262943
-3.691519
-6.328343
-8.147186
-9.579188
-11.25508
-13.76387
-17.53308
-22.6517
-28.92004
-35.75929
-42.31563
-47.45872
-49.95726
-48.76194
-43.2507
-33.58945
-20.5795
-5.649832
9.615977
23.78534
35.83204
45.21159
51.78832
55.70582
57.23495
56.76011
54.71385
51.59226
47.8726
43.97252
40.20618
36.7198
33.53103
30.45969
27.28092
23.75321
19.6894
15.04354
9.853294
4.210924
-1.776829
-7.998325
-14.40845
-20.87564
-27.27701
-33.48531
-39.41573
-45.10181
-50.48566
-55.30255
-58.85971
-60.24038
-58.36776
-52.54977
-42.82629
-30.0659
-15.83327
-1.885426
10.30264
19.94464
26.8885
31.55413
34.57544
36.54271
37.87402
38.80837
39.45793
39.82441
39.88428
39.54544
38.75602
37.38438
35.39931
32.6904
29.14915
24.69718
19.34279
13.29227
6.920769
0.6984787
-5.038727
-10.19095
-14.90093
-19.51898
-24.35892
-29.64563
-35.41734
-41.65364
-48.26347
-55.07928
-61.69413
-67.2716
-70.61864
-70.45129
-65.86741
-56.6753
-43.64088
-28.25256
-12.30618
2.55542
15.24625
25.25146
32.58439
37.42244
40.0877
40.84249
39.99416
37.88625
34.88333
31.41422
27.8511
24.50201
21.51544
18.97462
16.82601
14.98045
13.32491
11.67858
9.888474
7.776108
5.218521
2.13147
-1.473427
-5.569885
-10.11816
-15.13695
-20.78585
-27.22725
-34.69627
-43.16755
-52.20066
-60.83427
-67.6274
-71.03614
-69.83199
-63.57028
-52.7379
-38.68001
-23.24107
-8.175217
5.187752
16.13938
24.47939
30.34121
33.9291
35.46881
35.2288
33.48948
30.6359
27.08601
23.23378
19.40096
15.7906
12.46013
9.287788
6.111778
2.762611
-0.8198013
-4.59697
-8.384956
-11.97301
-15.18607
-17.99509
-20.52833
-23.01667
-25.82177
-29.24147
-33.57893
-38.9089
-44.91817
-50.87067
-55.64461
-58.0456
-57.08363
-52.30537
-43.88151
-32.54543
-19.34637
-5.429031
8.172508
20.63699
31.27192
39.62851
45.39289
48.5118
49.19957
47.94944
45.39034
42.17111
38.85925
35.77554
33.00657
30.38957
27.66473
24.50927
20.76802
16.46733
11.76123
6.920654
2.153969
-2.410513
-6.804529
-11.11736
-15.51998
-20.22946
-25.41886
-31.19403
-37.34441
-43.34507
-48.20353
-50.729
-49.82846
-44.85211
-35.90393
-23.81881
-10.00936
4.015178
16.90826
27.80584
36.31293
42.37584
46.12894
47.77074
47.52334
45.70326
42.82779
39.46352
36.1917
33.3618
31.03413
28.93139
26.62334
23.76628
20.22095
16.16571
11.90811
7.765811
3.876016
0.1987762
-3.489666
-7.445975
-11.88766
-17.07715
-23.22326
-30.50867
-38.84715
-47.65944
-55.75803
-61.58387
-63.5598
-60.59851
-52.54236
-40.14236
-24.88291
-8.464449
7.534679
21.97997
34.09528
43.39416
49.68056
52.89246
53.32212
51.49725
48.15309
43.99386
39.61525
35.31148
31.12576
26.92039
22.44205
17.55348
12.23593
6.651648
1.101633
-4.061695
-8.601738
-12.46881
-15.82658
-19.09584
-22.71326
-27.11126
-32.64967
-39.46043
-47.4077
-55.90283
-63.85386
-69.76302
-72.15033
-69.87975
-62.60833
-50.91774
-36.08003
-19.74571
-3.48011
11.48101
24.30145
34.42492
41.57539
45.65534
46.86652
45.67943
42.76168
38.83411
34.56056
30.38653
26.43637
22.62618
18.72684
14.48458
9.738724
4.524734
-0.9758148
-6.451035
-11.64326
-16.47101
-21.03063
-25.56229
-30.38376
-35.80613
-42.02454
-49.09361
-56.80314
-64.52121
-71.20309
-75.47532
-75.96706
-71.72183
-62.5502
-49.15701
-32.96868
-15.71922
1.026222
16.1855
29.11452
39.49688
47.18308
52.09947
54.31245
54.12592
52.07625
48.89813
45.2271
41.43327
37.55045
33.34593
28.62077
23.35345
17.76289
12.28635
7.437103
3.524048
0.5976105
-1.53656
-3.339355
-5.410492
-8.372421
-12.75198
-18.87772
-26.71509
-35.77385
-45.08376
-53.16827
-58.37695
-59.23944
-54.83916
-45.13835
-31.02289
-14.02454
4.033737
21.49571
37.15923
50.21288
60.17741
66.82245
70.06464
70.13052
67.56538
63.19508
57.9622
52.65732
47.63434
42.81761
37.8271
32.13109
25.34555
17.38364
8.461395
-0.9998169
-10.42178
-19.27934
-27.17365
-33.86646
-39.45255
-44.26006
-48.8315
-53.71097
-59.21008
-65.09009
-70.47897
-73.9718
-73.92245
-69.03888
-58.77469
-43.59149
-24.8739
-4.524811
15.51123
33.66946
48.91302
60.74719
68.99677
73.76331
75.43039
74.50729
71.71127
67.85837
63.64194
59.49393
55.52142
51.48117
46.96329
41.6561
35.41028
28.39984
21.07568
13.97098
7.570099
2.10733
-2.476044
-6.509766
-10.44052
-14.81943
-20.17599
-26.90775
-35.23434
-44.92838
-55.2348
-64.82721
-72.03418
-75.15024
-72.97995
-65.13171
-52.12656
-35.34952
-16.51181
2.580261
20.3284
35.45358
46.99847
54.30557
57.14902
55.90768
51.52045
45.59338
39.91431
36.01004
34.67474
35.69751
37.94775
39.74237
39.45096
35.96283
29.15598
19.88116
9.645233
0.181427
-7.22226
-12.02859
-14.62073
-16.08734
-17.83768
-21.0575
-26.33704
-33.49875
-41.52451
-48.71854
-52.99899
-52.41321
-45.59421
-32.18155
-12.9794
10.17789
34.78699
58.28918
78.51889
94.05786
104.2408
109.0999
109.1704
105.3326
98.69562
90.42459
81.7092
73.55313
66.56839
60.8667
56.02289
51.34207
46.02826
39.57684
31.91353
23.36656
14.53754
5.87207
-2.361801
-10.23444
-18.03581
-26.16141
-34.89656
-44.37154
-54.46057
-64.62753
-74.00079
-81.30919
-85.11746
-84.11139
-77.50908
-65.2113
-48.0114
-27.36603
-5.153427
16.65466
36.3324
52.52292
64.33398
71.36179
73.73309
71.95568
66.95512
59.86104
51.83791
43.94888
36.93674
31.09244
26.3659
22.43797
18.89211
15.44762
12.02139
8.737335
5.816509
3.406227
1.396236
-0.4891052
-2.6548
-5.522346
-9.418045
-14.49941
-20.74889
-27.84867
-35.1388
-41.66121
-46.15176
-47.41619
-44.70554
-38.04198
-28.26993
-16.92752
-5.723507
3.830723
10.72732
14.60857
15.54734
13.91143
10.19762
4.936035
-1.340286
-8.014709
-14.54623
-20.59356
-25.99186
-30.87292
-35.54259
-40.28626
-45.25648
-50.37565
-55.37663
-59.9647
-63.98775
-67.4538
-70.48167
-73.20502
-75.66428
-77.89937
-79.93379
-81.76999
-83.30443
-84.18552
-83.79811
-81.27446
-75.81848
-66.92862
-54.68401
-39.78021
-23.36145
-6.856995
8.316238
20.95921
30.18021
35.61551
37.45375
36.34679
33.30577
29.3974
25.52599
22.24678
19.71783
17.74263
15.9812
14.12495
12.04169
9.839905
7.829208
6.378677
5.747925
5.940247
6.6819
7.448547
7.654083
6.786972
4.586121
1.254715
-2.468185
-5.39238
-6.192459
-3.869019
1.957947
10.85362
21.68098
33.00989
43.44843
51.98145
57.92229
60.86819
60.61464
57.1682
50.84851
42.34734
32.64941
22.78993
13.63766
5.701263
-0.904068
-6.378433
-11.06534
-15.21887
-18.91977
-22.08121
-24.47398
-25.98575
-26.71187
-27.07201
-27.72336
-29.41161
-32.6842
-37.6526
-43.9214
-50.53221
-56.16554
-59.35356
-58.85359
-53.96907
-44.72891
-31.9234
-16.95677
-1.503098
12.83543
24.73148
33.30687
38.11105
39.12907
36.7701
31.74809
25.02563
17.73262
10.85863
5.102676
0.7777405
-2.156799
-3.983276
-5.012878
-5.500809
-5.583908
-5.270737
-4.577194
-3.612701
-2.60968
-1.904602
-2.026718
-3.510742
-6.828918
-12.10638
-18.88998
-26.10397
-32.12866
-35.19472
-33.95483
-27.95329
-17.73813
-4.716385
9.337006
22.71571
34.03749
42.39944
47.31993
48.64189
46.53847
41.58597
34.60356
26.52121
18.11798
9.851089
1.872055
-5.861282
-13.39453
-20.61237
-27.1981
-32.8477
-37.40114
-40.89159
-43.65582
-46.24356
-49.36154
-53.68105
-59.64691
-67.21205
-75.71437
-83.83369
-89.76407
-91.64694
-88.13579
-78.82256
-64.37344
-46.45583
-27.22224
-8.775345
7.246483
19.91749
28.95525
34.57634
37.33457
37.90629
37.06331
35.53085
33.89402
32.49891
31.38758
30.34521
29.06
27.31167
24.96944
22.13106
18.96255
15.57945
11.95408
7.832214
2.784637
-3.634171
-11.5979
-20.7663
-30.10469
-37.91449
-42.24281
-41.44843
-34.67459
-22.24717
-5.626324
13.02934
31.36206
47.28038
59.25119
66.32632
68.16714
64.98182
57.51375
47.03223
35.05962
23.11837
12.37632
3.439446
-3.679422
-9.311624
-13.92054
-17.86881
-21.24547
-24.0299
-26.19091
-27.87774
-29.48238
-31.59356
-34.83991
-39.66867
-46.12302
-53.61585
-60.90836
-66.26062
-67.80423
-64.0271
-54.24079
-38.81091
-19.10715
2.835533
24.81205
44.89377
61.6426
74.21206
82.2016
85.63548
84.93911
80.91663
74.69009
67.4707
60.27911
53.63118
47.54034
41.59663
35.29449
28.36979
20.90763
13.2933
5.918518
-0.9906845
-7.548637
-14.12272
-21.21074
-29.26682
-38.52229
-48.84064
-59.62968
-69.71616
-77.51339
-81.23208
-79.44183
-71.56647
-58.15639
-40.80943
-21.69258
-3.01162
13.59663
27.18195
37.43373
44.37415
48.15036
48.9776
47.25867
43.6666
39.07893
34.40796
30.24437
26.73032
23.56895
20.25487
16.40253
11.94185
7.129898
2.342987
-2.109283
-6.300873
-10.60768
-15.561
-21.69528
-29.29097
-38.28976
-48.06633
-57.47655
-64.89349
-68.5621
-66.95671
-59.20465
-45.39693
-26.61761
-4.731033
18.08647
39.7381
58.5687
73.46313
83.81036
89.46451
90.64082
87.94681
82.32489
74.91393
66.91444
59.32411
52.68871
47.06915
42.06422
37.0359
31.5295
25.43652
19.03267
12.78029
7.117172
2.065109
-2.819626
-8.290527
-15.16219
-23.77431
-33.81599
-44.173
-53.15648
-58.80684
-59.48254
-54.25288
-43.14014
-27.18948
-8.179657
11.75151
30.59395
46.80714
59.53198
68.51306
73.96101
76.29877
75.92596
73.24327
68.63506
62.63667
55.93034
49.24576
43.14359
37.8131
33.11392
28.49332
23.38008
17.34596
10.28053
2.479446
-5.555115
-13.17656
-19.87648
-25.36501
-29.72693
-33.26108
-36.52965
-40.12694
-44.55324
-50.00453
-56.1517
-62.0849
-66.40211
-67.46223
-63.85344
-54.94885
-41.16681
-23.90993
-5.120735
13.3078
30.00121
44.17138
55.50542
63.91055
69.29128
71.56438
70.83321
67.47928
62.17705
55.72604
48.78198
41.73615
34.72215
27.71509
20.72346
13.93233
7.624542
2.188377
-2.12587
-5.287476
-7.58474
-9.451279
-11.46253
-14.107
-17.72282
-22.51038
-28.53121
-35.84416
-44.4428
-54.16204
-64.48978
-74.37131
-82.183
-86.04764
-84.3045
-76.06615
-61.62986
-42.47016
-20.88195
0.5676746
19.66959
34.96604
45.79385
52.16335
54.52714
53.59367
50.214
45.34136
39.85488
34.49776
29.74009
25.73802
22.35247
19.35588
16.4983
13.60859
10.67142
7.700825
4.790382
1.972462
-0.8018188
-3.608887
-6.602879
-9.960068
-13.77139
-18.03314
-22.72373
-27.8357
-33.44133
-39.587
-46.07545
-52.30621
-57.2296
-59.44395
-57.73302
-51.4343
-40.76929
-26.84016
-11.2963
4.137024
18.00033
29.33288
37.74473
43.1474
45.75082
45.88879
44.0126
40.60999
36.28559
31.60667
27.06223
23.03649
19.65618
16.86015
14.39349
11.93431
9.111977
5.678726
1.477791
-3.564644
-9.429535
-16.02778
-23.10027
-30.25246
-37.00784
-42.90535
-47.63557
-51.11743
-53.52463
-55.1494
-56.20761
-56.59032
-55.8199
-53.13089
-47.71011
-39.13799
-27.59447
-14.03084
0.143631
13.38942
24.50986
32.97781
38.84233
42.6183
45.0006
46.60976
47.86261
48.95607
49.81975
50.22816
49.91145
48.53513
45.88997
41.91147
36.79008
30.90637
24.81833
19.10684
14.28786
10.71959
8.542435
7.718353
8.066132
9.400742
11.4892
14.0761
16.82635
19.27657
20.90411
21.15475
19.5983
16.14041
11.04794
5.114304
-0.4416351
-4.327362
-5.445374
-3.310699
1.85498
9.126068
17.16818
24.63144
30.48849
34.24838
35.89987
35.70779
34.00281
31.12674
27.27335
22.61038
17.33185
11.72269
6.166809
1.015228
-3.500519
-7.41983
-11.0321
-14.80042
-19.15271
-24.2771
-30.05746
-36.10971
-41.99432
-47.31628
-51.81638
-55.36267
-57.87933
-59.40283
-60.14349
-60.62097
-61.53973
-63.55978
-66.97705
-71.31979
-75.40781
-77.60086
-76.39871
-70.90305
-61.23346
-48.32687
-33.61954
-18.56436
-4.330444
8.305756
18.85135
26.92136
32.24246
34.69958
34.44714
32.0137
28.12378
23.58817
18.99728
14.66751
10.65002
6.846375
3.185333
-0.3388367
-3.606812
-6.526093
-9.035095
-11.28647
-13.54288
-16.08679
-19.13181
-22.67786
-26.57938
-30.61249
-34.63153
-38.46863
-41.99265
-44.85587
-46.40637
-45.78378
-42.12274
-35.00659
-24.59497
-11.77344
2.064941
15.30106
26.43384
34.40387
38.65326
39.18408
36.36206
30.90131
23.70441
15.77536
8.081879
1.424469
-3.698914
-7.22287
-9.368835
-10.66849
-11.63101
-12.66504
-13.9353
-15.31094
-16.547
-17.37152
-17.73434
-17.79813
-18.03973
-19.09439
-21.53601
-25.64847
-31.18524
-37.40225
-43.10455
-47.00879
-47.96515
-45.31659
-39.05014
-29.73151
-18.41489
-6.27301
5.528107
16.03851
24.58893
30.789
34.40683
35.37161
33.85297
30.13409
24.77118
18.45578
11.8847
5.657104
0.1125488
-4.704346
-9.004028
-13.04114
-17.03391
-21.00095
-24.7272
-27.91605
-30.26913
-31.63345
-32.09055
-31.95517
-31.69785
-31.81
-32.63712
-34.20593
-36.20447
-37.83118
-37.99512
-35.59644
-29.8175
-20.51767
-8.305817
5.553101
19.55917
32.21939
42.49161
49.85062
54.1553
55.60675
54.46945
51.07019
45.80435
39.26962
32.14545
25.194
19.08466
14.12994
10.31802
7.243378
4.362213
1.24585
-2.234253
-5.89798
-9.377075
-12.39545
-14.94376
-17.34384
-20.16257
-24.0127
-29.2374
-35.89468
-43.60205
-51.5845
-58.73264
-63.72937
-65.24802
-62.23557
-54.26794
-41.6871
-25.70789
-8.030365
9.442688
25.08032
37.72708
46.79489
52.19904
54.15381
53.05379
49.38713
43.84052
37.20122
30.31085
23.91713
18.50896
14.17433
10.64986
7.430954
4.023804
0.1168518
-4.273972
-8.978699
-13.73483
-18.39708
-23.04858
-27.97972
-33.66283
-40.53235
-48.91893
-58.75169
-69.50957
-80.01659
-88.62161
-93.4301
-92.77293
-85.74649
-72.49438
-54.25291
-33.00642
-10.99941
9.833282
28.12481
43.07863
54.34696
61.75631
65.3263
65.28287
62.21121
57.03139
50.89915
44.88944
39.68324
35.49831
32.04808
28.83328
25.33339
21.23747
16.4847
11.1963
5.5926
-0.1873379
-6.079244
-12.19021
-18.70213
-25.91536
-34.11741
-43.4887
-53.87715
-64.63966
-74.50328
-81.68732
-84.28624
-80.74562
-70.38551
-53.63552
-31.9526
-7.456623
17.58298
41.21059
61.93533
78.74992
91.02071
98.47227
101.1849
99.62624
94.67878
87.48749
79.28824
71.08319
63.51998
56.69895
50.37986
44.17281
37.72641
30.84242
23.53589
15.92996
8.185806
0.437027
-7.271042
-14.93083
-22.58643
-30.32362
-38.29085
-46.70406
-55.72691
-65.2928
-74.84465
-83.13315
-88.291
-88.34564
-81.72174
-67.89122
-47.6252
-22.88234
3.778091
29.7684
53.00664
72.18024
86.67682
96.40201
101.6194
102.8545
100.7648
96.14471
89.82484
82.52049
74.86102
67.2683
60.03564
53.30428
47.06151
41.12367
35.22308
29.08728
22.55812
15.61916
8.377029
1.035004
-6.27475
-13.53284
-20.80441
-28.18948
-35.81116
-43.87585
-52.66
-62.414
-73.12442
-84.16159
-94.11255
-100.8941
-102.1741
-96.14362
-82.16818
-61.06161
-34.93945
-6.651825
20.96805
45.65543
66.01447
81.41531
91.74969
97.22174
98.25858
95.57736
90.08682
82.86761
74.97147
67.24103
60.13013
53.6998
47.77994
42.12207
36.53943
30.89151
25.1738
19.38101
13.57227
7.784302
1.996552
-3.844788
-9.81546
-16.02631
-22.59012
-29.62976
-37.34784
-45.99738
-55.75681
-66.38165
-76.99628
-86.02414
-91.35181
-91.00327
-83.72159
-69.4762
-49.63373
-26.44345
-2.519958
19.88962
39.18637
54.5885
65.87137
73.14886
76.72421
77.0083
74.62943
70.34851
65.09628
59.66644
54.73193
50.62564
47.36115
44.72501
42.35312
39.88263
36.97003
33.43597
29.22165
24.43304
19.17679
13.53906
7.511658
0.949234
-6.339096
-14.61401
-24.06726
-34.81474
-46.76154
-59.38693
-71.72903
-82.18893
-88.89021
-90.01547
-84.37787
-71.82359
-53.3914
-31.0545
-7.220154
15.7625
36.13179
52.73006
65.04672
73.03188
76.95294
77.31578
74.81192
70.30165
64.65726
58.6646
52.8548
47.52872
42.68753
38.13095
33.53937
28.61986
23.15768
17.05263
10.33195
3.15155
-4.283035
-11.73747
-19.08266
-26.27831
-33.42877
-40.782
-48.66766
-57.35313
-66.78638
-76.39531
-84.96336
-90.80461
-92.16931
-87.81265
-77.38724
-61.60265
-42.07057
-20.84953
0.05503845
18.97292
34.76196
46.76765
54.67339
58.4488
58.41619
55.23125
49.81724
43.19525
36.25543
29.63933
23.631
18.22047
13.24693
8.484764
3.756439
-1.000778
-5.751823
-10.36914
-14.63594
-18.46072
-21.87641
-25.13479
-28.65025
-32.94023
-38.4016
-45.1679
-53.05038
-61.34413
-68.87464
-74.1337
-75.51849
-71.78956
-62.51008
-48.24362
-30.39739
-10.91089
8.254768
25.54806
39.95667
50.96439
58.32111
62.02084
62.26571
59.52461
54.61718
48.55725
42.3322
36.66102
31.83728
27.78621
24.16117
20.63039
16.93934
13.00072
8.876221
4.663097
0.455162
-3.708763
-7.842056
-12.07223
-16.59607
-21.67116
-27.59553
-34.52539
-42.30518
-50.38128
-57.75591
-63.05406
-64.81576
-61.87747
-53.73484
-40.74622
-24.08921
-5.544872
13.01497
29.9427
44.11935
54.96738
62.35073
66.29701
66.95965
64.64862
59.80849
53.1583
45.56712
37.90719
30.83645
24.65988
19.3238
14.513
9.867913
5.217925
0.5368161
-4.053295
-8.394008
-12.47263
-16.41899
-20.404
-24.64275
-29.26684
-34.42481
-40.29644
-47.00386
-54.48544
-62.20294
-69.04296
-73.37902
-73.48451
-68.11792
-57.0453
-41.14402
-22.19661
-2.300571
16.5912
33.11155
46.44556
56.27342
62.5752
65.47412
65.2202
62.24091
57.17974
50.74425
43.73602
36.79452
30.42022
24.92448
20.35489
16.60294
13.41569
10.43388
7.358971
4.002548
0.2678604
-3.828335
-8.184826
-12.77268
-17.60651
-22.7664
-28.3804
-34.65728
-41.70647
-49.50424
-57.72587
-65.49189
-71.5248
-74.24968
-72.23591
-64.70116
-51.82927
-34.7551
-15.37847
4.154709
21.95409
36.68822
47.69318
54.88577
58.53764
59.1667
57.36994
53.81597
49.2185
44.19251
39.27986
34.81139
30.90734
27.48544
24.44453
21.60538
18.77819
15.7361
12.26285
8.130836
3.281372
-2.180984
-8.038696
-13.91934
-19.53036
-24.74805
-29.687
-34.57385
-39.82877
-45.76152
-52.49113
-59.81616
-66.94818
-72.65155
-75.40131
-73.79347
-66.88725
-54.61156
-37.82944
-18.17241
2.30777
21.60037
38.09949
50.83626
59.51918
64.37315
65.97476
65.05933
62.30852
58.34201
53.64551
48.55106
43.34215
38.1834
33.16179
28.25374
23.43237
18.67792
14.01375
9.513321
5.193176
1.006042
-3.149567
-7.393173
-11.79477
-16.32558
-20.8358
-25.17979
-29.29337
-33.286
-37.44858
-42.14458
-47.66656
-54.03355
-60.88123
-67.38257
-72.36671
-74.50841
-72.68607
-66.26733
-55.33493
-40.6886
-23.69737
-6.049591
10.61934
25.00095
36.25792
44.04004
48.42747
49.78047
48.68819
45.86601
42.04079
37.91748
34.06259
30.78894
28.11172
25.8042
23.47235
20.77864
17.50406
13.55992
8.974579
3.790985
-1.938049
-8.090729
-14.46724
-20.79758
-26.81702
-32.28587
-37.18752
-41.69554
-46.16829
-51.06
-56.63367
-62.76114
-68.81645
-73.63959
-75.71507
-73.67867
-66.69687
-54.83618
-39.08485
-21.10423
-2.797028
14.09068
28.33551
39.34656
46.97136
51.42844
53.09425
52.43158
50.00053
46.41267
42.25517
38.07553
34.24625
30.89619
27.93704
25.11855
22.07837
18.54451
14.38486
9.659149
4.599564
-0.4776306
-5.374451
-10.06705
-14.68288
-19.50511
-24.77222
-30.66696
-37.22858
-44.37364
-51.72711
-58.65132
-64.10664
-66.77191
-65.34746
-58.96143
-47.58514
-32.16861
-14.40631
3.740112
20.4985
34.65279
45.61406
53.19196
57.41228
58.44051
56.53171
52.237
46.36601
39.93073
33.87686
28.87161
25.09663
22.36906
20.27856
18.32126
16.16702
13.64374
10.73816
7.426758
3.639099
-0.8830261
-6.441223
-13.30386
-21.55862
-31.11633
-41.65843
-52.67465
-63.41751
-72.87364
-79.78159
-82.76773
-80.70427
-73.03111
-60.05614
-42.95181
-23.54285
-3.808304
14.49309
30.0495
42.08582
50.24374
54.47456
54.99083
52.31265
47.23981
40.80769
34.04672
27.78059
22.42081
17.95927
14.10466
10.44685
6.784378
3.159698
-0.2281036
-3.158417
-5.519104
-7.382446
-8.990677
-10.65379
-12.74501
-15.61092
-19.53008
-24.67128
-30.9572
-37.88052
-44.39249
-49.0367
-50.25819
-46.85097
-38.42194
-25.48683
-9.356766
8.217743
25.52736
41.20551
54.28281
64.17409
70.52341
73.19177
72.27463
68.16505
61.64883
53.68097
45.26028
37.12491
29.65045
22.79654
16.2951
9.7798
3.045227
-3.846741
-10.6918
-17.18791
-23.1071
-28.39877
-33.22589
-37.89456
-42.84563
-48.49078
-55.12022
-62.68961
-70.65096
-77.88793
-82.86462
-84.01318
-80.1946
-71.09158
-57.36504
-40.47854
-22.26215
-4.478241
11.52988
24.89236
35.14013
41.99933
45.37896
45.3986
42.52802
37.56852
31.60545
25.63898
20.39768
16.14909
12.76172
9.797028
6.816597
3.533043
-0.215271
-4.409744
-8.963844
-13.70668
-18.50893
-23.2637
-27.97585
-32.83739
-38.12129
-44.1618
-51.07765
-58.54296
-65.69306
-71.15021
-73.22832
-70.42381
-61.911
-47.79225
-29.22508
-8.030499
13.65458
33.85802
51.00871
64.08983
72.60398
76.48915
76.14452
72.31892
66.11041
58.6852
51.06168
43.93067
37.55251
31.85055
26.53804
21.37812
16.24146
11.17845
6.401081
2.134476
-1.52132
-4.746082
-7.990032
-11.93591
-17.33698
-24.79105
-34.43437
-45.6867
-57.2272
-67.14308
-73.40768
-74.29215
-68.91837
-57.46713
-41.11871
-21.6727
-1.078476
18.90045
36.88345
51.86632
63.18999
70.45597
73.64317
73.0987
69.5465
63.98708
57.49683
50.94653
44.88969
39.44796
34.41994
29.45905
24.3172
18.89857
13.35134
7.931465
2.862732
-1.80336
-6.30043
-11.06516
-16.63309
-23.48479
-31.9088
-41.6929
-52.02187
-61.49669
-68.24509
-70.48653
-66.94521
-57.23717
-42.0518
-22.94125
-1.875076
19.16531
38.51018
54.96362
67.63515
76.00992
79.98521
79.84642
76.2771
70.29478
63.03387
55.45535
48.21529
41.51213
35.18323
28.92542
22.46664
15.74521
8.95668
2.470795
-3.38942
-8.477478
-12.99083
-17.39252
-22.23535
-28.09732
-35.37224
-44.15421
-54.10657
-64.34038
-73.37335
-79.33612
-80.38042
-75.20683
-63.54535
-46.22318
-25.01057
-2.132111
20.22995
40.39108
57.17766
69.85419
78.02325
81.56589
80.71381
76.11087
68.80049
60.07237
51.20628
43.14774
36.28593
30.49922
25.30603
20.15927
14.71802
8.968674
3.20137
-2.237122
-7.152985
-11.67589
-16.16736
-21.16891
-27.12862
-34.35414
-42.83891
-52.21466
-61.65901
-69.94946
-75.52296
-76.75626
-72.46474
-62.1711
-46.46338
-26.82289
-5.352539
15.83083
34.98715
50.9234
63.05055
71.14439
75.26308
75.64572
72.71344
67.15089
59.89461
52.00291
44.3739
37.62521
31.87769
26.87633
22.16252
17.42343
12.55479
7.660706
2.983658
-1.374786
-5.489182
-9.708115
-14.46782
-20.24985
-27.32182
-35.73763
-45.17696
-54.87073
-63.58687
-69.70418
-71.63989
-68.1646
-58.81049
-44.04422
-25.23003
-4.285919
16.75772
36.12633
52.57872
65.33241
74.03882
78.62341
79.21986
76.24686
70.46639
62.91803
54.65957
46.6068
39.25233
32.64061
26.50486
20.51125
14.49667
8.506828
2.716476
-2.718994
-7.763161
-12.49683
-17.00171
-21.38763
-25.75323
-30.22426
-35.0866
-40.67699
-47.23245
-54.63857
-62.16101
-68.4579
-71.86279
-70.85262
-64.47756
-52.77539
-36.70938
-17.94052
1.604988
20.10648
36.18929
48.96381
57.97333
63.15698
64.72063
63.14135
59.0833
53.36304
46.80543
40.25894
34.29026
29.18978
24.91695
21.12154
17.3241
13.11504
8.361685
3.237926
-1.857027
-6.527174
-10.51665
-13.95467
-17.26143
-21.05853
-25.90209
-32.14737
-39.81862
-48.56363
-57.63722
-65.82058
-71.64828
-73.59575
-70.56087
-62.1241
-48.81364
-31.96607
-13.41934
4.90449
21.41159
34.96726
44.92424
51.03362
53.38346
52.36755
48.59493
42.92604
36.33424
29.75381
23.85855
18.97037
14.97261
11.36151
7.61158
3.316635
-1.496197
-6.531227
-11.33021
-15.5928
-19.31627
-22.72527
-26.26017
-30.18436
-34.67692
-39.70617
-45.19679
-50.83498
-56.03674
-59.85972
-61.09628
-58.64133
-51.80904
-40.77085
-26.46383
-10.40018
5.798141
20.81591
33.8021
44.32487
52.12791
57.08804
59.1087
58.30135
55.04417
50.0246
44.09682
38.08379
32.54107
27.63763
23.27206
19.16752
15.12446
11.15815
7.383484
3.948868
0.9047012
-1.881676
-4.737511
-8.041878
-12.15652
-17.31048
-23.60102
-30.9316
-38.95753
-46.95273
-53.78471
-58.04171
-58.32768
-53.73538
-44.14136
-30.32665
-13.86377
3.277802
19.26489
32.70422
42.85321
49.49377
52.78006
53.0871
50.9333
46.96114
41.90831
36.53119
31.43733
27.00858
23.24811
19.88417
16.55318
12.93266
8.944427
4.714478
0.491394
-3.468033
-7.02063
-10.19629
-13.18356
-16.17836
-19.43179
-23.06134
-27.10541
-31.60423
-36.54633
-41.7791
-46.89987
-51.1848
-53.49203
-52.72092
-47.95268
-38.95108
-26.29184
-11.25192
4.503311
19.42096
32.28336
42.51553
49.879
54.48193
56.51273
56.19894
53.87196
49.89024
44.75154
39.01839
33.29408
27.98724
23.37442
19.46429
16.00095
12.72159
9.285309
5.590454
1.641541
-2.428497
-6.496582
-10.41519
-14.11554
-17.65402
-21.05194
-24.44412
-27.95279
-31.84088
-36.30667
-41.44766
-47.03745
-52.40936
-56.58664
-58.33853
-56.63281
-50.82913
-41.02969
-27.98114
-12.94458
2.582214
17.26556
30.0202
40.13965
47.26126
51.28879
52.36658
50.81909
47.24084
42.27948
36.70364
31.17203
26.09241
21.67731
17.88278
14.56436
11.57278
8.794891
6.113647
3.437958
0.6117249
-2.563019
-6.185577
-10.29538
-14.77225
-19.41611
-23.99481
-28.40179
-32.56824
-36.62863
-40.82175
-45.38489
-50.48431
-55.92969
-61.0679
-64.83609
-65.97504
-63.35275
-56.46951
-45.65591
-32.00317
-17.0928
-2.533203
10.45273
21.0899
29.10846
34.52106
37.50528
38.26147
37.08408
34.36011
30.55447
26.21262
21.75092
17.45621
13.46304
9.769348
6.308838
2.998749
-0.256012
-3.502869
-6.743317
-10.00818
-13.28165
-16.56354
-19.86975
-23.19196
-26.53479
-29.93311
-33.47495
-37.26974
-41.43973
-46.06436
-50.9726
-55.78452
-59.75992
-61.98428
-61.48065
-57.53101
-49.83664
-38.74405
-25.19461
-10.51837
3.748352
16.33173
26.37695
33.5249
37.79617
39.49384
39.01715
36.83908
33.44635
29.34244
25.08456
21.11307
17.65744
14.68018
11.9519
9.170868
6.128784
2.817749
-0.6163025
-3.922211
-6.861755
-9.346985
-11.43906
-13.31604
-15.16003
-17.17877
-19.54733
-22.48947
-26.15302
-30.5278
-35.31378
-39.75513
-42.75494
-43.15314
-40.05548
-33.19928
-23.05652
-10.63153
2.782013
15.89172
27.67468
37.3732
44.52515
48.94946
50.68936
50.0687
47.61057
43.88422
39.41617
34.64395
29.86758
25.2771
21.00333
17.10315
13.53085
10.16193
6.798798
3.249695
-0.5315247
-4.460022
-8.407227
-12.2059
-15.8324
-19.35843
-23.01392
-27.05844
-31.71396
-37.05731
-42.9245
-48.86554
-54.06314
-57.47894
-57.96066
-54.64432
-47.20187
-35.98978
-22.08392
-6.993561
7.742279
20.953
31.9252
40.38614
46.25708
49.51895
50.16498
48.40921
44.72211
39.82178
34.58273
29.67139
25.37607
21.61221
18.00153
14.16174
9.882416
5.22876
0.4037781
-4.290009
-8.655029
-12.62369
-16.22421
-19.57376
-22.84277
-26.25427
-30.10965
-34.77252
-40.51285
-47.33673
-54.80072
-61.88568
-67.17542
-69.258
-67.0722
-60.3074
-49.49677
-35.80212
-20.75021
-5.745453
8.119843
20.16635
29.99683
37.42996
42.29358
44.56711
44.35336
41.95425
37.9751
33.15524
28.23941
23.75699
19.9277
16.61249
13.45804
10.10373
6.306915
2.116516
-2.261414
-6.535767
-10.56592
-14.37411
-18.20346
-22.43579
-27.42114
-33.41443
-40.48148
-48.47903
-56.90134
-64.89978
-71.30031
-74.72244
-73.95314
-68.26189
-57.69568
-43.05101
-25.84221
-7.838577
9.280075
24.19687
36.10516
44.65218
49.85211
51.87326
51.05864
47.88074
42.99046
37.19371
31.2993
26.00754
21.62965
18.05957
14.87405
11.48914
7.498749
2.886124
-2.060226
-6.870758
-11.17256
-14.91478
-18.33681
-21.91553
-26.14861
-31.42892
-37.83917
-45.19026
-52.89495
-60.01462
-65.25941
-67.20144
-64.64272
-56.89495
-44.13067
-27.33097
-8.084038
11.77967
30.57968
47.03448
60.38626
70.2634
76.6479
79.63539
79.5412
76.79526
72.07259
66.12921
59.72706
53.45555
47.57825
42.11354
36.8513
31.55556
26.0295
20.2264
14.24402
8.224312
2.365138
-3.279099
-8.696263
-14.04254
-19.51637
-25.39367
-31.91434
-39.24565
-47.42215
-56.18164
-64.88264
-72.32097
-76.96532
-77.21148
-71.90331
-60.69894
-44.30572
-24.30234
-2.712643
18.40822
37.42775
53.2037
65.17861
73.24742
77.6494
78.89298
77.60894
74.57763
70.43845
65.74616
60.85255
55.92134
51.01884
46.12331
41.21341
36.22372
31.15603
25.93519
20.52254
14.86608
8.943321
2.8078
-3.48967
-9.805161
-16.08279
-22.33315
-28.71568
-35.46651
-42.80701
-50.8383
-59.243
-67.24846
-73.55795
-76.58369
-74.84131
-67.44894
-54.41855
-36.73004
-16.17972
5.22438
25.51421
43.27914
57.62143
68.18056
74.9528
78.20523
78.41104
76.16031
72.10954
66.84601
60.90869
54.67413
48.47774
42.57243
37.0954
32.09462
27.51176
23.136
18.74162
14.15234
9.311096
4.277206
-0.8318329
-5.922562
-10.99651
-16.08229
-21.27425
-26.7776
-32.82739
-39.68384
-47.50414
-56.06068
-64.62326
-71.84903
-76.03502
-75.55177
-69.39104
-57.5173
-40.92638
-21.41896
-1.052704
18.30444
35.34509
49.29991
59.87335
67.03789
70.90698
71.72008
69.81717
65.6955
60.05652
53.7178
47.41939
41.71626
36.85538
32.757
29.11438
25.54065
21.72363
17.55075
13.07516
8.371643
3.523132
-1.445435
-6.621735
-12.05852
-17.78625
-23.77548
-29.99022
-36.4861
-43.39594
-50.7798
-58.39233
-65.46616
-70.64218
-72.27472
-68.89233
-59.76704
-45.34007
-27.12192
-7.256058
12.06587
29.13664
43.03482
53.47765
60.55879
64.57314
65.79399
64.5708
61.35141
56.66481
51.05392
45.06052
39.08828
33.35378
28.00874
23.01475
18.33055
13.87232
9.556107
5.286942
1.061607
-3.09008
-7.148628
-11.1343
-15.19032
-19.49886
-24.31744
-29.89908
-36.41976
-43.81799
-51.74046
-59.43952
-65.7522
-69.34177
-68.90974
-63.60479
-53.36166
-38.93026
-21.75014
-3.591232
13.80361
29.11025
41.4116
50.27267
55.60808
57.63071
56.81944
53.86432
49.59493
44.71921
39.87257
35.33113
31.15969
27.25018
23.46413
19.64055
15.65614
11.38875
6.760086
1.816856
-3.305893
-8.369484
-13.11924
-17.41284
-21.29218
-24.93996
-28.64285
-32.75254
-37.57824
-43.24165
-49.58493
-55.98486
-61.36743
-64.31592
-63.48163
-58.01988
-47.96122
-34.17632
-18.17242
-1.658745
13.86062
27.23532
37.82274
45.30177
49.61621
50.86885
49.41645
45.83743
40.87555
35.32513
29.90668
25.15977
21.35552
18.43433
16.04404
13.71719
10.94319
7.403652
3.170645
-1.436174
-6.017841
-10.28185
-14.21303
-18.07041
-22.23991
-27.07343
-32.82034
-39.46191
-46.76896
-54.2473
-61.08162
-66.13044
-68.08821
-65.8592
-58.90778
-47.53872
-32.85346
-16.48112
-0.1461897
14.74764
27.29013
37.06138
43.95012
48.03062
49.46773
48.47174
45.39202
40.79879
35.40188
29.88486
24.85054
20.5913
17.07872
14.00487
10.92983
7.473419
3.434022
-1.097955
-5.881559
-10.57165
-14.95422
-18.94041
-22.64954
-26.36087
-30.40716
-35.15969
-40.80007
-47.20972
-53.84176
-59.69936
-63.47284
-63.82222
-59.8411
-51.27707
-38.7081
-23.41425
-6.981463
9.007113
23.27626
35.00631
43.75429
49.36055
51.95369
51.8414
49.52684
45.68028
40.99197
36.12161
31.49322
27.26319
23.31721
19.46443
15.49646
11.32482
6.959131
2.427713
-2.195387
-6.89604
-11.65784
-16.49495
-21.3951
-26.37902
-31.51338
-36.96991
-42.9818
-49.74236
-57.18249
-64.71032
-71.19038
-75.07688
-74.8334
-69.43581
-58.81133
-43.81087
-26.07833
-7.470982
10.27386
25.84505
38.39768
47.57805
53.38039
56.09244
56.21021
54.2973
50.94193
46.6468
41.83494
36.8686
32.01708
27.44121
23.14633
18.97279
14.70378
10.18517
5.478436
0.7450562
-3.767082
-7.903046
-11.72501
-15.42039
-19.31886
-23.81554
-29.21605
-35.71111
-43.33831
-51.74287
-60.17748
-67.4132
-71.90776
-72.07738
-66.84431
-55.92568
-40.02563
-20.81863
-0.4507599
18.91891
35.66476
48.91278
58.53874
64.88416
68.38261
69.44958
68.35184
65.40395
61.01974
55.76652
50.25665
44.96288
40.09502
35.52736
30.9902
26.23456
21.18998
15.95603
10.72247
5.639191
0.7226791
-4.117615
-9.032768
-14.09591
-19.34819
-24.71355
-30.20264
-35.97477
-42.28799
-49.37618
-57.17195
-65.04922
-71.68025
-75.36417
-74.42297
-67.77477
-55.37378
-38.24173
-18.17815
2.722992
22.52892
39.78352
53.54243
63.34326
69.16586
71.35123
70.5598
67.69429
63.68243
59.28842
54.96231
50.82831
46.83768
42.91559
39.02553
35.24557
31.58267
28.01224
24.38756
20.53705
16.26892
11.51239
6.307053
0.7502594
-4.955048
-10.59763
-15.97792
-21.04204
-25.86562
-30.80708
-36.33151
-42.86963
-50.56184
-59.05632
-67.34813
-73.9807
-77.28444
-75.83633
-68.89287
-56.57985
-39.95424
-20.67683
-0.6937561
18.23938
34.74429
48.00871
57.67896
63.78316
66.58911
66.53344
64.21406
60.30085
55.55895
50.59612
45.83594
41.42535
37.25662
33.18162
29.07329
24.96334
20.92741
17.01324
13.12103
9.029556
4.531731
-0.5255051
-6.079887
-11.97408
-17.8897
-23.57657
-28.85892
-33.8136
-38.7603
-44.16341
-50.51264
-57.98528
-66.30566
-74.52758
-81.15577
-84.43105
-82.81534
-75.45436
-62.45074
-44.93983
-24.64893
-3.647758
16.25161
33.70957
47.95087
58.71712
66.02935
70.12638
71.34232
70.23848
67.38304
63.40021
58.81807
54.01328
49.19662
44.4026
39.61959
34.81823
30.0413
25.36277
20.80545
16.30679
11.70844
6.846107
1.573494
-4.114891
-10.0778
-16.09579
-21.93208
-27.53255
-33.03302
-38.85467
-45.4208
-53.06969
-61.72036
-70.70177
-78.7967
-84.35755
-85.67542
-81.48061
-71.35809
-55.84691
-36.46784
-15.30229
5.482414
24.09265
39.38403
50.92384
58.80596
63.36468
65.04514
64.30762
61.60134
57.38371
52.16277
46.45045
40.71589
35.31872
30.41341
25.99258
21.9082
17.91201
13.75366
9.254627
4.371021
-0.8061829
-6.086872
-11.25708
-16.18036
-20.78874
-25.11525
-29.38724
-33.94862
-39.20663
-45.48003
-52.74392
-60.44167
-67.41088
-72.11836
-72.96275
-68.85161
-59.54213
-45.75161
-28.95604
-10.94676
6.545063
22.23447
35.23985
45.14321
51.78531
55.25754
55.83544
54.01513
50.46692
45.89642
40.92257
35.94834
31.15574
26.51197
21.93066
17.26805
12.41129
7.379498
2.203487
-2.982239
-8.00145
-12.69878
-16.93697
-20.67422
-24.00099
-27.19284
-30.63337
-34.80117
-40.06922
-46.53549
-53.8065
-60.89529
-66.35145
-68.56883
-66.26483
-58.86355
-46.75861
-31.16823
-13.80443
3.629051
19.70485
33.52254
44.56629
52.60431
57.55174
59.41734
58.4158
55.0089
49.91866
44.04121
38.22355
33.0472
28.7918
25.37176
22.43806
19.57503
16.3966
12.63696
8.200737
3.132408
-2.440857
-8.307209
-14.27174
-20.25472
-26.29803
-32.60899
-39.44884
-46.98762
-55.08775
-63.08893
-69.80469
-73.65333
-73.09937
-67.11908
-55.62161
-39.54354
-20.63015
-1.002766
17.41922
33.28367
45.89175
55.12144
61.12543
64.1429
64.42732
62.3583
58.43303
53.32607
47.79728
42.4723
37.67475
33.4243
29.4654
25.43645
21.08773
16.3577
11.37204
6.397995
1.628468
-2.832687
-7.026325
-11.14069
-15.3876
-19.9803
-25.09783
-30.89188
-37.423
-44.56659
-51.81517
-58.22408
-62.46578
-63.11398
-59.09622
-50.0298
-36.46128
-19.67458
-1.405617
16.58787
32.87054
46.45861
56.79653
63.70791
67.25919
67.74886
65.67235
61.75444
56.73308
51.28572
45.87955
40.73908
35.89586
31.25002
26.71609
22.22699
17.77682
13.37305
9.010069
4.664711
0.3292732
-3.998612
-8.291591
-12.52539
-16.66513
-20.73274
-24.77398
-28.94317
-33.51914
-38.82965
-45.04132
-51.93885
-58.79832
-64.3504
-67.04798
-65.47281
-58.81901
-47.14361
-31.50293
-13.56119
4.779898
21.82301
36.33765
47.65975
55.57151
60.18845
61.84058
61.00566
58.26012
54.24147
49.58274
44.78655
40.19963
35.97104
32.09625
28.53218
25.21973
22.15291
19.34142
16.73811
14.17406
11.38361
8.044884
3.990707
-0.7606392
-6.02195
-11.47828
-16.89605
-22.15149
-27.25224
-32.35358
-37.65646
-43.35548
-49.60034
-56.32487
-63.03494
-68.76775
-72.214
-71.9524
-66.99728
-57.14947
-43.03605
-26.06422
-8.044495
9.264168
24.46136
36.61355
45.40441
50.89982
53.44267
53.56616
51.82455
48.73876
44.84562
40.60446
36.39832
32.49471
28.93165
25.60616
22.36378
19.10482
15.87677
12.82608
10.02142
7.402588
4.699768
1.550247
-2.330887
-6.971085
-12.18901
-17.60585
-22.86841
-27.85014
-32.62769
-37.43581
-42.5583
-48.20242
-54.25708
-60.30811
-65.49266
-68.69112
-68.79451
-64.95001
-56.88229
-44.96895
-30.20685
-13.95219
2.357635
17.43333
30.25797
40.12837
46.72751
50.11307
50.69272
49.12518
46.20067
42.63608
38.97548
35.5052
32.29453
29.29283
26.37727
23.47896
20.60059
17.78232
15.08151
12.43251
9.627686
6.385437
2.485352
-2.183273
-7.451843
-12.92531
-18.21376
-23.01067
-27.22632
-31.05342
-34.88535
-39.10318
-44.08246
-49.91891
-56.35237
-62.70688
-67.90379
-70.61313
-69.66335
-64.31966
-54.53653
-41.07494
-25.24364
-8.617355
7.285492
21.33569
32.8279
41.45323
47.20737
50.28882
51.01756
49.84622
47.29988
43.86494
40.00401
36.02235
32.04269
28.12093
24.31763
20.66255
17.27188
14.25459
11.58081
9.134811
6.707214
4.046799
0.9563599
-2.576828
-6.506027
-10.61923
-14.73694
-18.77391
-22.74193
-26.80615
-31.2074
-36.22583
-42.05397
-48.69269
-55.7718
-62.51715
-67.80725
-70.30817
-68.87668
-62.86894
-52.43343
-38.46556
-22.45979
-6.026703
9.37941
22.71048
33.40797
41.24252
46.29019
48.76544
49.02632
47.5183
44.80257
41.39342
37.66991
33.85747
29.96291
25.90778
21.64886
17.25096
12.86497
8.700119
4.904648
1.508698
-1.581375
-4.553528
-7.649643
-11.05673
-14.86913
-19.08698
-23.6329
-28.41866
-33.45976
-38.87889
-44.87677
-51.52531
-58.58972
-65.3768
-70.7318
-73.35942
-72.11798
-66.39603
-56.32689
-42.82143
-27.19037
-10.90555
4.675598
18.54179
29.99196
38.61632
44.27354
47.1319
47.46577
45.81308
42.77861
38.90773
34.66092
30.36072
26.18852
22.27148
18.73068
15.57332
12.72304
9.948502
6.911316
3.338257
-0.9208832
-5.785187
-10.96434
-16.07986
-20.7952
-24.98767
-28.76062
-32.44981
-36.39383
-40.94754
-46.30971
-52.43774
-58.94298
-65.04126
-69.55212
-71.11226
-68.60463
-61.37645
-49.70845
-34.68968
-17.94345
-1.185974
14.17856
27.30663
37.86064
45.74747
51.05821
53.83937
54.246
52.51935
49.12218
44.62592
39.5687
34.43063
29.43622
24.69888
20.16457
15.7646
11.43432
7.208542
3.134514
-0.784523
-4.616455
-8.564796
-12.86916
-17.74445
-23.31216
-29.55401
-36.42117
-43.87381
-51.93212
-60.52004
-69.23386
-77.09483
-82.66391
-84.34544
-80.81908
-71.65462
-57.40239
-39.54549
-19.99046
-0.6304569
17.09992
32.34631
44.67577
53.96405
60.17895
63.43349
63.96419
62.266
58.89367
54.47078
49.52388
44.42049
39.3532
34.36549
29.39829
24.3188
19.00616
13.38328
7.478931
1.423611
-4.537159
-10.18269
-15.48431
-20.60661
-25.95776
-32.07487
-39.42242
-48.16744
-57.98885
-67.952
-76.58404
-82.1126
-82.87653
-77.80799
-66.79839
-50.80385
-31.58066
-11.17685
8.528534
26.21313
41.19685
53.29079
62.43834
68.58757
71.68758
71.84186
69.48378
65.3219
60.17487
54.73242
49.38878
44.15259
38.83575
33.24785
27.28403
20.99884
14.57686
8.240082
2.154495
-3.605179
-9.080429
-14.45717
-19.99522
-26.0484
-32.99672
-41.0985
-50.35155
-60.30701
-69.87648
-77.44345
-81.12128
-79.23138
-70.87469
-56.2388
-36.6449
-14.14334
8.956055
30.698
49.69891
65.17139
76.76434
84.37518
88.20175
88.68942
86.50757
82.48804
77.41437
71.87772
66.18716
60.47778
54.7796
49.16422
43.74423
38.54977
33.54755
28.50668
23.15457
17.28494
10.87396
4.065277
-2.93161
-9.956696
-16.9888
-24.11118
-31.55673
-39.62195
-48.59528
-58.5451
-69.11365
-79.2991
-87.40213
-91.36301
-89.27255
-80.06046
-63.89438
-42.19818
-17.31317
8.188232
31.99991
52.51953
68.78421
80.44998
87.52374
90.36838
89.63223
86.18134
81.0282
75.08514
69.04877
63.30722
57.95825
52.93909
48.17511
43.58389
39.15845
34.87921
30.61731
26.15414
21.21384
15.58716
9.215302
2.227081
-5.125092
-12.57526
-19.93173
-27.20917
-34.62924
-42.50671
-51.09958
-60.38748
-69.86328
-78.41055
-84.367
-85.8649
-81.45184
-70.49741
-53.4996
-32.05762
-8.391846
15.16498
36.62823
54.66531
68.61426
78.31467
84.0054
86.16885
85.40317
82.40103
77.83606
72.35751
66.47125
60.54788
54.83966
49.47629
44.49808
39.83151
35.41483
31.12939
26.85403
22.40268
17.61133
12.28818
6.399628
0.02267456
-6.617126
-13.16812
-19.41418
-25.28433
-30.97705
-36.90335
-43.55505
-51.21487
-59.78989
-68.57822
-76.21762
-80.94974
-80.99948
-75.1297
-63.06485
-45.70056
-24.87598
-2.882568
18.11411
36.4949
51.31635
62.23917
69.32034
72.81732
73.18057
70.9642
66.87106
61.65427
55.99893
50.38187
45.08328
40.17493
35.62436
31.42181
27.49503
23.72842
19.98257
16.0368
11.71507
6.951675
1.763794
-3.745514
-9.394943
-15.07399
-20.74458
-26.42242
-32.19511
-38.22792
-44.70718
-51.75319
-59.22906
-66.45326
-72.1973
-74.87167
-72.95248
-65.58211
-52.86137
-35.91873
-16.63907
2.932388
21.04718
36.55078
48.90663
57.95403
63.72668
66.38309
66.22366
63.70998
59.53001
54.42032
49.08188
44.00836
39.43637
35.38017
31.68051
28.16692
24.64258
20.96466
16.98319
12.62476
7.823082
2.619347
-2.92318
-8.683601
-14.53072
-20.30283
-25.86591
-31.22024
-36.47424
-41.91944
-47.85501
-54.4163
-61.21956
-67.34232
-71.30315
-71.62619
-67.21402
-57.84895
-44.31089
-28.16157
-11.24072
4.79566
18.81021
30.22332
38.86983
44.81859
48.22018
49.28891
48.32867
45.7707
42.09408
37.79236
33.27042
28.81571
24.60005
20.72905
17.21497
14.06301
11.19059
8.434887
5.61763
2.480957
-1.087185
-5.179775
-9.715424
-14.55311
-19.49235
-24.39017
-29.2784
-34.33829
-39.85307
-46.01707
-52.65117
-59.06017
-64.04017
-66.19895
-64.33365
-57.88725
-47.1412
-33.13446
-17.41322
-1.592552
12.94061
25.2017
34.63731
41.06438
44.57071
45.51663
44.38072
41.75261
38.19502
34.19923
30.1754
26.35847
22.90862
19.85414
17.12675
14.6409
12.18486
9.593796
6.741806
3.564117
0.04933167
-3.761032
-7.803085
-12.05058
-16.41232
-20.85449
-25.36377
-30.03258
-35.08499
-40.74107
-47.08334
-53.80937
-60.18661
-65.00714
-66.93845
-64.86006
-58.27863
-47.53235
-33.69987
-18.36977
-3.172455
10.48347
21.70085
30.01329
35.35913
37.87366
37.80023
35.49329
31.37567
26.06558
20.27481
14.72946
10.01205
6.423065
3.87027
1.987885
0.2915344
-1.609344
-3.820892
-6.221954
-8.635925
-10.9249
-13.14209
-15.43341
-17.95071
-20.73514
-23.79596
-27.17715
-31.02652
-35.56393
-40.7652
-46.15778
-50.80197
-53.40836
-52.74277
-48.1579
-39.75385
-28.47177
-15.70483
-2.927765
8.66333
18.30252
25.64902
30.62955
33.27075
33.7272
32.20557
29.09253
24.90982
20.30148
15.8093
11.83957
8.520874
5.721436
3.2211
0.7291565
-1.954376
-4.934387
-8.166687
-11.53329
-14.84967
-17.95035
-20.83963
-23.59799
-26.49078
-29.85312
-34.01205
-39.19397
-45.34918
-52.0134
-58.24722
-62.81009
-64.35727
-61.85297
-54.97614
-44.2121
-30.79407
-16.32266
-2.265076
10.25363
20.60529
28.55161
34.0304
37.06619
37.7597
36.375
33.36816
29.39099
25.10785
21.05167
17.4938
14.34454
11.25537
7.852448
3.853302
-0.8058777
-5.896881
-11.08096
-16.01013
-20.48679
-24.54883
-28.40479
-32.34818
-36.65775
-41.57239
-47.08557
-52.95401
-58.58865
-63.05841
-65.29117
-64.23843
-59.28366
-50.4267
-38.3591
-24.26657
-9.554138
4.4776
16.87819
27.07321
34.8094
39.99452
42.64824
42.94246
41.26791
38.17984
34.3744
30.50537
26.92125
23.66861
20.41475
16.6953
12.19966
6.94281
1.279892
-4.244049
-9.13765
-13.29422
-16.91035
-20.44119
-24.41498
-29.27899
-35.29887
-42.49757
-50.52956
-58.58606
-65.40448
-69.42914
-69.18546
-63.77174
-53.17006
-38.28946
-20.71338
-2.264984
15.44081
31.22083
44.38393
54.64179
61.90154
66.16309
67.52582
66.20133
62.57469
57.21932
50.80888
44.01204
37.39709
31.32221
25.87203
20.94015
16.26521
11.59122
6.819237
1.982243
-2.753559
-7.238102
-11.4781
-15.73913
-20.41241
-25.96325
-32.68013
-40.59848
-49.47247
-58.75863
-67.57266
-74.65721
-78.55635
-77.77332
-71.3344
-59.12219
-42.01646
-21.741
-0.3886871
20.12181
38.36705
53.50302
65.21523
73.48361
78.47433
80.51527
80.04244
77.64862
73.96281
69.54274
64.74127
59.76852
54.69365
49.54572
44.39822
39.32008
34.35806
29.44834
24.42099
18.98515
12.94027
6.246048
-0.966362
-8.384209
-15.71503
-22.78834
-29.68521
-36.69131
-44.14941
-52.32158
-61.14864
-70.09045
-78.04286
-83.45773
-84.68526
-80.42688
-70.17827
-54.42581
-34.57726
-12.58819
9.534805
30.17805
48.20708
62.96213
74.12511
81.58102
85.44515
86.09314
84.17207
80.53571
76.003
71.18166
66.31697
61.43195
56.4068
51.19866
45.93143
40.88651
36.37288
32.45129
28.94354
25.34294
21.13831
15.91499
9.606918
2.526306
-4.828903
-11.91661
-18.47876
-24.54964
-30.49222
-36.81328
-44.03387
-52.41533
-61.80161
-71.47873
-80.09415
-85.93153
-87.1763
-82.48976
-71.44226
-54.68201
-33.76472
-10.79961
12.07597
33.09755
51.00435
65.07652
75.01843
80.89874
83.09047
82.19612
79.0643
74.54465
69.41571
64.2054
59.17496
54.31583
49.56222
44.87396
40.2727
35.87412
31.75027
27.86601
24.04638
19.98224
15.36209
10.00043
3.902077
-2.659431
-9.331047
-15.71367
-21.56908
-26.87371
-31.8363
-36.89817
-42.5675
-49.22128
-56.86221
-64.9248
-72.28126
-77.40089
-78.72002
-75.06956
-66.0438
-52.12383
-34.52555
-14.90665
5.070816
23.90191
40.40945
53.80655
63.59656
69.70267
72.38197
72.20287
69.96575
66.45595
62.31606
57.9331
53.43901
48.87336
44.29295
39.84798
35.71005
32.04414
28.81266
25.80146
22.61414
18.8045
14.05738
8.263651
1.66283
-5.295176
-12.04077
-18.147
-23.39273
-27.8786
-31.98138
-36.23515
-41.2109
-47.27784
-54.48965
-62.33092
-69.76337
-75.29662
-77.33322
-74.67697
-66.86099
-54.37312
-38.50001
-20.94402
-3.381126
12.82582
26.79907
38.0849
46.45517
51.91807
54.60723
54.82086
53.0583
49.93929
46.08805
41.98465
37.94323
34.0214
30.21166
26.46971
22.79821
19.28429
16.00059
12.97096
10.06171
7.061996
3.71991
-0.1170502
-4.482422
-9.289238
-14.32154
-19.38994
-24.35104
-29.21102
-34.13929
-39.36166
-45.00306
-50.97276
-56.80369
-61.6372
-64.39466
-63.98055
-59.65772
-51.25284
-39.3504
-25.08421
-9.928146
4.627075
17.43605
27.77484
35.3503
40.20506
42.58701
42.81943
41.31487
38.55347
35.01982
31.24066
27.59625
24.27747
21.25603
18.36684
15.39682
12.18329
8.721588
5.109146
1.452652
-2.262039
-6.107483
-10.23102
-14.67029
-19.33502
-24.03947
-28.56038
-32.79808
-36.81485
-40.83551
-45.09836
-49.65909
-54.21861
-58.10951
-60.31296
-59.75647
-55.63606
-47.71451
-36.47267
-22.98317
-8.649231
5.126328
17.26135
27.09688
34.34929
39.00787
41.21875
41.24989
39.50027
36.43443
32.55913
28.36021
24.23125
20.43332
17.08173
14.19125
11.6969
9.460358
7.253311
4.821976
1.935196
-1.507294
-5.482498
-9.870697
-14.43408
-18.99283
-23.43459
-27.82024
-32.36528
-37.36832
-43.07097
-49.44923
-56.05287
-61.93648
-65.81462
-66.42258
-62.90623
-55.15407
-43.78117
-29.99419
-15.21001
-0.6981049
12.62668
24.1898
33.66948
40.86206
45.63257
47.9935
48.10364
46.26497
42.91164
38.51631
33.47328
28.11156
22.68439
17.36128
12.2943
7.584259
3.297867
-0.5155182
-3.842865
-6.766464
-9.384583
-11.84163
-14.3233
-17.0097
-20.02835
-23.43785
-27.2607
-31.60442
-36.64108
-42.37041
-48.48779
-54.22763
-58.39037
-59.72081
-57.21542
-50.52576
-40.12883
-27.16112
-13.05128
0.8248749
13.33699
23.79468
31.80569
37.2702
40.32715
41.32773
40.76372
39.17159
36.99655
34.53226
31.94473
29.27997
26.53552
23.73053
20.92767
18.17735
15.47998
12.74054
9.813126
6.541946
2.848022
-1.268188
-5.665878
-10.18398
-14.67487
-19.1506
-23.76434
-28.79033
-34.42365
-40.68782
-47.26436
-53.36208
-57.90977
-59.66449
-57.64331
-51.34854
-41.0309
-27.5807
-12.38806
3.074387
17.50148
29.96429
39.95462
47.23
51.81035
53.83905
53.6039
51.45842
47.85942
43.289
38.20628
33.02956
28.08864
23.65485
19.8878
16.84457
14.4337
12.4413
10.59966
8.623749
6.315155
3.550476
0.3258209
-3.284775
-7.1651
-11.16969
-15.25929
-19.49054
-24.08867
-29.27573
-35.23213
-41.85725
-48.666
-54.79024
-58.9912
-60.03337
-56.99965
-49.58105
-38.20506
-24.00087
-8.470688
6.831116
20.63478
32.09769
40.83009
46.78517
50.12708
51.18585
50.3421
48.08374
44.91821
41.31076
37.6927
34.30658
31.26204
28.52725
25.99403
23.48103
20.82368
17.8399
14.34976
10.28592
5.678391
0.6968536
-4.392166
-9.333069
-13.99126
-18.28204
-22.20949
-25.8578
-29.36003
-32.92059
-36.84229
-41.40359
-46.64479
-52.17059
-57.01436
-59.79698
-59.11925
-54.05197
-44.51227
-31.35675
-16.09631
-0.4997559
13.90866
26.10066
35.56786
42.19534
46.10133
47.56392
46.91817
44.69344
41.51564
37.95265
34.46304
31.21094
28.17236
25.19441
22.14699
18.95523
15.66211
12.33073
8.924805
5.395065
1.623611
-2.421463
-6.750732
-11.28757
-15.96954
-20.71628
-25.49413
-30.39613
-35.54735
-41.11089
-47.12604
-53.37961
-59.34732
-64.11417
-66.55287
-65.5394
-60.35452
-50.85162
-37.61996
-21.88419
-5.143982
11.03656
25.40944
37.13277
45.78394
51.30458
53.90349
53.96335
51.99364
48.59404
44.29022
39.54768
34.63239
29.74798
25.05981
20.69569
16.70583
13.05129
9.603012
6.136032
2.479637
-1.473335
-5.700523
-10.10602
-14.62286
-19.24424
-24.02267
-29.00078
-34.2644
-39.89246
-45.99138
-52.58057
-59.42088
-65.79645
-70.52237
-72.15112
-69.40323
-61.65239
-49.17516
-33.18033
-15.3838
2.415192
18.75251
32.71008
43.85409
52.05701
57.34519
59.88479
59.89361
57.74251
53.91794
48.95764
43.42165
37.75083
32.20329
26.9367
21.99499
17.3812
12.99155
8.702793
4.386932
-0.0707283
-4.725006
-9.568081
-14.47864
-19.34182
-24.03342
-28.58099
-33.1431
-38.00724
-43.53972
-50.03937
-57.49672
-65.32234
-72.336
-76.83125
-77.09023
-71.88776
-60.94321
-45.06653
-25.90322
-5.553806
14.08968
31.49694
45.78191
56.5239
63.70074
67.55715
68.50907
67.11481
63.94467
59.5248
54.23762
48.44341
42.43998
36.54284
31.03169
26.04171
21.55225
