1570264204.13089
1570264204.14652
1570264204.16215
1570264204.17777
1570264204.1934
1570264204.20902
1570264204.22465
1570264204.24027
1570264204.2559
1570264204.27153
1570264204.28715
1570264204.30278
1570264204.3184
1570264204.33403
1570264204.34965
1570264204.36528
1570264204.38091
1570264204.39653
1570264204.41216
1570264204.42778
1570264204.44341
1570264204.45903
1570264204.47466
1570264204.49029
1570264204.50591
1570264204.52154
1570264204.53716
1570264204.55279
1570264204.56841
1570264204.58404
1570264204.59967
1570264204.61529
1570264204.63092
1570264204.64654
1570264204.66217
1570264204.67779
1570264204.69342
1570264204.70905
1570264204.72467
1570264204.7403
1570264204.75592
1570264204.77155
1570264204.78717
1570264204.8028
1570264204.81843
1570264204.83405
1570264204.84968
1570264204.8653
1570264204.88093
1570264204.89655
1570264204.91218
1570264204.92781
1570264204.94343
1570264204.95906
1570264204.97468
1570264204.99031
1570264205.00593
1570264205.02156
1570264205.03719
1570264205.05281
1570264205.06844
1570264205.08406
1570264205.09969
1570264205.11531
1570264205.13094
1570264205.14657
1570264205.16219
1570264205.17782
1570264205.19344
1570264205.20907
1570264205.22469
1570264205.24032
1570264205.25595
1570264205.27157
1570264205.2872
1570264205.30282
1570264205.31845
1570264205.33407
1570264205.3497
1570264205.36533
1570264205.38095
1570264205.39658
1570264205.4122
1570264205.42783
1570264205.44345
1570264205.45908
1570264205.47471
1570264205.49033
1570264205.50596
1570264205.52158
1570264205.53721
1570264205.55283
1570264205.56846
1570264205.58409
1570264205.59971
1570264205.61534
1570264205.63096
1570264205.64659
1570264205.66221
1570264205.67784
1570264205.69347
1570264205.70909
1570264205.72472
1570264205.74034
1570264205.75597
1570264205.77159
1570264205.78722
1570264205.80285
1570264205.81847
1570264205.8341
1570264205.84972
1570264205.86535
1570264205.88097
1570264205.8966
1570264205.91223
1570264205.92785
1570264205.94348
1570264205.9591
1570264205.97473
1570264205.99035
1570264206.00598
1570264206.02161
1570264206.03723
1570264206.05286
1570264206.06848
1570264206.08411
1570264206.09973
1570264206.11536
1570264206.13099
1570264206.14661
1570264206.16224
1570264206.17786
1570264206.19349
1570264206.20911
1570264206.22474
1570264206.24037
1570264206.25599
1570264206.27162
1570264206.28724
1570264206.30287
1570264206.31849
1570264206.33412
1570264206.34975
1570264206.36537
1570264206.381
1570264206.39662
1570264206.41225
1570264206.42788
1570264206.4435
1570264206.45913
1570264206.47475
1570264206.49038
1570264206.506
1570264206.52163
1570264206.53726
1570264206.55288
1570264206.56851
1570264206.58413
1570264206.59976
1570264206.61538
1570264206.63101
1570264206.64664
1570264206.66226
1570264206.67789
1570264206.69351
1570264206.70914
1570264206.72476
1570264206.74039
1570264206.75602
1570264206.77164
1570264206.78727
1570264206.80289
1570264206.81852
1570264206.83414
1570264206.84977
1570264206.8654
1570264206.88102
1570264206.89665
1570264206.91227
1570264206.9279
1570264206.94352
1570264206.95915
1570264206.97478
1570264206.9904
1570264207.00603
1570264207.02165
1570264207.03728
1570264207.0529
1570264207.06853
1570264207.08416
1570264207.09978
1570264207.11541
1570264207.13103
1570264207.14666
1570264207.16228
1570264207.17791
1570264207.19354
1570264207.20916
1570264207.22479
1570264207.24041
1570264207.25604
1570264207.27166
1570264207.28729
1570264207.30292
1570264207.31854
1570264207.33417
1570264207.34979
1570264207.36542
1570264207.38104
1570264207.39667
1570264207.4123
1570264207.42792
1570264207.44355
1570264207.45917
1570264207.4748
1570264207.49042
1570264207.50605
1570264207.52168
1570264207.5373
1570264207.55293
1570264207.56855
1570264207.58418
1570264207.5998
1570264207.61543
1570264207.63106
1570264207.64668
1570264207.66231
1570264207.67793
1570264207.69356
1570264207.70918
1570264207.72481
1570264207.74044
1570264207.75606
1570264207.77169
1570264207.78731
1570264207.80294
1570264207.81856
1570264207.83419
1570264207.84982
1570264207.86544
1570264207.88107
1570264207.89669
1570264207.91232
1570264207.92794
1570264207.94357
1570264207.9592
1570264207.97482
1570264207.99045
1570264208.00607
1570264208.0217
1570264208.03732
1570264208.05295
1570264208.06858
1570264208.0842
1570264208.09983
1570264208.11545
1570264208.13108
1570264208.1467
1570264208.16233
1570264208.17796
1570264208.19358
1570264208.20921
1570264208.22483
1570264208.24046
1570264208.25608
1570264208.27171
1570264208.28734
1570264208.30296
1570264208.31859
1570264208.33421
1570264208.34984
1570264208.36546
1570264208.38109
1570264208.39672
1570264208.41234
1570264208.42797
1570264208.44359
1570264208.45922
1570264208.47484
1570264208.49047
1570264208.5061
1570264208.52172
1570264208.53735
1570264208.55297
1570264208.5686
1570264208.58422
1570264208.59985
1570264208.61548
1570264208.6311
1570264208.64673
1570264208.66235
1570264208.67798
1570264208.6936
1570264208.70923
1570264208.72486
1570264208.74048
1570264208.75611
1570264208.77173
1570264208.78736
1570264208.80298
1570264208.81861
1570264208.83424
1570264208.84986
1570264208.86549
1570264208.88111
1570264208.89674
1570264208.91236
1570264208.92799
1570264208.94362
1570264208.95924
1570264208.97487
1570264208.99049
1570264209.00612
1570264209.02175
1570264209.03737
1570264209.053
1570264209.06862
1570264209.08425
1570264209.09987
1570264209.1155
1570264209.13113
1570264209.14675
1570264209.16238
1570264209.178
1570264209.19363
1570264209.20925
1570264209.22488
1570264209.24051
1570264209.25613
1570264209.27176
1570264209.28738
1570264209.30301
1570264209.31863
1570264209.33426
1570264209.34989
1570264209.36551
1570264209.38114
1570264209.39676
1570264209.41239
1570264209.42801
1570264209.44364
1570264209.45927
1570264209.47489
1570264209.49052
1570264209.50614
1570264209.52177
1570264209.53739
1570264209.55302
1570264209.56865
1570264209.58427
1570264209.5999
1570264209.61552
1570264209.63115
1570264209.64677
1570264209.6624
1570264209.67803
1570264209.69365
1570264209.70928
1570264209.7249
1570264209.74053
1570264209.75615
1570264209.77178
1570264209.78741
1570264209.80303
1570264209.81866
1570264209.83428
1570264209.84991
1570264209.86553
1570264209.88116
1570264209.89679
1570264209.91241
1570264209.92804
1570264209.94366
1570264209.95929
1570264209.97491
1570264209.99054
1570264210.00617
1570264210.02179
1570264210.03742
1570264210.05304
1570264210.06867
1570264210.08429
1570264210.09992
1570264210.11555
1570264210.13117
1570264210.1468
1570264210.16242
1570264210.17805
1570264210.19367
1570264210.2093
1570264210.22493
1570264210.24055
1570264210.25618
1570264210.2718
1570264210.28743
1570264210.30305
1570264210.31868
1570264210.33431
1570264210.34993
1570264210.36556
1570264210.38118
1570264210.39681
1570264210.41243
1570264210.42806
1570264210.44369
1570264210.45931
1570264210.47494
1570264210.49056
1570264210.50619
1570264210.52181
1570264210.53744
1570264210.55307
1570264210.56869
1570264210.58432
1570264210.59994
1570264210.61557
1570264210.63119
1570264210.64682
1570264210.66245
1570264210.67807
1570264210.6937
1570264210.70932
1570264210.72495
1570264210.74057
1570264210.7562
1570264210.77183
1570264210.78745
1570264210.80308
1570264210.8187
1570264210.83433
1570264210.84995
1570264210.86558
1570264210.88121
1570264210.89683
1570264210.91246
1570264210.92808
1570264210.94371
1570264210.95933
1570264210.97496
1570264210.99059
1570264211.00621
1570264211.02184
1570264211.03746
1570264211.05309
1570264211.06871
1570264211.08434
1570264211.09997
1570264211.11559
1570264211.13122
1570264211.14684
1570264211.16247
1570264211.17809
1570264211.19372
1570264211.20935
1570264211.22497
1570264211.2406
1570264211.25622
1570264211.27185
1570264211.28748
1570264211.3031
1570264211.31873
1570264211.33435
1570264211.34998
1570264211.3656
1570264211.38123
1570264211.39686
1570264211.41248
1570264211.42811
1570264211.44373
1570264211.45936
1570264211.47498
1570264211.49061
1570264211.50624
1570264211.52186
1570264211.53749
1570264211.55311
1570264211.56874
1570264211.58436
1570264211.59999
1570264211.61562
1570264211.63124
1570264211.64687
1570264211.66249
1570264211.67812
1570264211.69374
1570264211.70937
1570264211.725
1570264211.74062
1570264211.75625
1570264211.77187
1570264211.7875
1570264211.80312
1570264211.81875
1570264211.83438
1570264211.85
1570264211.86563
1570264211.88125
1570264211.89688
1570264211.9125
1570264211.92813
1570264211.94376
1570264211.95938
1570264211.97501
1570264211.99063
1570264212.00626
1570264212.02188
1570264212.03751
1570264212.05314
1570264212.06876
1570264212.08439
1570264212.10001
1570264212.11564
1570264212.13126
1570264212.14689
1570264212.16252
1570264212.17814
1570264212.19377
1570264212.20939
1570264212.22502
1570264212.24064
1570264212.25627
1570264212.2719
1570264212.28752
1570264212.30315
1570264212.31877
1570264212.3344
1570264212.35002
1570264212.36565
1570264212.38128
1570264212.3969
1570264212.41253
1570264212.42815
1570264212.44378
1570264212.4594
1570264212.47503
1570264212.49066
1570264212.50628
1570264212.52191
1570264212.53753
1570264212.55316
1570264212.56878
1570264212.58441
1570264212.60004
1570264212.61566
1570264212.63129
1570264212.64691
1570264212.66254
1570264212.67816
1570264212.69379
1570264212.70942
1570264212.72504
1570264212.74067
1570264212.75629
1570264212.77192
1570264212.78754
1570264212.80317
1570264212.8188
1570264212.83442
1570264212.85005
1570264212.86567
1570264212.8813
1570264212.89692
1570264212.91255
1570264212.92818
1570264212.9438
1570264212.95943
1570264212.97505
1570264212.99068
1570264213.0063
1570264213.02193
1570264213.03756
1570264213.05318
1570264213.06881
1570264213.08443
1570264213.10006
1570264213.11568
1570264213.13131
1570264213.14694
1570264213.16256
1570264213.17819
1570264213.19381
1570264213.20944
1570264213.22506
1570264213.24069
1570264213.25632
1570264213.27194
1570264213.28757
1570264213.30319
1570264213.31882
1570264213.33444
1570264213.35007
1570264213.3657
1570264213.38132
1570264213.39695
1570264213.41257
1570264213.4282
1570264213.44383
1570264213.45945
1570264213.47508
1570264213.4907
1570264213.50633
1570264213.52195
1570264213.53758
1570264213.55321
1570264213.56883
1570264213.58446
1570264213.60008
1570264213.61571
1570264213.63133
1570264213.64696
1570264213.66259
1570264213.67821
1570264213.69384
1570264213.70946
1570264213.72509
1570264213.74071
1570264213.75634
1570264213.77197
1570264213.78759
1570264213.80322
1570264213.81884
1570264213.83447
1570264213.85009
1570264213.86572
1570264213.88135
1570264213.89697
1570264213.9126
1570264213.92822
1570264213.94385
1570264213.95947
1570264213.9751
1570264213.99073
1570264214.00635
1570264214.02198
1570264214.0376
1570264214.05323
1570264214.06885
1570264214.08448
1570264214.10011
1570264214.11573
1570264214.13136
1570264214.14698
1570264214.16261
1570264214.17823
1570264214.19386
1570264214.20949
1570264214.22511
1570264214.24074
1570264214.25636
1570264214.27199
1570264214.28761
1570264214.30324
1570264214.31887
1570264214.33449
1570264214.35012
1570264214.36574
1570264214.38137
1570264214.39699
1570264214.41262
1570264214.42825
1570264214.44387
1570264214.4595
1570264214.47512
1570264214.49075
1570264214.50637
1570264214.522
1570264214.53763
1570264214.55325
1570264214.56888
1570264214.5845
1570264214.60013
1570264214.61575
1570264214.63138
1570264214.64701
1570264214.66263
1570264214.67826
1570264214.69388
1570264214.70951
1570264214.72513
1570264214.74076
1570264214.75639
1570264214.77201
1570264214.78764
1570264214.80326
1570264214.81889
1570264214.83451
1570264214.85014
1570264214.86577
1570264214.88139
1570264214.89702
1570264214.91264
1570264214.92827
1570264214.94389
1570264214.95952
1570264214.97515
1570264214.99077
1570264215.0064
1570264215.02202
1570264215.03765
1570264215.05327
1570264215.0689
1570264215.08453
1570264215.10015
1570264215.11578
1570264215.1314
1570264215.14703
1570264215.16265
1570264215.17828
1570264215.19391
1570264215.20953
1570264215.22516
1570264215.24078
1570264215.25641
1570264215.27203
1570264215.28766
1570264215.30329
1570264215.31891
1570264215.33454
1570264215.35016
1570264215.36579
1570264215.38141
1570264215.39704
1570264215.41267
1570264215.42829
1570264215.44392
1570264215.45954
1570264215.47517
1570264215.49079
1570264215.50642
1570264215.52205
1570264215.53767
1570264215.5533
1570264215.56892
1570264215.58455
1570264215.60017
1570264215.6158
1570264215.63143
1570264215.64705
1570264215.66268
1570264215.6783
1570264215.69393
1570264215.70955
1570264215.72518
1570264215.74081
1570264215.75643
1570264215.77206
1570264215.78768
1570264215.80331
1570264215.81893
1570264215.83456
1570264215.85019
1570264215.86581
1570264215.88144
1570264215.89706
1570264215.91269
1570264215.92831
1570264215.94394
1570264215.95957
1570264215.97519
1570264215.99082
1570264216.00644
1570264216.02207
1570264216.03769
1570264216.05332
1570264216.06895
1570264216.08457
1570264216.1002
1570264216.11582
1570264216.13145
1570264216.14708
1570264216.1627
1570264216.17833
1570264216.19395
1570264216.20958
1570264216.2252
1570264216.24083
1570264216.25646
1570264216.27208
1570264216.28771
1570264216.30333
1570264216.31896
1570264216.33458
1570264216.35021
1570264216.36584
1570264216.38146
1570264216.39709
1570264216.41271
1570264216.42834
1570264216.44396
1570264216.45959
1570264216.47522
1570264216.49084
1570264216.50647
1570264216.52209
1570264216.53772
1570264216.55334
1570264216.56897
1570264216.5846
1570264216.60022
1570264216.61585
1570264216.63147
1570264216.6471
1570264216.66272
1570264216.67835
1570264216.69398
1570264216.7096
1570264216.72523
1570264216.74085
1570264216.75648
1570264216.7721
1570264216.78773
1570264216.80336
1570264216.81898
1570264216.83461
1570264216.85023
1570264216.86586
1570264216.88148
1570264216.89711
1570264216.91274
1570264216.92836
1570264216.94399
1570264216.95961
1570264216.97524
1570264216.99086
1570264217.00649
1570264217.02212
1570264217.03774
1570264217.05337
1570264217.06899
1570264217.08462
1570264217.10024
1570264217.11587
1570264217.1315
1570264217.14712
1570264217.16275
1570264217.17837
1570264217.194
1570264217.20962
1570264217.22525
1570264217.24088
1570264217.2565
1570264217.27213
1570264217.28775
1570264217.30338
1570264217.319
1570264217.33463
1570264217.35026
1570264217.36588
1570264217.38151
1570264217.39713
1570264217.41276
1570264217.42838
1570264217.44401
1570264217.45964
1570264217.47526
1570264217.49089
1570264217.50651
1570264217.52214
1570264217.53776
1570264217.55339
1570264217.56902
1570264217.58464
1570264217.60027
1570264217.61589
1570264217.63152
1570264217.64714
1570264217.66277
1570264217.6784
1570264217.69402
1570264217.70965
1570264217.72527
1570264217.7409
1570264217.75652
1570264217.77215
1570264217.78778
1570264217.8034
1570264217.81903
1570264217.83465
1570264217.85028
1570264217.8659
1570264217.88153
1570264217.89716
1570264217.91278
1570264217.92841
1570264217.94403
1570264217.95966
1570264217.97528
1570264217.99091
1570264218.00654
1570264218.02216
1570264218.03779
1570264218.05341
1570264218.06904
1570264218.08466
1570264218.10029
1570264218.11592
1570264218.13154
1570264218.14717
1570264218.16279
1570264218.17842
1570264218.19404
1570264218.20967
1570264218.2253
1570264218.24092
1570264218.25655
1570264218.27217
1570264218.2878
1570264218.30342
1570264218.31905
1570264218.33468
1570264218.3503
1570264218.36593
1570264218.38155
1570264218.39718
1570264218.41281
1570264218.42843
1570264218.44406
1570264218.45968
1570264218.47531
1570264218.49093
1570264218.50656
1570264218.52219
1570264218.53781
1570264218.55344
1570264218.56906
1570264218.58469
1570264218.60031
1570264218.61594
1570264218.63157
1570264218.64719
1570264218.66282
1570264218.67844
1570264218.69407
1570264218.70969
1570264218.72532
1570264218.74095
1570264218.75657
1570264218.7722
1570264218.78782
1570264218.80345
1570264218.81907
1570264218.8347
1570264218.85033
1570264218.86595
1570264218.88158
1570264218.8972
1570264218.91283
1570264218.92845
1570264218.94408
1570264218.95971
1570264218.97533
1570264218.99096
1570264219.00658
1570264219.02221
1570264219.03783
1570264219.05346
1570264219.06909
1570264219.08471
1570264219.10034
1570264219.11596
1570264219.13159
1570264219.14721
1570264219.16284
1570264219.17847
1570264219.19409
1570264219.20972
1570264219.22534
1570264219.24097
1570264219.25659
1570264219.27222
1570264219.28785
1570264219.30347
1570264219.3191
1570264219.33472
1570264219.35035
1570264219.36597
1570264219.3816
1570264219.39723
1570264219.41285
1570264219.42848
1570264219.4441
1570264219.45973
1570264219.47535
1570264219.49098
1570264219.50661
1570264219.52223
1570264219.53786
1570264219.55348
1570264219.56911
1570264219.58473
1570264219.60036
1570264219.61599
1570264219.63161
1570264219.64724
1570264219.66286
1570264219.67849
1570264219.69411
1570264219.70974
1570264219.72537
1570264219.74099
1570264219.75662
1570264219.77224
1570264219.78787
1570264219.80349
1570264219.81912
1570264219.83475
1570264219.85037
1570264219.866
1570264219.88162
1570264219.89725
1570264219.91287
1570264219.9285
1570264219.94413
1570264219.95975
1570264219.97538
1570264219.991
1570264220.00663
1570264220.02225
1570264220.03788
1570264220.05351
1570264220.06913
1570264220.08476
1570264220.10038
1570264220.11601
1570264220.13163
1570264220.14726
1570264220.16289
1570264220.17851
1570264220.19414
1570264220.20976
1570264220.22539
1570264220.24101
1570264220.25664
1570264220.27227
1570264220.28789
1570264220.30352
1570264220.31914
1570264220.33477
1570264220.35039
1570264220.36602
1570264220.38165
1570264220.39727
1570264220.4129
1570264220.42852
1570264220.44415
1570264220.45977
1570264220.4754
1570264220.49103
1570264220.50665
1570264220.52228
1570264220.5379
1570264220.55353
1570264220.56915
1570264220.58478
1570264220.60041
1570264220.61603
1570264220.63166
1570264220.64728
1570264220.66291
1570264220.67853
1570264220.69416
1570264220.70979
1570264220.72541
1570264220.74104
1570264220.75666
1570264220.77229
1570264220.78791
1570264220.80354
1570264220.81917
1570264220.83479
1570264220.85042
1570264220.86604
1570264220.88167
1570264220.8973
1570264220.91292
1570264220.92855
1570264220.94417
1570264220.9598
1570264220.97542
1570264220.99105
1570264221.00668
1570264221.0223
1570264221.03793
1570264221.05355
1570264221.06918
1570264221.0848
1570264221.10043
1570264221.11606
1570264221.13168
1570264221.14731
1570264221.16293
1570264221.17856
1570264221.19418
1570264221.20981
1570264221.22544
1570264221.24106
1570264221.25669
1570264221.27231
1570264221.28794
1570264221.30356
1570264221.31919
1570264221.33482
1570264221.35044
1570264221.36607
1570264221.38169
1570264221.39732
1570264221.41294
1570264221.42857
1570264221.4442
1570264221.45982
1570264221.47545
1570264221.49107
1570264221.5067
1570264221.52232
1570264221.53795
1570264221.55358
1570264221.5692
1570264221.58483
1570264221.60045
1570264221.61608
1570264221.6317
1570264221.64733
1570264221.66296
1570264221.67858
1570264221.69421
1570264221.70983
1570264221.72546
1570264221.74108
1570264221.75671
1570264221.77234
1570264221.78796
1570264221.80359
1570264221.81921
1570264221.83484
1570264221.85046
1570264221.86609
1570264221.88172
1570264221.89734
1570264221.91297
1570264221.92859
1570264221.94422
1570264221.95984
1570264221.97547
1570264221.9911
1570264222.00672
1570264222.02235
1570264222.03797
1570264222.0536
1570264222.06922
1570264222.08485
1570264222.10048
1570264222.1161
1570264222.13173
1570264222.14735
1570264222.16298
1570264222.1786
1570264222.19423
1570264222.20986
1570264222.22548
1570264222.24111
1570264222.25673
1570264222.27236
1570264222.28798
1570264222.30361
1570264222.31924
1570264222.33486
1570264222.35049
1570264222.36611
1570264222.38174
1570264222.39736
1570264222.41299
1570264222.42862
1570264222.44424
1570264222.45987
1570264222.47549
1570264222.49112
1570264222.50674
1570264222.52237
1570264222.538
1570264222.55362
1570264222.56925
1570264222.58487
1570264222.6005
1570264222.61612
1570264222.63175
1570264222.64738
1570264222.663
1570264222.67863
1570264222.69425
1570264222.70988
1570264222.7255
1570264222.74113
1570264222.75676
1570264222.77238
1570264222.78801
1570264222.80363
1570264222.81926
1570264222.83488
1570264222.85051
1570264222.86614
1570264222.88176
1570264222.89739
1570264222.91301
1570264222.92864
1570264222.94426
1570264222.95989
1570264222.97552
1570264222.99114
1570264223.00677
1570264223.02239
1570264223.03802
1570264223.05364
1570264223.06927
1570264223.0849
1570264223.10052
1570264223.11615
1570264223.13177
1570264223.1474
1570264223.16302
1570264223.17865
1570264223.19428
1570264223.2099
1570264223.22553
1570264223.24115
1570264223.25678
1570264223.27241
1570264223.28803
1570264223.30366
1570264223.31928
1570264223.33491
1570264223.35053
1570264223.36616
1570264223.38179
1570264223.39741
1570264223.41304
1570264223.42866
1570264223.44429
1570264223.45991
1570264223.47554
1570264223.49117
1570264223.50679
1570264223.52242
1570264223.53804
1570264223.55367
1570264223.56929
1570264223.58492
1570264223.60055
1570264223.61617
1570264223.6318
1570264223.64742
1570264223.66305
1570264223.67867
1570264223.6943
1570264223.70993
1570264223.72555
1570264223.74118
1570264223.7568
1570264223.77243
1570264223.78805
1570264223.80368
1570264223.81931
1570264223.83493
1570264223.85056
1570264223.86618
1570264223.88181
1570264223.89743
1570264223.91306
1570264223.92869
1570264223.94431
1570264223.95994
1570264223.97556
1570264223.99119
1570264224.00681
1570264224.02244
1570264224.03807
1570264224.05369
1570264224.06932
1570264224.08494
1570264224.10057
1570264224.11619
1570264224.13182
1570264224.14745
1570264224.16307
1570264224.1787
1570264224.19432
1570264224.20995
1570264224.22557
1570264224.2412
1570264224.25683
1570264224.27245
1570264224.28808
1570264224.3037
1570264224.31933
1570264224.33495
1570264224.35058
1570264224.36621
1570264224.38183
1570264224.39746
1570264224.41308
1570264224.42871
1570264224.44433
1570264224.45996
1570264224.47559
1570264224.49121
1570264224.50684
1570264224.52246
1570264224.53809
1570264224.55371
1570264224.56934
1570264224.58497
1570264224.60059
1570264224.61622
1570264224.63184
1570264224.64747
1570264224.66309
1570264224.67872
1570264224.69435
1570264224.70997
1570264224.7256
1570264224.74122
1570264224.75685
1570264224.77247
1570264224.7881
1570264224.80373
1570264224.81935
1570264224.83498
1570264224.8506
1570264224.86623
1570264224.88185
1570264224.89748
1570264224.91311
1570264224.92873
1570264224.94436
1570264224.95998
1570264224.97561
1570264224.99123
1570264225.00686
1570264225.02249
1570264225.03811
1570264225.05374
1570264225.06936
1570264225.08499
1570264225.10061
1570264225.11624
1570264225.13187
1570264225.14749
1570264225.16312
1570264225.17874
1570264225.19437
1570264225.20999
1570264225.22562
1570264225.24125
1570264225.25687
1570264225.2725
1570264225.28812
1570264225.30375
1570264225.31937
1570264225.335
1570264225.35063
1570264225.36625
1570264225.38188
1570264225.3975
1570264225.41313
1570264225.42876
1570264225.44438
1570264225.46001
1570264225.47563
1570264225.49126
1570264225.50688
1570264225.52251
1570264225.53814
1570264225.55376
1570264225.56939
1570264225.58501
1570264225.60064
1570264225.61626
1570264225.63189
1570264225.64752
1570264225.66314
1570264225.67877
1570264225.69439
1570264225.71002
1570264225.72564
1570264225.74127
1570264225.7569
1570264225.77252
1570264225.78815
1570264225.80377
1570264225.8194
1570264225.83502
1570264225.85065
1570264225.86628
1570264225.8819
1570264225.89753
1570264225.91315
1570264225.92878
1570264225.9444
1570264225.96003
1570264225.97566
1570264225.99128
1570264226.00691
1570264226.02253
1570264226.03816
1570264226.05378
1570264226.06941
1570264226.08504
1570264226.10066
1570264226.11629
1570264226.13191
1570264226.14754
1570264226.16316
1570264226.17879
1570264226.19442
1570264226.21004
1570264226.22567
1570264226.24129
1570264226.25692
1570264226.27254
1570264226.28817
1570264226.3038
1570264226.31942
1570264226.33505
1570264226.35067
1570264226.3663
1570264226.38192
1570264226.39755
1570264226.41318
1570264226.4288
1570264226.44443
1570264226.46005
1570264226.47568
1570264226.4913
1570264226.50693
1570264226.52256
1570264226.53818
1570264226.55381
1570264226.56943
1570264226.58506
1570264226.60068
1570264226.61631
1570264226.63194
1570264226.64756
1570264226.66319
1570264226.67881
1570264226.69444
1570264226.71006
1570264226.72569
1570264226.74132
1570264226.75694
1570264226.77257
1570264226.78819
1570264226.80382
1570264226.81944
1570264226.83507
1570264226.8507
1570264226.86632
1570264226.88195
1570264226.89757
1570264226.9132
1570264226.92882
1570264226.94445
1570264226.96008
1570264226.9757
1570264226.99133
1570264227.00695
1570264227.02258
1570264227.0382
1570264227.05383
1570264227.06946
1570264227.08508
1570264227.10071
1570264227.11633
1570264227.13196
1570264227.14758
1570264227.16321
1570264227.17884
1570264227.19446
1570264227.21009
1570264227.22571
1570264227.24134
1570264227.25696
1570264227.27259
1570264227.28822
1570264227.30384
1570264227.31947
1570264227.33509
1570264227.35072
1570264227.36634
1570264227.38197
1570264227.3976
1570264227.41322
1570264227.42885
1570264227.44447
1570264227.4601
1570264227.47572
1570264227.49135
1570264227.50698
1570264227.5226
1570264227.53823
1570264227.55385
1570264227.56948
1570264227.5851
1570264227.60073
1570264227.61636
1570264227.63198
1570264227.64761
1570264227.66323
1570264227.67886
1570264227.69448
1570264227.71011
1570264227.72574
1570264227.74136
1570264227.75699
1570264227.77261
1570264227.78824
1570264227.80386
1570264227.81949
1570264227.83512
1570264227.85074
1570264227.86637
1570264227.88199
1570264227.89762
1570264227.91324
1570264227.92887
1570264227.9445
1570264227.96012
1570264227.97575
1570264227.99137
1570264228.007
1570264228.02262
1570264228.03825
1570264228.05388
1570264228.0695
1570264228.08513
1570264228.10075
1570264228.11638
1570264228.13201
1570264228.14763
1570264228.16326
1570264228.17888
1570264228.19451
1570264228.21013
1570264228.22576
1570264228.24139
1570264228.25701
1570264228.27264
1570264228.28826
1570264228.30389
1570264228.31951
1570264228.33514
1570264228.35077
1570264228.36639
1570264228.38202
1570264228.39764
1570264228.41327
1570264228.42889
1570264228.44452
1570264228.46015
1570264228.47577
1570264228.4914
1570264228.50702
1570264228.52265
1570264228.53827
1570264228.5539
1570264228.56953
1570264228.58515
1570264228.60078
1570264228.6164
1570264228.63203
1570264228.64765
1570264228.66328
1570264228.67891
1570264228.69453
1570264228.71016
1570264228.72578
1570264228.74141
1570264228.75703
1570264228.77266
1570264228.78829
1570264228.80391
1570264228.81954
1570264228.83516
1570264228.85079
1570264228.86641
1570264228.88204
1570264228.89767
1570264228.91329
1570264228.92892
1570264228.94454
1570264228.96017
1570264228.97579
1570264228.99142
1570264229.00705
1570264229.02267
1570264229.0383
1570264229.05392
1570264229.06955
1570264229.08517
1570264229.1008
1570264229.11643
1570264229.13205
1570264229.14768
1570264229.1633
1570264229.17893
1570264229.19455
1570264229.21018
1570264229.22581
1570264229.24143
1570264229.25706
1570264229.27268
1570264229.28831
1570264229.30393
1570264229.31956
1570264229.33519
1570264229.35081
1570264229.36644
1570264229.38206
1570264229.39769
1570264229.41331
1570264229.42894
1570264229.44457
1570264229.46019
1570264229.47582
1570264229.49144
1570264229.50707
1570264229.52269
1570264229.53832
1570264229.55395
1570264229.56957
1570264229.5852
1570264229.60082
1570264229.61645
1570264229.63207
1570264229.6477
1570264229.66333
1570264229.67895
1570264229.69458
1570264229.7102
1570264229.72583
1570264229.74145
1570264229.75708
1570264229.77271
1570264229.78833
1570264229.80396
1570264229.81958
1570264229.83521
1570264229.85083
1570264229.86646
1570264229.88209
1570264229.89771
1570264229.91334
1570264229.92896
1570264229.94459
1570264229.96021
1570264229.97584
1570264229.99147
1570264230.00709
1570264230.02272
1570264230.03834
1570264230.05397
1570264230.06959
1570264230.08522
1570264230.10085
1570264230.11647
1570264230.1321
1570264230.14772
1570264230.16335
1570264230.17897
1570264230.1946
1570264230.21023
1570264230.22585
1570264230.24148
1570264230.2571
1570264230.27273
1570264230.28836
1570264230.30398
1570264230.31961
1570264230.33523
1570264230.35086
1570264230.36648
1570264230.38211
1570264230.39774
1570264230.41336
1570264230.42899
1570264230.44461
1570264230.46024
1570264230.47586
1570264230.49149
1570264230.50712
1570264230.52274
1570264230.53837
1570264230.55399
1570264230.56962
1570264230.58524
1570264230.60087
1570264230.6165
1570264230.63212
1570264230.64775
1570264230.66337
1570264230.679
1570264230.69462
1570264230.71025
1570264230.72588
1570264230.7415
1570264230.75713
1570264230.77275
1570264230.78838
1570264230.804
1570264230.81963
1570264230.83526
1570264230.85088
1570264230.86651
1570264230.88213
1570264230.89776
1570264230.91338
1570264230.92901
1570264230.94464
1570264230.96026
1570264230.97589
1570264230.99151
1570264231.00714
1570264231.02276
1570264231.03839
1570264231.05402
1570264231.06964
1570264231.08527
1570264231.10089
1570264231.11652
1570264231.13214
1570264231.14777
1570264231.1634
1570264231.17902
1570264231.19465
1570264231.21027
1570264231.2259
1570264231.24152
1570264231.25715
1570264231.27278
1570264231.2884
1570264231.30403
1570264231.31965
1570264231.33528
1570264231.3509
1570264231.36653
1570264231.38216
1570264231.39778
1570264231.41341
1570264231.42903
1570264231.44466
1570264231.46028
1570264231.47591
1570264231.49154
1570264231.50716
1570264231.52279
1570264231.53841
1570264231.55404
1570264231.56966
1570264231.58529
1570264231.60092
1570264231.61654
1570264231.63217
1570264231.64779
1570264231.66342
1570264231.67904
1570264231.69467
1570264231.7103
1570264231.72592
1570264231.74155
1570264231.75717
1570264231.7728
1570264231.78842
1570264231.80405
1570264231.81968
1570264231.8353
1570264231.85093
1570264231.86655
1570264231.88218
1570264231.8978
1570264231.91343
1570264231.92906
1570264231.94468
1570264231.96031
1570264231.97593
1570264231.99156
1570264232.00718
1570264232.02281
1570264232.03844
1570264232.05406
1570264232.06969
1570264232.08531
1570264232.10094
1570264232.11656
1570264232.13219
1570264232.14782
1570264232.16344
1570264232.17907
1570264232.19469
1570264232.21032
1570264232.22594
1570264232.24157
1570264232.2572
1570264232.27282
1570264232.28845
1570264232.30407
1570264232.3197
1570264232.33532
1570264232.35095
1570264232.36658
1570264232.3822
1570264232.39783
1570264232.41345
1570264232.42908
1570264232.4447
1570264232.46033
1570264232.47596
1570264232.49158
1570264232.50721
1570264232.52283
1570264232.53846
1570264232.55409
1570264232.56971
1570264232.58534
1570264232.60096
1570264232.61659
1570264232.63221
1570264232.64784
1570264232.66347
1570264232.67909
1570264232.69472
1570264232.71034
1570264232.72597
1570264232.74159
1570264232.75722
1570264232.77285
1570264232.78847
1570264232.8041
1570264232.81972
1570264232.83535
1570264232.85097
1570264232.8666
1570264232.88223
1570264232.89785
1570264232.91348
1570264232.9291
1570264232.94473
1570264232.96035
1570264232.97598
1570264232.99161
1570264233.00723
1570264233.02286
1570264233.03848
1570264233.05411
1570264233.06973
1570264233.08536
1570264233.10099
1570264233.11661
1570264233.13224
1570264233.14786
1570264233.16349
1570264233.17911
1570264233.19474
1570264233.21037
1570264233.22599
1570264233.24162
1570264233.25724
1570264233.27287
1570264233.28849
1570264233.30412
1570264233.31975
1570264233.33537
1570264233.351
1570264233.36662
1570264233.38225
1570264233.39787
1570264233.4135
1570264233.42913
1570264233.44475
1570264233.46038
1570264233.476
1570264233.49163
1570264233.50725
1570264233.52288
1570264233.53851
1570264233.55413
1570264233.56976
1570264233.58538
1570264233.60101
1570264233.61663
1570264233.63226
1570264233.64789
1570264233.66351
1570264233.67914
1570264233.69476
1570264233.71039
1570264233.72601
1570264233.74164
1570264233.75727
1570264233.77289
1570264233.78852
1570264233.80414
1570264233.81977
1570264233.83539
1570264233.85102
1570264233.86665
1570264233.88227
1570264233.8979
1570264233.91352
1570264233.92915
1570264233.94477
1570264233.9604
1570264233.97603
1570264233.99165
1570264234.00728
1570264234.0229
1570264234.03853
1570264234.05415
1570264234.06978
1570264234.08541
1570264234.10103
1570264234.11666
1570264234.13228
1570264234.14791
1570264234.16353
1570264234.17916
1570264234.19479
1570264234.21041
1570264234.22604
1570264234.24166
1570264234.25729
1570264234.27291
1570264234.28854
1570264234.30417
1570264234.31979
1570264234.33542
1570264234.35104
1570264234.36667
1570264234.38229
1570264234.39792
1570264234.41355
1570264234.42917
1570264234.4448
1570264234.46042
1570264234.47605
1570264234.49167
1570264234.5073
1570264234.52293
1570264234.53855
1570264234.55418
1570264234.5698
1570264234.58543
1570264234.60105
1570264234.61668
1570264234.63231
1570264234.64793
1570264234.66356
1570264234.67918
1570264234.69481
1570264234.71043
1570264234.72606
1570264234.74169
1570264234.75731
1570264234.77294
1570264234.78856
1570264234.80419
1570264234.81981
1570264234.83544
1570264234.85107
1570264234.86669
1570264234.88232
1570264234.89794
1570264234.91357
1570264234.92919
1570264234.94482
1570264234.96045
1570264234.97607
1570264234.9917
1570264235.00732
1570264235.02295
1570264235.03857
1570264235.0542
1570264235.06983
1570264235.08545
1570264235.10108
1570264235.1167
1570264235.13233
1570264235.14796
1570264235.16358
1570264235.17921
1570264235.19483
1570264235.21046
1570264235.22608
1570264235.24171
1570264235.25734
1570264235.27296
1570264235.28859
1570264235.30421
1570264235.31984
1570264235.33546
1570264235.35109
1570264235.36672
1570264235.38234
1570264235.39797
1570264235.41359
1570264235.42922
1570264235.44484
1570264235.46047
1570264235.4761
1570264235.49172
1570264235.50735
1570264235.52297
1570264235.5386
1570264235.55422
1570264235.56985
1570264235.58548
1570264235.6011
1570264235.61673
1570264235.63235
1570264235.64798
1570264235.6636
1570264235.67923
1570264235.69486
1570264235.71048
1570264235.72611
1570264235.74173
1570264235.75736
1570264235.77298
1570264235.78861
1570264235.80424
1570264235.81986
1570264235.83549
1570264235.85111
1570264235.86674
1570264235.88236
1570264235.89799
1570264235.91362
1570264235.92924
1570264235.94487
1570264235.96049
1570264235.97612
1570264235.99174
1570264236.00737
1570264236.023
1570264236.03862
1570264236.05425
1570264236.06987
1570264236.0855
1570264236.10112
1570264236.11675
1570264236.13238
1570264236.148
1570264236.16363
1570264236.17925
1570264236.19488
1570264236.2105
1570264236.22613
1570264236.24176
1570264236.25738
1570264236.27301
1570264236.28863
1570264236.30426
1570264236.31988
1570264236.33551
1570264236.35114
1570264236.36676
1570264236.38239
1570264236.39801
1570264236.41364
1570264236.42926
1570264236.44489
1570264236.46052
1570264236.47614
1570264236.49177
1570264236.50739
1570264236.52302
1570264236.53864
1570264236.55427
1570264236.5699
1570264236.58552
1570264236.60115
1570264236.61677
1570264236.6324
1570264236.64802
1570264236.66365
1570264236.67928
1570264236.6949
1570264236.71053
1570264236.72615
1570264236.74178
1570264236.7574
1570264236.77303
1570264236.78866
1570264236.80428
1570264236.81991
1570264236.83553
1570264236.85116
1570264236.86678
1570264236.88241
1570264236.89804
1570264236.91366
1570264236.92929
1570264236.94491
1570264236.96054
1570264236.97616
1570264236.99179
1570264237.00742
1570264237.02304
1570264237.03867
1570264237.05429
1570264237.06992
1570264237.08554
1570264237.10117
1570264237.1168
1570264237.13242
1570264237.14805
1570264237.16367
1570264237.1793
1570264237.19492
1570264237.21055
1570264237.22618
1570264237.2418
1570264237.25743
1570264237.27305
1570264237.28868
1570264237.3043
1570264237.31993
1570264237.33556
1570264237.35118
1570264237.36681
1570264237.38243
1570264237.39806
1570264237.41369
1570264237.42931
1570264237.44494
1570264237.46056
1570264237.47619
1570264237.49181
1570264237.50744
1570264237.52307
1570264237.53869
1570264237.55432
1570264237.56994
1570264237.58557
1570264237.60119
1570264237.61682
1570264237.63245
1570264237.64807
1570264237.6637
1570264237.67932
1570264237.69495
1570264237.71057
1570264237.7262
1570264237.74183
1570264237.75745
1570264237.77308
1570264237.7887
1570264237.80433
1570264237.81995
1570264237.83558
1570264237.85121
1570264237.86683
1570264237.88246
1570264237.89808
1570264237.91371
1570264237.92933
1570264237.94496
1570264237.96059
1570264237.97621
1570264237.99184
1570264238.00746
1570264238.02309
1570264238.03871
1570264238.05434
1570264238.06997
1570264238.08559
1570264238.10122
1570264238.11684
1570264238.13247
1570264238.14809
1570264238.16372
1570264238.17935
1570264238.19497
1570264238.2106
1570264238.22622
1570264238.24185
1570264238.25747
1570264238.2731
1570264238.28873
1570264238.30435
1570264238.31998
1570264238.3356
1570264238.35123
1570264238.36685
1570264238.38248
1570264238.39811
1570264238.41373
1570264238.42936
1570264238.44498
1570264238.46061
1570264238.47623
1570264238.49186
1570264238.50749
1570264238.52311
1570264238.53874
1570264238.55436
1570264238.56999
1570264238.58561
1570264238.60124
1570264238.61687
1570264238.63249
1570264238.64812
1570264238.66374
1570264238.67937
1570264238.69499
1570264238.71062
1570264238.72625
1570264238.74187
1570264238.7575
1570264238.77312
1570264238.78875
1570264238.80437
1570264238.82
1570264238.83563
1570264238.85125
1570264238.86688
1570264238.8825
1570264238.89813
1570264238.91375
1570264238.92938
1570264238.94501
1570264238.96063
1570264238.97626
1570264238.99188
1570264239.00751
1570264239.02313
1570264239.03876
1570264239.05439
1570264239.07001
1570264239.08564
1570264239.10126
1570264239.11689
1570264239.13251
1570264239.14814
1570264239.16377
1570264239.17939
1570264239.19502
1570264239.21064
1570264239.22627
1570264239.24189
1570264239.25752
1570264239.27315
1570264239.28877
1570264239.3044
1570264239.32002
1570264239.33565
1570264239.35127
1570264239.3669
1570264239.38253
1570264239.39815
1570264239.41378
1570264239.4294
1570264239.44503
1570264239.46065
1570264239.47628
1570264239.49191
1570264239.50753
1570264239.52316
1570264239.53878
1570264239.55441
1570264239.57003
1570264239.58566
1570264239.60129
1570264239.61691
1570264239.63254
1570264239.64816
1570264239.66379
1570264239.67941
1570264239.69504
1570264239.71067
1570264239.72629
1570264239.74192
1570264239.75754
1570264239.77317
1570264239.78879
1570264239.80442
1570264239.82005
1570264239.83567
1570264239.8513
1570264239.86692
1570264239.88255
1570264239.89818
1570264239.9138
1570264239.92943
1570264239.94505
1570264239.96068
1570264239.9763
1570264239.99193
1570264240.00756
1570264240.02318
1570264240.03881
1570264240.05443
1570264240.07006
1570264240.08568
1570264240.10131
1570264240.11694
1570264240.13256
1570264240.14819
1570264240.16381
1570264240.17944
1570264240.19506
1570264240.21069
1570264240.22632
1570264240.24194
1570264240.25757
1570264240.27319
1570264240.28882
1570264240.30444
1570264240.32007
1570264240.3357
1570264240.35132
1570264240.36695
1570264240.38257
1570264240.3982
1570264240.41382
1570264240.42945
1570264240.44508
1570264240.4607
1570264240.47633
1570264240.49195
1570264240.50758
1570264240.5232
1570264240.53883
1570264240.55446
1570264240.57008
1570264240.58571
1570264240.60133
1570264240.61696
1570264240.63258
1570264240.64821
1570264240.66384
1570264240.67946
1570264240.69509
1570264240.71071
1570264240.72634
1570264240.74196
1570264240.75759
1570264240.77322
1570264240.78884
1570264240.80447
1570264240.82009
1570264240.83572
1570264240.85134
1570264240.86697
1570264240.8826
1570264240.89822
1570264240.91385
1570264240.92947
1570264240.9451
1570264240.96072
1570264240.97635
1570264240.99198
1570264241.0076
1570264241.02323
1570264241.03885
1570264241.05448
1570264241.0701
1570264241.08573
1570264241.10136
1570264241.11698
1570264241.13261
1570264241.14823
1570264241.16386
1570264241.17948
1570264241.19511
1570264241.21074
1570264241.22636
1570264241.24199
1570264241.25761
1570264241.27324
1570264241.28886
1570264241.30449
1570264241.32012
1570264241.33574
1570264241.35137
1570264241.36699
1570264241.38262
1570264241.39824
1570264241.41387
1570264241.4295
1570264241.44512
1570264241.46075
1570264241.47637
1570264241.492
1570264241.50762
1570264241.52325
1570264241.53888
1570264241.5545
1570264241.57013
1570264241.58575
1570264241.60138
1570264241.617
1570264241.63263
1570264241.64826
1570264241.66388
1570264241.67951
1570264241.69513
1570264241.71076
1570264241.72638
1570264241.74201
1570264241.75764
1570264241.77326
1570264241.78889
1570264241.80451
1570264241.82014
1570264241.83576
1570264241.85139
1570264241.86702
1570264241.88264
1570264241.89827
1570264241.91389
1570264241.92952
1570264241.94514
1570264241.96077
1570264241.9764
1570264241.99202
1570264242.00765
1570264242.02327
1570264242.0389
1570264242.05452
1570264242.07015
1570264242.08578
1570264242.1014
1570264242.11703
1570264242.13265
1570264242.14828
1570264242.1639
1570264242.17953
1570264242.19516
1570264242.21078
1570264242.22641
1570264242.24203
1570264242.25766
1570264242.27329
1570264242.28891
1570264242.30454
1570264242.32016
1570264242.33579
1570264242.35141
1570264242.36704
1570264242.38267
1570264242.39829
1570264242.41392
1570264242.42954
1570264242.44517
1570264242.46079
1570264242.47642
1570264242.49205
1570264242.50767
1570264242.5233
1570264242.53892
1570264242.55455
1570264242.57017
1570264242.5858
1570264242.60143
1570264242.61705
1570264242.63268
1570264242.6483
1570264242.66393
1570264242.67955
1570264242.69518
1570264242.71081
1570264242.72643
1570264242.74206
1570264242.75768
1570264242.77331
1570264242.78893
1570264242.80456
1570264242.82019
1570264242.83581
1570264242.85144
1570264242.86706
1570264242.88269
1570264242.89831
1570264242.91394
1570264242.92957
1570264242.94519
1570264242.96082
1570264242.97644
1570264242.99207
1570264243.00769
1570264243.02332
1570264243.03895
1570264243.05457
1570264243.0702
1570264243.08582
1570264243.10145
1570264243.11707
1570264243.1327
1570264243.14833
1570264243.16395
1570264243.17958
1570264243.1952
1570264243.21083
1570264243.22645
1570264243.24208
1570264243.25771
1570264243.27333
1570264243.28896
1570264243.30458
1570264243.32021
1570264243.33583
1570264243.35146
1570264243.36709
1570264243.38271
1570264243.39834
1570264243.41396
1570264243.42959
1570264243.44521
1570264243.46084
1570264243.47647
1570264243.49209
1570264243.50772
1570264243.52334
1570264243.53897
1570264243.55459
1570264243.57022
1570264243.58585
1570264243.60147
1570264243.6171
1570264243.63272
1570264243.64835
1570264243.66397
1570264243.6796
1570264243.69523
1570264243.71085
1570264243.72648
1570264243.7421
1570264243.75773
1570264243.77335
1570264243.78898
1570264243.80461
1570264243.82023
1570264243.83586
1570264243.85148
1570264243.86711
1570264243.88273
1570264243.89836
1570264243.91399
1570264243.92961
1570264243.94524
1570264243.96086
1570264243.97649
1570264243.99211
1570264244.00774
1570264244.02337
1570264244.03899
1570264244.05462
1570264244.07024
1570264244.08587
1570264244.10149
1570264244.11712
1570264244.13275
1570264244.14837
1570264244.164
1570264244.17962
1570264244.19525
1570264244.21087
1570264244.2265
1570264244.24213
1570264244.25775
1570264244.27338
1570264244.289
1570264244.30463
1570264244.32025
1570264244.33588
1570264244.35151
1570264244.36713
1570264244.38276
1570264244.39838
1570264244.41401
1570264244.42963
1570264244.44526
1570264244.46089
1570264244.47651
1570264244.49214
1570264244.50776
1570264244.52339
1570264244.53902
1570264244.55464
1570264244.57027
1570264244.58589
1570264244.60152
1570264244.61714
1570264244.63277
1570264244.6484
1570264244.66402
1570264244.67965
1570264244.69527
1570264244.7109
1570264244.72652
1570264244.74215
1570264244.75778
1570264244.7734
1570264244.78903
1570264244.80465
1570264244.82028
1570264244.8359
1570264244.85153
1570264244.86716
1570264244.88278
1570264244.89841
1570264244.91403
1570264244.92966
1570264244.94528
1570264244.96091
1570264244.97654
1570264244.99216
1570264245.00779
1570264245.02341
1570264245.03904
1570264245.05466
1570264245.07029
1570264245.08592
1570264245.10154
1570264245.11717
1570264245.13279
1570264245.14842
1570264245.16404
1570264245.17967
1570264245.1953
1570264245.21092
1570264245.22655
1570264245.24217
1570264245.2578
1570264245.27342
1570264245.28905
1570264245.30468
1570264245.3203
1570264245.33593
1570264245.35155
1570264245.36718
1570264245.3828
1570264245.39843
1570264245.41406
1570264245.42968
1570264245.44531
1570264245.46093
1570264245.47656
1570264245.49218
1570264245.50781
1570264245.52344
1570264245.53906
1570264245.55469
1570264245.57031
1570264245.58594
1570264245.60156
1570264245.61719
1570264245.63282
1570264245.64844
1570264245.66407
1570264245.67969
1570264245.69532
1570264245.71094
1570264245.72657
1570264245.7422
1570264245.75782
1570264245.77345
1570264245.78907
1570264245.8047
1570264245.82032
1570264245.83595
1570264245.85158
1570264245.8672
1570264245.88283
1570264245.89845
1570264245.91408
1570264245.9297
1570264245.94533
1570264245.96096
1570264245.97658
1570264245.99221
1570264246.00783
1570264246.02346
1570264246.03908
1570264246.05471
1570264246.07034
1570264246.08596
1570264246.10159
1570264246.11721
1570264246.13284
1570264246.14846
1570264246.16409
1570264246.17972
1570264246.19534
1570264246.21097
1570264246.22659
1570264246.24222
1570264246.25784
1570264246.27347
1570264246.2891
1570264246.30472
1570264246.32035
1570264246.33597
1570264246.3516
1570264246.36722
1570264246.38285
1570264246.39848
1570264246.4141
1570264246.42973
1570264246.44535
1570264246.46098
1570264246.4766
1570264246.49223
1570264246.50786
1570264246.52348
1570264246.53911
1570264246.55473
1570264246.57036
1570264246.58598
1570264246.60161
1570264246.61724
1570264246.63286
1570264246.64849
1570264246.66411
1570264246.67974
1570264246.69536
1570264246.71099
1570264246.72662
1570264246.74224
1570264246.75787
1570264246.77349
1570264246.78912
1570264246.80474
1570264246.82037
1570264246.836
1570264246.85162
1570264246.86725
1570264246.88287
1570264246.8985
1570264246.91412
1570264246.92975
1570264246.94538
1570264246.961
1570264246.97663
1570264246.99225
1570264247.00788
1570264247.0235
1570264247.03913
1570264247.05476
1570264247.07038
1570264247.08601
1570264247.10163
1570264247.11726
1570264247.13289
1570264247.14851
1570264247.16414
1570264247.17976
1570264247.19539
1570264247.21101
1570264247.22664
1570264247.24227
1570264247.25789
1570264247.27352
1570264247.28914
1570264247.30477
1570264247.32039
1570264247.33602
1570264247.35165
1570264247.36727
1570264247.3829
1570264247.39852
1570264247.41415
1570264247.42977
1570264247.4454
1570264247.46103
1570264247.47665
1570264247.49228
1570264247.5079
1570264247.52353
1570264247.53915
1570264247.55478
1570264247.57041
1570264247.58603
1570264247.60166
1570264247.61728
1570264247.63291
1570264247.64853
1570264247.66416
1570264247.67979
1570264247.69541
1570264247.71104
1570264247.72666
1570264247.74229
1570264247.75791
1570264247.77354
1570264247.78917
1570264247.80479
1570264247.82042
1570264247.83604
1570264247.85167
1570264247.86729
1570264247.88292
1570264247.89855
1570264247.91417
1570264247.9298
1570264247.94542
1570264247.96105
1570264247.97667
1570264247.9923
1570264248.00793
1570264248.02355
1570264248.03918
1570264248.0548
1570264248.07043
1570264248.08605
1570264248.10168
1570264248.11731
1570264248.13293
1570264248.14856
1570264248.16418
1570264248.17981
1570264248.19543
1570264248.21106
1570264248.22669
1570264248.24231
1570264248.25794
1570264248.27356
1570264248.28919
1570264248.30481
1570264248.32044
1570264248.33607
1570264248.35169
1570264248.36732
1570264248.38294
1570264248.39857
1570264248.41419
1570264248.42982
1570264248.44545
1570264248.46107
1570264248.4767
1570264248.49232
1570264248.50795
1570264248.52357
1570264248.5392
1570264248.55483
1570264248.57045
1570264248.58608
1570264248.6017
1570264248.61733
1570264248.63295
1570264248.64858
1570264248.66421
1570264248.67983
1570264248.69546
1570264248.71108
1570264248.72671
1570264248.74233
1570264248.75796
1570264248.77359
1570264248.78921
1570264248.80484
1570264248.82046
1570264248.83609
1570264248.85171
1570264248.86734
1570264248.88297
1570264248.89859
1570264248.91422
1570264248.92984
1570264248.94547
1570264248.96109
1570264248.97672
1570264248.99235
1570264249.00797
1570264249.0236
1570264249.03922
1570264249.05485
1570264249.07047
1570264249.0861
1570264249.10173
1570264249.11735
1570264249.13298
1570264249.1486
1570264249.16423
1570264249.17985
1570264249.19548
1570264249.21111
1570264249.22673
1570264249.24236
1570264249.25798
1570264249.27361
1570264249.28923
1570264249.30486
1570264249.32049
1570264249.33611
1570264249.35174
1570264249.36736
1570264249.38299
1570264249.39862
1570264249.41424
1570264249.42987
1570264249.44549
1570264249.46112
1570264249.47674
1570264249.49237
1570264249.508
1570264249.52362
1570264249.53925
1570264249.55487
1570264249.5705
1570264249.58612
1570264249.60175
1570264249.61738
1570264249.633
1570264249.64863
1570264249.66425
1570264249.67988
1570264249.6955
1570264249.71113
1570264249.72676
1570264249.74238
1570264249.75801
1570264249.77363
1570264249.78926
1570264249.80488
1570264249.82051
1570264249.83614
1570264249.85176
1570264249.86739
1570264249.88301
1570264249.89864
1570264249.91426
1570264249.92989
1570264249.94552
1570264249.96114
1570264249.97677
1570264249.99239
1570264250.00802
1570264250.02364
1570264250.03927
1570264250.0549
1570264250.07052
1570264250.08615
1570264250.10177
1570264250.1174
1570264250.13302
1570264250.14865
1570264250.16428
1570264250.1799
1570264250.19553
1570264250.21115
1570264250.22678
1570264250.2424
1570264250.25803
1570264250.27366
1570264250.28928
1570264250.30491
1570264250.32053
1570264250.33616
1570264250.35178
1570264250.36741
1570264250.38304
1570264250.39866
1570264250.41429
1570264250.42991
1570264250.44554
1570264250.46116
1570264250.47679
1570264250.49242
1570264250.50804
1570264250.52367
1570264250.53929
1570264250.55492
1570264250.57054
1570264250.58617
1570264250.6018
1570264250.61742
1570264250.63305
1570264250.64867
1570264250.6643
1570264250.67992
1570264250.69555
1570264250.71118
1570264250.7268
1570264250.74243
1570264250.75805
1570264250.77368
1570264250.7893
1570264250.80493
1570264250.82056
1570264250.83618
1570264250.85181
1570264250.86743
1570264250.88306
1570264250.89868
1570264250.91431
1570264250.92994
1570264250.94556
1570264250.96119
1570264250.97681
1570264250.99244
1570264251.00806
1570264251.02369
1570264251.03932
1570264251.05494
1570264251.07057
1570264251.08619
1570264251.10182
1570264251.11744
1570264251.13307
1570264251.1487
1570264251.16432
1570264251.17995
1570264251.19557
1570264251.2112
1570264251.22682
1570264251.24245
1570264251.25808
1570264251.2737
1570264251.28933
1570264251.30495
1570264251.32058
1570264251.3362
1570264251.35183
1570264251.36746
1570264251.38308
1570264251.39871
1570264251.41433
1570264251.42996
1570264251.44558
1570264251.46121
1570264251.47684
1570264251.49246
1570264251.50809
1570264251.52371
1570264251.53934
1570264251.55497
1570264251.57059
1570264251.58622
1570264251.60184
1570264251.61747
1570264251.63309
1570264251.64872
1570264251.66435
1570264251.67997
1570264251.6956
1570264251.71122
1570264251.72685
1570264251.74247
1570264251.7581
1570264251.77373
1570264251.78935
1570264251.80498
1570264251.8206
1570264251.83623
1570264251.85185
1570264251.86748
1570264251.88311
1570264251.89873
1570264251.91436
1570264251.92998
1570264251.94561
1570264251.96123
1570264251.97686
1570264251.99249
1570264252.00811
1570264252.02374
1570264252.03936
1570264252.05499
1570264252.07061
1570264252.08624
1570264252.10187
1570264252.11749
1570264252.13312
1570264252.14874
1570264252.16437
1570264252.17999
1570264252.19562
1570264252.21125
1570264252.22687
1570264252.2425
1570264252.25812
1570264252.27375
1570264252.28937
1570264252.305
1570264252.32063
1570264252.33625
1570264252.35188
1570264252.3675
1570264252.38313
1570264252.39875
1570264252.41438
1570264252.43001
1570264252.44563
1570264252.46126
1570264252.47688
1570264252.49251
1570264252.50813
1570264252.52376
1570264252.53939
1570264252.55501
1570264252.57064
1570264252.58626
1570264252.60189
1570264252.61751
1570264252.63314
1570264252.64877
1570264252.66439
1570264252.68002
1570264252.69564
1570264252.71127
1570264252.72689
1570264252.74252
1570264252.75815
1570264252.77377
1570264252.7894
1570264252.80502
1570264252.82065
1570264252.83627
1570264252.8519
1570264252.86753
1570264252.88315
1570264252.89878
1570264252.9144
1570264252.93003
1570264252.94565
1570264252.96128
1570264252.97691
1570264252.99253
1570264253.00816
1570264253.02378
1570264253.03941
1570264253.05503
1570264253.07066
1570264253.08629
1570264253.10191
1570264253.11754
1570264253.13316
1570264253.14879
1570264253.16441
1570264253.18004
1570264253.19567
1570264253.21129
1570264253.22692
1570264253.24254
1570264253.25817
1570264253.27379
1570264253.28942
1570264253.30505
1570264253.32067
1570264253.3363
1570264253.35192
1570264253.36755
1570264253.38317
1570264253.3988
1570264253.41443
1570264253.43005
1570264253.44568
1570264253.4613
1570264253.47693
1570264253.49255
1570264253.50818
1570264253.52381
1570264253.53943
1570264253.55506
1570264253.57068
1570264253.58631
1570264253.60193
1570264253.61756
1570264253.63319
1570264253.64881
1570264253.66444
1570264253.68006
1570264253.69569
1570264253.71131
1570264253.72694
1570264253.74257
1570264253.75819
1570264253.77382
1570264253.78944
1570264253.80507
1570264253.82069
1570264253.83632
1570264253.85195
1570264253.86757
1570264253.8832
1570264253.89882
1570264253.91445
1570264253.93007
1570264253.9457
1570264253.96133
1570264253.97695
1570264253.99258
1570264254.0082
1570264254.02383
1570264254.03945
1570264254.05508
1570264254.07071
1570264254.08633
1570264254.10196
1570264254.11758
1570264254.13321
1570264254.14883
1570264254.16446
1570264254.18009
1570264254.19571
1570264254.21134
1570264254.22696
1570264254.24259
1570264254.25822
1570264254.27384
1570264254.28947
1570264254.30509
1570264254.32072
1570264254.33634
1570264254.35197
1570264254.3676
1570264254.38322
1570264254.39885
1570264254.41447
1570264254.4301
1570264254.44572
1570264254.46135
1570264254.47698
1570264254.4926
1570264254.50823
1570264254.52385
1570264254.53948
1570264254.5551
1570264254.57073
1570264254.58636
1570264254.60198
1570264254.61761
1570264254.63323
1570264254.64886
1570264254.66448
1570264254.68011
1570264254.69574
1570264254.71136
1570264254.72699
1570264254.74261
1570264254.75824
1570264254.77386
1570264254.78949
1570264254.80512
1570264254.82074
1570264254.83637
1570264254.85199
1570264254.86762
1570264254.88324
1570264254.89887
1570264254.9145
1570264254.93012
1570264254.94575
1570264254.96137
1570264254.977
1570264254.99262
1570264255.00825
1570264255.02388
1570264255.0395
1570264255.05513
1570264255.07075
1570264255.08638
1570264255.102
1570264255.11763
1570264255.13326
1570264255.14888
1570264255.16451
1570264255.18013
1570264255.19576
1570264255.21138
1570264255.22701
1570264255.24264
1570264255.25826
1570264255.27389
1570264255.28951
1570264255.30514
1570264255.32076
1570264255.33639
1570264255.35202
1570264255.36764
1570264255.38327
1570264255.39889
1570264255.41452
1570264255.43014
1570264255.44577
1570264255.4614
1570264255.47702
1570264255.49265
1570264255.50827
1570264255.5239
1570264255.53952
1570264255.55515
1570264255.57078
1570264255.5864
1570264255.60203
1570264255.61765
1570264255.63328
1570264255.6489
1570264255.66453
1570264255.68016
1570264255.69578
1570264255.71141
1570264255.72703
1570264255.74266
1570264255.75828
1570264255.77391
1570264255.78954
1570264255.80516
1570264255.82079
1570264255.83641
1570264255.85204
1570264255.86766
1570264255.88329
1570264255.89892
1570264255.91454
1570264255.93017
1570264255.94579
1570264255.96142
1570264255.97704
1570264255.99267
1570264256.0083
1570264256.02392
1570264256.03955
1570264256.05517
1570264256.0708
1570264256.08642
1570264256.10205
1570264256.11768
1570264256.1333
1570264256.14893
1570264256.16455
1570264256.18018
1570264256.1958
1570264256.21143
1570264256.22706
1570264256.24268
1570264256.25831
1570264256.27393
1570264256.28956
1570264256.30518
1570264256.32081
1570264256.33644
1570264256.35206
1570264256.36769
1570264256.38331
1570264256.39894
1570264256.41457
1570264256.43019
1570264256.44582
1570264256.46144
1570264256.47707
1570264256.49269
1570264256.50832
1570264256.52395
1570264256.53957
1570264256.5552
1570264256.57082
1570264256.58645
1570264256.60207
1570264256.6177
1570264256.63333
1570264256.64895
1570264256.66458
1570264256.6802
1570264256.69583
1570264256.71145
1570264256.72708
1570264256.74271
1570264256.75833
1570264256.77396
1570264256.78958
1570264256.80521
1570264256.82083
1570264256.83646
1570264256.85209
1570264256.86771
1570264256.88334
1570264256.89896
1570264256.91459
1570264256.93021
1570264256.94584
1570264256.96147
1570264256.97709
1570264256.99272
1570264257.00834
1570264257.02397
1570264257.03959
1570264257.05522
1570264257.07085
1570264257.08647
1570264257.1021
1570264257.11772
1570264257.13335
1570264257.14897
1570264257.1646
1570264257.18023
1570264257.19585
1570264257.21148
1570264257.2271
1570264257.24273
1570264257.25835
1570264257.27398
1570264257.28961
1570264257.30523
1570264257.32086
1570264257.33648
1570264257.35211
1570264257.36773
1570264257.38336
1570264257.39899
1570264257.41461
1570264257.43024
1570264257.44586
1570264257.46149
1570264257.47711
1570264257.49274
1570264257.50837
1570264257.52399
1570264257.53962
1570264257.55524
1570264257.57087
1570264257.58649
1570264257.60212
1570264257.61775
1570264257.63337
1570264257.649
1570264257.66462
1570264257.68025
1570264257.69587
1570264257.7115
1570264257.72713
1570264257.74275
1570264257.75838
1570264257.774
1570264257.78963
1570264257.80525
1570264257.82088
1570264257.83651
1570264257.85213
1570264257.86776
1570264257.88338
1570264257.89901
1570264257.91463
1570264257.93026
1570264257.94589
1570264257.96151
1570264257.97714
1570264257.99276
1570264258.00839
1570264258.02401
1570264258.03964
1570264258.05527
1570264258.07089
1570264258.08652
1570264258.10214
1570264258.11777
1570264258.13339
1570264258.14902
1570264258.16465
1570264258.18027
1570264258.1959
1570264258.21152
1570264258.22715
1570264258.24277
1570264258.2584
1570264258.27403
1570264258.28965
1570264258.30528
1570264258.3209
1570264258.33653
1570264258.35215
1570264258.36778
1570264258.38341
1570264258.39903
1570264258.41466
1570264258.43028
1570264258.44591
1570264258.46153
1570264258.47716
1570264258.49279
1570264258.50841
1570264258.52404
1570264258.53966
1570264258.55529
1570264258.57091
1570264258.58654
1570264258.60217
1570264258.61779
1570264258.63342
1570264258.64904
1570264258.66467
1570264258.68029
1570264258.69592
1570264258.71155
1570264258.72717
1570264258.7428
1570264258.75842
1570264258.77405
1570264258.78968
1570264258.8053
1570264258.82093
1570264258.83655
1570264258.85218
1570264258.8678
1570264258.88343
1570264258.89906
1570264258.91468
1570264258.93031
1570264258.94593
1570264258.96156
1570264258.97718
1570264258.99281
1570264259.00844
1570264259.02406
1570264259.03969
1570264259.05531
1570264259.07094
1570264259.08656
1570264259.10219
1570264259.11782
1570264259.13344
1570264259.14907
1570264259.16469
1570264259.18032
1570264259.19594
1570264259.21157
1570264259.2272
1570264259.24282
1570264259.25845
1570264259.27407
1570264259.2897
1570264259.30532
1570264259.32095
1570264259.33658
1570264259.3522
1570264259.36783
1570264259.38345
1570264259.39908
1570264259.4147
1570264259.43033
1570264259.44596
1570264259.46158
1570264259.47721
1570264259.49283
1570264259.50846
1570264259.52408
1570264259.53971
1570264259.55534
1570264259.57096
1570264259.58659
1570264259.60221
1570264259.61784
1570264259.63346
1570264259.64909
1570264259.66472
1570264259.68034
1570264259.69597
1570264259.71159
1570264259.72722
1570264259.74284
1570264259.75847
1570264259.7741
1570264259.78972
1570264259.80535
1570264259.82097
1570264259.8366
1570264259.85222
1570264259.86785
1570264259.88348
1570264259.8991
1570264259.91473
1570264259.93035
1570264259.94598
1570264259.9616
1570264259.97723
1570264259.99286
1570264260.00848
1570264260.02411
1570264260.03973
1570264260.05536
1570264260.07098
1570264260.08661
1570264260.10224
1570264260.11786
1570264260.13349
1570264260.14911
1570264260.16474
1570264260.18036
1570264260.19599
1570264260.21162
1570264260.22724
1570264260.24287
1570264260.25849
1570264260.27412
1570264260.28974
1570264260.30537
1570264260.321
1570264260.33662
1570264260.35225
1570264260.36787
1570264260.3835
1570264260.39912
1570264260.41475
1570264260.43038
1570264260.446
1570264260.46163
1570264260.47725
1570264260.49288
1570264260.5085
1570264260.52413
1570264260.53976
1570264260.55538
1570264260.57101
1570264260.58663
1570264260.60226
1570264260.61788
1570264260.63351
1570264260.64914
1570264260.66476
1570264260.68039
1570264260.69601
1570264260.71164
1570264260.72726
1570264260.74289
1570264260.75852
1570264260.77414
1570264260.78977
1570264260.80539
1570264260.82102
1570264260.83664
1570264260.85227
1570264260.8679
1570264260.88352
1570264260.89915
1570264260.91477
1570264260.9304
1570264260.94602
1570264260.96165
1570264260.97728
1570264260.9929
1570264261.00853
1570264261.02415
1570264261.03978
1570264261.0554
1570264261.07103
1570264261.08666
1570264261.10228
1570264261.11791
1570264261.13353
1570264261.14916
1570264261.16478
1570264261.18041
1570264261.19604
1570264261.21166
1570264261.22729
1570264261.24291
1570264261.25854
1570264261.27417
1570264261.28979
1570264261.30542
1570264261.32104
1570264261.33667
1570264261.35229
1570264261.36792
1570264261.38355
1570264261.39917
1570264261.4148
1570264261.43042
1570264261.44605
1570264261.46167
1570264261.4773
1570264261.49293
1570264261.50855
1570264261.52418
1570264261.5398
1570264261.55543
1570264261.57105
1570264261.58668
1570264261.60231
1570264261.61793
1570264261.63356
1570264261.64918
1570264261.66481
1570264261.68043
1570264261.69606
1570264261.71169
1570264261.72731
1570264261.74294
1570264261.75856
1570264261.77419
1570264261.78981
1570264261.80544
1570264261.82107
1570264261.83669
1570264261.85232
1570264261.86794
1570264261.88357
1570264261.89919
1570264261.91482
1570264261.93045
1570264261.94607
1570264261.9617
1570264261.97732
1570264261.99295
1570264262.00857
1570264262.0242
1570264262.03983
1570264262.05545
1570264262.07108
1570264262.0867
1570264262.10233
1570264262.11795
1570264262.13358
1570264262.14921
1570264262.16483
1570264262.18046
1570264262.19608
1570264262.21171
1570264262.22733
1570264262.24296
1570264262.25859
1570264262.27421
1570264262.28984
1570264262.30546
1570264262.32109
1570264262.33671
1570264262.35234
1570264262.36797
1570264262.38359
1570264262.39922
1570264262.41484
1570264262.43047
1570264262.44609
1570264262.46172
1570264262.47735
1570264262.49297
1570264262.5086
1570264262.52422
1570264262.53985
1570264262.55547
1570264262.5711
1570264262.58673
1570264262.60235
1570264262.61798
1570264262.6336
1570264262.64923
1570264262.66485
1570264262.68048
1570264262.69611
1570264262.71173
1570264262.72736
1570264262.74298
1570264262.75861
1570264262.77423
1570264262.78986
1570264262.80549
1570264262.82111
1570264262.83674
1570264262.85236
1570264262.86799
1570264262.88361
1570264262.89924
1570264262.91487
1570264262.93049
1570264262.94612
1570264262.96174
1570264262.97737
1570264262.99299
1570264263.00862
1570264263.02425
1570264263.03987
1570264263.0555
1570264263.07112
1570264263.08675
1570264263.10237
1570264263.118
1570264263.13363
1570264263.14925
1570264263.16488
1570264263.1805
1570264263.19613
1570264263.21175
1570264263.22738
1570264263.24301
1570264263.25863
1570264263.27426
1570264263.28988
1570264263.30551
1570264263.32113
1570264263.33676
1570264263.35239
1570264263.36801
1570264263.38364
1570264263.39926
1570264263.41489
1570264263.43051
1570264263.44614
1570264263.46177
1570264263.47739
1570264263.49302
1570264263.50864
1570264263.52427
1570264263.5399
1570264263.55552
1570264263.57115
1570264263.58677
1570264263.6024
1570264263.61802
1570264263.63365
1570264263.64928
1570264263.6649
1570264263.68053
1570264263.69615
1570264263.71178
1570264263.7274
1570264263.74303
1570264263.75866
1570264263.77428
1570264263.78991
1570264263.80553
1570264263.82116
1570264263.83678
1570264263.85241
1570264263.86804
1570264263.88366
1570264263.89929
1570264263.91491
1570264263.93054
1570264263.94616
1570264263.96179
1570264263.97742
1570264263.99304
1570264264.00867
1570264264.02429
1570264264.03992
1570264264.05554
1570264264.07117
1570264264.0868
1570264264.10242
1570264264.11805
1570264264.13367
1570264264.1493
1570264264.16492
1570264264.18055
1570264264.19618
1570264264.2118
1570264264.22743
1570264264.24305
1570264264.25868
1570264264.2743
1570264264.28993
1570264264.30556
1570264264.32118
1570264264.33681
1570264264.35243
1570264264.36806
1570264264.38368
1570264264.39931
1570264264.41494
1570264264.43056
1570264264.44619
1570264264.46181
1570264264.47744
1570264264.49306
1570264264.50869
1570264264.52432
1570264264.53994
1570264264.55557
1570264264.57119
1570264264.58682
1570264264.60244
1570264264.61807
1570264264.6337
1570264264.64932
1570264264.66495
1570264264.68057
1570264264.6962
1570264264.71182
1570264264.72745
1570264264.74308
1570264264.7587
1570264264.77433
1570264264.78995
1570264264.80558
1570264264.8212
1570264264.83683
1570264264.85246
1570264264.86808
1570264264.88371
1570264264.89933
1570264264.91496
1570264264.93058
1570264264.94621
1570264264.96184
1570264264.97746
1570264264.99309
1570264265.00871
1570264265.02434
1570264265.03996
1570264265.05559
1570264265.07122
1570264265.08684
1570264265.10247
1570264265.11809
1570264265.13372
1570264265.14934
1570264265.16497
1570264265.1806
1570264265.19622
1570264265.21185
1570264265.22747
1570264265.2431
1570264265.25872
1570264265.27435
1570264265.28998
1570264265.3056
1570264265.32123
1570264265.33685
1570264265.35248
1570264265.3681
1570264265.38373
1570264265.39936
1570264265.41498
1570264265.43061
1570264265.44623
1570264265.46186
1570264265.47748
1570264265.49311
1570264265.50874
1570264265.52436
1570264265.53999
1570264265.55561
1570264265.57124
1570264265.58686
1570264265.60249
1570264265.61812
1570264265.63374
1570264265.64937
1570264265.66499
1570264265.68062
1570264265.69624
1570264265.71187
1570264265.7275
1570264265.74312
1570264265.75875
1570264265.77437
1570264265.79
1570264265.80562
1570264265.82125
1570264265.83688
1570264265.8525
1570264265.86813
1570264265.88375
1570264265.89938
1570264265.915
1570264265.93063
1570264265.94626
1570264265.96188
1570264265.97751
1570264265.99313
1570264266.00876
1570264266.02438
1570264266.04001
1570264266.05564
1570264266.07126
1570264266.08689
1570264266.10251
1570264266.11814
1570264266.13377
1570264266.14939
1570264266.16502
1570264266.18064
1570264266.19627
1570264266.21189
1570264266.22752
1570264266.24315
1570264266.25877
1570264266.2744
1570264266.29002
1570264266.30565
1570264266.32127
1570264266.3369
1570264266.35253
1570264266.36815
1570264266.38378
1570264266.3994
1570264266.41503
1570264266.43065
1570264266.44628
1570264266.46191
1570264266.47753
1570264266.49316
1570264266.50878
1570264266.52441
1570264266.54003
1570264266.55566
1570264266.57129
1570264266.58691
1570264266.60254
1570264266.61816
1570264266.63379
1570264266.64941
1570264266.66504
1570264266.68067
1570264266.69629
1570264266.71192
1570264266.72754
1570264266.74317
1570264266.75879
1570264266.77442
1570264266.79005
1570264266.80567
1570264266.8213
1570264266.83692
1570264266.85255
1570264266.86817
1570264266.8838
1570264266.89943
1570264266.91505
1570264266.93068
1570264266.9463
1570264266.96193
1570264266.97755
1570264266.99318
1570264267.00881
1570264267.02443
1570264267.04006
1570264267.05568
1570264267.07131
1570264267.08693
1570264267.10256
1570264267.11819
1570264267.13381
1570264267.14944
1570264267.16506
1570264267.18069
1570264267.19631
1570264267.21194
1570264267.22757
1570264267.24319
1570264267.25882
1570264267.27444
1570264267.29007
1570264267.30569
1570264267.32132
1570264267.33695
1570264267.35257
1570264267.3682
1570264267.38382
1570264267.39945
1570264267.41507
1570264267.4307
1570264267.44633
1570264267.46195
1570264267.47758
1570264267.4932
1570264267.50883
1570264267.52445
1570264267.54008
1570264267.55571
1570264267.57133
1570264267.58696
1570264267.60258
1570264267.61821
1570264267.63383
1570264267.64946
1570264267.66509
1570264267.68071
1570264267.69634
1570264267.71196
1570264267.72759
1570264267.74321
1570264267.75884
1570264267.77447
1570264267.79009
1570264267.80572
1570264267.82134
1570264267.83697
1570264267.85259
1570264267.86822
1570264267.88385
1570264267.89947
1570264267.9151
1570264267.93072
1570264267.94635
1570264267.96197
1570264267.9776
1570264267.99323
1570264268.00885
1570264268.02448
1570264268.0401
1570264268.05573
1570264268.07135
1570264268.08698
1570264268.10261
1570264268.11823
1570264268.13386
1570264268.14948
1570264268.16511
1570264268.18073
1570264268.19636
1570264268.21199
1570264268.22761
1570264268.24324
1570264268.25886
1570264268.27449
1570264268.29011
1570264268.30574
1570264268.32137
1570264268.33699
1570264268.35262
1570264268.36824
1570264268.38387
1570264268.3995
1570264268.41512
1570264268.43075
1570264268.44637
1570264268.462
1570264268.47762
1570264268.49325
1570264268.50888
1570264268.5245
1570264268.54013
1570264268.55575
1570264268.57138
1570264268.587
1570264268.60263
1570264268.61826
1570264268.63388
1570264268.64951
1570264268.66513
1570264268.68076
1570264268.69638
1570264268.71201
1570264268.72764
1570264268.74326
1570264268.75889
1570264268.77451
1570264268.79014
1570264268.80576
1570264268.82139
1570264268.83702
1570264268.85264
1570264268.86827
1570264268.88389
1570264268.89952
1570264268.91514
1570264268.93077
1570264268.9464
1570264268.96202
1570264268.97765
1570264268.99327
1570264269.0089
1570264269.02452
1570264269.04015
1570264269.05578
1570264269.0714
1570264269.08703
1570264269.10265
1570264269.11828
1570264269.1339
1570264269.14953
1570264269.16516
1570264269.18078
1570264269.19641
1570264269.21203
1570264269.22766
1570264269.24328
1570264269.25891
1570264269.27454
1570264269.29016
1570264269.30579
1570264269.32141
1570264269.33704
1570264269.35266
1570264269.36829
1570264269.38392
1570264269.39954
1570264269.41517
1570264269.43079
1570264269.44642
1570264269.46204
1570264269.47767
1570264269.4933
1570264269.50892
1570264269.52455
1570264269.54017
1570264269.5558
1570264269.57142
1570264269.58705
1570264269.60268
1570264269.6183
1570264269.63393
1570264269.64955
1570264269.66518
1570264269.6808
1570264269.69643
1570264269.71206
1570264269.72768
1570264269.74331
1570264269.75893
1570264269.77456
1570264269.79018
1570264269.80581
1570264269.82144
1570264269.83706
1570264269.85269
1570264269.86831
1570264269.88394
1570264269.89956
1570264269.91519
1570264269.93082
1570264269.94644
1570264269.96207
1570264269.97769
1570264269.99332
1570264270.00894
1570264270.02457
1570264270.0402
1570264270.05582
1570264270.07145
1570264270.08707
1570264270.1027
1570264270.11832
1570264270.13395
1570264270.14958
1570264270.1652
1570264270.18083
1570264270.19645
1570264270.21208
1570264270.2277
1570264270.24333
1570264270.25896
1570264270.27458
1570264270.29021
1570264270.30583
1570264270.32146
1570264270.33708
1570264270.35271
1570264270.36834
1570264270.38396
1570264270.39959
1570264270.41521
1570264270.43084
1570264270.44646
1570264270.46209
1570264270.47772
1570264270.49334
1570264270.50897
1570264270.52459
1570264270.54022
1570264270.55585
1570264270.57147
1570264270.5871
1570264270.60272
1570264270.61835
1570264270.63397
1570264270.6496
1570264270.66523
1570264270.68085
1570264270.69648
1570264270.7121
1570264270.72773
1570264270.74335
1570264270.75898
1570264270.77461
1570264270.79023
1570264270.80586
1570264270.82148
1570264270.83711
1570264270.85273
1570264270.86836
1570264270.88399
1570264270.89961
1570264270.91524
1570264270.93086
1570264270.94649
1570264270.96211
1570264270.97774
1570264270.99337
1570264271.00899
1570264271.02462
1570264271.04024
1570264271.05587
1570264271.07149
1570264271.08712
1570264271.10275
1570264271.11837
1570264271.134
1570264271.14962
1570264271.16525
1570264271.18087
1570264271.1965
1570264271.21213
1570264271.22775
1570264271.24338
1570264271.259
1570264271.27463
1570264271.29025
1570264271.30588
1570264271.32151
1570264271.33713
1570264271.35276
1570264271.36838
1570264271.38401
1570264271.39963
1570264271.41526
1570264271.43089
1570264271.44651
1570264271.46214
1570264271.47776
1570264271.49339
1570264271.50901
1570264271.52464
1570264271.54027
1570264271.55589
1570264271.57152
1570264271.58714
1570264271.60277
1570264271.61839
1570264271.63402
1570264271.64965
1570264271.66527
1570264271.6809
1570264271.69652
1570264271.71215
1570264271.72777
1570264271.7434
1570264271.75903
1570264271.77465
1570264271.79028
1570264271.8059
1570264271.82153
1570264271.83715
1570264271.85278
1570264271.86841
1570264271.88403
1570264271.89966
1570264271.91528
1570264271.93091
1570264271.94653
1570264271.96216
1570264271.97779
1570264271.99341
1570264272.00904
1570264272.02466
1570264272.04029
1570264272.05591
1570264272.07154
1570264272.08717
1570264272.10279
1570264272.11842
1570264272.13404
1570264272.14967
1570264272.16529
1570264272.18092
1570264272.19655
1570264272.21217
1570264272.2278
1570264272.24342
1570264272.25905
1570264272.27467
1570264272.2903
1570264272.30593
1570264272.32155
1570264272.33718
1570264272.3528
1570264272.36843
1570264272.38405
1570264272.39968
1570264272.41531
1570264272.43093
1570264272.44656
1570264272.46218
1570264272.47781
1570264272.49343
1570264272.50906
1570264272.52469
1570264272.54031
1570264272.55594
1570264272.57156
1570264272.58719
1570264272.60281
1570264272.61844
1570264272.63407
1570264272.64969
1570264272.66532
1570264272.68094
1570264272.69657
1570264272.71219
1570264272.72782
1570264272.74345
1570264272.75907
1570264272.7747
1570264272.79032
1570264272.80595
1570264272.82157
1570264272.8372
1570264272.85283
1570264272.86845
1570264272.88408
1570264272.8997
1570264272.91533
1570264272.93095
1570264272.94658
1570264272.96221
1570264272.97783
1570264272.99346
1570264273.00908
1570264273.02471
1570264273.04033
1570264273.05596
1570264273.07159
1570264273.08721
1570264273.10284
1570264273.11846
1570264273.13409
1570264273.14971
1570264273.16534
1570264273.18097
1570264273.19659
1570264273.21222
1570264273.22784
1570264273.24347
1570264273.2591
1570264273.27472
1570264273.29035
1570264273.30597
1570264273.3216
1570264273.33722
1570264273.35285
1570264273.36848
1570264273.3841
1570264273.39973
1570264273.41535
1570264273.43098
1570264273.4466
1570264273.46223
1570264273.47786
1570264273.49348
1570264273.50911
1570264273.52473
1570264273.54036
1570264273.55598
1570264273.57161
1570264273.58724
1570264273.60286
1570264273.61849
1570264273.63411
1570264273.64974
1570264273.66536
1570264273.68099
1570264273.69662
1570264273.71224
1570264273.72787
1570264273.74349
1570264273.75912
1570264273.77474
1570264273.79037
1570264273.806
1570264273.82162
1570264273.83725
1570264273.85287
1570264273.8685
1570264273.88412
1570264273.89975
1570264273.91538
1570264273.931
1570264273.94663
1570264273.96225
1570264273.97788
1570264273.9935
1570264274.00913
1570264274.02476
1570264274.04038
1570264274.05601
1570264274.07163
1570264274.08726
1570264274.10288
1570264274.11851
1570264274.13414
1570264274.14976
1570264274.16539
1570264274.18101
1570264274.19664
1570264274.21226
1570264274.22789
1570264274.24352
1570264274.25914
1570264274.27477
1570264274.29039
1570264274.30602
1570264274.32164
1570264274.33727
1570264274.3529
1570264274.36852
1570264274.38415
1570264274.39977
1570264274.4154
1570264274.43102
1570264274.44665
1570264274.46228
1570264274.4779
1570264274.49353
1570264274.50915
1570264274.52478
1570264274.5404
1570264274.55603
1570264274.57166
1570264274.58728
1570264274.60291
1570264274.61853
1570264274.63416
1570264274.64978
1570264274.66541
1570264274.68104
1570264274.69666
1570264274.71229
1570264274.72791
1570264274.74354
1570264274.75916
1570264274.77479
1570264274.79042
1570264274.80604
1570264274.82167
1570264274.83729
1570264274.85292
1570264274.86854
1570264274.88417
1570264274.8998
1570264274.91542
1570264274.93105
1570264274.94667
1570264274.9623
1570264274.97792
1570264274.99355
1570264275.00918
1570264275.0248
1570264275.04043
1570264275.05605
1570264275.07168
1570264275.0873
1570264275.10293
1570264275.11856
1570264275.13418
1570264275.14981
1570264275.16543
1570264275.18106
1570264275.19668
1570264275.21231
1570264275.22794
1570264275.24356
1570264275.25919
1570264275.27481
1570264275.29044
1570264275.30606
1570264275.32169
1570264275.33732
1570264275.35294
1570264275.36857
1570264275.38419
1570264275.39982
1570264275.41544
1570264275.43107
1570264275.4467
1570264275.46232
1570264275.47795
1570264275.49357
1570264275.5092
1570264275.52483
1570264275.54045
1570264275.55608
1570264275.5717
1570264275.58733
1570264275.60295
1570264275.61858
1570264275.63421
1570264275.64983
1570264275.66546
1570264275.68108
1570264275.69671
1570264275.71233
1570264275.72796
1570264275.74359
1570264275.75921
1570264275.77484
1570264275.79046
1570264275.80609
1570264275.82171
1570264275.83734
1570264275.85297
1570264275.86859
1570264275.88422
1570264275.89984
1570264275.91547
1570264275.93109
1570264275.94672
1570264275.96235
1570264275.97797
1570264275.9936
1570264276.00922
1570264276.02485
1570264276.04047
1570264276.0561
1570264276.07173
1570264276.08735
1570264276.10298
1570264276.1186
1570264276.13423
1570264276.14985
1570264276.16548
1570264276.18111
1570264276.19673
1570264276.21236
1570264276.22798
1570264276.24361
1570264276.25923
1570264276.27486
1570264276.29049
1570264276.30611
1570264276.32174
1570264276.33736
1570264276.35299
1570264276.36861
1570264276.38424
1570264276.39987
1570264276.41549
1570264276.43112
1570264276.44674
1570264276.46237
1570264276.47799
1570264276.49362
1570264276.50925
1570264276.52487
1570264276.5405
1570264276.55612
1570264276.57175
1570264276.58737
1570264276.603
1570264276.61863
1570264276.63425
1570264276.64988
1570264276.6655
1570264276.68113
1570264276.69675
1570264276.71238
1570264276.72801
1570264276.74363
1570264276.75926
1570264276.77488
1570264276.79051
1570264276.80613
1570264276.82176
1570264276.83739
1570264276.85301
1570264276.86864
1570264276.88426
1570264276.89989
1570264276.91551
1570264276.93114
1570264276.94677
1570264276.96239
1570264276.97802
1570264276.99364
1570264277.00927
1570264277.02489
1570264277.04052
1570264277.05615
1570264277.07177
1570264277.0874
1570264277.10302
1570264277.11865
1570264277.13427
1570264277.1499
1570264277.16553
1570264277.18115
1570264277.19678
1570264277.2124
1570264277.22803
1570264277.24365
1570264277.25928
1570264277.27491
1570264277.29053
1570264277.30616
1570264277.32178
1570264277.33741
1570264277.35303
1570264277.36866
1570264277.38429
1570264277.39991
1570264277.41554
1570264277.43116
1570264277.44679
1570264277.46241
1570264277.47804
1570264277.49367
1570264277.50929
1570264277.52492
1570264277.54054
1570264277.55617
1570264277.57179
1570264277.58742
1570264277.60305
1570264277.61867
1570264277.6343
1570264277.64992
1570264277.66555
1570264277.68117
1570264277.6968
1570264277.71243
1570264277.72805
1570264277.74368
1570264277.7593
1570264277.77493
1570264277.79056
1570264277.80618
1570264277.82181
1570264277.83743
1570264277.85306
1570264277.86868
1570264277.88431
1570264277.89994
1570264277.91556
1570264277.93119
1570264277.94681
1570264277.96244
1570264277.97806
1570264277.99369
1570264278.00932
1570264278.02494
1570264278.04057
1570264278.05619
1570264278.07182
1570264278.08744
1570264278.10307
1570264278.1187
1570264278.13432
1570264278.14995
1570264278.16557
1570264278.1812
1570264278.19682
1570264278.21245
1570264278.22808
1570264278.2437
1570264278.25933
1570264278.27495
1570264278.29058
1570264278.3062
1570264278.32183
1570264278.33746
1570264278.35308
1570264278.36871
1570264278.38433
1570264278.39996
1570264278.41558
1570264278.43121
1570264278.44684
1570264278.46246
1570264278.47809
1570264278.49371
1570264278.50934
1570264278.52496
1570264278.54059
1570264278.55622
1570264278.57184
1570264278.58747
1570264278.60309
1570264278.61872
1570264278.63434
1570264278.64997
1570264278.6656
1570264278.68122
1570264278.69685
1570264278.71247
1570264278.7281
1570264278.74372
1570264278.75935
1570264278.77498
1570264278.7906
1570264278.80623
1570264278.82185
1570264278.83748
1570264278.8531
1570264278.86873
1570264278.88436
1570264278.89998
1570264278.91561
1570264278.93123
1570264278.94686
1570264278.96248
1570264278.97811
1570264278.99374
1570264279.00936
1570264279.02499
1570264279.04061
1570264279.05624
1570264279.07186
1570264279.08749
1570264279.10312
1570264279.11874
1570264279.13437
1570264279.14999
1570264279.16562
1570264279.18124
1570264279.19687
1570264279.2125
1570264279.22812
1570264279.24375
1570264279.25937
1570264279.275
1570264279.29062
1570264279.30625
1570264279.32188
1570264279.3375
1570264279.35313
1570264279.36875
1570264279.38438
1570264279.4
1570264279.41563
1570264279.43126
1570264279.44688
1570264279.46251
1570264279.47813
1570264279.49376
1570264279.50938
1570264279.52501
1570264279.54064
1570264279.55626
1570264279.57189
1570264279.58751
1570264279.60314
1570264279.61876
1570264279.63439
1570264279.65002
1570264279.66564
1570264279.68127
1570264279.69689
1570264279.71252
1570264279.72814
1570264279.74377
1570264279.7594
1570264279.77502
1570264279.79065
1570264279.80627
1570264279.8219
1570264279.83752
1570264279.85315
1570264279.86878
1570264279.8844
1570264279.90003
1570264279.91565
1570264279.93128
1570264279.9469
1570264279.96253
1570264279.97816
1570264279.99378
1570264280.00941
1570264280.02503
1570264280.04066
1570264280.05628
1570264280.07191
1570264280.08754
1570264280.10316
1570264280.11879
1570264280.13441
1570264280.15004
1570264280.16566
1570264280.18129
1570264280.19692
1570264280.21254
1570264280.22817
1570264280.24379
1570264280.25942
1570264280.27504
1570264280.29067
1570264280.3063
1570264280.32192
1570264280.33755
1570264280.35317
1570264280.3688
1570264280.38443
1570264280.40005
1570264280.41568
1570264280.4313
1570264280.44693
1570264280.46255
1570264280.47818
1570264280.49381
1570264280.50943
1570264280.52506
1570264280.54068
1570264280.55631
1570264280.57193
1570264280.58756
1570264280.60319
1570264280.61881
1570264280.63444
1570264280.65006
1570264280.66569
1570264280.68131
1570264280.69694
1570264280.71257
1570264280.72819
1570264280.74382
1570264280.75944
1570264280.77507
1570264280.79069
1570264280.80632
1570264280.82195
1570264280.83757
1570264280.8532
1570264280.86882
1570264280.88445
1570264280.90007
1570264280.9157
1570264280.93133
1570264280.94695
1570264280.96258
1570264280.9782
1570264280.99383
1570264281.00945
1570264281.02508
1570264281.04071
1570264281.05633
1570264281.07196
1570264281.08758
1570264281.10321
1570264281.11883
1570264281.13446
1570264281.15009
1570264281.16571
1570264281.18134
1570264281.19696
1570264281.21259
1570264281.22821
1570264281.24384
1570264281.25947
1570264281.27509
1570264281.29072
1570264281.30634
1570264281.32197
1570264281.33759
1570264281.35322
1570264281.36885
1570264281.38447
1570264281.4001
1570264281.41572
1570264281.43135
1570264281.44697
1570264281.4626
1570264281.47823
1570264281.49385
1570264281.50948
1570264281.5251
1570264281.54073
1570264281.55635
1570264281.57198
1570264281.58761
1570264281.60323
1570264281.61886
1570264281.63448
1570264281.65011
1570264281.66573
1570264281.68136
1570264281.69699
1570264281.71261
1570264281.72824
1570264281.74386
1570264281.75949
1570264281.77511
1570264281.79074
1570264281.80637
1570264281.82199
1570264281.83762
1570264281.85324
1570264281.86887
1570264281.88449
1570264281.90012
1570264281.91575
1570264281.93137
1570264281.947
1570264281.96262
1570264281.97825
1570264281.99387
1570264282.0095
1570264282.02513
1570264282.04075
1570264282.05638
1570264282.072
1570264282.08763
1570264282.10325
1570264282.11888
1570264282.13451
1570264282.15013
1570264282.16576
1570264282.18138
1570264282.19701
1570264282.21263
1570264282.22826
1570264282.24389
1570264282.25951
1570264282.27514
1570264282.29076
1570264282.30639
1570264282.32201
1570264282.33764
1570264282.35327
1570264282.36889
1570264282.38452
1570264282.40014
1570264282.41577
1570264282.43139
1570264282.44702
1570264282.46265
1570264282.47827
1570264282.4939
1570264282.50952
1570264282.52515
1570264282.54078
1570264282.5564
1570264282.57203
1570264282.58765
1570264282.60328
1570264282.6189
1570264282.63453
1570264282.65016
1570264282.66578
1570264282.68141
1570264282.69703
1570264282.71266
1570264282.72828
1570264282.74391
1570264282.75954
1570264282.77516
1570264282.79079
1570264282.80641
1570264282.82204
1570264282.83766
1570264282.85329
1570264282.86892
1570264282.88454
1570264282.90017
1570264282.91579
1570264282.93142
1570264282.94704
1570264282.96267
1570264282.9783
1570264282.99392
1570264283.00955
1570264283.02517
1570264283.0408
1570264283.05642
1570264283.07205
1570264283.08768
1570264283.1033
1570264283.11893
1570264283.13455
1570264283.15018
1570264283.1658
1570264283.18143
1570264283.19706
1570264283.21268
1570264283.22831
1570264283.24393
1570264283.25956
1570264283.27518
1570264283.29081
1570264283.30644
1570264283.32206
1570264283.33769
1570264283.35331
1570264283.36894
1570264283.38456
1570264283.40019
1570264283.41582
1570264283.43144
1570264283.44707
1570264283.46269
1570264283.47832
1570264283.49394
1570264283.50957
1570264283.5252
1570264283.54082
1570264283.55645
1570264283.57207
1570264283.5877
1570264283.60332
1570264283.61895
1570264283.63458
1570264283.6502
1570264283.66583
1570264283.68145
1570264283.69708
1570264283.7127
1570264283.72833
1570264283.74396
1570264283.75958
1570264283.77521
1570264283.79083
1570264283.80646
1570264283.82208
1570264283.83771
1570264283.85334
1570264283.86896
1570264283.88459
1570264283.90021
1570264283.91584
1570264283.93146
1570264283.94709
1570264283.96272
1570264283.97834
1570264283.99397
1570264284.00959
1570264284.02522
1570264284.04084
1570264284.05647
1570264284.0721
1570264284.08772
1570264284.10335
1570264284.11897
1570264284.1346
1570264284.15022
1570264284.16585
1570264284.18148
1570264284.1971
1570264284.21273
1570264284.22835
1570264284.24398
1570264284.2596
1570264284.27523
1570264284.29086
1570264284.30648
1570264284.32211
1570264284.33773
1570264284.35336
1570264284.36898
1570264284.38461
1570264284.40024
1570264284.41586
1570264284.43149
1570264284.44711
1570264284.46274
1570264284.47836
1570264284.49399
1570264284.50962
1570264284.52524
1570264284.54087
1570264284.55649
1570264284.57212
1570264284.58774
1570264284.60337
1570264284.619
1570264284.63462
1570264284.65025
1570264284.66587
1570264284.6815
1570264284.69712
1570264284.71275
1570264284.72838
1570264284.744
1570264284.75963
1570264284.77525
1570264284.79088
1570264284.8065
1570264284.82213
1570264284.83776
1570264284.85338
1570264284.86901
1570264284.88463
1570264284.90026
1570264284.91588
1570264284.93151
1570264284.94714
1570264284.96276
1570264284.97839
1570264284.99401
1570264285.00964
1570264285.02526
1570264285.04089
1570264285.05652
1570264285.07214
1570264285.08777
1570264285.10339
1570264285.11902
1570264285.13464
1570264285.15027
1570264285.1659
1570264285.18152
1570264285.19715
1570264285.21277
1570264285.2284
1570264285.24403
1570264285.25965
1570264285.27528
1570264285.2909
1570264285.30653
1570264285.32215
1570264285.33778
1570264285.35341
1570264285.36903
1570264285.38466
1570264285.40028
1570264285.41591
1570264285.43153
1570264285.44716
1570264285.46279
1570264285.47841
1570264285.49404
1570264285.50966
1570264285.52529
1570264285.54091
1570264285.55654
1570264285.57217
1570264285.58779
1570264285.60342
1570264285.61904
1570264285.63467
1570264285.65029
1570264285.66592
1570264285.68155
1570264285.69717
1570264285.7128
1570264285.72842
1570264285.74405
1570264285.75967
1570264285.7753
1570264285.79093
1570264285.80655
1570264285.82218
1570264285.8378
1570264285.85343
1570264285.86905
1570264285.88468
1570264285.90031
1570264285.91593
1570264285.93156
1570264285.94718
1570264285.96281
1570264285.97843
1570264285.99406
1570264286.00969
1570264286.02531
1570264286.04094
1570264286.05656
1570264286.07219
1570264286.08781
1570264286.10344
1570264286.11907
1570264286.13469
1570264286.15032
1570264286.16594
1570264286.18157
1570264286.19719
1570264286.21282
1570264286.22845
1570264286.24407
1570264286.2597
1570264286.27532
1570264286.29095
1570264286.30657
1570264286.3222
1570264286.33783
1570264286.35345
1570264286.36908
1570264286.3847
1570264286.40033
1570264286.41595
1570264286.43158
1570264286.44721
1570264286.46283
1570264286.47846
1570264286.49408
1570264286.50971
1570264286.52533
1570264286.54096
1570264286.55659
1570264286.57221
1570264286.58784
1570264286.60346
1570264286.61909
1570264286.63471
1570264286.65034
1570264286.66597
1570264286.68159
1570264286.69722
1570264286.71284
1570264286.72847
1570264286.74409
1570264286.75972
1570264286.77535
1570264286.79097
1570264286.8066
1570264286.82222
1570264286.83785
1570264286.85347
1570264286.8691
1570264286.88473
1570264286.90035
1570264286.91598
1570264286.9316
1570264286.94723
1570264286.96285
1570264286.97848
1570264286.99411
1570264287.00973
1570264287.02536
1570264287.04098
1570264287.05661
1570264287.07223
1570264287.08786
1570264287.10349
1570264287.11911
1570264287.13474
1570264287.15036
1570264287.16599
1570264287.18161
1570264287.19724
1570264287.21287
1570264287.22849
1570264287.24412
1570264287.25974
1570264287.27537
1570264287.29099
1570264287.30662
1570264287.32225
1570264287.33787
1570264287.3535
1570264287.36912
1570264287.38475
1570264287.40038
1570264287.416
1570264287.43163
1570264287.44725
1570264287.46288
1570264287.4785
1570264287.49413
1570264287.50976
1570264287.52538
1570264287.54101
1570264287.55663
1570264287.57226
1570264287.58788
1570264287.60351
1570264287.61914
1570264287.63476
1570264287.65039
1570264287.66601
1570264287.68164
1570264287.69726
1570264287.71289
1570264287.72852
1570264287.74414
1570264287.75977
1570264287.77539
1570264287.79102
1570264287.80664
1570264287.82227
1570264287.8379
1570264287.85352
1570264287.86915
1570264287.88477
1570264287.9004
1570264287.91602
1570264287.93165
1570264287.94728
1570264287.9629
1570264287.97853
1570264287.99415
1570264288.00978
1570264288.0254
1570264288.04103
1570264288.05666
1570264288.07228
1570264288.08791
1570264288.10353
1570264288.11916
1570264288.13478
1570264288.15041
1570264288.16604
1570264288.18166
1570264288.19729
1570264288.21291
1570264288.22854
1570264288.24416
1570264288.25979
1570264288.27542
1570264288.29104
1570264288.30667
1570264288.32229
1570264288.33792
1570264288.35354
1570264288.36917
1570264288.3848
1570264288.40042
1570264288.41605
1570264288.43167
1570264288.4473
1570264288.46292
1570264288.47855
1570264288.49418
1570264288.5098
1570264288.52543
1570264288.54105
1570264288.55668
1570264288.5723
1570264288.58793
1570264288.60356
1570264288.61918
1570264288.63481
1570264288.65043
1570264288.66606
1570264288.68168
1570264288.69731
1570264288.71294
1570264288.72856
1570264288.74419
1570264288.75981
1570264288.77544
1570264288.79106
1570264288.80669
1570264288.82232
1570264288.83794
1570264288.85357
1570264288.86919
1570264288.88482
1570264288.90044
1570264288.91607
1570264288.9317
1570264288.94732
1570264288.96295
1570264288.97857
1570264288.9942
1570264289.00982
1570264289.02545
1570264289.04108
1570264289.0567
1570264289.07233
1570264289.08795
1570264289.10358
1570264289.1192
1570264289.13483
1570264289.15046
1570264289.16608
1570264289.18171
1570264289.19733
1570264289.21296
1570264289.22858
1570264289.24421
1570264289.25984
1570264289.27546
1570264289.29109
1570264289.30671
1570264289.32234
1570264289.33796
1570264289.35359
1570264289.36922
1570264289.38484
1570264289.40047
1570264289.41609
1570264289.43172
1570264289.44734
1570264289.46297
1570264289.4786
1570264289.49422
1570264289.50985
1570264289.52547
1570264289.5411
1570264289.55672
1570264289.57235
1570264289.58798
1570264289.6036
1570264289.61923
1570264289.63485
1570264289.65048
1570264289.66611
1570264289.68173
1570264289.69736
1570264289.71298
1570264289.72861
1570264289.74423
1570264289.75986
1570264289.77549
1570264289.79111
1570264289.80674
1570264289.82236
1570264289.83799
1570264289.85361
1570264289.86924
1570264289.88487
1570264289.90049
1570264289.91612
1570264289.93174
1570264289.94737
1570264289.96299
1570264289.97862
1570264289.99425
1570264290.00987
1570264290.0255
1570264290.04112
1570264290.05675
1570264290.07237
1570264290.088
1570264290.10363
1570264290.11925
1570264290.13488
1570264290.1505
1570264290.16613
1570264290.18175
1570264290.19738
1570264290.21301
1570264290.22863
1570264290.24426
1570264290.25988
1570264290.27551
1570264290.29113
1570264290.30676
1570264290.32239
1570264290.33801
1570264290.35364
1570264290.36926
1570264290.38489
1570264290.40051
1570264290.41614
1570264290.43177
1570264290.44739
1570264290.46302
1570264290.47864
1570264290.49427
1570264290.50989
1570264290.52552
1570264290.54115
1570264290.55677
1570264290.5724
1570264290.58802
1570264290.60365
1570264290.61927
1570264290.6349
1570264290.65053
1570264290.66615
1570264290.68178
1570264290.6974
1570264290.71303
1570264290.72865
1570264290.74428
1570264290.75991
1570264290.77553
1570264290.79116
1570264290.80678
1570264290.82241
1570264290.83803
1570264290.85366
1570264290.86929
1570264290.88491
1570264290.90054
1570264290.91616
1570264290.93179
1570264290.94741
1570264290.96304
1570264290.97867
1570264290.99429
1570264291.00992
1570264291.02554
1570264291.04117
1570264291.05679
1570264291.07242
1570264291.08805
1570264291.10367
1570264291.1193
1570264291.13492
1570264291.15055
1570264291.16617
1570264291.1818
1570264291.19743
1570264291.21305
1570264291.22868
1570264291.2443
1570264291.25993
1570264291.27555
1570264291.29118
1570264291.30681
1570264291.32243
1570264291.33806
1570264291.35368
1570264291.36931
1570264291.38493
1570264291.40056
1570264291.41619
1570264291.43181
1570264291.44744
1570264291.46306
1570264291.47869
1570264291.49431
1570264291.50994
1570264291.52557
1570264291.54119
1570264291.55682
1570264291.57244
1570264291.58807
1570264291.60369
1570264291.61932
1570264291.63495
1570264291.65057
1570264291.6662
1570264291.68182
1570264291.69745
1570264291.71307
1570264291.7287
1570264291.74433
1570264291.75995
1570264291.77558
1570264291.7912
1570264291.80683
1570264291.82245
1570264291.83808
1570264291.85371
1570264291.86933
1570264291.88496
1570264291.90058
1570264291.91621
1570264291.93183
1570264291.94746
1570264291.96309
1570264291.97871
1570264291.99434
1570264292.00996
1570264292.02559
1570264292.04121
1570264292.05684
1570264292.07247
1570264292.08809
1570264292.10372
1570264292.11934
1570264292.13497
1570264292.15059
1570264292.16622
1570264292.18185
1570264292.19747
1570264292.2131
1570264292.22872
1570264292.24435
1570264292.25998
1570264292.2756
1570264292.29123
1570264292.30685
1570264292.32248
1570264292.3381
1570264292.35373
1570264292.36936
1570264292.38498
1570264292.40061
1570264292.41623
1570264292.43186
1570264292.44748
1570264292.46311
1570264292.47874
1570264292.49436
1570264292.50999
1570264292.52561
1570264292.54124
1570264292.55686
1570264292.57249
1570264292.58812
1570264292.60374
1570264292.61937
1570264292.63499
1570264292.65062
1570264292.66624
1570264292.68187
1570264292.6975
1570264292.71312
1570264292.72875
1570264292.74437
1570264292.76
1570264292.77562
1570264292.79125
1570264292.80688
1570264292.8225
1570264292.83813
1570264292.85375
1570264292.86938
1570264292.885
1570264292.90063
1570264292.91626
1570264292.93188
1570264292.94751
1570264292.96313
1570264292.97876
1570264292.99438
1570264293.01001
1570264293.02564
1570264293.04126
1570264293.05689
1570264293.07251
1570264293.08814
1570264293.10376
1570264293.11939
1570264293.13502
1570264293.15064
1570264293.16627
1570264293.18189
1570264293.19752
1570264293.21314
1570264293.22877
1570264293.2444
1570264293.26002
1570264293.27565
1570264293.29127
1570264293.3069
1570264293.32252
1570264293.33815
1570264293.35378
1570264293.3694
1570264293.38503
1570264293.40065
1570264293.41628
1570264293.4319
1570264293.44753
1570264293.46316
1570264293.47878
1570264293.49441
1570264293.51003
1570264293.52566
1570264293.54128
1570264293.55691
1570264293.57254
1570264293.58816
1570264293.60379
1570264293.61941
1570264293.63504
1570264293.65066
1570264293.66629
1570264293.68192
1570264293.69754
1570264293.71317
1570264293.72879
1570264293.74442
1570264293.76004
1570264293.77567
1570264293.7913
1570264293.80692
1570264293.82255
1570264293.83817
1570264293.8538
1570264293.86942
1570264293.88505
1570264293.90068
1570264293.9163
1570264293.93193
1570264293.94755
1570264293.96318
1570264293.9788
1570264293.99443
1570264294.01006
1570264294.02568
1570264294.04131
1570264294.05693
1570264294.07256
1570264294.08818
1570264294.10381
1570264294.11944
1570264294.13506
1570264294.15069
1570264294.16631
1570264294.18194
1570264294.19756
1570264294.21319
1570264294.22882
1570264294.24444
1570264294.26007
1570264294.27569
1570264294.29132
1570264294.30694
1570264294.32257
1570264294.3382
1570264294.35382
1570264294.36945
1570264294.38507
1570264294.4007
1570264294.41632
1570264294.43195
1570264294.44758
1570264294.4632
1570264294.47883
1570264294.49445
1570264294.51008
1570264294.52571
1570264294.54133
1570264294.55696
1570264294.57258
1570264294.58821
1570264294.60383
1570264294.61946
1570264294.63509
1570264294.65071
1570264294.66634
1570264294.68196
1570264294.69759
1570264294.71321
1570264294.72884
1570264294.74447
1570264294.76009
1570264294.77572
1570264294.79134
1570264294.80697
1570264294.82259
1570264294.83822
1570264294.85385
1570264294.86947
1570264294.8851
1570264294.90072
1570264294.91635
1570264294.93197
1570264294.9476
1570264294.96323
1570264294.97885
1570264294.99448
1570264295.0101
1570264295.02573
1570264295.04135
1570264295.05698
1570264295.07261
1570264295.08823
1570264295.10386
1570264295.11948
1570264295.13511
1570264295.15073
1570264295.16636
1570264295.18199
1570264295.19761
1570264295.21324
1570264295.22886
1570264295.24449
1570264295.26011
1570264295.27574
1570264295.29137
1570264295.30699
1570264295.32262
1570264295.33824
1570264295.35387
1570264295.36949
1570264295.38512
1570264295.40075
1570264295.41637
1570264295.432
1570264295.44762
1570264295.46325
1570264295.47887
1570264295.4945
1570264295.51013
1570264295.52575
1570264295.54138
1570264295.557
1570264295.57263
1570264295.58825
1570264295.60388
1570264295.61951
1570264295.63513
1570264295.65076
1570264295.66638
1570264295.68201
1570264295.69763
1570264295.71326
1570264295.72889
1570264295.74451
1570264295.76014
1570264295.77576
1570264295.79139
1570264295.80701
1570264295.82264
1570264295.83827
1570264295.85389
1570264295.86952
1570264295.88514
1570264295.90077
1570264295.91639
1570264295.93202
1570264295.94765
1570264295.96327
1570264295.9789
1570264295.99452
1570264296.01015
1570264296.02577
1570264296.0414
1570264296.05703
1570264296.07265
1570264296.08828
1570264296.1039
1570264296.11953
1570264296.13515
1570264296.15078
1570264296.16641
1570264296.18203
1570264296.19766
1570264296.21328
1570264296.22891
1570264296.24453
1570264296.26016
1570264296.27579
1570264296.29141
1570264296.30704
1570264296.32266
1570264296.33829
1570264296.35391
1570264296.36954
1570264296.38517
1570264296.40079
1570264296.41642
1570264296.43204
1570264296.44767
1570264296.46329
1570264296.47892
1570264296.49455
1570264296.51017
1570264296.5258
1570264296.54142
1570264296.55705
1570264296.57267
1570264296.5883
1570264296.60393
1570264296.61955
1570264296.63518
1570264296.6508
1570264296.66643
1570264296.68206
1570264296.69768
1570264296.71331
1570264296.72893
1570264296.74456
1570264296.76018
1570264296.77581
1570264296.79144
1570264296.80706
1570264296.82269
1570264296.83831
1570264296.85394
1570264296.86956
1570264296.88519
1570264296.90082
1570264296.91644
1570264296.93207
1570264296.94769
1570264296.96332
1570264296.97894
1570264296.99457
1570264297.0102
1570264297.02582
1570264297.04145
1570264297.05707
1570264297.0727
1570264297.08832
1570264297.10395
1570264297.11958
1570264297.1352
1570264297.15083
1570264297.16645
1570264297.18208
1570264297.1977
1570264297.21333
1570264297.22896
1570264297.24458
1570264297.26021
1570264297.27583
1570264297.29146
1570264297.30708
1570264297.32271
1570264297.33834
1570264297.35396
1570264297.36959
1570264297.38521
1570264297.40084
1570264297.41646
1570264297.43209
1570264297.44772
1570264297.46334
1570264297.47897
1570264297.49459
1570264297.51022
1570264297.52584
1570264297.54147
1570264297.5571
1570264297.57272
1570264297.58835
1570264297.60397
1570264297.6196
1570264297.63522
1570264297.65085
1570264297.66648
1570264297.6821
1570264297.69773
1570264297.71335
1570264297.72898
1570264297.7446
1570264297.76023
1570264297.77586
1570264297.79148
1570264297.80711
1570264297.82273
1570264297.83836
1570264297.85398
1570264297.86961
1570264297.88524
1570264297.90086
1570264297.91649
1570264297.93211
1570264297.94774
1570264297.96336
1570264297.97899
1570264297.99462
1570264298.01024
1570264298.02587
1570264298.04149
1570264298.05712
1570264298.07274
1570264298.08837
1570264298.104
1570264298.11962
1570264298.13525
1570264298.15087
1570264298.1665
1570264298.18212
1570264298.19775
1570264298.21338
1570264298.229
1570264298.24463
1570264298.26025
1570264298.27588
1570264298.2915
1570264298.30713
1570264298.32276
1570264298.33838
1570264298.35401
1570264298.36963
1570264298.38526
1570264298.40088
1570264298.41651
1570264298.43214
1570264298.44776
1570264298.46339
1570264298.47901
1570264298.49464
1570264298.51026
1570264298.52589
1570264298.54152
1570264298.55714
1570264298.57277
1570264298.58839
1570264298.60402
1570264298.61964
1570264298.63527
1570264298.6509
1570264298.66652
1570264298.68215
1570264298.69777
1570264298.7134
1570264298.72902
1570264298.74465
1570264298.76028
1570264298.7759
1570264298.79153
1570264298.80715
1570264298.82278
1570264298.8384
1570264298.85403
1570264298.86966
1570264298.88528
1570264298.90091
1570264298.91653
1570264298.93216
1570264298.94778
1570264298.96341
1570264298.97904
1570264298.99466
1570264299.01029
1570264299.02591
1570264299.04154
1570264299.05716
1570264299.07279
1570264299.08842
1570264299.10404
1570264299.11967
1570264299.13529
1570264299.15092
1570264299.16654
1570264299.18217
1570264299.1978
1570264299.21342
1570264299.22905
1570264299.24467
1570264299.2603
1570264299.27592
1570264299.29155
1570264299.30718
1570264299.3228
1570264299.33843
1570264299.35405
1570264299.36968
1570264299.38531
1570264299.40093
1570264299.41656
1570264299.43218
1570264299.44781
1570264299.46343
1570264299.47906
1570264299.49469
1570264299.51031
1570264299.52594
1570264299.54156
1570264299.55719
1570264299.57281
1570264299.58844
1570264299.60407
1570264299.61969
1570264299.63532
1570264299.65094
1570264299.66657
1570264299.68219
1570264299.69782
1570264299.71345
1570264299.72907
1570264299.7447
1570264299.76032
1570264299.77595
1570264299.79157
1570264299.8072
1570264299.82283
1570264299.83845
1570264299.85408
1570264299.8697
1570264299.88533
1570264299.90095
1570264299.91658
1570264299.93221
1570264299.94783
1570264299.96346
1570264299.97908
1570264299.99471
1570264300.01033
1570264300.02596
1570264300.04159
1570264300.05721
1570264300.07284
1570264300.08846
1570264300.10409
1570264300.11971
1570264300.13534
1570264300.15097
1570264300.16659
1570264300.18222
1570264300.19784
1570264300.21347
1570264300.22909
1570264300.24472
1570264300.26035
1570264300.27597
1570264300.2916
1570264300.30722
1570264300.32285
1570264300.33847
1570264300.3541
1570264300.36973
1570264300.38535
1570264300.40098
1570264300.4166
1570264300.43223
1570264300.44785
1570264300.46348
1570264300.47911
1570264300.49473
1570264300.51036
1570264300.52598
1570264300.54161
1570264300.55723
1570264300.57286
1570264300.58849
1570264300.60411
1570264300.61974
1570264300.63536
1570264300.65099
1570264300.66661
1570264300.68224
1570264300.69787
1570264300.71349
1570264300.72912
1570264300.74474
1570264300.76037
1570264300.77599
1570264300.79162
1570264300.80725
1570264300.82287
1570264300.8385
1570264300.85412
1570264300.86975
1570264300.88537
1570264300.901
1570264300.91663
1570264300.93225
1570264300.94788
1570264300.9635
1570264300.97913
1570264300.99475
1570264301.01038
1570264301.02601
1570264301.04163
1570264301.05726
1570264301.07288
1570264301.08851
1570264301.10413
1570264301.11976
1570264301.13539
1570264301.15101
1570264301.16664
1570264301.18226
1570264301.19789
1570264301.21351
1570264301.22914
1570264301.24477
1570264301.26039
1570264301.27602
1570264301.29164
1570264301.30727
1570264301.32289
1570264301.33852
1570264301.35415
1570264301.36977
1570264301.3854
1570264301.40102
1570264301.41665
1570264301.43227
1570264301.4479
1570264301.46353
1570264301.47915
1570264301.49478
1570264301.5104
1570264301.52603
1570264301.54166
1570264301.55728
1570264301.57291
1570264301.58853
1570264301.60416
1570264301.61978
1570264301.63541
1570264301.65104
1570264301.66666
1570264301.68229
1570264301.69791
1570264301.71354
1570264301.72916
1570264301.74479
1570264301.76042
1570264301.77604
1570264301.79167
1570264301.80729
1570264301.82292
1570264301.83854
1570264301.85417
1570264301.8698
1570264301.88542
1570264301.90105
1570264301.91667
1570264301.9323
1570264301.94792
1570264301.96355
1570264301.97918
1570264301.9948
1570264302.01043
1570264302.02605
1570264302.04168
1570264302.0573
1570264302.07293
1570264302.08856
1570264302.10418
1570264302.11981
1570264302.13543
1570264302.15106
1570264302.16668
1570264302.18231
1570264302.19794
1570264302.21356
1570264302.22919
1570264302.24481
1570264302.26044
1570264302.27606
1570264302.29169
1570264302.30732
1570264302.32294
1570264302.33857
1570264302.35419
1570264302.36982
1570264302.38544
1570264302.40107
1570264302.4167
1570264302.43232
1570264302.44795
1570264302.46357
1570264302.4792
1570264302.49482
1570264302.51045
1570264302.52608
1570264302.5417
1570264302.55733
1570264302.57295
1570264302.58858
1570264302.6042
1570264302.61983
1570264302.63546
1570264302.65108
1570264302.66671
1570264302.68233
1570264302.69796
1570264302.71358
1570264302.72921
1570264302.74484
1570264302.76046
1570264302.77609
1570264302.79171
1570264302.80734
1570264302.82296
1570264302.83859
1570264302.85422
1570264302.86984
1570264302.88547
1570264302.90109
1570264302.91672
1570264302.93234
1570264302.94797
1570264302.9636
1570264302.97922
1570264302.99485
1570264303.01047
1570264303.0261
1570264303.04172
1570264303.05735
1570264303.07298
1570264303.0886
1570264303.10423
1570264303.11985
1570264303.13548
1570264303.1511
1570264303.16673
1570264303.18236
1570264303.19798
1570264303.21361
1570264303.22923
1570264303.24486
1570264303.26048
1570264303.27611
1570264303.29174
1570264303.30736
1570264303.32299
1570264303.33861
1570264303.35424
1570264303.36986
1570264303.38549
1570264303.40112
1570264303.41674
1570264303.43237
1570264303.44799
1570264303.46362
1570264303.47924
1570264303.49487
1570264303.5105
1570264303.52612
1570264303.54175
1570264303.55737
1570264303.573
1570264303.58862
1570264303.60425
1570264303.61988
1570264303.6355
1570264303.65113
1570264303.66675
1570264303.68238
1570264303.698
1570264303.71363
1570264303.72926
1570264303.74488
1570264303.76051
1570264303.77613
1570264303.79176
1570264303.80738
1570264303.82301
1570264303.83864
1570264303.85426
1570264303.86989
1570264303.88551
1570264303.90114
1570264303.91676
1570264303.93239
1570264303.94802
1570264303.96364
1570264303.97927
1570264303.99489
1570264304.01052
1570264304.02614
1570264304.04177
1570264304.0574
1570264304.07302
1570264304.08865
1570264304.10427
1570264304.1199
1570264304.13552
1570264304.15115
1570264304.16678
1570264304.1824
1570264304.19803
1570264304.21365
1570264304.22928
1570264304.24491
1570264304.26053
1570264304.27616
1570264304.29178
1570264304.30741
1570264304.32303
1570264304.33866
1570264304.35429
1570264304.36991
1570264304.38554
1570264304.40116
1570264304.41679
1570264304.43241
1570264304.44804
1570264304.46367
1570264304.47929
1570264304.49492
1570264304.51054
1570264304.52617
1570264304.54179
1570264304.55742
1570264304.57305
1570264304.58867
1570264304.6043
1570264304.61992
1570264304.63555
1570264304.65117
1570264304.6668
1570264304.68243
1570264304.69805
1570264304.71368
1570264304.7293
1570264304.74493
1570264304.76055
1570264304.77618
1570264304.79181
1570264304.80743
1570264304.82306
1570264304.83868
1570264304.85431
1570264304.86993
1570264304.88556
1570264304.90119
1570264304.91681
1570264304.93244
1570264304.94806
1570264304.96369
1570264304.97931
1570264304.99494
1570264305.01057
1570264305.02619
1570264305.04182
1570264305.05744
1570264305.07307
1570264305.08869
1570264305.10432
1570264305.11995
1570264305.13557
1570264305.1512
1570264305.16682
1570264305.18245
1570264305.19807
1570264305.2137
1570264305.22933
1570264305.24495
1570264305.26058
1570264305.2762
1570264305.29183
1570264305.30745
1570264305.32308
1570264305.33871
1570264305.35433
1570264305.36996
1570264305.38558
1570264305.40121
1570264305.41683
1570264305.43246
1570264305.44809
1570264305.46371
1570264305.47934
1570264305.49496
1570264305.51059
1570264305.52621
1570264305.54184
1570264305.55747
1570264305.57309
1570264305.58872
1570264305.60434
1570264305.61997
1570264305.63559
1570264305.65122
1570264305.66685
1570264305.68247
1570264305.6981
1570264305.71372
1570264305.72935
1570264305.74497
1570264305.7606
1570264305.77623
1570264305.79185
1570264305.80748
1570264305.8231
1570264305.83873
1570264305.85435
1570264305.86998
1570264305.88561
1570264305.90123
1570264305.91686
1570264305.93248
1570264305.94811
1570264305.96373
1570264305.97936
1570264305.99499
1570264306.01061
1570264306.02624
1570264306.04186
1570264306.05749
1570264306.07311
1570264306.08874
1570264306.10437
1570264306.11999
1570264306.13562
1570264306.15124
1570264306.16687
1570264306.18249
1570264306.19812
1570264306.21375
1570264306.22937
1570264306.245
1570264306.26062
1570264306.27625
1570264306.29187
1570264306.3075
1570264306.32313
1570264306.33875
1570264306.35438
1570264306.37
1570264306.38563
1570264306.40125
1570264306.41688
1570264306.43251
1570264306.44813
1570264306.46376
1570264306.47938
1570264306.49501
1570264306.51064
1570264306.52626
1570264306.54189
1570264306.55751
1570264306.57314
1570264306.58876
1570264306.60439
1570264306.62002
1570264306.63564
1570264306.65127
1570264306.66689
1570264306.68252
1570264306.69814
1570264306.71377
1570264306.7294
1570264306.74502
1570264306.76065
1570264306.77627
1570264306.7919
1570264306.80752
1570264306.82315
1570264306.83878
1570264306.8544
1570264306.87003
1570264306.88565
1570264306.90128
1570264306.9169
1570264306.93253
1570264306.94816
1570264306.96378
1570264306.97941
1570264306.99503
1570264307.01066
1570264307.02628
1570264307.04191
1570264307.05754
1570264307.07316
1570264307.08879
1570264307.10441
1570264307.12004
1570264307.13566
1570264307.15129
1570264307.16692
1570264307.18254
1570264307.19817
1570264307.21379
1570264307.22942
1570264307.24504
1570264307.26067
1570264307.2763
1570264307.29192
1570264307.30755
1570264307.32317
1570264307.3388
1570264307.35442
1570264307.37005
1570264307.38568
1570264307.4013
1570264307.41693
1570264307.43255
1570264307.44818
1570264307.4638
1570264307.47943
1570264307.49506
1570264307.51068
1570264307.52631
1570264307.54193
1570264307.55756
1570264307.57318
1570264307.58881
1570264307.60444
1570264307.62006
1570264307.63569
1570264307.65131
1570264307.66694
1570264307.68256
1570264307.69819
1570264307.71382
1570264307.72944
1570264307.74507
1570264307.76069
1570264307.77632
1570264307.79194
1570264307.80757
1570264307.8232
1570264307.83882
1570264307.85445
1570264307.87007
1570264307.8857
1570264307.90132
1570264307.91695
1570264307.93258
1570264307.9482
1570264307.96383
1570264307.97945
1570264307.99508
1570264308.0107
1570264308.02633
1570264308.04196
1570264308.05758
1570264308.07321
1570264308.08883
1570264308.10446
1570264308.12008
1570264308.13571
1570264308.15134
1570264308.16696
1570264308.18259
1570264308.19821
1570264308.21384
1570264308.22946
1570264308.24509
1570264308.26072
1570264308.27634
1570264308.29197
1570264308.30759
1570264308.32322
1570264308.33884
1570264308.35447
1570264308.3701
1570264308.38572
1570264308.40135
1570264308.41697
1570264308.4326
1570264308.44822
1570264308.46385
1570264308.47948
1570264308.4951
1570264308.51073
1570264308.52635
1570264308.54198
1570264308.5576
1570264308.57323
1570264308.58886
1570264308.60448
1570264308.62011
1570264308.63573
1570264308.65136
1570264308.66699
1570264308.68261
1570264308.69824
1570264308.71386
1570264308.72949
1570264308.74511
1570264308.76074
1570264308.77637
1570264308.79199
1570264308.80762
1570264308.82324
1570264308.83887
1570264308.85449
1570264308.87012
1570264308.88575
1570264308.90137
1570264308.917
1570264308.93262
1570264308.94825
1570264308.96387
1570264308.9795
1570264308.99513
1570264309.01075
1570264309.02638
1570264309.042
1570264309.05763
1570264309.07325
1570264309.08888
1570264309.10451
1570264309.12013
1570264309.13576
1570264309.15138
1570264309.16701
1570264309.18263
1570264309.19826
1570264309.21389
1570264309.22951
1570264309.24514
1570264309.26076
1570264309.27639
1570264309.29201
1570264309.30764
1570264309.32327
1570264309.33889
1570264309.35452
1570264309.37014
1570264309.38577
1570264309.40139
1570264309.41702
1570264309.43265
1570264309.44827
1570264309.4639
1570264309.47952
1570264309.49515
1570264309.51077
1570264309.5264
1570264309.54203
1570264309.55765
1570264309.57328
1570264309.5889
1570264309.60453
1570264309.62015
1570264309.63578
1570264309.65141
1570264309.66703
1570264309.68266
1570264309.69828
1570264309.71391
1570264309.72953
1570264309.74516
1570264309.76079
1570264309.77641
1570264309.79204
1570264309.80766
1570264309.82329
1570264309.83891
1570264309.85454
1570264309.87017
1570264309.88579
1570264309.90142
1570264309.91704
1570264309.93267
1570264309.94829
1570264309.96392
1570264309.97955
1570264309.99517
1570264310.0108
1570264310.02642
1570264310.04205
1570264310.05767
1570264310.0733
1570264310.08893
1570264310.10455
1570264310.12018
1570264310.1358
1570264310.15143
1570264310.16705
1570264310.18268
1570264310.19831
1570264310.21393
1570264310.22956
1570264310.24518
1570264310.26081
1570264310.27643
1570264310.29206
1570264310.30769
1570264310.32331
1570264310.33894
1570264310.35456
1570264310.37019
1570264310.38581
1570264310.40144
1570264310.41707
1570264310.43269
1570264310.44832
1570264310.46394
1570264310.47957
1570264310.49519
1570264310.51082
1570264310.52645
1570264310.54207
1570264310.5577
1570264310.57332
1570264310.58895
1570264310.60457
1570264310.6202
1570264310.63583
1570264310.65145
1570264310.66708
1570264310.6827
1570264310.69833
1570264310.71395
1570264310.72958
1570264310.74521
1570264310.76083
1570264310.77646
1570264310.79208
1570264310.80771
1570264310.82333
1570264310.83896
1570264310.85459
1570264310.87021
1570264310.88584
1570264310.90146
1570264310.91709
1570264310.93271
1570264310.94834
1570264310.96397
1570264310.97959
1570264310.99522
1570264311.01084
1570264311.02647
1570264311.04209
1570264311.05772
1570264311.07335
1570264311.08897
1570264311.1046
1570264311.12022
1570264311.13585
1570264311.15147
1570264311.1671
1570264311.18273
1570264311.19835
1570264311.21398
1570264311.2296
1570264311.24523
1570264311.26085
1570264311.27648
1570264311.29211
1570264311.30773
1570264311.32336
1570264311.33898
1570264311.35461
1570264311.37024
1570264311.38586
1570264311.40149
1570264311.41711
1570264311.43274
1570264311.44836
1570264311.46399
1570264311.47962
1570264311.49524
1570264311.51087
1570264311.52649
1570264311.54212
1570264311.55774
1570264311.57337
1570264311.589
1570264311.60462
1570264311.62025
1570264311.63587
1570264311.6515
1570264311.66712
1570264311.68275
1570264311.69838
1570264311.714
1570264311.72963
1570264311.74525
1570264311.76088
1570264311.7765
1570264311.79213
1570264311.80776
1570264311.82338
1570264311.83901
1570264311.85463
1570264311.87026
1570264311.88588
1570264311.90151
1570264311.91714
1570264311.93276
1570264311.94839
1570264311.96401
1570264311.97964
1570264311.99526
1570264312.01089
1570264312.02652
1570264312.04214
1570264312.05777
1570264312.07339
1570264312.08902
1570264312.10464
1570264312.12027
1570264312.1359
1570264312.15152
1570264312.16715
1570264312.18277
1570264312.1984
1570264312.21402
1570264312.22965
1570264312.24528
1570264312.2609
1570264312.27653
1570264312.29215
1570264312.30778
1570264312.3234
1570264312.33903
1570264312.35466
1570264312.37028
1570264312.38591
1570264312.40153
1570264312.41716
1570264312.43278
1570264312.44841
1570264312.46404
1570264312.47966
1570264312.49529
1570264312.51091
1570264312.52654
1570264312.54216
1570264312.55779
1570264312.57342
1570264312.58904
1570264312.60467
1570264312.62029
1570264312.63592
1570264312.65154
1570264312.66717
1570264312.6828
1570264312.69842
1570264312.71405
1570264312.72967
1570264312.7453
1570264312.76092
1570264312.77655
1570264312.79218
1570264312.8078
1570264312.82343
1570264312.83905
1570264312.85468
1570264312.8703
1570264312.88593
1570264312.90156
1570264312.91718
1570264312.93281
1570264312.94843
1570264312.96406
1570264312.97968
1570264312.99531
1570264313.01094
1570264313.02656
1570264313.04219
1570264313.05781
1570264313.07344
1570264313.08906
1570264313.10469
1570264313.12032
1570264313.13594
1570264313.15157
1570264313.16719
1570264313.18282
1570264313.19844
1570264313.21407
1570264313.2297
1570264313.24532
1570264313.26095
1570264313.27657
1570264313.2922
1570264313.30782
1570264313.32345
1570264313.33908
1570264313.3547
1570264313.37033
1570264313.38595
1570264313.40158
1570264313.4172
1570264313.43283
1570264313.44846
1570264313.46408
1570264313.47971
1570264313.49533
1570264313.51096
1570264313.52659
1570264313.54221
1570264313.55784
1570264313.57346
1570264313.58909
1570264313.60471
1570264313.62034
1570264313.63597
1570264313.65159
1570264313.66722
1570264313.68284
1570264313.69847
1570264313.71409
1570264313.72972
1570264313.74535
1570264313.76097
1570264313.7766
1570264313.79222
1570264313.80785
1570264313.82347
1570264313.8391
1570264313.85473
1570264313.87035
1570264313.88598
1570264313.9016
1570264313.91723
1570264313.93285
1570264313.94848
1570264313.96411
1570264313.97973
1570264313.99536
1570264314.01098
1570264314.02661
1570264314.04223
1570264314.05786
1570264314.07349
1570264314.08911
1570264314.10474
1570264314.12036
1570264314.13599
1570264314.15161
1570264314.16724
1570264314.18287
1570264314.19849
1570264314.21412
1570264314.22974
1570264314.24537
1570264314.26099
1570264314.27662
1570264314.29225
1570264314.30787
1570264314.3235
1570264314.33912
1570264314.35475
1570264314.37037
1570264314.386
1570264314.40163
1570264314.41725
1570264314.43288
1570264314.4485
1570264314.46413
1570264314.47975
1570264314.49538
1570264314.51101
1570264314.52663
1570264314.54226
1570264314.55788
1570264314.57351
1570264314.58913
1570264314.60476
1570264314.62039
1570264314.63601
1570264314.65164
1570264314.66726
1570264314.68289
1570264314.69851
1570264314.71414
1570264314.72977
1570264314.74539
1570264314.76102
1570264314.77664
1570264314.79227
1570264314.80789
1570264314.82352
1570264314.83915
1570264314.85477
1570264314.8704
1570264314.88602
1570264314.90165
1570264314.91727
1570264314.9329
1570264314.94853
1570264314.96415
1570264314.97978
1570264314.9954
1570264315.01103
1570264315.02665
1570264315.04228
1570264315.05791
1570264315.07353
1570264315.08916
1570264315.10478
1570264315.12041
1570264315.13603
