1570265308.18203
1570265308.19765
1570265308.21328
1570265308.2289
1570265308.24453
1570265308.26015
1570265308.27578
1570265308.29141
1570265308.30703
1570265308.32266
1570265308.33828
1570265308.35391
1570265308.36953
1570265308.38516
1570265308.40079
1570265308.41641
1570265308.43204
1570265308.44766
1570265308.46329
1570265308.47891
1570265308.49454
1570265308.51017
1570265308.52579
1570265308.54142
1570265308.55704
1570265308.57267
1570265308.58829
1570265308.60392
1570265308.61955
1570265308.63517
1570265308.6508
1570265308.66642
1570265308.68205
1570265308.69767
1570265308.7133
1570265308.72893
1570265308.74455
1570265308.76018
1570265308.7758
1570265308.79143
1570265308.80705
1570265308.82268
1570265308.83831
1570265308.85393
1570265308.86956
1570265308.88518
1570265308.90081
1570265308.91643
1570265308.93206
1570265308.94769
1570265308.96331
1570265308.97894
1570265308.99456
1570265309.01019
1570265309.02581
1570265309.04144
1570265309.05707
1570265309.07269
1570265309.08832
1570265309.10394
1570265309.11957
1570265309.13519
1570265309.15082
1570265309.16645
1570265309.18207
1570265309.1977
1570265309.21332
1570265309.22895
1570265309.24457
1570265309.2602
1570265309.27583
1570265309.29145
1570265309.30708
1570265309.3227
1570265309.33833
1570265309.35395
1570265309.36958
1570265309.38521
1570265309.40083
1570265309.41646
1570265309.43208
1570265309.44771
1570265309.46333
1570265309.47896
1570265309.49459
1570265309.51021
1570265309.52584
1570265309.54146
1570265309.55709
1570265309.57271
1570265309.58834
1570265309.60397
1570265309.61959
1570265309.63522
1570265309.65084
1570265309.66647
1570265309.68209
1570265309.69772
1570265309.71335
1570265309.72897
1570265309.7446
1570265309.76022
1570265309.77585
1570265309.79147
1570265309.8071
1570265309.82273
1570265309.83835
1570265309.85398
1570265309.8696
1570265309.88523
1570265309.90085
1570265309.91648
1570265309.93211
1570265309.94773
1570265309.96336
1570265309.97898
1570265309.99461
1570265310.01024
1570265310.02586
1570265310.04149
1570265310.05711
1570265310.07274
1570265310.08836
1570265310.10399
1570265310.11962
1570265310.13524
1570265310.15087
1570265310.16649
1570265310.18212
1570265310.19774
1570265310.21337
1570265310.229
1570265310.24462
1570265310.26025
1570265310.27587
1570265310.2915
1570265310.30712
1570265310.32275
1570265310.33838
1570265310.354
1570265310.36963
1570265310.38525
1570265310.40088
1570265310.4165
1570265310.43213
1570265310.44776
1570265310.46338
1570265310.47901
1570265310.49463
1570265310.51026
1570265310.52588
1570265310.54151
1570265310.55714
1570265310.57276
1570265310.58839
1570265310.60401
1570265310.61964
1570265310.63526
1570265310.65089
1570265310.66652
1570265310.68214
1570265310.69777
1570265310.71339
1570265310.72902
1570265310.74464
1570265310.76027
1570265310.7759
1570265310.79152
1570265310.80715
1570265310.82277
1570265310.8384
1570265310.85402
1570265310.86965
1570265310.88528
1570265310.9009
1570265310.91653
1570265310.93215
1570265310.94778
1570265310.9634
1570265310.97903
1570265310.99466
1570265311.01028
1570265311.02591
1570265311.04153
1570265311.05716
1570265311.07278
1570265311.08841
1570265311.10404
1570265311.11966
1570265311.13529
1570265311.15091
1570265311.16654
1570265311.18216
1570265311.19779
1570265311.21342
1570265311.22904
1570265311.24467
1570265311.26029
1570265311.27592
1570265311.29154
1570265311.30717
1570265311.3228
1570265311.33842
1570265311.35405
1570265311.36967
1570265311.3853
1570265311.40092
1570265311.41655
1570265311.43218
1570265311.4478
1570265311.46343
1570265311.47905
1570265311.49468
1570265311.5103
1570265311.52593
1570265311.54156
1570265311.55718
1570265311.57281
1570265311.58843
1570265311.60406
1570265311.61968
1570265311.63531
1570265311.65094
1570265311.66656
1570265311.68219
1570265311.69781
1570265311.71344
1570265311.72906
1570265311.74469
1570265311.76032
1570265311.77594
1570265311.79157
1570265311.80719
1570265311.82282
1570265311.83844
1570265311.85407
1570265311.8697
1570265311.88532
1570265311.90095
1570265311.91657
1570265311.9322
1570265311.94782
1570265311.96345
1570265311.97908
1570265311.9947
1570265312.01033
1570265312.02595
1570265312.04158
1570265312.0572
1570265312.07283
1570265312.08846
1570265312.10408
1570265312.11971
1570265312.13533
1570265312.15096
1570265312.16658
1570265312.18221
1570265312.19784
1570265312.21346
1570265312.22909
1570265312.24471
1570265312.26034
1570265312.27596
1570265312.29159
1570265312.30722
1570265312.32284
1570265312.33847
1570265312.35409
1570265312.36972
1570265312.38534
1570265312.40097
1570265312.4166
1570265312.43222
1570265312.44785
1570265312.46347
1570265312.4791
1570265312.49472
1570265312.51035
1570265312.52598
1570265312.5416
1570265312.55723
1570265312.57285
1570265312.58848
1570265312.60411
1570265312.61973
1570265312.63536
1570265312.65098
1570265312.66661
1570265312.68223
1570265312.69786
1570265312.71349
1570265312.72911
1570265312.74474
1570265312.76036
1570265312.77599
1570265312.79161
1570265312.80724
1570265312.82287
1570265312.83849
1570265312.85412
1570265312.86974
1570265312.88537
1570265312.90099
1570265312.91662
1570265312.93225
1570265312.94787
1570265312.9635
1570265312.97912
1570265312.99475
1570265313.01037
1570265313.026
1570265313.04163
1570265313.05725
1570265313.07288
1570265313.0885
1570265313.10413
1570265313.11975
1570265313.13538
1570265313.15101
1570265313.16663
1570265313.18226
1570265313.19788
1570265313.21351
1570265313.22913
1570265313.24476
1570265313.26039
1570265313.27601
1570265313.29164
1570265313.30726
1570265313.32289
1570265313.33851
1570265313.35414
1570265313.36977
1570265313.38539
1570265313.40102
1570265313.41664
1570265313.43227
1570265313.44789
1570265313.46352
1570265313.47915
1570265313.49477
1570265313.5104
1570265313.52602
1570265313.54165
1570265313.55727
1570265313.5729
1570265313.58853
1570265313.60415
1570265313.61978
1570265313.6354
1570265313.65103
1570265313.66665
1570265313.68228
1570265313.69791
1570265313.71353
1570265313.72916
1570265313.74478
1570265313.76041
1570265313.77603
1570265313.79166
1570265313.80729
1570265313.82291
1570265313.83854
1570265313.85416
1570265313.86979
1570265313.88541
1570265313.90104
1570265313.91667
1570265313.93229
1570265313.94792
1570265313.96354
1570265313.97917
1570265313.99479
1570265314.01042
1570265314.02605
1570265314.04167
1570265314.0573
1570265314.07292
1570265314.08855
1570265314.10417
1570265314.1198
1570265314.13543
1570265314.15105
1570265314.16668
1570265314.1823
1570265314.19793
1570265314.21355
1570265314.22918
1570265314.24481
1570265314.26043
1570265314.27606
1570265314.29168
1570265314.30731
1570265314.32293
1570265314.33856
1570265314.35419
1570265314.36981
1570265314.38544
1570265314.40106
1570265314.41669
1570265314.43231
1570265314.44794
1570265314.46357
1570265314.47919
1570265314.49482
1570265314.51044
1570265314.52607
1570265314.54169
1570265314.55732
1570265314.57295
1570265314.58857
1570265314.6042
1570265314.61982
1570265314.63545
1570265314.65107
1570265314.6667
1570265314.68233
1570265314.69795
1570265314.71358
1570265314.7292
1570265314.74483
1570265314.76045
1570265314.77608
1570265314.79171
1570265314.80733
1570265314.82296
1570265314.83858
1570265314.85421
1570265314.86984
1570265314.88546
1570265314.90109
1570265314.91671
1570265314.93234
1570265314.94796
1570265314.96359
1570265314.97922
1570265314.99484
1570265315.01047
1570265315.02609
1570265315.04172
1570265315.05734
1570265315.07297
1570265315.0886
1570265315.10422
1570265315.11985
1570265315.13547
1570265315.1511
1570265315.16672
1570265315.18235
1570265315.19798
1570265315.2136
1570265315.22923
1570265315.24485
1570265315.26048
1570265315.2761
1570265315.29173
1570265315.30736
1570265315.32298
1570265315.33861
1570265315.35423
1570265315.36986
1570265315.38548
1570265315.40111
1570265315.41674
1570265315.43236
1570265315.44799
1570265315.46361
1570265315.47924
1570265315.49486
1570265315.51049
1570265315.52612
1570265315.54174
1570265315.55737
1570265315.57299
1570265315.58862
1570265315.60424
1570265315.61987
1570265315.6355
1570265315.65112
1570265315.66675
1570265315.68237
1570265315.698
1570265315.71362
1570265315.72925
1570265315.74488
1570265315.7605
1570265315.77613
1570265315.79175
1570265315.80738
1570265315.823
1570265315.83863
1570265315.85426
1570265315.86988
1570265315.88551
1570265315.90113
1570265315.91676
1570265315.93238
1570265315.94801
1570265315.96364
1570265315.97926
1570265315.99489
1570265316.01051
1570265316.02614
1570265316.04176
1570265316.05739
1570265316.07302
1570265316.08864
1570265316.10427
1570265316.11989
1570265316.13552
1570265316.15114
1570265316.16677
1570265316.1824
1570265316.19802
1570265316.21365
1570265316.22927
1570265316.2449
1570265316.26052
1570265316.27615
1570265316.29178
1570265316.3074
1570265316.32303
1570265316.33865
1570265316.35428
1570265316.3699
1570265316.38553
1570265316.40116
1570265316.41678
1570265316.43241
1570265316.44803
1570265316.46366
1570265316.47928
1570265316.49491
1570265316.51054
1570265316.52616
1570265316.54179
1570265316.55741
1570265316.57304
1570265316.58866
1570265316.60429
1570265316.61992
1570265316.63554
1570265316.65117
1570265316.66679
1570265316.68242
1570265316.69804
1570265316.71367
1570265316.7293
1570265316.74492
1570265316.76055
1570265316.77617
1570265316.7918
1570265316.80742
1570265316.82305
1570265316.83868
1570265316.8543
1570265316.86993
1570265316.88555
1570265316.90118
1570265316.9168
1570265316.93243
1570265316.94806
1570265316.96368
1570265316.97931
1570265316.99493
1570265317.01056
1570265317.02618
1570265317.04181
1570265317.05744
1570265317.07306
1570265317.08869
1570265317.10431
1570265317.11994
1570265317.13557
1570265317.15119
1570265317.16682
1570265317.18244
1570265317.19807
1570265317.21369
1570265317.22932
1570265317.24495
1570265317.26057
1570265317.2762
1570265317.29182
1570265317.30745
1570265317.32307
1570265317.3387
1570265317.35433
1570265317.36995
1570265317.38558
1570265317.4012
1570265317.41683
1570265317.43245
1570265317.44808
1570265317.46371
1570265317.47933
1570265317.49496
1570265317.51058
1570265317.52621
1570265317.54183
1570265317.55746
1570265317.57309
1570265317.58871
1570265317.60434
1570265317.61996
1570265317.63559
1570265317.65121
1570265317.66684
1570265317.68247
1570265317.69809
1570265317.71372
1570265317.72934
1570265317.74497
1570265317.76059
1570265317.77622
1570265317.79185
1570265317.80747
1570265317.8231
1570265317.83872
1570265317.85435
1570265317.86997
1570265317.8856
1570265317.90123
1570265317.91685
1570265317.93248
1570265317.9481
1570265317.96373
1570265317.97935
1570265317.99498
1570265318.01061
1570265318.02623
1570265318.04186
1570265318.05748
1570265318.07311
1570265318.08873
1570265318.10436
1570265318.11999
1570265318.13561
1570265318.15124
1570265318.16686
1570265318.18249
1570265318.19811
1570265318.21374
1570265318.22937
1570265318.24499
1570265318.26062
1570265318.27624
1570265318.29187
1570265318.30749
1570265318.32312
1570265318.33875
1570265318.35437
1570265318.37
1570265318.38562
1570265318.40125
1570265318.41687
1570265318.4325
1570265318.44813
1570265318.46375
1570265318.47938
1570265318.495
1570265318.51063
1570265318.52625
1570265318.54188
1570265318.55751
1570265318.57313
1570265318.58876
1570265318.60438
1570265318.62001
1570265318.63563
1570265318.65126
1570265318.66689
1570265318.68251
1570265318.69814
1570265318.71376
1570265318.72939
1570265318.74501
1570265318.76064
1570265318.77627
1570265318.79189
1570265318.80752
1570265318.82314
1570265318.83877
1570265318.85439
1570265318.87002
1570265318.88565
1570265318.90127
1570265318.9169
1570265318.93252
1570265318.94815
1570265318.96377
1570265318.9794
1570265318.99503
1570265319.01065
1570265319.02628
1570265319.0419
1570265319.05753
1570265319.07315
1570265319.08878
1570265319.10441
1570265319.12003
1570265319.13566
1570265319.15128
1570265319.16691
1570265319.18253
1570265319.19816
1570265319.21379
1570265319.22941
1570265319.24504
1570265319.26066
1570265319.27629
1570265319.29191
1570265319.30754
1570265319.32317
1570265319.33879
1570265319.35442
1570265319.37004
1570265319.38567
1570265319.40129
1570265319.41692
1570265319.43255
1570265319.44817
1570265319.4638
1570265319.47942
1570265319.49505
1570265319.51067
1570265319.5263
1570265319.54193
1570265319.55755
1570265319.57318
1570265319.5888
1570265319.60443
1570265319.62005
1570265319.63568
1570265319.65131
1570265319.66693
1570265319.68256
1570265319.69818
1570265319.71381
1570265319.72943
1570265319.74506
1570265319.76069
1570265319.77631
1570265319.79194
1570265319.80756
1570265319.82319
1570265319.83882
1570265319.85444
1570265319.87007
1570265319.88569
1570265319.90132
1570265319.91694
1570265319.93257
1570265319.9482
1570265319.96382
1570265319.97945
1570265319.99507
1570265320.0107
1570265320.02632
1570265320.04195
1570265320.05758
1570265320.0732
1570265320.08883
1570265320.10445
1570265320.12008
1570265320.1357
1570265320.15133
1570265320.16696
1570265320.18258
1570265320.19821
1570265320.21383
1570265320.22946
1570265320.24508
1570265320.26071
1570265320.27634
1570265320.29196
1570265320.30759
1570265320.32321
1570265320.33884
1570265320.35446
1570265320.37009
1570265320.38572
1570265320.40134
1570265320.41697
1570265320.43259
1570265320.44822
1570265320.46384
1570265320.47947
1570265320.4951
1570265320.51072
1570265320.52635
1570265320.54197
1570265320.5576
1570265320.57322
1570265320.58885
1570265320.60448
1570265320.6201
1570265320.63573
1570265320.65135
1570265320.66698
1570265320.6826
1570265320.69823
1570265320.71386
1570265320.72948
1570265320.74511
1570265320.76073
1570265320.77636
1570265320.79198
1570265320.80761
1570265320.82324
1570265320.83886
1570265320.85449
1570265320.87011
1570265320.88574
1570265320.90136
1570265320.91699
1570265320.93262
1570265320.94824
1570265320.96387
1570265320.97949
1570265320.99512
1570265321.01074
1570265321.02637
1570265321.042
1570265321.05762
1570265321.07325
1570265321.08887
1570265321.1045
1570265321.12012
1570265321.13575
1570265321.15138
1570265321.167
1570265321.18263
1570265321.19825
1570265321.21388
1570265321.2295
1570265321.24513
1570265321.26076
1570265321.27638
1570265321.29201
1570265321.30763
1570265321.32326
1570265321.33888
1570265321.35451
1570265321.37014
1570265321.38576
1570265321.40139
1570265321.41701
1570265321.43264
1570265321.44826
1570265321.46389
1570265321.47952
1570265321.49514
1570265321.51077
1570265321.52639
1570265321.54202
1570265321.55764
1570265321.57327
1570265321.5889
1570265321.60452
1570265321.62015
1570265321.63577
1570265321.6514
1570265321.66702
1570265321.68265
1570265321.69828
1570265321.7139
1570265321.72953
1570265321.74515
1570265321.76078
1570265321.7764
1570265321.79203
1570265321.80766
1570265321.82328
1570265321.83891
1570265321.85453
1570265321.87016
1570265321.88578
1570265321.90141
1570265321.91704
1570265321.93266
1570265321.94829
1570265321.96391
1570265321.97954
1570265321.99517
1570265322.01079
1570265322.02642
1570265322.04204
1570265322.05767
1570265322.07329
1570265322.08892
1570265322.10455
1570265322.12017
1570265322.1358
1570265322.15142
1570265322.16705
1570265322.18267
1570265322.1983
1570265322.21393
1570265322.22955
1570265322.24518
1570265322.2608
1570265322.27643
1570265322.29205
1570265322.30768
1570265322.32331
1570265322.33893
1570265322.35456
1570265322.37018
1570265322.38581
1570265322.40143
1570265322.41706
1570265322.43269
1570265322.44831
1570265322.46394
1570265322.47956
1570265322.49519
1570265322.51081
1570265322.52644
1570265322.54207
1570265322.55769
1570265322.57332
1570265322.58894
1570265322.60457
1570265322.62019
1570265322.63582
1570265322.65145
1570265322.66707
1570265322.6827
1570265322.69832
1570265322.71395
1570265322.72957
1570265322.7452
1570265322.76083
1570265322.77645
1570265322.79208
1570265322.8077
1570265322.82333
1570265322.83895
1570265322.85458
1570265322.87021
1570265322.88583
1570265322.90146
1570265322.91708
1570265322.93271
1570265322.94833
1570265322.96396
1570265322.97959
1570265322.99521
1570265323.01084
1570265323.02646
1570265323.04209
1570265323.05771
1570265323.07334
1570265323.08897
1570265323.10459
1570265323.12022
1570265323.13584
1570265323.15147
1570265323.16709
1570265323.18272
1570265323.19835
1570265323.21397
1570265323.2296
1570265323.24522
1570265323.26085
1570265323.27647
1570265323.2921
1570265323.30773
1570265323.32335
1570265323.33898
1570265323.3546
1570265323.37023
1570265323.38585
1570265323.40148
1570265323.41711
1570265323.43273
1570265323.44836
1570265323.46398
1570265323.47961
1570265323.49523
1570265323.51086
1570265323.52649
1570265323.54211
1570265323.55774
1570265323.57336
1570265323.58899
1570265323.60461
1570265323.62024
1570265323.63587
1570265323.65149
1570265323.66712
1570265323.68274
1570265323.69837
1570265323.71399
1570265323.72962
1570265323.74525
1570265323.76087
1570265323.7765
1570265323.79212
1570265323.80775
1570265323.82337
1570265323.839
1570265323.85463
1570265323.87025
1570265323.88588
1570265323.9015
1570265323.91713
1570265323.93275
1570265323.94838
1570265323.96401
1570265323.97963
1570265323.99526
1570265324.01088
1570265324.02651
1570265324.04213
1570265324.05776
1570265324.07339
1570265324.08901
1570265324.10464
1570265324.12026
1570265324.13589
1570265324.15151
1570265324.16714
1570265324.18277
1570265324.19839
1570265324.21402
1570265324.22964
1570265324.24527
1570265324.2609
1570265324.27652
1570265324.29215
1570265324.30777
1570265324.3234
1570265324.33902
1570265324.35465
1570265324.37028
1570265324.3859
1570265324.40153
1570265324.41715
1570265324.43278
1570265324.4484
1570265324.46403
1570265324.47966
1570265324.49528
1570265324.51091
1570265324.52653
1570265324.54216
1570265324.55778
1570265324.57341
1570265324.58904
1570265324.60466
1570265324.62029
1570265324.63591
1570265324.65154
1570265324.66716
1570265324.68279
1570265324.69842
1570265324.71404
1570265324.72967
1570265324.74529
1570265324.76092
1570265324.77654
1570265324.79217
1570265324.8078
1570265324.82342
1570265324.83905
1570265324.85467
1570265324.8703
1570265324.88592
1570265324.90155
1570265324.91718
1570265324.9328
1570265324.94843
1570265324.96405
1570265324.97968
1570265324.9953
1570265325.01093
1570265325.02656
1570265325.04218
1570265325.05781
1570265325.07343
1570265325.08906
1570265325.10468
1570265325.12031
1570265325.13594
1570265325.15156
1570265325.16719
1570265325.18281
1570265325.19844
1570265325.21406
1570265325.22969
1570265325.24532
1570265325.26094
1570265325.27657
1570265325.29219
1570265325.30782
1570265325.32344
1570265325.33907
1570265325.3547
1570265325.37032
1570265325.38595
1570265325.40157
1570265325.4172
1570265325.43282
1570265325.44845
1570265325.46408
1570265325.4797
1570265325.49533
1570265325.51095
1570265325.52658
1570265325.5422
1570265325.55783
1570265325.57346
1570265325.58908
1570265325.60471
1570265325.62033
1570265325.63596
1570265325.65158
1570265325.66721
1570265325.68284
1570265325.69846
1570265325.71409
1570265325.72971
1570265325.74534
1570265325.76096
1570265325.77659
1570265325.79222
1570265325.80784
1570265325.82347
1570265325.83909
1570265325.85472
1570265325.87034
1570265325.88597
1570265325.9016
1570265325.91722
1570265325.93285
1570265325.94847
1570265325.9641
1570265325.97972
1570265325.99535
1570265326.01098
1570265326.0266
1570265326.04223
1570265326.05785
1570265326.07348
1570265326.0891
1570265326.10473
1570265326.12036
1570265326.13598
1570265326.15161
1570265326.16723
1570265326.18286
1570265326.19848
1570265326.21411
1570265326.22974
1570265326.24536
1570265326.26099
1570265326.27661
1570265326.29224
1570265326.30786
1570265326.32349
1570265326.33912
1570265326.35474
1570265326.37037
1570265326.38599
1570265326.40162
1570265326.41724
1570265326.43287
1570265326.4485
1570265326.46412
1570265326.47975
1570265326.49537
1570265326.511
1570265326.52662
1570265326.54225
1570265326.55788
1570265326.5735
1570265326.58913
1570265326.60475
1570265326.62038
1570265326.636
1570265326.65163
1570265326.66726
1570265326.68288
1570265326.69851
1570265326.71413
1570265326.72976
1570265326.74538
1570265326.76101
1570265326.77664
1570265326.79226
1570265326.80789
1570265326.82351
1570265326.83914
1570265326.85477
1570265326.87039
1570265326.88602
1570265326.90164
1570265326.91727
1570265326.93289
1570265326.94852
1570265326.96415
1570265326.97977
1570265326.9954
1570265327.01102
1570265327.02665
1570265327.04227
1570265327.0579
1570265327.07353
1570265327.08915
1570265327.10478
1570265327.1204
1570265327.13603
1570265327.15165
1570265327.16728
1570265327.18291
1570265327.19853
1570265327.21416
1570265327.22978
1570265327.24541
1570265327.26103
1570265327.27666
1570265327.29229
1570265327.30791
1570265327.32354
1570265327.33916
1570265327.35479
1570265327.37041
1570265327.38604
1570265327.40167
1570265327.41729
1570265327.43292
1570265327.44854
1570265327.46417
1570265327.47979
1570265327.49542
1570265327.51105
1570265327.52667
1570265327.5423
1570265327.55792
1570265327.57355
1570265327.58917
1570265327.6048
1570265327.62043
1570265327.63605
1570265327.65168
1570265327.6673
1570265327.68293
1570265327.69855
1570265327.71418
1570265327.72981
1570265327.74543
1570265327.76106
1570265327.77668
1570265327.79231
1570265327.80793
1570265327.82356
1570265327.83919
1570265327.85481
1570265327.87044
1570265327.88606
1570265327.90169
1570265327.91731
1570265327.93294
1570265327.94857
1570265327.96419
1570265327.97982
1570265327.99544
1570265328.01107
1570265328.02669
1570265328.04232
1570265328.05795
1570265328.07357
1570265328.0892
1570265328.10482
1570265328.12045
1570265328.13607
1570265328.1517
1570265328.16733
1570265328.18295
1570265328.19858
1570265328.2142
1570265328.22983
1570265328.24545
1570265328.26108
1570265328.27671
1570265328.29233
1570265328.30796
1570265328.32358
1570265328.33921
1570265328.35483
1570265328.37046
1570265328.38609
1570265328.40171
1570265328.41734
1570265328.43296
1570265328.44859
1570265328.46421
1570265328.47984
1570265328.49547
1570265328.51109
1570265328.52672
1570265328.54234
1570265328.55797
1570265328.57359
1570265328.58922
1570265328.60485
1570265328.62047
1570265328.6361
1570265328.65172
1570265328.66735
1570265328.68297
1570265328.6986
1570265328.71423
1570265328.72985
1570265328.74548
1570265328.7611
1570265328.77673
1570265328.79235
1570265328.80798
1570265328.82361
1570265328.83923
1570265328.85486
1570265328.87048
1570265328.88611
1570265328.90173
1570265328.91736
1570265328.93299
1570265328.94861
1570265328.96424
1570265328.97986
1570265328.99549
1570265329.01111
1570265329.02674
1570265329.04237
1570265329.05799
1570265329.07362
1570265329.08924
1570265329.10487
1570265329.1205
1570265329.13612
1570265329.15175
1570265329.16737
1570265329.183
1570265329.19862
1570265329.21425
1570265329.22988
1570265329.2455
1570265329.26113
1570265329.27675
1570265329.29238
1570265329.308
1570265329.32363
1570265329.33926
1570265329.35488
1570265329.37051
1570265329.38613
1570265329.40176
1570265329.41738
1570265329.43301
1570265329.44864
1570265329.46426
1570265329.47989
1570265329.49551
1570265329.51114
1570265329.52676
1570265329.54239
1570265329.55802
1570265329.57364
1570265329.58927
1570265329.60489
1570265329.62052
1570265329.63614
1570265329.65177
1570265329.6674
1570265329.68302
1570265329.69865
1570265329.71427
1570265329.7299
1570265329.74552
1570265329.76115
1570265329.77678
1570265329.7924
1570265329.80803
1570265329.82365
1570265329.83928
1570265329.8549
1570265329.87053
1570265329.88616
1570265329.90178
1570265329.91741
1570265329.93303
1570265329.94866
1570265329.96428
1570265329.97991
1570265329.99554
1570265330.01116
1570265330.02679
1570265330.04241
1570265330.05804
1570265330.07366
1570265330.08929
1570265330.10492
1570265330.12054
1570265330.13617
1570265330.15179
1570265330.16742
1570265330.18304
1570265330.19867
1570265330.2143
1570265330.22992
1570265330.24555
1570265330.26117
1570265330.2768
1570265330.29242
1570265330.30805
1570265330.32368
1570265330.3393
1570265330.35493
1570265330.37055
1570265330.38618
1570265330.4018
1570265330.41743
1570265330.43306
1570265330.44868
1570265330.46431
1570265330.47993
1570265330.49556
1570265330.51118
1570265330.52681
1570265330.54244
1570265330.55806
1570265330.57369
1570265330.58931
1570265330.60494
1570265330.62056
1570265330.63619
1570265330.65182
1570265330.66744
1570265330.68307
1570265330.69869
1570265330.71432
1570265330.72994
1570265330.74557
1570265330.7612
1570265330.77682
1570265330.79245
1570265330.80807
1570265330.8237
1570265330.83932
1570265330.85495
1570265330.87058
1570265330.8862
1570265330.90183
1570265330.91745
1570265330.93308
1570265330.9487
1570265330.96433
1570265330.97996
1570265330.99558
1570265331.01121
1570265331.02683
1570265331.04246
1570265331.05808
1570265331.07371
1570265331.08934
1570265331.10496
1570265331.12059
1570265331.13621
1570265331.15184
1570265331.16746
1570265331.18309
1570265331.19872
1570265331.21434
1570265331.22997
1570265331.24559
1570265331.26122
1570265331.27684
1570265331.29247
1570265331.3081
1570265331.32372
1570265331.33935
1570265331.35497
1570265331.3706
1570265331.38622
1570265331.40185
1570265331.41748
1570265331.4331
1570265331.44873
1570265331.46435
1570265331.47998
1570265331.4956
1570265331.51123
1570265331.52686
1570265331.54248
1570265331.55811
1570265331.57373
1570265331.58936
1570265331.60499
1570265331.62061
1570265331.63624
1570265331.65186
1570265331.66749
1570265331.68311
1570265331.69874
1570265331.71437
1570265331.72999
1570265331.74562
1570265331.76124
1570265331.77687
1570265331.79249
1570265331.80812
1570265331.82375
1570265331.83937
1570265331.855
1570265331.87062
1570265331.88625
1570265331.90187
1570265331.9175
1570265331.93313
1570265331.94875
1570265331.96438
1570265331.98
1570265331.99563
1570265332.01125
1570265332.02688
1570265332.04251
1570265332.05813
1570265332.07376
1570265332.08938
1570265332.10501
1570265332.12063
1570265332.13626
1570265332.15189
1570265332.16751
1570265332.18314
1570265332.19876
1570265332.21439
1570265332.23001
1570265332.24564
1570265332.26127
1570265332.27689
1570265332.29252
1570265332.30814
1570265332.32377
1570265332.33939
1570265332.35502
1570265332.37065
1570265332.38627
1570265332.4019
1570265332.41752
1570265332.43315
1570265332.44877
1570265332.4644
1570265332.48003
1570265332.49565
1570265332.51128
1570265332.5269
1570265332.54253
1570265332.55815
1570265332.57378
1570265332.58941
1570265332.60503
1570265332.62066
1570265332.63628
1570265332.65191
1570265332.66753
1570265332.68316
1570265332.69879
1570265332.71441
1570265332.73004
1570265332.74566
1570265332.76129
1570265332.77691
1570265332.79254
1570265332.80817
1570265332.82379
1570265332.83942
1570265332.85504
1570265332.87067
1570265332.88629
1570265332.90192
1570265332.91755
1570265332.93317
1570265332.9488
1570265332.96442
1570265332.98005
1570265332.99567
1570265333.0113
1570265333.02693
1570265333.04255
1570265333.05818
1570265333.0738
1570265333.08943
1570265333.10505
1570265333.12068
1570265333.13631
1570265333.15193
1570265333.16756
1570265333.18318
1570265333.19881
1570265333.21443
1570265333.23006
1570265333.24569
1570265333.26131
1570265333.27694
1570265333.29256
1570265333.30819
1570265333.32381
1570265333.33944
1570265333.35507
1570265333.37069
1570265333.38632
1570265333.40194
1570265333.41757
1570265333.43319
1570265333.44882
1570265333.46445
1570265333.48007
1570265333.4957
1570265333.51132
1570265333.52695
1570265333.54257
1570265333.5582
1570265333.57383
1570265333.58945
1570265333.60508
1570265333.6207
1570265333.63633
1570265333.65195
1570265333.66758
1570265333.68321
1570265333.69883
1570265333.71446
1570265333.73008
1570265333.74571
1570265333.76133
1570265333.77696
1570265333.79259
1570265333.80821
1570265333.82384
1570265333.83946
1570265333.85509
1570265333.87071
1570265333.88634
1570265333.90197
1570265333.91759
1570265333.93322
1570265333.94884
1570265333.96447
1570265333.9801
1570265333.99572
1570265334.01135
1570265334.02697
1570265334.0426
1570265334.05822
1570265334.07385
1570265334.08948
1570265334.1051
1570265334.12073
1570265334.13635
1570265334.15198
1570265334.1676
1570265334.18323
1570265334.19886
1570265334.21448
1570265334.23011
1570265334.24573
1570265334.26136
1570265334.27698
1570265334.29261
1570265334.30824
1570265334.32386
1570265334.33949
1570265334.35511
1570265334.37074
1570265334.38636
1570265334.40199
1570265334.41762
1570265334.43324
1570265334.44887
1570265334.46449
1570265334.48012
1570265334.49574
1570265334.51137
1570265334.527
1570265334.54262
1570265334.55825
1570265334.57387
1570265334.5895
1570265334.60512
1570265334.62075
1570265334.63638
1570265334.652
1570265334.66763
1570265334.68325
1570265334.69888
1570265334.7145
1570265334.73013
1570265334.74576
1570265334.76138
1570265334.77701
1570265334.79263
1570265334.80826
1570265334.82388
1570265334.83951
1570265334.85514
1570265334.87076
1570265334.88639
1570265334.90201
1570265334.91764
1570265334.93326
1570265334.94889
1570265334.96452
1570265334.98014
1570265334.99577
1570265335.01139
1570265335.02702
1570265335.04264
1570265335.05827
1570265335.0739
1570265335.08952
1570265335.10515
1570265335.12077
1570265335.1364
1570265335.15202
1570265335.16765
1570265335.18328
1570265335.1989
1570265335.21453
1570265335.23015
1570265335.24578
1570265335.2614
1570265335.27703
1570265335.29266
1570265335.30828
1570265335.32391
1570265335.33953
1570265335.35516
1570265335.37078
1570265335.38641
1570265335.40204
1570265335.41766
1570265335.43329
1570265335.44891
1570265335.46454
1570265335.48016
1570265335.49579
1570265335.51142
1570265335.52704
1570265335.54267
1570265335.55829
1570265335.57392
1570265335.58954
1570265335.60517
1570265335.6208
1570265335.63642
1570265335.65205
1570265335.66767
1570265335.6833
1570265335.69892
1570265335.71455
1570265335.73018
1570265335.7458
1570265335.76143
1570265335.77705
1570265335.79268
1570265335.8083
1570265335.82393
1570265335.83956
1570265335.85518
1570265335.87081
1570265335.88643
1570265335.90206
1570265335.91768
1570265335.93331
1570265335.94894
1570265335.96456
1570265335.98019
1570265335.99581
1570265336.01144
1570265336.02706
1570265336.04269
1570265336.05832
1570265336.07394
1570265336.08957
1570265336.10519
1570265336.12082
1570265336.13645
1570265336.15207
1570265336.1677
1570265336.18332
1570265336.19895
1570265336.21457
1570265336.2302
1570265336.24583
1570265336.26145
1570265336.27708
1570265336.2927
1570265336.30833
1570265336.32395
1570265336.33958
1570265336.35521
1570265336.37083
1570265336.38646
1570265336.40208
1570265336.41771
1570265336.43333
1570265336.44896
1570265336.46459
1570265336.48021
1570265336.49584
1570265336.51146
1570265336.52709
1570265336.54271
1570265336.55834
1570265336.57397
1570265336.58959
1570265336.60522
1570265336.62084
1570265336.63647
1570265336.65209
1570265336.66772
1570265336.68335
1570265336.69897
1570265336.7146
1570265336.73022
1570265336.74585
1570265336.76147
1570265336.7771
1570265336.79273
1570265336.80835
1570265336.82398
1570265336.8396
1570265336.85523
1570265336.87085
1570265336.88648
1570265336.90211
1570265336.91773
1570265336.93336
1570265336.94898
1570265336.96461
1570265336.98023
1570265336.99586
1570265337.01149
1570265337.02711
1570265337.04274
1570265337.05836
1570265337.07399
1570265337.08961
1570265337.10524
1570265337.12087
1570265337.13649
1570265337.15212
1570265337.16774
1570265337.18337
1570265337.19899
1570265337.21462
1570265337.23025
1570265337.24587
1570265337.2615
1570265337.27712
1570265337.29275
1570265337.30837
1570265337.324
1570265337.33963
1570265337.35525
1570265337.37088
1570265337.3865
1570265337.40213
1570265337.41775
1570265337.43338
1570265337.44901
1570265337.46463
1570265337.48026
1570265337.49588
1570265337.51151
1570265337.52713
1570265337.54276
1570265337.55839
1570265337.57401
1570265337.58964
1570265337.60526
1570265337.62089
1570265337.63651
1570265337.65214
1570265337.66777
1570265337.68339
1570265337.69902
1570265337.71464
1570265337.73027
1570265337.74589
1570265337.76152
1570265337.77715
1570265337.79277
1570265337.8084
1570265337.82402
1570265337.83965
1570265337.85527
1570265337.8709
1570265337.88653
1570265337.90215
1570265337.91778
1570265337.9334
1570265337.94903
1570265337.96465
1570265337.98028
1570265337.99591
1570265338.01153
1570265338.02716
1570265338.04278
1570265338.05841
1570265338.07403
1570265338.08966
1570265338.10529
1570265338.12091
1570265338.13654
1570265338.15216
1570265338.16779
1570265338.18341
1570265338.19904
1570265338.21467
1570265338.23029
1570265338.24592
1570265338.26154
1570265338.27717
1570265338.29279
1570265338.30842
1570265338.32405
1570265338.33967
1570265338.3553
1570265338.37092
1570265338.38655
1570265338.40217
1570265338.4178
1570265338.43343
1570265338.44905
1570265338.46468
1570265338.4803
1570265338.49593
1570265338.51155
1570265338.52718
1570265338.54281
1570265338.55843
1570265338.57406
1570265338.58968
1570265338.60531
1570265338.62093
1570265338.63656
1570265338.65219
1570265338.66781
1570265338.68344
1570265338.69906
1570265338.71469
1570265338.73031
1570265338.74594
1570265338.76157
1570265338.77719
1570265338.79282
1570265338.80844
1570265338.82407
1570265338.8397
1570265338.85532
1570265338.87095
1570265338.88657
1570265338.9022
1570265338.91782
1570265338.93345
1570265338.94908
1570265338.9647
1570265338.98033
1570265338.99595
1570265339.01158
1570265339.0272
1570265339.04283
1570265339.05846
1570265339.07408
1570265339.08971
1570265339.10533
1570265339.12096
1570265339.13658
1570265339.15221
1570265339.16784
1570265339.18346
1570265339.19909
1570265339.21471
1570265339.23034
1570265339.24596
1570265339.26159
1570265339.27722
1570265339.29284
1570265339.30847
1570265339.32409
1570265339.33972
1570265339.35534
1570265339.37097
1570265339.3866
1570265339.40222
1570265339.41785
1570265339.43347
1570265339.4491
1570265339.46472
1570265339.48035
1570265339.49598
1570265339.5116
1570265339.52723
1570265339.54285
1570265339.55848
1570265339.5741
1570265339.58973
1570265339.60536
1570265339.62098
1570265339.63661
1570265339.65223
1570265339.66786
1570265339.68348
1570265339.69911
1570265339.71474
1570265339.73036
1570265339.74599
1570265339.76161
1570265339.77724
1570265339.79286
1570265339.80849
1570265339.82412
1570265339.83974
1570265339.85537
1570265339.87099
1570265339.88662
1570265339.90224
1570265339.91787
1570265339.9335
1570265339.94912
1570265339.96475
1570265339.98037
1570265339.996
1570265340.01162
1570265340.02725
1570265340.04288
1570265340.0585
1570265340.07413
1570265340.08975
1570265340.10538
1570265340.121
1570265340.13663
1570265340.15226
1570265340.16788
1570265340.18351
1570265340.19913
1570265340.21476
1570265340.23038
1570265340.24601
1570265340.26164
1570265340.27726
1570265340.29289
1570265340.30851
1570265340.32414
1570265340.33976
1570265340.35539
1570265340.37102
1570265340.38664
1570265340.40227
1570265340.41789
1570265340.43352
1570265340.44914
1570265340.46477
1570265340.4804
1570265340.49602
1570265340.51165
1570265340.52727
1570265340.5429
1570265340.55852
1570265340.57415
1570265340.58978
1570265340.6054
1570265340.62103
1570265340.63665
1570265340.65228
1570265340.6679
1570265340.68353
1570265340.69916
1570265340.71478
1570265340.73041
1570265340.74603
1570265340.76166
1570265340.77728
1570265340.79291
1570265340.80854
1570265340.82416
1570265340.83979
1570265340.85541
1570265340.87104
1570265340.88666
1570265340.90229
1570265340.91792
1570265340.93354
1570265340.94917
1570265340.96479
1570265340.98042
1570265340.99605
1570265341.01167
1570265341.0273
1570265341.04292
1570265341.05855
1570265341.07417
1570265341.0898
1570265341.10543
1570265341.12105
1570265341.13668
1570265341.1523
1570265341.16793
1570265341.18355
1570265341.19918
1570265341.21481
1570265341.23043
1570265341.24606
1570265341.26168
1570265341.27731
1570265341.29293
1570265341.30856
1570265341.32419
1570265341.33981
1570265341.35544
1570265341.37106
1570265341.38669
1570265341.40231
1570265341.41794
1570265341.43357
1570265341.44919
1570265341.46482
1570265341.48044
1570265341.49607
1570265341.51169
1570265341.52732
1570265341.54295
1570265341.55857
1570265341.5742
1570265341.58982
1570265341.60545
1570265341.62107
1570265341.6367
1570265341.65233
1570265341.66795
1570265341.68358
1570265341.6992
1570265341.71483
1570265341.73045
1570265341.74608
1570265341.76171
1570265341.77733
1570265341.79296
1570265341.80858
1570265341.82421
1570265341.83983
1570265341.85546
1570265341.87109
1570265341.88671
1570265341.90234
1570265341.91796
1570265341.93359
1570265341.94921
1570265341.96484
1570265341.98047
1570265341.99609
1570265342.01172
1570265342.02734
1570265342.04297
1570265342.05859
1570265342.07422
1570265342.08985
1570265342.10547
1570265342.1211
1570265342.13672
1570265342.15235
1570265342.16797
1570265342.1836
1570265342.19923
1570265342.21485
1570265342.23048
1570265342.2461
1570265342.26173
1570265342.27735
1570265342.29298
1570265342.30861
1570265342.32423
1570265342.33986
1570265342.35548
1570265342.37111
1570265342.38673
1570265342.40236
1570265342.41799
1570265342.43361
1570265342.44924
1570265342.46486
1570265342.48049
1570265342.49611
1570265342.51174
1570265342.52737
1570265342.54299
1570265342.55862
1570265342.57424
1570265342.58987
1570265342.60549
1570265342.62112
1570265342.63675
1570265342.65237
1570265342.668
1570265342.68362
1570265342.69925
1570265342.71487
1570265342.7305
1570265342.74613
1570265342.76175
1570265342.77738
1570265342.793
1570265342.80863
1570265342.82425
1570265342.83988
1570265342.85551
1570265342.87113
1570265342.88676
1570265342.90238
1570265342.91801
1570265342.93363
1570265342.94926
1570265342.96489
1570265342.98051
1570265342.99614
1570265343.01176
1570265343.02739
1570265343.04301
1570265343.05864
1570265343.07427
1570265343.08989
1570265343.10552
1570265343.12114
1570265343.13677
1570265343.15239
1570265343.16802
1570265343.18365
1570265343.19927
1570265343.2149
1570265343.23052
1570265343.24615
1570265343.26178
1570265343.2774
1570265343.29303
1570265343.30865
1570265343.32428
1570265343.3399
1570265343.35553
1570265343.37116
1570265343.38678
1570265343.40241
1570265343.41803
1570265343.43366
1570265343.44928
1570265343.46491
1570265343.48054
1570265343.49616
1570265343.51179
1570265343.52741
1570265343.54304
1570265343.55866
1570265343.57429
1570265343.58992
1570265343.60554
1570265343.62117
1570265343.63679
1570265343.65242
1570265343.66804
1570265343.68367
1570265343.6993
1570265343.71492
1570265343.73055
1570265343.74617
1570265343.7618
1570265343.77742
1570265343.79305
1570265343.80868
1570265343.8243
1570265343.83993
1570265343.85555
1570265343.87118
1570265343.8868
1570265343.90243
1570265343.91806
1570265343.93368
1570265343.94931
1570265343.96493
1570265343.98056
1570265343.99618
1570265344.01181
1570265344.02744
1570265344.04306
1570265344.05869
1570265344.07431
1570265344.08994
1570265344.10556
1570265344.12119
1570265344.13682
1570265344.15244
1570265344.16807
1570265344.18369
1570265344.19932
1570265344.21494
1570265344.23057
1570265344.2462
1570265344.26182
1570265344.27745
1570265344.29307
1570265344.3087
1570265344.32432
1570265344.33995
1570265344.35558
1570265344.3712
1570265344.38683
1570265344.40245
1570265344.41808
1570265344.4337
1570265344.44933
1570265344.46496
1570265344.48058
1570265344.49621
1570265344.51183
1570265344.52746
1570265344.54308
1570265344.55871
1570265344.57434
1570265344.58996
1570265344.60559
1570265344.62121
1570265344.63684
1570265344.65246
1570265344.66809
1570265344.68372
1570265344.69934
1570265344.71497
1570265344.73059
1570265344.74622
1570265344.76184
1570265344.77747
1570265344.7931
1570265344.80872
1570265344.82435
1570265344.83997
1570265344.8556
1570265344.87122
1570265344.88685
1570265344.90248
1570265344.9181
1570265344.93373
1570265344.94935
1570265344.96498
1570265344.9806
1570265344.99623
1570265345.01186
1570265345.02748
1570265345.04311
1570265345.05873
1570265345.07436
1570265345.08998
1570265345.10561
1570265345.12124
1570265345.13686
1570265345.15249
1570265345.16811
1570265345.18374
1570265345.19936
1570265345.21499
1570265345.23062
1570265345.24624
1570265345.26187
1570265345.27749
1570265345.29312
1570265345.30874
1570265345.32437
1570265345.34
1570265345.35562
1570265345.37125
1570265345.38687
1570265345.4025
1570265345.41812
1570265345.43375
1570265345.44938
1570265345.465
1570265345.48063
1570265345.49625
1570265345.51188
1570265345.5275
1570265345.54313
1570265345.55876
1570265345.57438
1570265345.59001
1570265345.60563
1570265345.62126
1570265345.63688
1570265345.65251
1570265345.66814
1570265345.68376
1570265345.69939
1570265345.71501
1570265345.73064
1570265345.74626
1570265345.76189
1570265345.77752
1570265345.79314
1570265345.80877
1570265345.82439
1570265345.84002
1570265345.85564
1570265345.87127
1570265345.8869
1570265345.90252
1570265345.91815
1570265345.93377
1570265345.9494
1570265345.96503
1570265345.98065
1570265345.99628
1570265346.0119
1570265346.02753
1570265346.04315
1570265346.05878
1570265346.07441
1570265346.09003
1570265346.10566
1570265346.12128
1570265346.13691
1570265346.15253
1570265346.16816
1570265346.18379
1570265346.19941
1570265346.21504
1570265346.23066
1570265346.24629
1570265346.26191
1570265346.27754
1570265346.29317
1570265346.30879
1570265346.32442
1570265346.34004
1570265346.35567
1570265346.37129
1570265346.38692
1570265346.40255
1570265346.41817
1570265346.4338
1570265346.44942
1570265346.46505
1570265346.48067
1570265346.4963
1570265346.51193
1570265346.52755
1570265346.54318
1570265346.5588
1570265346.57443
1570265346.59005
1570265346.60568
1570265346.62131
1570265346.63693
1570265346.65256
1570265346.66818
1570265346.68381
1570265346.69943
1570265346.71506
1570265346.73069
1570265346.74631
1570265346.76194
1570265346.77756
1570265346.79319
1570265346.80881
1570265346.82444
1570265346.84007
1570265346.85569
1570265346.87132
1570265346.88694
1570265346.90257
1570265346.91819
1570265346.93382
1570265346.94945
1570265346.96507
1570265346.9807
1570265346.99632
1570265347.01195
1570265347.02757
1570265347.0432
1570265347.05883
1570265347.07445
1570265347.09008
1570265347.1057
1570265347.12133
1570265347.13695
1570265347.15258
1570265347.16821
1570265347.18383
1570265347.19946
1570265347.21508
1570265347.23071
1570265347.24633
1570265347.26196
1570265347.27759
1570265347.29321
1570265347.30884
1570265347.32446
1570265347.34009
1570265347.35571
1570265347.37134
1570265347.38697
1570265347.40259
1570265347.41822
1570265347.43384
1570265347.44947
1570265347.46509
1570265347.48072
1570265347.49635
1570265347.51197
1570265347.5276
1570265347.54322
1570265347.55885
1570265347.57447
1570265347.5901
1570265347.60573
1570265347.62135
1570265347.63698
1570265347.6526
1570265347.66823
1570265347.68385
1570265347.69948
1570265347.71511
1570265347.73073
1570265347.74636
1570265347.76198
1570265347.77761
1570265347.79323
1570265347.80886
1570265347.82449
1570265347.84011
1570265347.85574
1570265347.87136
1570265347.88699
1570265347.90261
1570265347.91824
1570265347.93387
1570265347.94949
1570265347.96512
1570265347.98074
1570265347.99637
1570265348.01199
1570265348.02762
1570265348.04325
1570265348.05887
1570265348.0745
1570265348.09012
1570265348.10575
1570265348.12138
1570265348.137
1570265348.15263
1570265348.16825
1570265348.18388
1570265348.1995
1570265348.21513
1570265348.23076
1570265348.24638
1570265348.26201
1570265348.27763
1570265348.29326
1570265348.30888
1570265348.32451
1570265348.34014
1570265348.35576
1570265348.37139
1570265348.38701
1570265348.40264
1570265348.41826
1570265348.43389
1570265348.44952
1570265348.46514
1570265348.48077
1570265348.49639
1570265348.51202
1570265348.52764
1570265348.54327
1570265348.5589
1570265348.57452
1570265348.59015
1570265348.60577
1570265348.6214
1570265348.63702
1570265348.65265
1570265348.66828
1570265348.6839
1570265348.69953
1570265348.71515
1570265348.73078
1570265348.7464
1570265348.76203
1570265348.77766
1570265348.79328
1570265348.80891
1570265348.82453
1570265348.84016
1570265348.85578
1570265348.87141
1570265348.88704
1570265348.90266
1570265348.91829
1570265348.93391
1570265348.94954
1570265348.96516
1570265348.98079
1570265348.99642
1570265349.01204
1570265349.02767
1570265349.04329
1570265349.05892
1570265349.07454
1570265349.09017
1570265349.1058
1570265349.12142
1570265349.13705
1570265349.15267
1570265349.1683
1570265349.18392
1570265349.19955
1570265349.21518
1570265349.2308
1570265349.24643
1570265349.26205
1570265349.27768
1570265349.2933
1570265349.30893
1570265349.32456
1570265349.34018
1570265349.35581
1570265349.37143
1570265349.38706
1570265349.40268
1570265349.41831
1570265349.43394
1570265349.44956
1570265349.46519
1570265349.48081
1570265349.49644
1570265349.51206
1570265349.52769
1570265349.54332
1570265349.55894
1570265349.57457
1570265349.59019
1570265349.60582
1570265349.62144
1570265349.63707
1570265349.6527
1570265349.66832
1570265349.68395
1570265349.69957
1570265349.7152
1570265349.73082
1570265349.74645
1570265349.76208
1570265349.7777
1570265349.79333
1570265349.80895
1570265349.82458
1570265349.8402
1570265349.85583
1570265349.87146
1570265349.88708
1570265349.90271
1570265349.91833
1570265349.93396
1570265349.94958
1570265349.96521
1570265349.98084
1570265349.99646
1570265350.01209
1570265350.02771
1570265350.04334
1570265350.05896
1570265350.07459
1570265350.09022
1570265350.10584
1570265350.12147
1570265350.13709
1570265350.15272
1570265350.16834
1570265350.18397
1570265350.1996
1570265350.21522
1570265350.23085
1570265350.24647
1570265350.2621
1570265350.27772
1570265350.29335
1570265350.30898
1570265350.3246
1570265350.34023
1570265350.35585
1570265350.37148
1570265350.3871
1570265350.40273
1570265350.41836
1570265350.43398
1570265350.44961
1570265350.46523
1570265350.48086
1570265350.49648
1570265350.51211
1570265350.52774
1570265350.54336
1570265350.55899
1570265350.57461
1570265350.59024
1570265350.60587
1570265350.62149
1570265350.63712
1570265350.65274
1570265350.66837
1570265350.68399
1570265350.69962
1570265350.71525
1570265350.73087
1570265350.7465
1570265350.76212
1570265350.77775
1570265350.79337
1570265350.809
1570265350.82463
1570265350.84025
1570265350.85588
1570265350.8715
1570265350.88713
1570265350.90275
1570265350.91838
1570265350.93401
1570265350.94963
1570265350.96526
1570265350.98088
1570265350.99651
1570265351.01213
1570265351.02776
1570265351.04339
1570265351.05901
1570265351.07464
1570265351.09026
1570265351.10589
1570265351.12151
1570265351.13714
1570265351.15277
1570265351.16839
1570265351.18402
1570265351.19964
1570265351.21527
1570265351.23089
1570265351.24652
1570265351.26215
1570265351.27777
1570265351.2934
1570265351.30902
1570265351.32465
1570265351.34027
1570265351.3559
1570265351.37153
1570265351.38715
1570265351.40278
1570265351.4184
1570265351.43403
1570265351.44965
1570265351.46528
1570265351.48091
1570265351.49653
1570265351.51216
1570265351.52778
1570265351.54341
1570265351.55903
1570265351.57466
1570265351.59029
1570265351.60591
1570265351.62154
1570265351.63716
1570265351.65279
1570265351.66841
1570265351.68404
1570265351.69967
1570265351.71529
1570265351.73092
1570265351.74654
1570265351.76217
1570265351.77779
1570265351.79342
1570265351.80905
1570265351.82467
1570265351.8403
1570265351.85592
1570265351.87155
1570265351.88717
1570265351.9028
1570265351.91843
1570265351.93405
1570265351.94968
1570265351.9653
1570265351.98093
1570265351.99655
1570265352.01218
1570265352.02781
1570265352.04343
1570265352.05906
1570265352.07468
1570265352.09031
1570265352.10593
1570265352.12156
1570265352.13719
1570265352.15281
1570265352.16844
1570265352.18406
1570265352.19969
1570265352.21531
1570265352.23094
1570265352.24657
1570265352.26219
1570265352.27782
1570265352.29344
1570265352.30907
1570265352.32469
1570265352.34032
1570265352.35595
1570265352.37157
1570265352.3872
1570265352.40282
1570265352.41845
1570265352.43407
1570265352.4497
1570265352.46533
1570265352.48095
1570265352.49658
1570265352.5122
1570265352.52783
1570265352.54345
1570265352.55908
1570265352.57471
1570265352.59033
1570265352.60596
1570265352.62158
1570265352.63721
1570265352.65283
1570265352.66846
1570265352.68409
1570265352.69971
1570265352.71534
1570265352.73096
1570265352.74659
1570265352.76221
1570265352.77784
1570265352.79347
1570265352.80909
1570265352.82472
1570265352.84034
1570265352.85597
1570265352.87159
1570265352.88722
1570265352.90285
1570265352.91847
1570265352.9341
1570265352.94972
1570265352.96535
1570265352.98098
1570265352.9966
1570265353.01223
1570265353.02785
1570265353.04348
1570265353.0591
1570265353.07473
1570265353.09036
1570265353.10598
1570265353.12161
1570265353.13723
1570265353.15286
1570265353.16848
1570265353.18411
1570265353.19974
1570265353.21536
1570265353.23099
1570265353.24661
1570265353.26224
1570265353.27786
1570265353.29349
1570265353.30912
1570265353.32474
1570265353.34037
1570265353.35599
1570265353.37162
1570265353.38724
1570265353.40287
1570265353.4185
1570265353.43412
1570265353.44975
1570265353.46537
1570265353.481
1570265353.49662
1570265353.51225
1570265353.52788
1570265353.5435
1570265353.55913
1570265353.57475
1570265353.59038
1570265353.606
1570265353.62163
1570265353.63726
1570265353.65288
1570265353.66851
1570265353.68413
1570265353.69976
1570265353.71538
1570265353.73101
1570265353.74664
1570265353.76226
1570265353.77789
1570265353.79351
1570265353.80914
1570265353.82476
1570265353.84039
1570265353.85602
1570265353.87164
1570265353.88727
1570265353.90289
1570265353.91852
1570265353.93414
1570265353.94977
1570265353.9654
1570265353.98102
1570265353.99665
1570265354.01227
1570265354.0279
1570265354.04352
1570265354.05915
1570265354.07478
1570265354.0904
1570265354.10603
1570265354.12165
1570265354.13728
1570265354.1529
1570265354.16853
1570265354.18416
1570265354.19978
1570265354.21541
1570265354.23103
1570265354.24666
1570265354.26228
1570265354.27791
1570265354.29354
1570265354.30916
1570265354.32479
1570265354.34041
1570265354.35604
1570265354.37166
1570265354.38729
1570265354.40292
1570265354.41854
1570265354.43417
1570265354.44979
1570265354.46542
1570265354.48104
1570265354.49667
1570265354.5123
1570265354.52792
1570265354.54355
1570265354.55917
1570265354.5748
1570265354.59042
1570265354.60605
1570265354.62168
1570265354.6373
1570265354.65293
1570265354.66855
1570265354.68418
1570265354.6998
1570265354.71543
1570265354.73106
1570265354.74668
1570265354.76231
1570265354.77793
1570265354.79356
1570265354.80918
1570265354.82481
1570265354.84044
1570265354.85606
1570265354.87169
1570265354.88731
1570265354.90294
1570265354.91856
1570265354.93419
1570265354.94982
1570265354.96544
1570265354.98107
1570265354.99669
1570265355.01232
1570265355.02794
1570265355.04357
1570265355.0592
1570265355.07482
1570265355.09045
1570265355.10607
1570265355.1217
1570265355.13732
1570265355.15295
1570265355.16858
1570265355.1842
1570265355.19983
1570265355.21545
1570265355.23108
1570265355.24671
1570265355.26233
1570265355.27796
1570265355.29358
1570265355.30921
1570265355.32483
1570265355.34046
1570265355.35609
1570265355.37171
1570265355.38734
1570265355.40296
1570265355.41859
1570265355.43421
1570265355.44984
1570265355.46547
1570265355.48109
1570265355.49672
1570265355.51234
1570265355.52797
1570265355.54359
1570265355.55922
1570265355.57485
1570265355.59047
1570265355.6061
1570265355.62172
1570265355.63735
1570265355.65297
1570265355.6686
1570265355.68423
1570265355.69985
1570265355.71548
1570265355.7311
1570265355.74673
1570265355.76235
1570265355.77798
1570265355.79361
1570265355.80923
1570265355.82486
1570265355.84048
1570265355.85611
1570265355.87173
1570265355.88736
1570265355.90299
1570265355.91861
1570265355.93424
1570265355.94986
1570265355.96549
1570265355.98111
1570265355.99674
1570265356.01237
1570265356.02799
1570265356.04362
1570265356.05924
1570265356.07487
1570265356.09049
1570265356.10612
1570265356.12175
1570265356.13737
1570265356.153
1570265356.16862
1570265356.18425
1570265356.19987
1570265356.2155
1570265356.23113
1570265356.24675
1570265356.26238
1570265356.278
1570265356.29363
1570265356.30925
1570265356.32488
1570265356.34051
1570265356.35613
1570265356.37176
1570265356.38738
1570265356.40301
1570265356.41863
1570265356.43426
1570265356.44989
1570265356.46551
1570265356.48114
1570265356.49676
1570265356.51239
1570265356.52801
1570265356.54364
1570265356.55927
1570265356.57489
1570265356.59052
1570265356.60614
1570265356.62177
1570265356.63739
1570265356.65302
1570265356.66865
1570265356.68427
1570265356.6999
1570265356.71552
1570265356.73115
1570265356.74677
1570265356.7624
1570265356.77803
1570265356.79365
1570265356.80928
1570265356.8249
1570265356.84053
1570265356.85615
1570265356.87178
1570265356.88741
1570265356.90303
1570265356.91866
1570265356.93428
1570265356.94991
1570265356.96553
1570265356.98116
1570265356.99679
1570265357.01241
1570265357.02804
1570265357.04366
1570265357.05929
1570265357.07491
1570265357.09054
1570265357.10617
1570265357.12179
1570265357.13742
1570265357.15304
1570265357.16867
1570265357.18429
1570265357.19992
1570265357.21555
1570265357.23117
1570265357.2468
1570265357.26242
1570265357.27805
1570265357.29367
1570265357.3093
1570265357.32493
1570265357.34055
1570265357.35618
1570265357.3718
1570265357.38743
1570265357.40305
1570265357.41868
1570265357.43431
1570265357.44993
1570265357.46556
1570265357.48118
1570265357.49681
1570265357.51243
1570265357.52806
1570265357.54369
1570265357.55931
1570265357.57494
1570265357.59056
1570265357.60619
1570265357.62181
1570265357.63744
1570265357.65307
1570265357.66869
1570265357.68432
1570265357.69994
1570265357.71557
1570265357.73119
1570265357.74682
1570265357.76245
1570265357.77807
1570265357.7937
1570265357.80932
1570265357.82495
1570265357.84058
1570265357.8562
1570265357.87183
1570265357.88745
1570265357.90308
1570265357.9187
1570265357.93433
1570265357.94996
1570265357.96558
1570265357.98121
1570265357.99683
1570265358.01246
1570265358.02808
1570265358.04371
1570265358.05934
1570265358.07496
1570265358.09059
1570265358.10621
1570265358.12184
1570265358.13746
1570265358.15309
1570265358.16872
1570265358.18434
1570265358.19997
1570265358.21559
1570265358.23122
1570265358.24684
1570265358.26247
1570265358.2781
1570265358.29372
1570265358.30935
1570265358.32497
1570265358.3406
1570265358.35622
1570265358.37185
1570265358.38748
1570265358.4031
1570265358.41873
1570265358.43435
1570265358.44998
1570265358.4656
1570265358.48123
1570265358.49686
1570265358.51248
1570265358.52811
1570265358.54373
1570265358.55936
1570265358.57498
1570265358.59061
1570265358.60624
1570265358.62186
1570265358.63749
1570265358.65311
1570265358.66874
1570265358.68436
1570265358.69999
1570265358.71562
1570265358.73124
1570265358.74687
1570265358.76249
1570265358.77812
1570265358.79374
1570265358.80937
1570265358.825
1570265358.84062
1570265358.85625
1570265358.87187
1570265358.8875
1570265358.90312
1570265358.91875
1570265358.93438
1570265358.95
1570265358.96563
1570265358.98125
1570265358.99688
1570265359.0125
1570265359.02813
1570265359.04376
1570265359.05938
1570265359.07501
1570265359.09063
1570265359.10626
1570265359.12188
1570265359.13751
1570265359.15314
1570265359.16876
1570265359.18439
1570265359.20001
1570265359.21564
1570265359.23126
1570265359.24689
1570265359.26252
1570265359.27814
1570265359.29377
1570265359.30939
1570265359.32502
1570265359.34064
1570265359.35627
1570265359.3719
1570265359.38752
1570265359.40315
1570265359.41877
1570265359.4344
1570265359.45002
1570265359.46565
1570265359.48128
1570265359.4969
1570265359.51253
1570265359.52815
1570265359.54378
1570265359.5594
1570265359.57503
1570265359.59066
1570265359.60628
1570265359.62191
1570265359.63753
1570265359.65316
1570265359.66878
1570265359.68441
1570265359.70004
1570265359.71566
1570265359.73129
1570265359.74691
1570265359.76254
1570265359.77816
1570265359.79379
1570265359.80942
1570265359.82504
1570265359.84067
1570265359.85629
1570265359.87192
1570265359.88754
1570265359.90317
1570265359.9188
1570265359.93442
1570265359.95005
1570265359.96567
1570265359.9813
1570265359.99692
1570265360.01255
1570265360.02818
1570265360.0438
1570265360.05943
1570265360.07505
1570265360.09068
1570265360.10631
1570265360.12193
1570265360.13756
1570265360.15318
1570265360.16881
1570265360.18443
1570265360.20006
1570265360.21569
1570265360.23131
1570265360.24694
1570265360.26256
1570265360.27819
1570265360.29381
1570265360.30944
1570265360.32507
1570265360.34069
1570265360.35632
1570265360.37194
1570265360.38757
1570265360.40319
1570265360.41882
1570265360.43445
1570265360.45007
1570265360.4657
1570265360.48132
1570265360.49695
1570265360.51257
1570265360.5282
1570265360.54383
1570265360.55945
1570265360.57508
1570265360.5907
1570265360.60633
1570265360.62195
1570265360.63758
1570265360.65321
1570265360.66883
1570265360.68446
1570265360.70008
1570265360.71571
1570265360.73133
1570265360.74696
1570265360.76259
1570265360.77821
1570265360.79384
1570265360.80946
1570265360.82509
1570265360.84071
1570265360.85634
1570265360.87197
1570265360.88759
1570265360.90322
1570265360.91884
1570265360.93447
1570265360.95009
1570265360.96572
1570265360.98135
1570265360.99697
1570265361.0126
1570265361.02822
1570265361.04385
1570265361.05947
1570265361.0751
1570265361.09073
1570265361.10635
1570265361.12198
1570265361.1376
1570265361.15323
1570265361.16885
1570265361.18448
1570265361.20011
1570265361.21573
1570265361.23136
1570265361.24698
1570265361.26261
1570265361.27823
1570265361.29386
1570265361.30949
1570265361.32511
1570265361.34074
1570265361.35636
1570265361.37199
1570265361.38761
1570265361.40324
1570265361.41887
1570265361.43449
1570265361.45012
1570265361.46574
1570265361.48137
1570265361.49699
1570265361.51262
1570265361.52825
1570265361.54387
1570265361.5595
1570265361.57512
1570265361.59075
1570265361.60637
1570265361.622
1570265361.63763
1570265361.65325
1570265361.66888
1570265361.6845
1570265361.70013
1570265361.71575
1570265361.73138
1570265361.74701
1570265361.76263
1570265361.77826
1570265361.79388
1570265361.80951
1570265361.82513
1570265361.84076
1570265361.85639
1570265361.87201
1570265361.88764
1570265361.90326
1570265361.91889
1570265361.93451
1570265361.95014
1570265361.96577
1570265361.98139
1570265361.99702
1570265362.01264
1570265362.02827
1570265362.04389
1570265362.05952
1570265362.07515
1570265362.09077
1570265362.1064
1570265362.12202
1570265362.13765
1570265362.15327
1570265362.1689
1570265362.18453
1570265362.20015
1570265362.21578
1570265362.2314
1570265362.24703
1570265362.26266
1570265362.27828
1570265362.29391
1570265362.30953
1570265362.32516
1570265362.34078
1570265362.35641
1570265362.37204
1570265362.38766
1570265362.40329
1570265362.41891
1570265362.43454
1570265362.45016
1570265362.46579
1570265362.48142
1570265362.49704
1570265362.51267
1570265362.52829
1570265362.54392
1570265362.55954
1570265362.57517
1570265362.5908
1570265362.60642
1570265362.62205
1570265362.63767
1570265362.6533
1570265362.66892
1570265362.68455
1570265362.70018
1570265362.7158
1570265362.73143
1570265362.74705
1570265362.76268
1570265362.7783
1570265362.79393
1570265362.80956
1570265362.82518
1570265362.84081
1570265362.85643
1570265362.87206
1570265362.88768
1570265362.90331
1570265362.91894
1570265362.93456
1570265362.95019
1570265362.96581
1570265362.98144
1570265362.99706
1570265363.01269
1570265363.02832
1570265363.04394
1570265363.05957
1570265363.07519
1570265363.09082
1570265363.10644
1570265363.12207
1570265363.1377
1570265363.15332
1570265363.16895
1570265363.18457
1570265363.2002
1570265363.21582
1570265363.23145
1570265363.24708
1570265363.2627
1570265363.27833
1570265363.29395
1570265363.30958
1570265363.3252
1570265363.34083
1570265363.35646
1570265363.37208
1570265363.38771
1570265363.40333
1570265363.41896
1570265363.43458
1570265363.45021
1570265363.46584
1570265363.48146
1570265363.49709
1570265363.51271
1570265363.52834
1570265363.54396
1570265363.55959
1570265363.57522
1570265363.59084
1570265363.60647
1570265363.62209
1570265363.63772
1570265363.65334
1570265363.66897
1570265363.6846
1570265363.70022
1570265363.71585
1570265363.73147
1570265363.7471
1570265363.76272
1570265363.77835
1570265363.79398
1570265363.8096
1570265363.82523
1570265363.84085
1570265363.85648
1570265363.8721
1570265363.88773
1570265363.90336
1570265363.91898
1570265363.93461
1570265363.95023
1570265363.96586
1570265363.98148
1570265363.99711
1570265364.01274
1570265364.02836
1570265364.04399
1570265364.05961
1570265364.07524
1570265364.09086
1570265364.10649
1570265364.12212
1570265364.13774
1570265364.15337
1570265364.16899
1570265364.18462
1570265364.20024
1570265364.21587
1570265364.2315
1570265364.24712
1570265364.26275
1570265364.27837
1570265364.294
1570265364.30962
1570265364.32525
1570265364.34088
1570265364.3565
1570265364.37213
1570265364.38775
1570265364.40338
1570265364.419
1570265364.43463
1570265364.45026
1570265364.46588
1570265364.48151
1570265364.49713
1570265364.51276
1570265364.52838
1570265364.54401
1570265364.55964
1570265364.57526
1570265364.59089
1570265364.60651
1570265364.62214
1570265364.63776
1570265364.65339
1570265364.66902
1570265364.68464
1570265364.70027
1570265364.71589
1570265364.73152
1570265364.74714
1570265364.76277
1570265364.7784
1570265364.79402
1570265364.80965
1570265364.82527
1570265364.8409
1570265364.85652
1570265364.87215
1570265364.88778
1570265364.9034
1570265364.91903
1570265364.93465
1570265364.95028
1570265364.96591
1570265364.98153
1570265364.99716
1570265365.01278
1570265365.02841
1570265365.04403
1570265365.05966
1570265365.07529
1570265365.09091
1570265365.10654
1570265365.12216
1570265365.13779
1570265365.15341
1570265365.16904
1570265365.18467
1570265365.20029
1570265365.21592
1570265365.23154
1570265365.24717
1570265365.26279
1570265365.27842
1570265365.29405
1570265365.30967
1570265365.3253
1570265365.34092
1570265365.35655
1570265365.37217
1570265365.3878
1570265365.40343
1570265365.41905
1570265365.43468
1570265365.4503
1570265365.46593
1570265365.48155
1570265365.49718
1570265365.51281
1570265365.52843
1570265365.54406
1570265365.55968
1570265365.57531
1570265365.59093
1570265365.60656
1570265365.62219
1570265365.63781
1570265365.65344
1570265365.66906
1570265365.68469
1570265365.70031
1570265365.71594
1570265365.73157
1570265365.74719
1570265365.76282
1570265365.77844
1570265365.79407
1570265365.80969
1570265365.82532
1570265365.84095
1570265365.85657
1570265365.8722
1570265365.88782
1570265365.90345
1570265365.91907
1570265365.9347
1570265365.95033
1570265365.96595
1570265365.98158
1570265365.9972
1570265366.01283
1570265366.02845
1570265366.04408
1570265366.05971
1570265366.07533
1570265366.09096
1570265366.10658
1570265366.12221
1570265366.13783
1570265366.15346
1570265366.16909
1570265366.18471
1570265366.20034
1570265366.21596
1570265366.23159
1570265366.24721
1570265366.26284
1570265366.27847
1570265366.29409
1570265366.30972
1570265366.32534
1570265366.34097
1570265366.35659
1570265366.37222
1570265366.38785
1570265366.40347
1570265366.4191
1570265366.43472
1570265366.45035
1570265366.46597
1570265366.4816
1570265366.49723
1570265366.51285
1570265366.52848
1570265366.5441
1570265366.55973
1570265366.57535
1570265366.59098
1570265366.60661
1570265366.62223
1570265366.63786
1570265366.65348
1570265366.66911
1570265366.68473
1570265366.70036
1570265366.71599
1570265366.73161
1570265366.74724
1570265366.76286
1570265366.77849
1570265366.79411
1570265366.80974
1570265366.82537
1570265366.84099
1570265366.85662
1570265366.87224
1570265366.88787
1570265366.90349
1570265366.91912
1570265366.93475
1570265366.95037
1570265366.966
1570265366.98162
1570265366.99725
1570265367.01287
1570265367.0285
1570265367.04413
1570265367.05975
1570265367.07538
1570265367.091
1570265367.10663
1570265367.12226
1570265367.13788
1570265367.15351
1570265367.16913
1570265367.18476
1570265367.20038
1570265367.21601
1570265367.23164
1570265367.24726
1570265367.26289
1570265367.27851
1570265367.29414
1570265367.30976
1570265367.32539
1570265367.34102
1570265367.35664
1570265367.37227
1570265367.38789
1570265367.40352
1570265367.41914
1570265367.43477
1570265367.4504
1570265367.46602
1570265367.48165
1570265367.49727
1570265367.5129
1570265367.52852
1570265367.54415
1570265367.55978
1570265367.5754
1570265367.59103
1570265367.60665
1570265367.62228
1570265367.6379
1570265367.65353
1570265367.66916
1570265367.68478
1570265367.70041
1570265367.71603
1570265367.73166
1570265367.74728
1570265367.76291
1570265367.77854
1570265367.79416
1570265367.80979
1570265367.82541
1570265367.84104
1570265367.85666
1570265367.87229
1570265367.88792
1570265367.90354
1570265367.91917
1570265367.93479
1570265367.95042
1570265367.96604
1570265367.98167
1570265367.9973
1570265368.01292
1570265368.02855
1570265368.04417
1570265368.0598
1570265368.07542
1570265368.09105
1570265368.10668
1570265368.1223
1570265368.13793
1570265368.15355
1570265368.16918
1570265368.1848
1570265368.20043
1570265368.21606
1570265368.23168
1570265368.24731
1570265368.26293
1570265368.27856
1570265368.29418
1570265368.30981
1570265368.32544
1570265368.34106
1570265368.35669
1570265368.37231
1570265368.38794
1570265368.40356
1570265368.41919
1570265368.43482
1570265368.45044
1570265368.46607
1570265368.48169
1570265368.49732
1570265368.51294
1570265368.52857
1570265368.5442
1570265368.55982
1570265368.57545
1570265368.59107
1570265368.6067
1570265368.62232
1570265368.63795
1570265368.65358
1570265368.6692
1570265368.68483
1570265368.70045
1570265368.71608
1570265368.7317
1570265368.74733
1570265368.76296
1570265368.77858
1570265368.79421
1570265368.80983
1570265368.82546
1570265368.84108
1570265368.85671
1570265368.87234
1570265368.88796
1570265368.90359
1570265368.91921
1570265368.93484
1570265368.95046
1570265368.96609
1570265368.98172
1570265368.99734
1570265369.01297
1570265369.02859
1570265369.04422
1570265369.05984
1570265369.07547
1570265369.0911
1570265369.10672
1570265369.12235
1570265369.13797
1570265369.1536
1570265369.16922
1570265369.18485
1570265369.20048
1570265369.2161
1570265369.23173
1570265369.24735
1570265369.26298
1570265369.2786
1570265369.29423
1570265369.30986
1570265369.32548
1570265369.34111
1570265369.35673
1570265369.37236
1570265369.38798
1570265369.40361
1570265369.41924
1570265369.43486
1570265369.45049
1570265369.46611
1570265369.48174
1570265369.49737
1570265369.51299
1570265369.52862
1570265369.54424
1570265369.55987
1570265369.57549
1570265369.59112
1570265369.60675
1570265369.62237
1570265369.638
1570265369.65362
1570265369.66925
1570265369.68487
1570265369.7005
1570265369.71613
1570265369.73175
1570265369.74738
1570265369.763
1570265369.77863
1570265369.79425
1570265369.80988
1570265369.82551
1570265369.84113
1570265369.85676
1570265369.87238
1570265369.88801
1570265369.90363
1570265369.91926
1570265369.93489
1570265369.95051
1570265369.96614
1570265369.98176
1570265369.99739
1570265370.01301
1570265370.02864
1570265370.04427
1570265370.05989
1570265370.07552
1570265370.09114
1570265370.10677
1570265370.12239
1570265370.13802
1570265370.15365
1570265370.16927
1570265370.1849
1570265370.20052
1570265370.21615
1570265370.23177
1570265370.2474
1570265370.26303
1570265370.27865
1570265370.29428
1570265370.3099
1570265370.32553
1570265370.34115
1570265370.35678
1570265370.37241
1570265370.38803
1570265370.40366
1570265370.41928
1570265370.43491
1570265370.45053
1570265370.46616
1570265370.48179
1570265370.49741
1570265370.51304
1570265370.52866
1570265370.54429
1570265370.55991
1570265370.57554
1570265370.59117
1570265370.60679
1570265370.62242
1570265370.63804
1570265370.65367
1570265370.66929
1570265370.68492
1570265370.70055
1570265370.71617
1570265370.7318
1570265370.74742
1570265370.76305
1570265370.77867
1570265370.7943
1570265370.80993
1570265370.82555
1570265370.84118
1570265370.8568
1570265370.87243
1570265370.88805
1570265370.90368
1570265370.91931
1570265370.93493
1570265370.95056
1570265370.96618
1570265370.98181
1570265370.99743
1570265371.01306
1570265371.02869
1570265371.04431
1570265371.05994
1570265371.07556
1570265371.09119
1570265371.10681
1570265371.12244
1570265371.13807
1570265371.15369
1570265371.16932
1570265371.18494
1570265371.20057
1570265371.21619
1570265371.23182
1570265371.24745
1570265371.26307
1570265371.2787
1570265371.29432
1570265371.30995
1570265371.32557
1570265371.3412
1570265371.35683
1570265371.37245
1570265371.38808
1570265371.4037
1570265371.41933
1570265371.43495
1570265371.45058
1570265371.46621
1570265371.48183
1570265371.49746
1570265371.51308
1570265371.52871
1570265371.54433
1570265371.55996
1570265371.57559
1570265371.59121
1570265371.60684
1570265371.62246
1570265371.63809
1570265371.65371
1570265371.66934
1570265371.68497
1570265371.70059
1570265371.71622
1570265371.73184
1570265371.74747
1570265371.76309
1570265371.77872
1570265371.79435
1570265371.80997
1570265371.8256
1570265371.84122
1570265371.85685
1570265371.87247
1570265371.8881
1570265371.90373
1570265371.91935
1570265371.93498
1570265371.9506
1570265371.96623
1570265371.98186
1570265371.99748
1570265372.01311
1570265372.02873
1570265372.04436
1570265372.05998
1570265372.07561
1570265372.09124
1570265372.10686
1570265372.12249
1570265372.13811
1570265372.15374
1570265372.16936
1570265372.18499
1570265372.20062
1570265372.21624
1570265372.23187
1570265372.24749
1570265372.26312
1570265372.27874
1570265372.29437
1570265372.31
1570265372.32562
1570265372.34125
1570265372.35687
1570265372.3725
1570265372.38812
1570265372.40375
1570265372.41938
1570265372.435
1570265372.45063
1570265372.46625
1570265372.48188
1570265372.4975
1570265372.51313
1570265372.52876
1570265372.54438
1570265372.56001
1570265372.57563
1570265372.59126
1570265372.60688
1570265372.62251
1570265372.63814
1570265372.65376
1570265372.66939
1570265372.68501
1570265372.70064
1570265372.71626
1570265372.73189
1570265372.74752
1570265372.76314
1570265372.77877
1570265372.79439
1570265372.81002
1570265372.82564
1570265372.84127
1570265372.8569
1570265372.87252
1570265372.88815
1570265372.90377
1570265372.9194
1570265372.93502
1570265372.95065
1570265372.96628
1570265372.9819
1570265372.99753
1570265373.01315
1570265373.02878
1570265373.0444
1570265373.06003
1570265373.07566
1570265373.09128
1570265373.10691
1570265373.12253
1570265373.13816
1570265373.15378
1570265373.16941
1570265373.18504
1570265373.20066
1570265373.21629
1570265373.23191
1570265373.24754
1570265373.26316
1570265373.27879
1570265373.29442
1570265373.31004
1570265373.32567
1570265373.34129
1570265373.35692
1570265373.37254
1570265373.38817
1570265373.4038
1570265373.41942
1570265373.43505
1570265373.45067
1570265373.4663
1570265373.48192
1570265373.49755
1570265373.51318
1570265373.5288
1570265373.54443
1570265373.56005
1570265373.57568
1570265373.5913
1570265373.60693
1570265373.62256
1570265373.63818
1570265373.65381
1570265373.66943
1570265373.68506
1570265373.70068
1570265373.71631
1570265373.73194
1570265373.74756
1570265373.76319
1570265373.77881
1570265373.79444
1570265373.81006
1570265373.82569
1570265373.84132
1570265373.85694
1570265373.87257
1570265373.88819
1570265373.90382
1570265373.91944
1570265373.93507
1570265373.9507
1570265373.96632
1570265373.98195
1570265373.99757
1570265374.0132
1570265374.02882
1570265374.04445
1570265374.06008
1570265374.0757
1570265374.09133
1570265374.10695
1570265374.12258
1570265374.1382
1570265374.15383
1570265374.16946
1570265374.18508
1570265374.20071
1570265374.21633
1570265374.23196
1570265374.24759
1570265374.26321
1570265374.27884
1570265374.29446
1570265374.31009
1570265374.32571
1570265374.34134
1570265374.35697
1570265374.37259
1570265374.38822
1570265374.40384
1570265374.41947
1570265374.43509
1570265374.45072
1570265374.46635
1570265374.48197
1570265374.4976
1570265374.51322
1570265374.52885
1570265374.54447
1570265374.5601
1570265374.57573
1570265374.59135
1570265374.60698
1570265374.6226
1570265374.63823
1570265374.65385
1570265374.66948
1570265374.68511
1570265374.70073
1570265374.71636
1570265374.73198
1570265374.74761
1570265374.76323
1570265374.77886
1570265374.79449
1570265374.81011
1570265374.82574
1570265374.84136
1570265374.85699
1570265374.87261
1570265374.88824
1570265374.90387
1570265374.91949
1570265374.93512
1570265374.95074
1570265374.96637
1570265374.98199
1570265374.99762
1570265375.01325
1570265375.02887
1570265375.0445
1570265375.06012
1570265375.07575
1570265375.09137
1570265375.107
1570265375.12263
1570265375.13825
1570265375.15388
1570265375.1695
1570265375.18513
1570265375.20075
1570265375.21638
1570265375.23201
1570265375.24763
1570265375.26326
1570265375.27888
1570265375.29451
1570265375.31013
1570265375.32576
1570265375.34139
1570265375.35701
1570265375.37264
1570265375.38826
1570265375.40389
1570265375.41951
1570265375.43514
1570265375.45077
1570265375.46639
1570265375.48202
1570265375.49764
1570265375.51327
1570265375.52889
1570265375.54452
1570265375.56015
1570265375.57577
1570265375.5914
1570265375.60702
1570265375.62265
1570265375.63827
1570265375.6539
1570265375.66953
1570265375.68515
1570265375.70078
1570265375.7164
1570265375.73203
1570265375.74765
1570265375.76328
1570265375.77891
1570265375.79453
1570265375.81016
1570265375.82578
1570265375.84141
1570265375.85703
1570265375.87266
1570265375.88829
1570265375.90391
1570265375.91954
1570265375.93516
1570265375.95079
1570265375.96641
1570265375.98204
1570265375.99767
1570265376.01329
1570265376.02892
1570265376.04454
1570265376.06017
1570265376.07579
1570265376.09142
1570265376.10705
1570265376.12267
1570265376.1383
1570265376.15392
1570265376.16955
1570265376.18517
1570265376.2008
1570265376.21643
1570265376.23205
1570265376.24768
1570265376.2633
1570265376.27893
1570265376.29455
1570265376.31018
1570265376.32581
1570265376.34143
1570265376.35706
1570265376.37268
1570265376.38831
1570265376.40393
1570265376.41956
1570265376.43519
1570265376.45081
1570265376.46644
1570265376.48206
1570265376.49769
1570265376.51331
1570265376.52894
1570265376.54457
1570265376.56019
1570265376.57582
1570265376.59144
1570265376.60707
1570265376.62269
1570265376.63832
1570265376.65395
1570265376.66957
1570265376.6852
1570265376.70082
1570265376.71645
1570265376.73207
1570265376.7477
1570265376.76333
1570265376.77895
1570265376.79458
1570265376.8102
1570265376.82583
1570265376.84145
1570265376.85708
1570265376.87271
1570265376.88833
1570265376.90396
1570265376.91958
1570265376.93521
1570265376.95084
1570265376.96646
1570265376.98209
1570265376.99771
1570265377.01334
1570265377.02896
1570265377.04459
1570265377.06022
1570265377.07584
1570265377.09147
1570265377.10709
1570265377.12272
1570265377.13834
1570265377.15397
1570265377.1696
1570265377.18522
1570265377.20085
1570265377.21647
1570265377.2321
1570265377.24772
1570265377.26335
1570265377.27898
1570265377.2946
1570265377.31023
1570265377.32585
1570265377.34148
1570265377.3571
1570265377.37273
1570265377.38836
1570265377.40398
1570265377.41961
1570265377.43523
1570265377.45086
1570265377.46648
1570265377.48211
1570265377.49774
1570265377.51336
1570265377.52899
1570265377.54461
1570265377.56024
1570265377.57586
1570265377.59149
1570265377.60712
1570265377.62274
1570265377.63837
1570265377.65399
1570265377.66962
1570265377.68524
1570265377.70087
1570265377.7165
1570265377.73212
1570265377.74775
1570265377.76337
1570265377.779
1570265377.79462
1570265377.81025
1570265377.82588
1570265377.8415
1570265377.85713
1570265377.87275
1570265377.88838
1570265377.904
1570265377.91963
1570265377.93526
1570265377.95088
1570265377.96651
1570265377.98213
1570265377.99776
1570265378.01338
1570265378.02901
1570265378.04464
1570265378.06026
1570265378.07589
1570265378.09151
1570265378.10714
1570265378.12276
1570265378.13839
1570265378.15402
1570265378.16964
1570265378.18527
1570265378.20089
1570265378.21652
1570265378.23214
1570265378.24777
1570265378.2634
1570265378.27902
1570265378.29465
1570265378.31027
1570265378.3259
1570265378.34152
1570265378.35715
1570265378.37278
1570265378.3884
1570265378.40403
1570265378.41965
1570265378.43528
1570265378.4509
1570265378.46653
1570265378.48216
1570265378.49778
1570265378.51341
1570265378.52903
1570265378.54466
1570265378.56028
1570265378.57591
1570265378.59154
1570265378.60716
1570265378.62279
1570265378.63841
1570265378.65404
1570265378.66966
1570265378.68529
1570265378.70092
1570265378.71654
1570265378.73217
1570265378.74779
1570265378.76342
1570265378.77904
1570265378.79467
1570265378.8103
1570265378.82592
1570265378.84155
1570265378.85717
1570265378.8728
1570265378.88842
1570265378.90405
1570265378.91968
1570265378.9353
1570265378.95093
1570265378.96655
1570265378.98218
1570265378.9978
1570265379.01343
1570265379.02906
1570265379.04468
1570265379.06031
1570265379.07593
1570265379.09156
1570265379.10719
1570265379.12281
1570265379.13844
1570265379.15406
1570265379.16969
1570265379.18531
1570265379.20094
1570265379.21657
1570265379.23219
1570265379.24782
1570265379.26344
1570265379.27907
1570265379.29469
1570265379.31032
1570265379.32595
1570265379.34157
1570265379.3572
1570265379.37282
1570265379.38845
1570265379.40407
1570265379.4197
1570265379.43533
1570265379.45095
1570265379.46658
1570265379.4822
1570265379.49783
1570265379.51345
1570265379.52908
1570265379.54471
1570265379.56033
1570265379.57596
1570265379.59158
1570265379.60721
1570265379.62283
1570265379.63846
1570265379.65409
1570265379.66971
1570265379.68534
1570265379.70096
1570265379.71659
1570265379.73221
1570265379.74784
1570265379.76347
1570265379.77909
1570265379.79472
1570265379.81034
1570265379.82597
1570265379.84159
1570265379.85722
1570265379.87285
1570265379.88847
1570265379.9041
1570265379.91972
1570265379.93535
1570265379.95097
1570265379.9666
1570265379.98223
1570265379.99785
1570265380.01348
1570265380.0291
1570265380.04473
1570265380.06035
1570265380.07598
1570265380.09161
1570265380.10723
1570265380.12286
1570265380.13848
1570265380.15411
1570265380.16973
1570265380.18536
1570265380.20099
1570265380.21661
1570265380.23224
1570265380.24786
1570265380.26349
1570265380.27911
1570265380.29474
1570265380.31037
1570265380.32599
1570265380.34162
1570265380.35724
1570265380.37287
1570265380.38849
1570265380.40412
1570265380.41975
1570265380.43537
1570265380.451
1570265380.46662
1570265380.48225
1570265380.49787
1570265380.5135
1570265380.52913
1570265380.54475
1570265380.56038
1570265380.576
1570265380.59163
1570265380.60725
1570265380.62288
1570265380.63851
1570265380.65413
1570265380.66976
1570265380.68538
1570265380.70101
1570265380.71663
1570265380.73226
1570265380.74789
1570265380.76351
1570265380.77914
1570265380.79476
1570265380.81039
1570265380.82601
1570265380.84164
1570265380.85727
1570265380.87289
1570265380.88852
1570265380.90414
1570265380.91977
1570265380.93539
1570265380.95102
1570265380.96665
1570265380.98227
1570265380.9979
1570265381.01352
1570265381.02915
1570265381.04477
1570265381.0604
1570265381.07603
1570265381.09165
1570265381.10728
1570265381.1229
1570265381.13853
1570265381.15415
1570265381.16978
1570265381.18541
1570265381.20103
1570265381.21666
1570265381.23228
1570265381.24791
1570265381.26353
1570265381.27916
1570265381.29479
1570265381.31041
1570265381.32604
1570265381.34166
1570265381.35729
1570265381.37292
1570265381.38854
1570265381.40417
1570265381.41979
1570265381.43542
1570265381.45104
1570265381.46667
1570265381.4823
1570265381.49792
1570265381.51355
1570265381.52917
1570265381.5448
1570265381.56042
1570265381.57605
1570265381.59168
1570265381.6073
1570265381.62293
1570265381.63855
1570265381.65418
1570265381.6698
1570265381.68543
1570265381.70106
1570265381.71668
1570265381.73231
1570265381.74793
1570265381.76356
1570265381.77918
1570265381.79481
1570265381.81044
1570265381.82606
1570265381.84169
1570265381.85731
1570265381.87294
1570265381.88856
1570265381.90419
1570265381.91982
1570265381.93544
1570265381.95107
1570265381.96669
1570265381.98232
1570265381.99794
1570265382.01357
1570265382.0292
1570265382.04482
1570265382.06045
1570265382.07607
1570265382.0917
1570265382.10732
1570265382.12295
1570265382.13858
1570265382.1542
1570265382.16983
1570265382.18545
1570265382.20108
1570265382.2167
1570265382.23233
1570265382.24796
1570265382.26358
1570265382.27921
1570265382.29483
1570265382.31046
1570265382.32608
1570265382.34171
1570265382.35734
1570265382.37296
1570265382.38859
1570265382.40421
1570265382.41984
1570265382.43546
1570265382.45109
1570265382.46672
1570265382.48234
1570265382.49797
1570265382.51359
1570265382.52922
1570265382.54484
1570265382.56047
1570265382.5761
1570265382.59172
1570265382.60735
1570265382.62297
1570265382.6386
1570265382.65422
1570265382.66985
1570265382.68548
1570265382.7011
1570265382.71673
1570265382.73235
1570265382.74798
1570265382.7636
1570265382.77923
1570265382.79486
1570265382.81048
1570265382.82611
1570265382.84173
1570265382.85736
1570265382.87298
1570265382.88861
1570265382.90424
1570265382.91986
1570265382.93549
1570265382.95111
1570265382.96674
1570265382.98236
1570265382.99799
1570265383.01362
1570265383.02924
1570265383.04487
1570265383.06049
1570265383.07612
1570265383.09174
1570265383.10737
1570265383.123
1570265383.13862
1570265383.15425
1570265383.16987
1570265383.1855
1570265383.20112
1570265383.21675
1570265383.23238
1570265383.248
1570265383.26363
1570265383.27925
1570265383.29488
1570265383.3105
1570265383.32613
1570265383.34176
1570265383.35738
1570265383.37301
1570265383.38863
1570265383.40426
1570265383.41988
1570265383.43551
1570265383.45114
1570265383.46676
1570265383.48239
1570265383.49801
1570265383.51364
1570265383.52926
1570265383.54489
1570265383.56052
1570265383.57614
1570265383.59177
1570265383.60739
1570265383.62302
1570265383.63864
1570265383.65427
1570265383.6699
1570265383.68552
1570265383.70115
1570265383.71677
1570265383.7324
1570265383.74802
1570265383.76365
1570265383.77928
1570265383.7949
1570265383.81053
1570265383.82615
1570265383.84178
1570265383.8574
1570265383.87303
1570265383.88866
1570265383.90428
1570265383.91991
1570265383.93553
1570265383.95116
1570265383.96679
1570265383.98241
1570265383.99804
1570265384.01366
1570265384.02929
1570265384.04491
1570265384.06054
1570265384.07617
1570265384.09179
1570265384.10742
1570265384.12304
1570265384.13867
1570265384.15429
1570265384.16992
1570265384.18555
1570265384.20117
1570265384.2168
1570265384.23242
1570265384.24805
1570265384.26367
1570265384.2793
1570265384.29493
1570265384.31055
1570265384.32618
1570265384.3418
1570265384.35743
1570265384.37305
1570265384.38868
1570265384.40431
1570265384.41993
1570265384.43556
1570265384.45118
1570265384.46681
1570265384.48243
1570265384.49806
1570265384.51369
1570265384.52931
1570265384.54494
1570265384.56056
1570265384.57619
1570265384.59181
1570265384.60744
1570265384.62307
1570265384.63869
1570265384.65432
1570265384.66994
1570265384.68557
1570265384.70119
1570265384.71682
1570265384.73245
1570265384.74807
1570265384.7637
1570265384.77932
1570265384.79495
1570265384.81057
1570265384.8262
1570265384.84183
1570265384.85745
1570265384.87308
1570265384.8887
1570265384.90433
1570265384.91995
1570265384.93558
1570265384.95121
1570265384.96683
1570265384.98246
1570265384.99808
1570265385.01371
1570265385.02933
1570265385.04496
1570265385.06059
1570265385.07621
1570265385.09184
1570265385.10746
1570265385.12309
1570265385.13871
1570265385.15434
1570265385.16997
1570265385.18559
1570265385.20122
1570265385.21684
1570265385.23247
1570265385.24809
1570265385.26372
1570265385.27935
1570265385.29497
1570265385.3106
1570265385.32622
1570265385.34185
1570265385.35747
1570265385.3731
1570265385.38873
1570265385.40435
1570265385.41998
1570265385.4356
1570265385.45123
1570265385.46685
1570265385.48248
1570265385.49811
1570265385.51373
1570265385.52936
1570265385.54498
1570265385.56061
1570265385.57623
1570265385.59186
1570265385.60749
1570265385.62311
1570265385.63874
1570265385.65436
1570265385.66999
1570265385.68561
1570265385.70124
1570265385.71687
1570265385.73249
1570265385.74812
1570265385.76374
1570265385.77937
1570265385.79499
1570265385.81062
1570265385.82625
1570265385.84187
1570265385.8575
1570265385.87312
1570265385.88875
1570265385.90437
1570265385.92
1570265385.93563
1570265385.95125
1570265385.96688
1570265385.9825
1570265385.99813
1570265386.01375
1570265386.02938
1570265386.04501
1570265386.06063
1570265386.07626
1570265386.09188
1570265386.10751
1570265386.12313
1570265386.13876
1570265386.15439
1570265386.17001
1570265386.18564
1570265386.20126
1570265386.21689
1570265386.23252
1570265386.24814
1570265386.26377
1570265386.27939
1570265386.29502
1570265386.31064
1570265386.32627
1570265386.3419
1570265386.35752
1570265386.37315
1570265386.38877
1570265386.4044
1570265386.42002
1570265386.43565
1570265386.45128
1570265386.4669
1570265386.48253
1570265386.49815
1570265386.51378
1570265386.5294
1570265386.54503
1570265386.56066
1570265386.57628
1570265386.59191
1570265386.60753
1570265386.62316
1570265386.63878
1570265386.65441
1570265386.67004
1570265386.68566
1570265386.70129
1570265386.71691
1570265386.73254
1570265386.74816
1570265386.76379
1570265386.77942
1570265386.79504
1570265386.81067
1570265386.82629
1570265386.84192
1570265386.85754
1570265386.87317
1570265386.8888
1570265386.90442
1570265386.92005
1570265386.93567
1570265386.9513
1570265386.96692
1570265386.98255
1570265386.99818
1570265387.0138
1570265387.02943
1570265387.04505
1570265387.06068
1570265387.0763
1570265387.09193
1570265387.10756
1570265387.12318
1570265387.13881
1570265387.15443
1570265387.17006
1570265387.18568
1570265387.20131
1570265387.21694
1570265387.23256
1570265387.24819
1570265387.26381
1570265387.27944
1570265387.29506
1570265387.31069
1570265387.32632
1570265387.34194
1570265387.35757
1570265387.37319
1570265387.38882
1570265387.40444
1570265387.42007
1570265387.4357
1570265387.45132
1570265387.46695
1570265387.48257
1570265387.4982
1570265387.51382
1570265387.52945
1570265387.54508
1570265387.5607
1570265387.57633
1570265387.59195
1570265387.60758
1570265387.6232
1570265387.63883
1570265387.65446
1570265387.67008
1570265387.68571
1570265387.70133
1570265387.71696
1570265387.73258
1570265387.74821
1570265387.76384
1570265387.77946
1570265387.79509
1570265387.81071
1570265387.82634
1570265387.84196
1570265387.85759
1570265387.87322
1570265387.88884
1570265387.90447
1570265387.92009
1570265387.93572
1570265387.95134
1570265387.96697
1570265387.9826
1570265387.99822
1570265388.01385
1570265388.02947
1570265388.0451
1570265388.06072
1570265388.07635
1570265388.09198
1570265388.1076
1570265388.12323
1570265388.13885
1570265388.15448
1570265388.1701
1570265388.18573
1570265388.20136
1570265388.21698
1570265388.23261
1570265388.24823
1570265388.26386
1570265388.27948
1570265388.29511
1570265388.31074
1570265388.32636
1570265388.34199
1570265388.35761
1570265388.37324
1570265388.38886
1570265388.40449
1570265388.42012
1570265388.43574
1570265388.45137
1570265388.46699
1570265388.48262
1570265388.49825
1570265388.51387
1570265388.5295
1570265388.54512
1570265388.56075
1570265388.57637
1570265388.592
1570265388.60763
1570265388.62325
1570265388.63888
1570265388.6545
1570265388.67013
1570265388.68575
1570265388.70138
1570265388.71701
1570265388.73263
1570265388.74826
1570265388.76388
1570265388.77951
1570265388.79513
1570265388.81076
1570265388.82639
1570265388.84201
1570265388.85764
1570265388.87326
1570265388.88889
1570265388.90451
1570265388.92014
1570265388.93577
1570265388.95139
1570265388.96702
1570265388.98264
1570265388.99827
1570265389.01389
1570265389.02952
1570265389.04515
1570265389.06077
1570265389.0764
1570265389.09202
1570265389.10765
1570265389.12327
1570265389.1389
1570265389.15453
1570265389.17015
1570265389.18578
1570265389.2014
1570265389.21703
1570265389.23265
1570265389.24828
1570265389.26391
1570265389.27953
1570265389.29516
1570265389.31078
1570265389.32641
1570265389.34203
1570265389.35766
1570265389.37329
1570265389.38891
1570265389.40454
1570265389.42016
1570265389.43579
1570265389.45141
1570265389.46704
1570265389.48267
1570265389.49829
1570265389.51392
1570265389.52954
1570265389.54517
1570265389.56079
1570265389.57642
1570265389.59205
1570265389.60767
1570265389.6233
1570265389.63892
1570265389.65455
1570265389.67017
1570265389.6858
1570265389.70143
1570265389.71705
1570265389.73268
1570265389.7483
1570265389.76393
1570265389.77955
1570265389.79518
1570265389.81081
1570265389.82643
1570265389.84206
1570265389.85768
1570265389.87331
1570265389.88893
1570265389.90456
1570265389.92019
1570265389.93581
1570265389.95144
1570265389.96706
1570265389.98269
1570265389.99831
1570265390.01394
1570265390.02957
1570265390.04519
1570265390.06082
1570265390.07644
1570265390.09207
1570265390.10769
1570265390.12332
1570265390.13895
1570265390.15457
1570265390.1702
1570265390.18582
1570265390.20145
1570265390.21707
1570265390.2327
1570265390.24833
1570265390.26395
1570265390.27958
1570265390.2952
1570265390.31083
1570265390.32645
1570265390.34208
1570265390.35771
1570265390.37333
1570265390.38896
1570265390.40458
1570265390.42021
1570265390.43583
1570265390.45146
1570265390.46709
1570265390.48271
1570265390.49834
1570265390.51396
1570265390.52959
1570265390.54521
1570265390.56084
1570265390.57647
1570265390.59209
1570265390.60772
1570265390.62334
1570265390.63897
1570265390.65459
1570265390.67022
1570265390.68585
1570265390.70147
1570265390.7171
1570265390.73272
1570265390.74835
1570265390.76397
1570265390.7796
1570265390.79523
1570265390.81085
1570265390.82648
1570265390.8421
1570265390.85773
1570265390.87335
1570265390.88898
1570265390.90461
1570265390.92023
1570265390.93586
1570265390.95148
1570265390.96711
1570265390.98273
1570265390.99836
1570265391.01399
1570265391.02961
1570265391.04524
1570265391.06086
1570265391.07649
1570265391.09212
1570265391.10774
1570265391.12337
1570265391.13899
1570265391.15462
1570265391.17024
1570265391.18587
1570265391.2015
1570265391.21712
1570265391.23275
1570265391.24837
1570265391.264
1570265391.27962
1570265391.29525
1570265391.31088
1570265391.3265
1570265391.34213
1570265391.35775
1570265391.37338
1570265391.389
1570265391.40463
1570265391.42026
1570265391.43588
1570265391.45151
1570265391.46713
1570265391.48276
1570265391.49838
1570265391.51401
1570265391.52964
1570265391.54526
1570265391.56089
1570265391.57651
1570265391.59214
1570265391.60776
1570265391.62339
1570265391.63902
1570265391.65464
1570265391.67027
1570265391.68589
1570265391.70152
1570265391.71714
1570265391.73277
1570265391.7484
1570265391.76402
1570265391.77965
1570265391.79527
1570265391.8109
1570265391.82652
1570265391.84215
1570265391.85778
1570265391.8734
1570265391.88903
1570265391.90465
1570265391.92028
1570265391.9359
1570265391.95153
1570265391.96716
1570265391.98278
1570265391.99841
1570265392.01403
1570265392.02966
1570265392.04528
1570265392.06091
1570265392.07654
1570265392.09216
1570265392.10779
1570265392.12341
1570265392.13904
1570265392.15466
1570265392.17029
1570265392.18592
1570265392.20154
1570265392.21717
1570265392.23279
1570265392.24842
1570265392.26404
1570265392.27967
1570265392.2953
1570265392.31092
1570265392.32655
1570265392.34217
1570265392.3578
1570265392.37342
1570265392.38905
1570265392.40468
1570265392.4203
1570265392.43593
1570265392.45155
1570265392.46718
1570265392.4828
1570265392.49843
1570265392.51406
1570265392.52968
1570265392.54531
1570265392.56093
1570265392.57656
1570265392.59218
1570265392.60781
1570265392.62344
1570265392.63906
1570265392.65469
1570265392.67031
1570265392.68594
1570265392.70156
1570265392.71719
1570265392.73282
1570265392.74844
1570265392.76407
1570265392.77969
1570265392.79532
1570265392.81094
1570265392.82657
1570265392.8422
1570265392.85782
1570265392.87345
1570265392.88907
1570265392.9047
1570265392.92032
1570265392.93595
1570265392.95158
1570265392.9672
1570265392.98283
1570265392.99845
1570265393.01408
1570265393.0297
1570265393.04533
1570265393.06096
1570265393.07658
1570265393.09221
1570265393.10783
1570265393.12346
1570265393.13908
1570265393.15471
1570265393.17034
1570265393.18596
1570265393.20159
1570265393.21721
1570265393.23284
1570265393.24847
1570265393.26409
1570265393.27972
1570265393.29534
1570265393.31097
1570265393.32659
1570265393.34222
1570265393.35785
1570265393.37347
1570265393.3891
1570265393.40472
1570265393.42035
1570265393.43597
1570265393.4516
1570265393.46723
1570265393.48285
1570265393.49848
1570265393.5141
1570265393.52973
1570265393.54535
1570265393.56098
1570265393.57661
1570265393.59223
1570265393.60786
1570265393.62348
1570265393.63911
1570265393.65473
1570265393.67036
1570265393.68599
1570265393.70161
1570265393.71724
1570265393.73286
1570265393.74849
1570265393.76411
1570265393.77974
1570265393.79537
1570265393.81099
1570265393.82662
1570265393.84224
1570265393.85787
1570265393.87349
1570265393.88912
1570265393.90475
1570265393.92037
1570265393.936
1570265393.95162
1570265393.96725
1570265393.98287
1570265393.9985
1570265394.01413
1570265394.02975
1570265394.04538
1570265394.061
1570265394.07663
1570265394.09225
1570265394.10788
1570265394.12351
1570265394.13913
1570265394.15476
1570265394.17038
1570265394.18601
1570265394.20163
1570265394.21726
1570265394.23289
1570265394.24851
1570265394.26414
1570265394.27976
1570265394.29539
1570265394.31101
1570265394.32664
1570265394.34227
1570265394.35789
1570265394.37352
1570265394.38914
1570265394.40477
1570265394.42039
1570265394.43602
1570265394.45165
1570265394.46727
1570265394.4829
1570265394.49852
1570265394.51415
1570265394.52977
1570265394.5454
1570265394.56103
1570265394.57665
1570265394.59228
1570265394.6079
1570265394.62353
1570265394.63915
1570265394.65478
1570265394.67041
1570265394.68603
1570265394.70166
1570265394.71728
1570265394.73291
1570265394.74853
1570265394.76416
1570265394.77979
1570265394.79541
1570265394.81104
1570265394.82666
1570265394.84229
1570265394.85791
1570265394.87354
1570265394.88917
1570265394.90479
1570265394.92042
1570265394.93604
1570265394.95167
1570265394.96729
1570265394.98292
1570265394.99855
1570265395.01417
1570265395.0298
1570265395.04542
1570265395.06105
1570265395.07667
1570265395.0923
1570265395.10793
1570265395.12355
1570265395.13918
1570265395.1548
1570265395.17043
1570265395.18605
1570265395.20168
1570265395.21731
1570265395.23293
1570265395.24856
1570265395.26418
1570265395.27981
1570265395.29543
1570265395.31106
1570265395.32669
1570265395.34231
1570265395.35794
1570265395.37356
1570265395.38919
1570265395.40481
1570265395.42044
1570265395.43607
1570265395.45169
1570265395.46732
1570265395.48294
1570265395.49857
1570265395.51419
1570265395.52982
1570265395.54545
1570265395.56107
1570265395.5767
1570265395.59232
1570265395.60795
1570265395.62357
1570265395.6392
1570265395.65483
1570265395.67045
1570265395.68608
1570265395.7017
1570265395.71733
1570265395.73295
1570265395.74858
1570265395.76421
1570265395.77983
1570265395.79546
1570265395.81108
1570265395.82671
1570265395.84233
1570265395.85796
1570265395.87359
1570265395.88921
1570265395.90484
1570265395.92046
1570265395.93609
1570265395.95172
1570265395.96734
1570265395.98297
1570265395.99859
1570265396.01422
1570265396.02984
1570265396.04547
1570265396.0611
1570265396.07672
1570265396.09235
1570265396.10797
1570265396.1236
1570265396.13922
1570265396.15485
1570265396.17048
1570265396.1861
1570265396.20173
1570265396.21735
1570265396.23298
1570265396.2486
1570265396.26423
1570265396.27986
1570265396.29548
1570265396.31111
1570265396.32673
1570265396.34236
1570265396.35798
1570265396.37361
1570265396.38924
1570265396.40486
1570265396.42049
1570265396.43611
1570265396.45174
1570265396.46736
1570265396.48299
1570265396.49862
1570265396.51424
1570265396.52987
1570265396.54549
1570265396.56112
1570265396.57674
1570265396.59237
1570265396.608
1570265396.62362
1570265396.63925
1570265396.65487
1570265396.6705
1570265396.68612
1570265396.70175
1570265396.71738
1570265396.733
1570265396.74863
1570265396.76425
1570265396.77988
1570265396.7955
1570265396.81113
1570265396.82676
1570265396.84238
1570265396.85801
1570265396.87363
1570265396.88926
1570265396.90488
1570265396.92051
1570265396.93614
1570265396.95176
1570265396.96739
1570265396.98301
1570265396.99864
1570265397.01426
1570265397.02989
1570265397.04552
1570265397.06114
1570265397.07677
1570265397.09239
1570265397.10802
1570265397.12364
1570265397.13927
1570265397.1549
1570265397.17052
1570265397.18615
1570265397.20177
1570265397.2174
1570265397.23302
1570265397.24865
1570265397.26428
1570265397.2799
1570265397.29553
1570265397.31115
1570265397.32678
1570265397.3424
1570265397.35803
1570265397.37366
1570265397.38928
1570265397.40491
1570265397.42053
1570265397.43616
1570265397.45178
1570265397.46741
1570265397.48304
1570265397.49866
1570265397.51429
1570265397.52991
1570265397.54554
1570265397.56116
1570265397.57679
1570265397.59242
1570265397.60804
1570265397.62367
1570265397.63929
1570265397.65492
1570265397.67054
1570265397.68617
1570265397.7018
1570265397.71742
1570265397.73305
1570265397.74867
1570265397.7643
1570265397.77992
1570265397.79555
1570265397.81118
1570265397.8268
1570265397.84243
1570265397.85805
1570265397.87368
1570265397.8893
1570265397.90493
1570265397.92056
1570265397.93618
1570265397.95181
1570265397.96743
1570265397.98306
1570265397.99868
1570265398.01431
1570265398.02994
1570265398.04556
1570265398.06119
1570265398.07681
1570265398.09244
1570265398.10807
1570265398.12369
1570265398.13932
1570265398.15494
1570265398.17057
1570265398.18619
1570265398.20182
1570265398.21745
1570265398.23307
1570265398.2487
1570265398.26432
1570265398.27995
1570265398.29557
1570265398.3112
1570265398.32683
1570265398.34245
1570265398.35808
1570265398.3737
1570265398.38933
1570265398.40495
1570265398.42058
1570265398.43621
1570265398.45183
1570265398.46746
1570265398.48308
1570265398.49871
1570265398.51433
1570265398.52996
1570265398.54559
1570265398.56121
1570265398.57684
1570265398.59246
1570265398.60809
1570265398.62371
1570265398.63934
1570265398.65497
1570265398.67059
1570265398.68622
1570265398.70184
1570265398.71747
1570265398.73309
1570265398.74872
1570265398.76435
1570265398.77997
1570265398.7956
1570265398.81122
1570265398.82685
1570265398.84247
1570265398.8581
1570265398.87373
1570265398.88935
1570265398.90498
1570265398.9206
1570265398.93623
1570265398.95185
1570265398.96748
1570265398.98311
1570265398.99873
1570265399.01436
1570265399.02998
1570265399.04561
1570265399.06123
1570265399.07686
1570265399.09249
1570265399.10811
1570265399.12374
1570265399.13936
1570265399.15499
1570265399.17061
1570265399.18624
1570265399.20187
1570265399.21749
1570265399.23312
1570265399.24874
1570265399.26437
1570265399.27999
1570265399.29562
1570265399.31125
1570265399.32687
1570265399.3425
1570265399.35812
1570265399.37375
1570265399.38937
1570265399.405
1570265399.42063
1570265399.43625
1570265399.45188
1570265399.4675
1570265399.48313
1570265399.49875
1570265399.51438
1570265399.53001
1570265399.54563
1570265399.56126
1570265399.57688
1570265399.59251
1570265399.60813
1570265399.62376
1570265399.63939
1570265399.65501
1570265399.67064
1570265399.68626
1570265399.70189
1570265399.71751
1570265399.73314
1570265399.74877
1570265399.76439
1570265399.78002
1570265399.79564
1570265399.81127
1570265399.82689
1570265399.84252
1570265399.85815
1570265399.87377
1570265399.8894
1570265399.90502
1570265399.92065
1570265399.93627
1570265399.9519
1570265399.96753
1570265399.98315
1570265399.99878
1570265400.0144
1570265400.03003
1570265400.04565
1570265400.06128
1570265400.07691
1570265400.09253
1570265400.10816
1570265400.12378
1570265400.13941
1570265400.15503
1570265400.17066
1570265400.18629
1570265400.20191
1570265400.21754
1570265400.23316
1570265400.24879
1570265400.26441
1570265400.28004
1570265400.29567
1570265400.31129
1570265400.32692
1570265400.34254
1570265400.35817
1570265400.3738
1570265400.38942
1570265400.40505
1570265400.42067
1570265400.4363
1570265400.45192
1570265400.46755
1570265400.48318
1570265400.4988
1570265400.51443
1570265400.53005
1570265400.54568
1570265400.5613
1570265400.57693
1570265400.59256
1570265400.60818
1570265400.62381
1570265400.63943
1570265400.65506
1570265400.67068
1570265400.68631
1570265400.70194
1570265400.71756
1570265400.73319
1570265400.74881
1570265400.76444
1570265400.78006
1570265400.79569
1570265400.81132
1570265400.82694
1570265400.84257
1570265400.85819
1570265400.87382
1570265400.88944
1570265400.90507
1570265400.9207
1570265400.93632
1570265400.95195
1570265400.96757
1570265400.9832
1570265400.99882
1570265401.01445
1570265401.03008
1570265401.0457
1570265401.06133
1570265401.07695
1570265401.09258
1570265401.1082
1570265401.12383
1570265401.13946
1570265401.15508
1570265401.17071
1570265401.18633
1570265401.20196
1570265401.21758
1570265401.23321
1570265401.24884
1570265401.26446
1570265401.28009
1570265401.29571
1570265401.31134
1570265401.32696
1570265401.34259
1570265401.35822
1570265401.37384
1570265401.38947
1570265401.40509
1570265401.42072
1570265401.43634
1570265401.45197
1570265401.4676
1570265401.48322
1570265401.49885
1570265401.51447
1570265401.5301
1570265401.54572
1570265401.56135
1570265401.57698
1570265401.5926
1570265401.60823
1570265401.62385
1570265401.63948
1570265401.6551
1570265401.67073
1570265401.68636
1570265401.70198
1570265401.71761
1570265401.73323
1570265401.74886
1570265401.76448
1570265401.78011
1570265401.79574
1570265401.81136
1570265401.82699
1570265401.84261
1570265401.85824
1570265401.87386
1570265401.88949
1570265401.90512
1570265401.92074
1570265401.93637
1570265401.95199
1570265401.96762
1570265401.98324
1570265401.99887
1570265402.0145
1570265402.03012
1570265402.04575
1570265402.06137
1570265402.077
1570265402.09262
1570265402.10825
1570265402.12388
1570265402.1395
1570265402.15513
1570265402.17075
1570265402.18638
1570265402.202
1570265402.21763
1570265402.23326
1570265402.24888
1570265402.26451
1570265402.28013
1570265402.29576
1570265402.31138
1570265402.32701
1570265402.34264
1570265402.35826
1570265402.37389
1570265402.38951
1570265402.40514
1570265402.42076
1570265402.43639
1570265402.45202
1570265402.46764
1570265402.48327
1570265402.49889
1570265402.51452
1570265402.53014
1570265402.54577
1570265402.5614
1570265402.57702
1570265402.59265
1570265402.60827
1570265402.6239
1570265402.63952
1570265402.65515
1570265402.67078
1570265402.6864
1570265402.70203
1570265402.71765
1570265402.73328
1570265402.7489
1570265402.76453
1570265402.78016
1570265402.79578
1570265402.81141
1570265402.82703
1570265402.84266
1570265402.85828
1570265402.87391
1570265402.88954
1570265402.90516
1570265402.92079
1570265402.93641
1570265402.95204
1570265402.96767
1570265402.98329
1570265402.99892
1570265403.01454
1570265403.03017
1570265403.04579
1570265403.06142
1570265403.07705
1570265403.09267
1570265403.1083
1570265403.12392
1570265403.13955
1570265403.15517
1570265403.1708
1570265403.18643
1570265403.20205
1570265403.21768
1570265403.2333
1570265403.24893
1570265403.26455
1570265403.28018
1570265403.29581
1570265403.31143
1570265403.32706
1570265403.34268
1570265403.35831
1570265403.37393
1570265403.38956
1570265403.40519
1570265403.42081
1570265403.43644
1570265403.45206
1570265403.46769
1570265403.48331
1570265403.49894
1570265403.51457
1570265403.53019
1570265403.54582
1570265403.56144
1570265403.57707
1570265403.59269
1570265403.60832
1570265403.62395
1570265403.63957
1570265403.6552
1570265403.67082
1570265403.68645
1570265403.70207
1570265403.7177
1570265403.73333
1570265403.74895
1570265403.76458
1570265403.7802
1570265403.79583
1570265403.81145
1570265403.82708
1570265403.84271
1570265403.85833
1570265403.87396
1570265403.88958
1570265403.90521
1570265403.92083
1570265403.93646
1570265403.95209
1570265403.96771
1570265403.98334
1570265403.99896
1570265404.01459
1570265404.03021
1570265404.04584
1570265404.06147
1570265404.07709
1570265404.09272
1570265404.10834
1570265404.12397
1570265404.13959
1570265404.15522
1570265404.17085
1570265404.18647
1570265404.2021
1570265404.21772
1570265404.23335
1570265404.24897
1570265404.2646
1570265404.28023
1570265404.29585
1570265404.31148
1570265404.3271
1570265404.34273
1570265404.35835
1570265404.37398
1570265404.38961
1570265404.40523
1570265404.42086
1570265404.43648
1570265404.45211
1570265404.46773
1570265404.48336
1570265404.49899
1570265404.51461
1570265404.53024
1570265404.54586
1570265404.56149
1570265404.57711
1570265404.59274
1570265404.60837
1570265404.62399
1570265404.63962
1570265404.65524
1570265404.67087
1570265404.68649
1570265404.70212
1570265404.71775
1570265404.73337
1570265404.749
1570265404.76462
1570265404.78025
1570265404.79587
1570265404.8115
1570265404.82713
1570265404.84275
1570265404.85838
1570265404.874
1570265404.88963
1570265404.90525
1570265404.92088
1570265404.93651
1570265404.95213
1570265404.96776
1570265404.98338
1570265404.99901
1570265405.01463
1570265405.03026
1570265405.04589
1570265405.06151
1570265405.07714
1570265405.09276
1570265405.10839
1570265405.12401
1570265405.13964
1570265405.15527
1570265405.17089
1570265405.18652
1570265405.20214
1570265405.21777
1570265405.2334
1570265405.24902
1570265405.26465
1570265405.28027
1570265405.2959
1570265405.31152
1570265405.32715
1570265405.34278
1570265405.3584
1570265405.37403
1570265405.38965
1570265405.40528
1570265405.4209
1570265405.43653
1570265405.45216
1570265405.46778
1570265405.48341
1570265405.49903
1570265405.51466
1570265405.53028
1570265405.54591
1570265405.56154
1570265405.57716
1570265405.59279
1570265405.60841
1570265405.62404
1570265405.63966
1570265405.65529
1570265405.67092
1570265405.68654
1570265405.70217
1570265405.71779
1570265405.73342
1570265405.74904
1570265405.76467
1570265405.7803
1570265405.79592
1570265405.81155
1570265405.82717
1570265405.8428
1570265405.85842
1570265405.87405
1570265405.88968
1570265405.9053
1570265405.92093
1570265405.93655
1570265405.95218
1570265405.9678
1570265405.98343
1570265405.99906
1570265406.01468
1570265406.03031
1570265406.04593
1570265406.06156
1570265406.07718
1570265406.09281
1570265406.10844
1570265406.12406
1570265406.13969
1570265406.15531
1570265406.17094
1570265406.18656
1570265406.20219
1570265406.21782
1570265406.23344
1570265406.24907
1570265406.26469
1570265406.28032
1570265406.29594
1570265406.31157
1570265406.3272
1570265406.34282
1570265406.35845
1570265406.37407
1570265406.3897
1570265406.40532
1570265406.42095
1570265406.43658
1570265406.4522
1570265406.46783
1570265406.48345
1570265406.49908
1570265406.5147
1570265406.53033
1570265406.54596
1570265406.56158
1570265406.57721
1570265406.59283
1570265406.60846
1570265406.62408
1570265406.63971
1570265406.65534
1570265406.67096
1570265406.68659
1570265406.70221
1570265406.71784
1570265406.73346
1570265406.74909
1570265406.76472
1570265406.78034
1570265406.79597
1570265406.81159
1570265406.82722
1570265406.84284
1570265406.85847
1570265406.8741
1570265406.88972
1570265406.90535
1570265406.92097
1570265406.9366
1570265406.95222
1570265406.96785
1570265406.98348
1570265406.9991
1570265407.01473
1570265407.03035
1570265407.04598
1570265407.0616
1570265407.07723
1570265407.09286
1570265407.10848
1570265407.12411
1570265407.13973
1570265407.15536
1570265407.17098
1570265407.18661
1570265407.20224
1570265407.21786
1570265407.23349
1570265407.24911
1570265407.26474
1570265407.28036
1570265407.29599
1570265407.31162
1570265407.32724
1570265407.34287
1570265407.35849
1570265407.37412
1570265407.38974
1570265407.40537
1570265407.421
1570265407.43662
1570265407.45225
1570265407.46787
1570265407.4835
1570265407.49913
1570265407.51475
1570265407.53038
1570265407.546
1570265407.56163
1570265407.57725
1570265407.59288
1570265407.60851
1570265407.62413
1570265407.63976
1570265407.65538
1570265407.67101
1570265407.68663
1570265407.70226
1570265407.71789
1570265407.73351
1570265407.74914
1570265407.76476
1570265407.78039
1570265407.79601
1570265407.81164
1570265407.82727
1570265407.84289
1570265407.85852
1570265407.87414
1570265407.88977
1570265407.90539
1570265407.92102
1570265407.93665
1570265407.95227
1570265407.9679
1570265407.98352
1570265407.99915
1570265408.01477
1570265408.0304
1570265408.04603
1570265408.06165
1570265408.07728
1570265408.0929
1570265408.10853
1570265408.12415
1570265408.13978
1570265408.15541
1570265408.17103
1570265408.18666
1570265408.20228
1570265408.21791
1570265408.23353
1570265408.24916
1570265408.26479
1570265408.28041
1570265408.29604
1570265408.31166
1570265408.32729
1570265408.34291
1570265408.35854
1570265408.37417
1570265408.38979
1570265408.40542
1570265408.42104
1570265408.43667
1570265408.45229
1570265408.46792
1570265408.48355
1570265408.49917
1570265408.5148
1570265408.53042
1570265408.54605
1570265408.56167
1570265408.5773
1570265408.59293
1570265408.60855
1570265408.62418
1570265408.6398
1570265408.65543
1570265408.67105
1570265408.68668
1570265408.70231
1570265408.71793
1570265408.73356
1570265408.74918
1570265408.76481
1570265408.78043
1570265408.79606
1570265408.81169
1570265408.82731
1570265408.84294
1570265408.85856
1570265408.87419
1570265408.88981
1570265408.90544
1570265408.92107
1570265408.93669
1570265408.95232
1570265408.96794
1570265408.98357
1570265408.99919
1570265409.01482
1570265409.03045
1570265409.04607
1570265409.0617
1570265409.07732
1570265409.09295
1570265409.10857
1570265409.1242
1570265409.13983
1570265409.15545
1570265409.17108
1570265409.1867
1570265409.20233
1570265409.21795
1570265409.23358
1570265409.24921
1570265409.26483
1570265409.28046
1570265409.29608
1570265409.31171
1570265409.32733
1570265409.34296
1570265409.35859
1570265409.37421
1570265409.38984
1570265409.40546
1570265409.42109
1570265409.43671
1570265409.45234
1570265409.46797
1570265409.48359
1570265409.49922
1570265409.51484
1570265409.53047
1570265409.54609
1570265409.56172
1570265409.57735
1570265409.59297
1570265409.6086
1570265409.62422
1570265409.63985
1570265409.65547
1570265409.6711
1570265409.68673
1570265409.70235
1570265409.71798
1570265409.7336
1570265409.74923
1570265409.76485
1570265409.78048
1570265409.79611
1570265409.81173
1570265409.82736
1570265409.84298
1570265409.85861
1570265409.87423
1570265409.88986
1570265409.90549
1570265409.92111
1570265409.93674
1570265409.95236
1570265409.96799
1570265409.98361
1570265409.99924
1570265410.01487
1570265410.03049
1570265410.04612
1570265410.06174
1570265410.07737
1570265410.093
1570265410.10862
1570265410.12425
1570265410.13987
1570265410.1555
1570265410.17112
1570265410.18675
1570265410.20238
1570265410.218
1570265410.23363
1570265410.24925
1570265410.26488
1570265410.2805
1570265410.29613
1570265410.31176
1570265410.32738
1570265410.34301
1570265410.35863
1570265410.37426
1570265410.38988
1570265410.40551
1570265410.42114
1570265410.43676
1570265410.45239
1570265410.46801
1570265410.48364
1570265410.49926
1570265410.51489
1570265410.53052
1570265410.54614
1570265410.56177
1570265410.57739
1570265410.59302
1570265410.60864
1570265410.62427
1570265410.6399
1570265410.65552
1570265410.67115
1570265410.68677
1570265410.7024
1570265410.71802
1570265410.73365
1570265410.74928
1570265410.7649
1570265410.78053
1570265410.79615
1570265410.81178
1570265410.8274
1570265410.84303
1570265410.85866
1570265410.87428
1570265410.88991
1570265410.90553
1570265410.92116
1570265410.93678
1570265410.95241
1570265410.96804
1570265410.98366
1570265410.99929
1570265411.01491
1570265411.03054
1570265411.04616
1570265411.06179
1570265411.07742
1570265411.09304
1570265411.10867
1570265411.12429
1570265411.13992
1570265411.15554
1570265411.17117
1570265411.1868
1570265411.20242
1570265411.21805
1570265411.23367
1570265411.2493
1570265411.26492
1570265411.28055
1570265411.29618
1570265411.3118
1570265411.32743
1570265411.34305
1570265411.35868
1570265411.3743
1570265411.38993
1570265411.40556
1570265411.42118
1570265411.43681
1570265411.45243
1570265411.46806
1570265411.48368
1570265411.49931
1570265411.51494
1570265411.53056
1570265411.54619
1570265411.56181
1570265411.57744
1570265411.59306
1570265411.60869
1570265411.62432
1570265411.63994
1570265411.65557
1570265411.67119
1570265411.68682
1570265411.70244
1570265411.71807
1570265411.7337
1570265411.74932
1570265411.76495
1570265411.78057
1570265411.7962
1570265411.81182
1570265411.82745
1570265411.84308
1570265411.8587
1570265411.87433
1570265411.88995
1570265411.90558
1570265411.9212
1570265411.93683
1570265411.95246
1570265411.96808
1570265411.98371
1570265411.99933
1570265412.01496
1570265412.03058
1570265412.04621
1570265412.06184
1570265412.07746
1570265412.09309
1570265412.10871
1570265412.12434
1570265412.13996
1570265412.15559
1570265412.17122
1570265412.18684
1570265412.20247
1570265412.21809
1570265412.23372
1570265412.24934
1570265412.26497
1570265412.2806
1570265412.29622
1570265412.31185
1570265412.32747
1570265412.3431
1570265412.35873
1570265412.37435
1570265412.38998
1570265412.4056
1570265412.42123
1570265412.43685
1570265412.45248
1570265412.46811
1570265412.48373
1570265412.49936
1570265412.51498
1570265412.53061
1570265412.54623
1570265412.56186
1570265412.57749
1570265412.59311
1570265412.60874
1570265412.62436
1570265412.63999
1570265412.65561
1570265412.67124
1570265412.68687
1570265412.70249
1570265412.71812
1570265412.73374
1570265412.74937
1570265412.76499
1570265412.78062
1570265412.79625
1570265412.81187
1570265412.8275
1570265412.84312
1570265412.85875
1570265412.87437
1570265412.89
1570265412.90563
1570265412.92125
1570265412.93688
1570265412.9525
1570265412.96813
1570265412.98375
1570265412.99938
1570265413.01501
1570265413.03063
1570265413.04626
1570265413.06188
1570265413.07751
1570265413.09313
1570265413.10876
1570265413.12439
1570265413.14001
1570265413.15564
1570265413.17126
1570265413.18689
1570265413.20251
1570265413.21814
1570265413.23377
1570265413.24939
1570265413.26502
1570265413.28064
1570265413.29627
1570265413.31189
1570265413.32752
1570265413.34315
1570265413.35877
1570265413.3744
1570265413.39002
1570265413.40565
1570265413.42127
1570265413.4369
1570265413.45253
1570265413.46815
1570265413.48378
1570265413.4994
1570265413.51503
1570265413.53065
1570265413.54628
1570265413.56191
1570265413.57753
1570265413.59316
1570265413.60878
1570265413.62441
1570265413.64003
1570265413.65566
1570265413.67129
1570265413.68691
1570265413.70254
1570265413.71816
1570265413.73379
1570265413.74941
1570265413.76504
1570265413.78067
1570265413.79629
1570265413.81192
1570265413.82754
1570265413.84317
1570265413.85879
1570265413.87442
1570265413.89005
1570265413.90567
1570265413.9213
1570265413.93692
1570265413.95255
1570265413.96817
1570265413.9838
1570265413.99943
1570265414.01505
1570265414.03068
1570265414.0463
1570265414.06193
1570265414.07755
1570265414.09318
1570265414.10881
1570265414.12443
1570265414.14006
1570265414.15568
1570265414.17131
1570265414.18693
1570265414.20256
1570265414.21819
1570265414.23381
1570265414.24944
1570265414.26506
1570265414.28069
1570265414.29631
1570265414.31194
1570265414.32757
1570265414.34319
1570265414.35882
1570265414.37444
1570265414.39007
1570265414.40569
1570265414.42132
1570265414.43695
1570265414.45257
1570265414.4682
1570265414.48382
1570265414.49945
1570265414.51507
1570265414.5307
1570265414.54633
1570265414.56195
1570265414.57758
1570265414.5932
1570265414.60883
1570265414.62445
1570265414.64008
1570265414.65571
1570265414.67133
1570265414.68696
1570265414.70258
1570265414.71821
1570265414.73383
1570265414.74946
1570265414.76509
1570265414.78071
1570265414.79634
1570265414.81196
1570265414.82759
1570265414.84321
1570265414.85884
1570265414.87447
1570265414.89009
1570265414.90572
1570265414.92134
1570265414.93697
1570265414.9526
1570265414.96822
1570265414.98385
1570265414.99947
1570265415.0151
1570265415.03072
1570265415.04635
1570265415.06198
1570265415.0776
1570265415.09323
1570265415.10885
1570265415.12448
1570265415.1401
1570265415.15573
1570265415.17136
1570265415.18698
1570265415.20261
1570265415.21823
1570265415.23386
1570265415.24948
1570265415.26511
1570265415.28074
1570265415.29636
1570265415.31199
1570265415.32761
1570265415.34324
1570265415.35886
1570265415.37449
1570265415.39012
1570265415.40574
1570265415.42137
1570265415.43699
1570265415.45262
1570265415.46824
1570265415.48387
1570265415.4995
1570265415.51512
1570265415.53075
1570265415.54637
1570265415.562
1570265415.57762
1570265415.59325
1570265415.60888
1570265415.6245
1570265415.64013
1570265415.65575
1570265415.67138
1570265415.687
1570265415.70263
1570265415.71826
1570265415.73388
1570265415.74951
1570265415.76513
1570265415.78076
1570265415.79638
1570265415.81201
1570265415.82764
1570265415.84326
1570265415.85889
1570265415.87451
1570265415.89014
1570265415.90576
1570265415.92139
1570265415.93702
1570265415.95264
1570265415.96827
1570265415.98389
1570265415.99952
1570265416.01514
1570265416.03077
1570265416.0464
1570265416.06202
1570265416.07765
1570265416.09327
1570265416.1089
1570265416.12452
1570265416.14015
1570265416.15578
1570265416.1714
1570265416.18703
1570265416.20265
1570265416.21828
1570265416.2339
1570265416.24953
1570265416.26516
1570265416.28078
1570265416.29641
1570265416.31203
1570265416.32766
1570265416.34328
1570265416.35891
1570265416.37454
1570265416.39016
1570265416.40579
1570265416.42141
1570265416.43704
1570265416.45266
1570265416.46829
1570265416.48392
1570265416.49954
1570265416.51517
1570265416.53079
1570265416.54642
1570265416.56204
1570265416.57767
1570265416.5933
1570265416.60892
1570265416.62455
1570265416.64017
1570265416.6558
1570265416.67142
1570265416.68705
1570265416.70268
1570265416.7183
1570265416.73393
1570265416.74955
1570265416.76518
1570265416.7808
1570265416.79643
1570265416.81206
1570265416.82768
1570265416.84331
1570265416.85893
1570265416.87456
1570265416.89018
1570265416.90581
1570265416.92144
1570265416.93706
1570265416.95269
1570265416.96831
1570265416.98394
1570265416.99956
1570265417.01519
1570265417.03082
1570265417.04644
1570265417.06207
1570265417.07769
1570265417.09332
1570265417.10894
1570265417.12457
1570265417.1402
1570265417.15582
1570265417.17145
1570265417.18707
1570265417.2027
1570265417.21833
1570265417.23395
1570265417.24958
1570265417.2652
1570265417.28083
1570265417.29645
1570265417.31208
1570265417.32771
1570265417.34333
1570265417.35896
1570265417.37458
1570265417.39021
1570265417.40583
1570265417.42146
1570265417.43709
1570265417.45271
1570265417.46834
1570265417.48396
1570265417.49959
1570265417.51521
1570265417.53084
1570265417.54647
1570265417.56209
1570265417.57772
1570265417.59334
1570265417.60897
1570265417.62459
1570265417.64022
1570265417.65585
1570265417.67147
1570265417.6871
1570265417.70272
1570265417.71835
1570265417.73397
1570265417.7496
1570265417.76523
1570265417.78085
1570265417.79648
1570265417.8121
1570265417.82773
1570265417.84335
1570265417.85898
1570265417.87461
1570265417.89023
1570265417.90586
1570265417.92148
1570265417.93711
1570265417.95273
1570265417.96836
1570265417.98399
1570265417.99961
1570265418.01524
1570265418.03086
1570265418.04649
1570265418.06211
1570265418.07774
1570265418.09337
1570265418.10899
1570265418.12462
1570265418.14024
1570265418.15587
1570265418.17149
1570265418.18712
1570265418.20275
1570265418.21837
1570265418.234
1570265418.24962
1570265418.26525
1570265418.28087
1570265418.2965
1570265418.31213
1570265418.32775
1570265418.34338
1570265418.359
1570265418.37463
1570265418.39025
1570265418.40588
1570265418.42151
1570265418.43713
1570265418.45276
1570265418.46838
1570265418.48401
1570265418.49963
1570265418.51526
1570265418.53089
1570265418.54651
1570265418.56214
1570265418.57776
1570265418.59339
1570265418.60901
1570265418.62464
1570265418.64027
1570265418.65589
1570265418.67152
1570265418.68714
1570265418.70277
1570265418.71839
1570265418.73402
1570265418.74965
1570265418.76527
1570265418.7809
1570265418.79652
1570265418.81215
1570265418.82777
1570265418.8434
1570265418.85903
1570265418.87465
1570265418.89028
1570265418.9059
1570265418.92153
1570265418.93715
1570265418.95278
1570265418.96841
1570265418.98403
1570265418.99966
1570265419.01528
1570265419.03091
1570265419.04653
1570265419.06216
1570265419.07779
1570265419.09341
1570265419.10904
1570265419.12466
1570265419.14029
1570265419.15591
1570265419.17154
1570265419.18717
