1570266819.25201
1570266819.26763
1570266819.28326
1570266819.29888
1570266819.31451
1570266819.33014
1570266819.34576
1570266819.36139
1570266819.37701
1570266819.39264
1570266819.40826
1570266819.42389
1570266819.43952
1570266819.45514
1570266819.47077
1570266819.48639
1570266819.50202
1570266819.51764
1570266819.53327
1570266819.5489
1570266819.56452
1570266819.58015
1570266819.59577
1570266819.6114
1570266819.62702
1570266819.64265
1570266819.65828
1570266819.6739
1570266819.68953
1570266819.70515
1570266819.72078
1570266819.7364
1570266819.75203
1570266819.76766
1570266819.78328
1570266819.79891
1570266819.81453
1570266819.83016
1570266819.84578
1570266819.86141
1570266819.87704
1570266819.89266
1570266819.90829
1570266819.92391
1570266819.93954
1570266819.95516
1570266819.97079
1570266819.98642
1570266820.00204
1570266820.01767
1570266820.03329
1570266820.04892
1570266820.06454
1570266820.08017
1570266820.0958
1570266820.11142
1570266820.12705
1570266820.14267
1570266820.1583
1570266820.17392
1570266820.18955
1570266820.20518
1570266820.2208
1570266820.23643
1570266820.25205
1570266820.26768
1570266820.2833
1570266820.29893
1570266820.31456
1570266820.33018
1570266820.34581
1570266820.36143
1570266820.37706
1570266820.39268
1570266820.40831
1570266820.42394
1570266820.43956
1570266820.45519
1570266820.47081
1570266820.48644
1570266820.50207
1570266820.51769
1570266820.53332
1570266820.54894
1570266820.56457
1570266820.58019
1570266820.59582
1570266820.61145
1570266820.62707
1570266820.6427
1570266820.65832
1570266820.67395
1570266820.68957
1570266820.7052
1570266820.72083
1570266820.73645
1570266820.75208
1570266820.7677
1570266820.78333
1570266820.79895
1570266820.81458
1570266820.83021
1570266820.84583
1570266820.86146
1570266820.87708
1570266820.89271
1570266820.90833
1570266820.92396
1570266820.93959
1570266820.95521
1570266820.97084
1570266820.98646
1570266821.00209
1570266821.01771
1570266821.03334
1570266821.04897
1570266821.06459
1570266821.08022
1570266821.09584
1570266821.11147
1570266821.12709
1570266821.14272
1570266821.15835
1570266821.17397
1570266821.1896
1570266821.20522
1570266821.22085
1570266821.23647
1570266821.2521
1570266821.26773
1570266821.28335
1570266821.29898
1570266821.3146
1570266821.33023
1570266821.34585
1570266821.36148
1570266821.37711
1570266821.39273
1570266821.40836
1570266821.42398
1570266821.43961
1570266821.45523
1570266821.47086
1570266821.48649
1570266821.50211
1570266821.51774
1570266821.53336
1570266821.54899
1570266821.56461
1570266821.58024
1570266821.59587
1570266821.61149
1570266821.62712
1570266821.64274
1570266821.65837
1570266821.67399
1570266821.68962
1570266821.70525
1570266821.72087
1570266821.7365
1570266821.75212
1570266821.76775
1570266821.78337
1570266821.799
1570266821.81463
1570266821.83025
1570266821.84588
1570266821.8615
1570266821.87713
1570266821.89275
1570266821.90838
1570266821.92401
1570266821.93963
1570266821.95526
1570266821.97088
1570266821.98651
1570266822.00213
1570266822.01776
1570266822.03339
1570266822.04901
1570266822.06464
1570266822.08026
1570266822.09589
1570266822.11151
1570266822.12714
1570266822.14277
1570266822.15839
1570266822.17402
1570266822.18964
1570266822.20527
1570266822.22089
1570266822.23652
1570266822.25215
1570266822.26777
1570266822.2834
1570266822.29902
1570266822.31465
1570266822.33027
1570266822.3459
1570266822.36153
1570266822.37715
1570266822.39278
1570266822.4084
1570266822.42403
1570266822.43965
1570266822.45528
1570266822.47091
1570266822.48653
1570266822.50216
1570266822.51778
1570266822.53341
1570266822.54903
1570266822.56466
1570266822.58029
1570266822.59591
1570266822.61154
1570266822.62716
1570266822.64279
1570266822.65841
1570266822.67404
1570266822.68967
1570266822.70529
1570266822.72092
1570266822.73654
1570266822.75217
1570266822.7678
1570266822.78342
1570266822.79905
1570266822.81467
1570266822.8303
1570266822.84592
1570266822.86155
1570266822.87718
1570266822.8928
1570266822.90843
1570266822.92405
1570266822.93968
1570266822.9553
1570266822.97093
1570266822.98656
1570266823.00218
1570266823.01781
1570266823.03343
1570266823.04906
1570266823.06468
1570266823.08031
1570266823.09594
1570266823.11156
1570266823.12719
1570266823.14281
1570266823.15844
1570266823.17406
1570266823.18969
1570266823.20532
1570266823.22094
1570266823.23657
1570266823.25219
1570266823.26782
1570266823.28344
1570266823.29907
1570266823.3147
1570266823.33032
1570266823.34595
1570266823.36157
1570266823.3772
1570266823.39282
1570266823.40845
1570266823.42408
1570266823.4397
1570266823.45533
1570266823.47095
1570266823.48658
1570266823.5022
1570266823.51783
1570266823.53346
1570266823.54908
1570266823.56471
1570266823.58033
1570266823.59596
1570266823.61158
1570266823.62721
1570266823.64284
1570266823.65846
1570266823.67409
1570266823.68971
1570266823.70534
1570266823.72096
1570266823.73659
1570266823.75222
1570266823.76784
1570266823.78347
1570266823.79909
1570266823.81472
1570266823.83034
1570266823.84597
1570266823.8616
1570266823.87722
1570266823.89285
1570266823.90847
1570266823.9241
1570266823.93972
1570266823.95535
1570266823.97098
1570266823.9866
1570266824.00223
1570266824.01785
1570266824.03348
1570266824.0491
1570266824.06473
1570266824.08036
1570266824.09598
1570266824.11161
1570266824.12723
1570266824.14286
1570266824.15848
1570266824.17411
1570266824.18974
1570266824.20536
1570266824.22099
1570266824.23661
1570266824.25224
1570266824.26786
1570266824.28349
1570266824.29912
1570266824.31474
1570266824.33037
1570266824.34599
1570266824.36162
1570266824.37724
1570266824.39287
1570266824.4085
1570266824.42412
1570266824.43975
1570266824.45537
1570266824.471
1570266824.48662
1570266824.50225
1570266824.51788
1570266824.5335
1570266824.54913
1570266824.56475
1570266824.58038
1570266824.596
1570266824.61163
1570266824.62726
1570266824.64288
1570266824.65851
1570266824.67413
1570266824.68976
1570266824.70538
1570266824.72101
1570266824.73664
1570266824.75226
1570266824.76789
1570266824.78351
1570266824.79914
1570266824.81476
1570266824.83039
1570266824.84602
1570266824.86164
1570266824.87727
1570266824.89289
1570266824.90852
1570266824.92414
1570266824.93977
1570266824.9554
1570266824.97102
1570266824.98665
1570266825.00227
1570266825.0179
1570266825.03352
1570266825.04915
1570266825.06478
1570266825.0804
1570266825.09603
1570266825.11165
1570266825.12728
1570266825.14291
1570266825.15853
1570266825.17416
1570266825.18978
1570266825.20541
1570266825.22103
1570266825.23666
1570266825.25229
1570266825.26791
1570266825.28354
1570266825.29916
1570266825.31479
1570266825.33041
1570266825.34604
1570266825.36167
1570266825.37729
1570266825.39292
1570266825.40854
1570266825.42417
1570266825.43979
1570266825.45542
1570266825.47105
1570266825.48667
1570266825.5023
1570266825.51792
1570266825.53355
1570266825.54917
1570266825.5648
1570266825.58043
1570266825.59605
1570266825.61168
1570266825.6273
1570266825.64293
1570266825.65855
1570266825.67418
1570266825.68981
1570266825.70543
1570266825.72106
1570266825.73668
1570266825.75231
1570266825.76793
1570266825.78356
1570266825.79919
1570266825.81481
1570266825.83044
1570266825.84606
1570266825.86169
1570266825.87731
1570266825.89294
1570266825.90857
1570266825.92419
1570266825.93982
1570266825.95544
1570266825.97107
1570266825.98669
1570266826.00232
1570266826.01795
1570266826.03357
1570266826.0492
1570266826.06482
1570266826.08045
1570266826.09607
1570266826.1117
1570266826.12733
1570266826.14295
1570266826.15858
1570266826.1742
1570266826.18983
1570266826.20545
1570266826.22108
1570266826.23671
1570266826.25233
1570266826.26796
1570266826.28358
1570266826.29921
1570266826.31483
1570266826.33046
1570266826.34609
1570266826.36171
1570266826.37734
1570266826.39296
1570266826.40859
1570266826.42421
1570266826.43984
1570266826.45547
1570266826.47109
1570266826.48672
1570266826.50234
1570266826.51797
1570266826.53359
1570266826.54922
1570266826.56485
1570266826.58047
1570266826.5961
1570266826.61172
1570266826.62735
1570266826.64297
1570266826.6586
1570266826.67423
1570266826.68985
1570266826.70548
1570266826.7211
1570266826.73673
1570266826.75235
1570266826.76798
1570266826.78361
1570266826.79923
1570266826.81486
1570266826.83048
1570266826.84611
1570266826.86173
1570266826.87736
1570266826.89299
1570266826.90861
1570266826.92424
1570266826.93986
1570266826.95549
1570266826.97111
1570266826.98674
1570266827.00237
1570266827.01799
1570266827.03362
1570266827.04924
1570266827.06487
1570266827.08049
1570266827.09612
1570266827.11175
1570266827.12737
1570266827.143
1570266827.15862
1570266827.17425
1570266827.18987
1570266827.2055
1570266827.22113
1570266827.23675
1570266827.25238
1570266827.268
1570266827.28363
1570266827.29925
1570266827.31488
1570266827.33051
1570266827.34613
1570266827.36176
1570266827.37738
1570266827.39301
1570266827.40863
1570266827.42426
1570266827.43989
1570266827.45551
1570266827.47114
1570266827.48676
1570266827.50239
1570266827.51801
1570266827.53364
1570266827.54927
1570266827.56489
1570266827.58052
1570266827.59614
1570266827.61177
1570266827.6274
1570266827.64302
1570266827.65865
1570266827.67427
1570266827.6899
1570266827.70552
1570266827.72115
1570266827.73678
1570266827.7524
1570266827.76803
1570266827.78365
1570266827.79928
1570266827.8149
1570266827.83053
1570266827.84616
1570266827.86178
1570266827.87741
1570266827.89303
1570266827.90866
1570266827.92428
1570266827.93991
1570266827.95554
1570266827.97116
1570266827.98679
1570266828.00241
1570266828.01804
1570266828.03366
1570266828.04929
1570266828.06492
1570266828.08054
1570266828.09617
1570266828.11179
1570266828.12742
1570266828.14304
1570266828.15867
1570266828.1743
1570266828.18992
1570266828.20555
1570266828.22117
1570266828.2368
1570266828.25242
1570266828.26805
1570266828.28368
1570266828.2993
1570266828.31493
1570266828.33055
1570266828.34618
1570266828.3618
1570266828.37743
1570266828.39306
1570266828.40868
1570266828.42431
1570266828.43993
1570266828.45556
1570266828.47118
1570266828.48681
1570266828.50244
1570266828.51806
1570266828.53369
1570266828.54931
1570266828.56494
1570266828.58056
1570266828.59619
1570266828.61182
1570266828.62744
1570266828.64307
1570266828.65869
1570266828.67432
1570266828.68994
1570266828.70557
1570266828.7212
1570266828.73682
1570266828.75245
1570266828.76807
1570266828.7837
1570266828.79932
1570266828.81495
1570266828.83058
1570266828.8462
1570266828.86183
1570266828.87745
1570266828.89308
1570266828.9087
1570266828.92433
1570266828.93996
1570266828.95558
1570266828.97121
1570266828.98683
1570266829.00246
1570266829.01808
1570266829.03371
1570266829.04934
1570266829.06496
1570266829.08059
1570266829.09621
1570266829.11184
1570266829.12746
1570266829.14309
1570266829.15872
1570266829.17434
1570266829.18997
1570266829.20559
1570266829.22122
1570266829.23684
1570266829.25247
1570266829.2681
1570266829.28372
1570266829.29935
1570266829.31497
1570266829.3306
1570266829.34622
1570266829.36185
1570266829.37748
1570266829.3931
1570266829.40873
1570266829.42435
1570266829.43998
1570266829.4556
1570266829.47123
1570266829.48686
1570266829.50248
1570266829.51811
1570266829.53373
1570266829.54936
1570266829.56498
1570266829.58061
1570266829.59624
1570266829.61186
1570266829.62749
1570266829.64311
1570266829.65874
1570266829.67436
1570266829.68999
1570266829.70562
1570266829.72124
1570266829.73687
1570266829.75249
1570266829.76812
1570266829.78375
1570266829.79937
1570266829.815
1570266829.83062
1570266829.84625
1570266829.86187
1570266829.8775
1570266829.89313
1570266829.90875
1570266829.92438
1570266829.94
1570266829.95563
1570266829.97125
1570266829.98688
1570266830.00251
1570266830.01813
1570266830.03376
1570266830.04938
1570266830.06501
1570266830.08063
1570266830.09626
1570266830.11189
1570266830.12751
1570266830.14314
1570266830.15876
1570266830.17439
1570266830.19001
1570266830.20564
1570266830.22127
1570266830.23689
1570266830.25252
1570266830.26814
1570266830.28377
1570266830.29939
1570266830.31502
1570266830.33065
1570266830.34627
1570266830.3619
1570266830.37752
1570266830.39315
1570266830.40877
1570266830.4244
1570266830.44003
1570266830.45565
1570266830.47128
1570266830.4869
1570266830.50253
1570266830.51815
1570266830.53378
1570266830.54941
1570266830.56503
1570266830.58066
1570266830.59628
1570266830.61191
1570266830.62753
1570266830.64316
1570266830.65879
1570266830.67441
1570266830.69004
1570266830.70566
1570266830.72129
1570266830.73691
1570266830.75254
1570266830.76817
1570266830.78379
1570266830.79942
1570266830.81504
1570266830.83067
1570266830.84629
1570266830.86192
1570266830.87755
1570266830.89317
1570266830.9088
1570266830.92442
1570266830.94005
1570266830.95567
1570266830.9713
1570266830.98693
1570266831.00255
1570266831.01818
1570266831.0338
1570266831.04943
1570266831.06505
1570266831.08068
1570266831.09631
1570266831.11193
1570266831.12756
1570266831.14318
1570266831.15881
1570266831.17443
1570266831.19006
1570266831.20569
1570266831.22131
1570266831.23694
1570266831.25256
1570266831.26819
1570266831.28381
1570266831.29944
1570266831.31507
1570266831.33069
1570266831.34632
1570266831.36194
1570266831.37757
1570266831.39319
1570266831.40882
1570266831.42445
1570266831.44007
1570266831.4557
1570266831.47132
1570266831.48695
1570266831.50257
1570266831.5182
1570266831.53383
1570266831.54945
1570266831.56508
1570266831.5807
1570266831.59633
1570266831.61195
1570266831.62758
1570266831.64321
1570266831.65883
1570266831.67446
1570266831.69008
1570266831.70571
1570266831.72133
1570266831.73696
1570266831.75259
1570266831.76821
1570266831.78384
1570266831.79946
1570266831.81509
1570266831.83071
1570266831.84634
1570266831.86197
1570266831.87759
1570266831.89322
1570266831.90884
1570266831.92447
1570266831.94009
1570266831.95572
1570266831.97135
1570266831.98697
1570266832.0026
1570266832.01822
1570266832.03385
1570266832.04947
1570266832.0651
1570266832.08073
1570266832.09635
1570266832.11198
1570266832.1276
1570266832.14323
1570266832.15885
1570266832.17448
1570266832.19011
1570266832.20573
1570266832.22136
1570266832.23698
1570266832.25261
1570266832.26823
1570266832.28386
1570266832.29949
1570266832.31511
1570266832.33074
1570266832.34636
1570266832.36199
1570266832.37761
1570266832.39324
1570266832.40887
1570266832.42449
1570266832.44012
1570266832.45574
1570266832.47137
1570266832.487
1570266832.50262
1570266832.51825
1570266832.53387
1570266832.5495
1570266832.56512
1570266832.58075
1570266832.59638
1570266832.612
1570266832.62763
1570266832.64325
1570266832.65888
1570266832.6745
1570266832.69013
1570266832.70576
1570266832.72138
1570266832.73701
1570266832.75263
1570266832.76826
1570266832.78388
1570266832.79951
1570266832.81514
1570266832.83076
1570266832.84639
1570266832.86201
1570266832.87764
1570266832.89326
1570266832.90889
1570266832.92452
1570266832.94014
1570266832.95577
1570266832.97139
1570266832.98702
1570266833.00264
1570266833.01827
1570266833.0339
1570266833.04952
1570266833.06515
1570266833.08077
1570266833.0964
1570266833.11202
1570266833.12765
1570266833.14328
1570266833.1589
1570266833.17453
1570266833.19015
1570266833.20578
1570266833.2214
1570266833.23703
1570266833.25266
1570266833.26828
1570266833.28391
1570266833.29953
1570266833.31516
1570266833.33078
1570266833.34641
1570266833.36204
1570266833.37766
1570266833.39329
1570266833.40891
1570266833.42454
1570266833.44016
1570266833.45579
1570266833.47142
1570266833.48704
1570266833.50267
1570266833.51829
1570266833.53392
1570266833.54954
1570266833.56517
1570266833.5808
1570266833.59642
1570266833.61205
1570266833.62767
1570266833.6433
1570266833.65892
1570266833.67455
1570266833.69018
1570266833.7058
1570266833.72143
1570266833.73705
1570266833.75268
1570266833.7683
1570266833.78393
1570266833.79956
1570266833.81518
1570266833.83081
1570266833.84643
1570266833.86206
1570266833.87768
1570266833.89331
1570266833.90894
1570266833.92456
1570266833.94019
1570266833.95581
1570266833.97144
1570266833.98706
1570266834.00269
1570266834.01832
1570266834.03394
1570266834.04957
1570266834.06519
1570266834.08082
1570266834.09644
1570266834.11207
1570266834.1277
1570266834.14332
1570266834.15895
1570266834.17457
1570266834.1902
1570266834.20582
1570266834.22145
1570266834.23708
1570266834.2527
1570266834.26833
1570266834.28395
1570266834.29958
1570266834.3152
1570266834.33083
1570266834.34646
1570266834.36208
1570266834.37771
1570266834.39333
1570266834.40896
1570266834.42458
1570266834.44021
1570266834.45584
1570266834.47146
1570266834.48709
1570266834.50271
1570266834.51834
1570266834.53396
1570266834.54959
1570266834.56522
1570266834.58084
1570266834.59647
1570266834.61209
1570266834.62772
1570266834.64335
1570266834.65897
1570266834.6746
1570266834.69022
1570266834.70585
1570266834.72147
1570266834.7371
1570266834.75273
1570266834.76835
1570266834.78398
1570266834.7996
1570266834.81523
1570266834.83085
1570266834.84648
1570266834.86211
1570266834.87773
1570266834.89336
1570266834.90898
1570266834.92461
1570266834.94023
1570266834.95586
1570266834.97149
1570266834.98711
1570266835.00274
1570266835.01836
1570266835.03399
1570266835.04961
1570266835.06524
1570266835.08087
1570266835.09649
1570266835.11212
1570266835.12774
1570266835.14337
1570266835.15899
1570266835.17462
1570266835.19025
1570266835.20587
1570266835.2215
1570266835.23712
1570266835.25275
1570266835.26837
1570266835.284
1570266835.29963
1570266835.31525
1570266835.33088
1570266835.3465
1570266835.36213
1570266835.37775
1570266835.39338
1570266835.40901
1570266835.42463
1570266835.44026
1570266835.45588
1570266835.47151
1570266835.48713
1570266835.50276
1570266835.51839
1570266835.53401
1570266835.54964
1570266835.56526
1570266835.58089
1570266835.59651
1570266835.61214
1570266835.62777
1570266835.64339
1570266835.65902
1570266835.67464
1570266835.69027
1570266835.70589
1570266835.72152
1570266835.73715
1570266835.75277
1570266835.7684
1570266835.78402
1570266835.79965
1570266835.81527
1570266835.8309
1570266835.84653
1570266835.86215
1570266835.87778
1570266835.8934
1570266835.90903
1570266835.92465
1570266835.94028
1570266835.95591
1570266835.97153
1570266835.98716
1570266836.00278
1570266836.01841
1570266836.03403
1570266836.04966
1570266836.06529
1570266836.08091
1570266836.09654
1570266836.11216
1570266836.12779
1570266836.14341
1570266836.15904
1570266836.17467
1570266836.19029
1570266836.20592
1570266836.22154
1570266836.23717
1570266836.25279
1570266836.26842
1570266836.28405
1570266836.29967
1570266836.3153
1570266836.33092
1570266836.34655
1570266836.36217
1570266836.3778
1570266836.39343
1570266836.40905
1570266836.42468
1570266836.4403
1570266836.45593
1570266836.47155
1570266836.48718
1570266836.50281
1570266836.51843
1570266836.53406
1570266836.54968
1570266836.56531
1570266836.58093
1570266836.59656
1570266836.61219
1570266836.62781
1570266836.64344
1570266836.65906
1570266836.67469
1570266836.69031
1570266836.70594
1570266836.72157
1570266836.73719
1570266836.75282
1570266836.76844
1570266836.78407
1570266836.79969
1570266836.81532
1570266836.83095
1570266836.84657
1570266836.8622
1570266836.87782
1570266836.89345
1570266836.90908
1570266836.9247
1570266836.94033
1570266836.95595
1570266836.97158
1570266836.9872
1570266837.00283
1570266837.01846
1570266837.03408
1570266837.04971
1570266837.06533
1570266837.08096
1570266837.09658
1570266837.11221
1570266837.12784
1570266837.14346
1570266837.15909
1570266837.17471
1570266837.19034
1570266837.20596
1570266837.22159
1570266837.23722
1570266837.25284
1570266837.26847
1570266837.28409
1570266837.29972
1570266837.31534
1570266837.33097
1570266837.3466
1570266837.36222
1570266837.37785
1570266837.39347
1570266837.4091
1570266837.42472
1570266837.44035
1570266837.45598
1570266837.4716
1570266837.48723
1570266837.50285
1570266837.51848
1570266837.5341
1570266837.54973
1570266837.56536
1570266837.58098
1570266837.59661
1570266837.61223
1570266837.62786
1570266837.64348
1570266837.65911
1570266837.67474
1570266837.69036
1570266837.70599
1570266837.72161
1570266837.73724
1570266837.75286
1570266837.76849
1570266837.78412
1570266837.79974
1570266837.81537
1570266837.83099
1570266837.84662
1570266837.86224
1570266837.87787
1570266837.8935
1570266837.90912
1570266837.92475
1570266837.94037
1570266837.956
1570266837.97162
1570266837.98725
1570266838.00288
1570266838.0185
1570266838.03413
1570266838.04975
1570266838.06538
1570266838.081
1570266838.09663
1570266838.11226
1570266838.12788
1570266838.14351
1570266838.15913
1570266838.17476
1570266838.19038
1570266838.20601
1570266838.22164
1570266838.23726
1570266838.25289
1570266838.26851
1570266838.28414
1570266838.29976
1570266838.31539
1570266838.33102
1570266838.34664
1570266838.36227
1570266838.37789
1570266838.39352
1570266838.40914
1570266838.42477
1570266838.4404
1570266838.45602
1570266838.47165
1570266838.48727
1570266838.5029
1570266838.51852
1570266838.53415
1570266838.54978
1570266838.5654
1570266838.58103
1570266838.59665
1570266838.61228
1570266838.6279
1570266838.64353
1570266838.65916
1570266838.67478
1570266838.69041
1570266838.70603
1570266838.72166
1570266838.73728
1570266838.75291
1570266838.76854
1570266838.78416
1570266838.79979
1570266838.81541
1570266838.83104
1570266838.84666
1570266838.86229
1570266838.87792
1570266838.89354
1570266838.90917
1570266838.92479
1570266838.94042
1570266838.95604
1570266838.97167
1570266838.9873
1570266839.00292
1570266839.01855
1570266839.03417
1570266839.0498
1570266839.06542
1570266839.08105
1570266839.09668
1570266839.1123
1570266839.12793
1570266839.14355
1570266839.15918
1570266839.1748
1570266839.19043
1570266839.20606
1570266839.22168
1570266839.23731
1570266839.25293
1570266839.26856
1570266839.28418
1570266839.29981
1570266839.31544
1570266839.33106
1570266839.34669
1570266839.36231
1570266839.37794
1570266839.39356
1570266839.40919
1570266839.42482
1570266839.44044
1570266839.45607
1570266839.47169
1570266839.48732
1570266839.50294
1570266839.51857
1570266839.5342
1570266839.54982
1570266839.56545
1570266839.58107
1570266839.5967
1570266839.61233
1570266839.62795
1570266839.64358
1570266839.6592
1570266839.67483
1570266839.69045
1570266839.70608
1570266839.72171
1570266839.73733
1570266839.75296
1570266839.76858
1570266839.78421
1570266839.79983
1570266839.81546
1570266839.83109
1570266839.84671
1570266839.86234
1570266839.87796
1570266839.89359
1570266839.90921
1570266839.92484
1570266839.94047
1570266839.95609
1570266839.97172
1570266839.98734
1570266840.00297
1570266840.01859
1570266840.03422
1570266840.04985
1570266840.06547
1570266840.0811
1570266840.09672
1570266840.11235
1570266840.12797
1570266840.1436
1570266840.15923
1570266840.17485
1570266840.19048
1570266840.2061
1570266840.22173
1570266840.23735
1570266840.25298
1570266840.26861
1570266840.28423
1570266840.29986
1570266840.31548
1570266840.33111
1570266840.34673
1570266840.36236
1570266840.37799
1570266840.39361
1570266840.40924
1570266840.42486
1570266840.44049
1570266840.45611
1570266840.47174
1570266840.48737
1570266840.50299
1570266840.51862
1570266840.53424
1570266840.54987
1570266840.56549
1570266840.58112
1570266840.59675
1570266840.61237
1570266840.628
1570266840.64362
1570266840.65925
1570266840.67487
1570266840.6905
1570266840.70613
1570266840.72175
1570266840.73738
1570266840.753
1570266840.76863
1570266840.78425
1570266840.79988
1570266840.81551
1570266840.83113
1570266840.84676
1570266840.86238
1570266840.87801
1570266840.89363
1570266840.90926
1570266840.92489
1570266840.94051
1570266840.95614
1570266840.97176
1570266840.98739
1570266841.00301
1570266841.01864
1570266841.03427
1570266841.04989
1570266841.06552
1570266841.08114
1570266841.09677
1570266841.11239
1570266841.12802
1570266841.14365
1570266841.15927
1570266841.1749
1570266841.19052
1570266841.20615
1570266841.22177
1570266841.2374
1570266841.25303
1570266841.26865
1570266841.28428
1570266841.2999
1570266841.31553
1570266841.33115
1570266841.34678
1570266841.36241
1570266841.37803
1570266841.39366
1570266841.40928
1570266841.42491
1570266841.44053
1570266841.45616
1570266841.47179
1570266841.48741
1570266841.50304
1570266841.51866
1570266841.53429
1570266841.54991
1570266841.56554
1570266841.58117
1570266841.59679
1570266841.61242
1570266841.62804
1570266841.64367
1570266841.65929
1570266841.67492
1570266841.69055
1570266841.70617
1570266841.7218
1570266841.73742
1570266841.75305
1570266841.76868
1570266841.7843
1570266841.79993
1570266841.81555
1570266841.83118
1570266841.8468
1570266841.86243
1570266841.87806
1570266841.89368
1570266841.90931
1570266841.92493
1570266841.94056
1570266841.95618
1570266841.97181
1570266841.98744
1570266842.00306
1570266842.01869
1570266842.03431
1570266842.04994
1570266842.06556
1570266842.08119
1570266842.09682
1570266842.11244
1570266842.12807
1570266842.14369
1570266842.15932
1570266842.17494
1570266842.19057
1570266842.2062
1570266842.22182
1570266842.23745
1570266842.25307
1570266842.2687
1570266842.28432
1570266842.29995
1570266842.31558
1570266842.3312
1570266842.34683
1570266842.36245
1570266842.37808
1570266842.3937
1570266842.40933
1570266842.42496
1570266842.44058
1570266842.45621
1570266842.47183
1570266842.48746
1570266842.50308
1570266842.51871
1570266842.53434
1570266842.54996
1570266842.56559
1570266842.58121
1570266842.59684
1570266842.61246
1570266842.62809
1570266842.64372
1570266842.65934
1570266842.67497
1570266842.69059
1570266842.70622
1570266842.72184
1570266842.73747
1570266842.7531
1570266842.76872
1570266842.78435
1570266842.79997
1570266842.8156
1570266842.83122
1570266842.84685
1570266842.86248
1570266842.8781
1570266842.89373
1570266842.90935
1570266842.92498
1570266842.9406
1570266842.95623
1570266842.97186
1570266842.98748
1570266843.00311
1570266843.01873
1570266843.03436
1570266843.04998
1570266843.06561
1570266843.08124
1570266843.09686
1570266843.11249
1570266843.12811
1570266843.14374
1570266843.15936
1570266843.17499
1570266843.19062
1570266843.20624
1570266843.22187
1570266843.23749
1570266843.25312
1570266843.26874
1570266843.28437
1570266843.3
1570266843.31562
1570266843.33125
1570266843.34687
1570266843.3625
1570266843.37812
1570266843.39375
1570266843.40938
1570266843.425
1570266843.44063
1570266843.45625
1570266843.47188
1570266843.4875
1570266843.50313
1570266843.51876
1570266843.53438
1570266843.55001
1570266843.56563
1570266843.58126
1570266843.59688
1570266843.61251
1570266843.62814
1570266843.64376
1570266843.65939
1570266843.67501
1570266843.69064
1570266843.70626
1570266843.72189
1570266843.73752
1570266843.75314
1570266843.76877
1570266843.78439
1570266843.80002
1570266843.81564
1570266843.83127
1570266843.8469
1570266843.86252
1570266843.87815
1570266843.89377
1570266843.9094
1570266843.92502
1570266843.94065
1570266843.95628
1570266843.9719
1570266843.98753
1570266844.00315
1570266844.01878
1570266844.0344
1570266844.05003
1570266844.06566
1570266844.08128
1570266844.09691
1570266844.11253
1570266844.12816
1570266844.14379
1570266844.15941
1570266844.17504
1570266844.19066
1570266844.20629
1570266844.22191
1570266844.23754
1570266844.25317
1570266844.26879
1570266844.28442
1570266844.30004
1570266844.31567
1570266844.33129
1570266844.34692
1570266844.36255
1570266844.37817
1570266844.3938
1570266844.40942
1570266844.42505
1570266844.44067
1570266844.4563
1570266844.47193
1570266844.48755
1570266844.50318
1570266844.5188
1570266844.53443
1570266844.55005
1570266844.56568
1570266844.58131
1570266844.59693
1570266844.61256
1570266844.62818
1570266844.64381
1570266844.65943
1570266844.67506
1570266844.69069
1570266844.70631
1570266844.72194
1570266844.73756
1570266844.75319
1570266844.76881
1570266844.78444
1570266844.80007
1570266844.81569
1570266844.83132
1570266844.84694
1570266844.86257
1570266844.87819
1570266844.89382
1570266844.90945
1570266844.92507
1570266844.9407
1570266844.95632
1570266844.97195
1570266844.98757
1570266845.0032
1570266845.01883
1570266845.03445
1570266845.05008
1570266845.0657
1570266845.08133
1570266845.09695
1570266845.11258
1570266845.12821
1570266845.14383
1570266845.15946
1570266845.17508
1570266845.19071
1570266845.20633
1570266845.22196
1570266845.23759
1570266845.25321
1570266845.26884
1570266845.28446
1570266845.30009
1570266845.31571
1570266845.33134
1570266845.34697
1570266845.36259
1570266845.37822
1570266845.39384
1570266845.40947
1570266845.42509
1570266845.44072
1570266845.45635
1570266845.47197
1570266845.4876
1570266845.50322
1570266845.51885
1570266845.53447
1570266845.5501
1570266845.56573
1570266845.58135
1570266845.59698
1570266845.6126
1570266845.62823
1570266845.64385
1570266845.65948
1570266845.67511
1570266845.69073
1570266845.70636
1570266845.72198
1570266845.73761
1570266845.75323
1570266845.76886
1570266845.78449
1570266845.80011
1570266845.81574
1570266845.83136
1570266845.84699
1570266845.86261
1570266845.87824
1570266845.89387
1570266845.90949
1570266845.92512
1570266845.94074
1570266845.95637
1570266845.97199
1570266845.98762
1570266846.00325
1570266846.01887
1570266846.0345
1570266846.05012
1570266846.06575
1570266846.08137
1570266846.097
1570266846.11263
1570266846.12825
1570266846.14388
1570266846.1595
1570266846.17513
1570266846.19075
1570266846.20638
1570266846.22201
1570266846.23763
1570266846.25326
1570266846.26888
1570266846.28451
1570266846.30013
1570266846.31576
1570266846.33139
1570266846.34701
1570266846.36264
1570266846.37826
1570266846.39389
1570266846.40951
1570266846.42514
1570266846.44077
1570266846.45639
1570266846.47202
1570266846.48764
1570266846.50327
1570266846.51889
1570266846.53452
1570266846.55015
1570266846.56577
1570266846.5814
1570266846.59702
1570266846.61265
1570266846.62828
1570266846.6439
1570266846.65953
1570266846.67515
1570266846.69078
1570266846.7064
1570266846.72203
1570266846.73766
1570266846.75328
1570266846.76891
1570266846.78453
1570266846.80016
1570266846.81578
1570266846.83141
1570266846.84704
1570266846.86266
1570266846.87829
1570266846.89391
1570266846.90954
1570266846.92516
1570266846.94079
1570266846.95642
1570266846.97204
1570266846.98767
1570266847.00329
1570266847.01892
1570266847.03454
1570266847.05017
1570266847.0658
1570266847.08142
1570266847.09705
1570266847.11267
1570266847.1283
1570266847.14392
1570266847.15955
1570266847.17518
1570266847.1908
1570266847.20643
1570266847.22205
1570266847.23768
1570266847.2533
1570266847.26893
1570266847.28456
1570266847.30018
1570266847.31581
1570266847.33143
1570266847.34706
1570266847.36268
1570266847.37831
1570266847.39394
1570266847.40956
1570266847.42519
1570266847.44081
1570266847.45644
1570266847.47206
1570266847.48769
1570266847.50332
1570266847.51894
1570266847.53457
1570266847.55019
1570266847.56582
1570266847.58144
1570266847.59707
1570266847.6127
1570266847.62832
1570266847.64395
1570266847.65957
1570266847.6752
1570266847.69082
1570266847.70645
1570266847.72208
1570266847.7377
1570266847.75333
1570266847.76895
1570266847.78458
1570266847.8002
1570266847.81583
1570266847.83146
1570266847.84708
1570266847.86271
1570266847.87833
1570266847.89396
1570266847.90958
1570266847.92521
1570266847.94084
1570266847.95646
1570266847.97209
1570266847.98771
1570266848.00334
1570266848.01896
1570266848.03459
1570266848.05022
1570266848.06584
1570266848.08147
1570266848.09709
1570266848.11272
1570266848.12834
1570266848.14397
1570266848.1596
1570266848.17522
1570266848.19085
1570266848.20647
1570266848.2221
1570266848.23772
1570266848.25335
1570266848.26898
1570266848.2846
1570266848.30023
1570266848.31585
1570266848.33148
1570266848.3471
1570266848.36273
1570266848.37836
1570266848.39398
1570266848.40961
1570266848.42523
1570266848.44086
1570266848.45648
1570266848.47211
1570266848.48774
1570266848.50336
1570266848.51899
1570266848.53461
1570266848.55024
1570266848.56586
1570266848.58149
1570266848.59712
1570266848.61274
1570266848.62837
1570266848.64399
1570266848.65962
1570266848.67524
1570266848.69087
1570266848.7065
1570266848.72212
1570266848.73775
1570266848.75337
1570266848.769
1570266848.78462
1570266848.80025
1570266848.81588
1570266848.8315
1570266848.84713
1570266848.86275
1570266848.87838
1570266848.89401
1570266848.90963
1570266848.92526
1570266848.94088
1570266848.95651
1570266848.97213
1570266848.98776
1570266849.00339
1570266849.01901
1570266849.03464
1570266849.05026
1570266849.06589
1570266849.08151
1570266849.09714
1570266849.11277
1570266849.12839
1570266849.14402
1570266849.15964
1570266849.17527
1570266849.19089
1570266849.20652
1570266849.22215
1570266849.23777
1570266849.2534
1570266849.26902
1570266849.28465
1570266849.30027
1570266849.3159
1570266849.33153
1570266849.34715
1570266849.36278
1570266849.3784
1570266849.39403
1570266849.40965
1570266849.42528
1570266849.44091
1570266849.45653
1570266849.47216
1570266849.48778
1570266849.50341
1570266849.51903
1570266849.53466
1570266849.55029
1570266849.56591
1570266849.58154
1570266849.59716
1570266849.61279
1570266849.62841
1570266849.64404
1570266849.65967
1570266849.67529
1570266849.69092
1570266849.70654
1570266849.72217
1570266849.73779
1570266849.75342
1570266849.76905
1570266849.78467
1570266849.8003
1570266849.81592
1570266849.83155
1570266849.84717
1570266849.8628
1570266849.87843
1570266849.89405
1570266849.90968
1570266849.9253
1570266849.94093
1570266849.95655
1570266849.97218
1570266849.98781
1570266850.00343
1570266850.01906
1570266850.03468
1570266850.05031
1570266850.06593
1570266850.08156
1570266850.09719
1570266850.11281
1570266850.12844
1570266850.14406
1570266850.15969
1570266850.17531
1570266850.19094
1570266850.20657
1570266850.22219
1570266850.23782
1570266850.25344
1570266850.26907
1570266850.28469
1570266850.30032
1570266850.31595
1570266850.33157
1570266850.3472
1570266850.36282
1570266850.37845
1570266850.39407
1570266850.4097
1570266850.42533
1570266850.44095
1570266850.45658
1570266850.4722
1570266850.48783
1570266850.50345
1570266850.51908
1570266850.53471
1570266850.55033
1570266850.56596
1570266850.58158
1570266850.59721
1570266850.61283
1570266850.62846
1570266850.64409
1570266850.65971
1570266850.67534
1570266850.69096
1570266850.70659
1570266850.72221
1570266850.73784
1570266850.75347
1570266850.76909
1570266850.78472
1570266850.80034
1570266850.81597
1570266850.83159
1570266850.84722
1570266850.86285
1570266850.87847
1570266850.8941
1570266850.90972
1570266850.92535
1570266850.94097
1570266850.9566
1570266850.97223
1570266850.98785
1570266851.00348
1570266851.0191
1570266851.03473
1570266851.05035
1570266851.06598
1570266851.08161
1570266851.09723
1570266851.11286
1570266851.12848
1570266851.14411
1570266851.15973
1570266851.17536
1570266851.19099
1570266851.20661
1570266851.22224
1570266851.23786
1570266851.25349
1570266851.26911
1570266851.28474
1570266851.30037
1570266851.31599
1570266851.33162
1570266851.34724
1570266851.36287
1570266851.37849
1570266851.39412
1570266851.40975
1570266851.42537
1570266851.441
1570266851.45662
1570266851.47225
1570266851.48788
1570266851.5035
1570266851.51913
1570266851.53475
1570266851.55038
1570266851.566
1570266851.58163
1570266851.59726
1570266851.61288
1570266851.62851
1570266851.64413
1570266851.65976
1570266851.67538
1570266851.69101
1570266851.70664
1570266851.72226
1570266851.73789
1570266851.75351
1570266851.76914
1570266851.78476
1570266851.80039
1570266851.81602
1570266851.83164
1570266851.84727
1570266851.86289
1570266851.87852
1570266851.89414
1570266851.90977
1570266851.9254
1570266851.94102
1570266851.95665
1570266851.97227
1570266851.9879
1570266852.00352
1570266852.01915
1570266852.03478
1570266852.0504
1570266852.06603
1570266852.08165
1570266852.09728
1570266852.1129
1570266852.12853
1570266852.14416
1570266852.15978
1570266852.17541
1570266852.19103
1570266852.20666
1570266852.22228
1570266852.23791
1570266852.25354
1570266852.26916
1570266852.28479
1570266852.30041
1570266852.31604
1570266852.33166
1570266852.34729
1570266852.36292
1570266852.37854
1570266852.39417
1570266852.40979
1570266852.42542
1570266852.44104
1570266852.45667
1570266852.4723
1570266852.48792
1570266852.50355
1570266852.51917
1570266852.5348
1570266852.55042
1570266852.56605
1570266852.58168
1570266852.5973
1570266852.61293
1570266852.62855
1570266852.64418
1570266852.6598
1570266852.67543
1570266852.69106
1570266852.70668
1570266852.72231
1570266852.73793
1570266852.75356
1570266852.76918
1570266852.78481
1570266852.80044
1570266852.81606
1570266852.83169
1570266852.84731
1570266852.86294
1570266852.87856
1570266852.89419
1570266852.90982
1570266852.92544
1570266852.94107
1570266852.95669
1570266852.97232
1570266852.98794
1570266853.00357
1570266853.0192
1570266853.03482
1570266853.05045
1570266853.06607
1570266853.0817
1570266853.09732
1570266853.11295
1570266853.12858
1570266853.1442
1570266853.15983
1570266853.17545
1570266853.19108
1570266853.2067
1570266853.22233
1570266853.23796
1570266853.25358
1570266853.26921
1570266853.28483
1570266853.30046
1570266853.31608
1570266853.33171
1570266853.34734
1570266853.36296
1570266853.37859
1570266853.39421
1570266853.40984
1570266853.42546
1570266853.44109
1570266853.45672
1570266853.47234
1570266853.48797
1570266853.50359
1570266853.51922
1570266853.53484
1570266853.55047
1570266853.5661
1570266853.58172
1570266853.59735
1570266853.61297
1570266853.6286
1570266853.64422
1570266853.65985
1570266853.67548
1570266853.6911
1570266853.70673
1570266853.72235
1570266853.73798
1570266853.75361
1570266853.76923
1570266853.78486
1570266853.80048
1570266853.81611
1570266853.83173
1570266853.84736
1570266853.86299
1570266853.87861
1570266853.89424
1570266853.90986
1570266853.92549
1570266853.94111
1570266853.95674
1570266853.97237
1570266853.98799
1570266854.00362
1570266854.01924
1570266854.03487
1570266854.05049
1570266854.06612
1570266854.08175
1570266854.09737
1570266854.113
1570266854.12862
1570266854.14425
1570266854.15987
1570266854.1755
1570266854.19113
1570266854.20675
1570266854.22238
1570266854.238
1570266854.25363
1570266854.26925
1570266854.28488
1570266854.30051
1570266854.31613
1570266854.33176
1570266854.34738
1570266854.36301
1570266854.37863
1570266854.39426
1570266854.40989
1570266854.42551
1570266854.44114
1570266854.45676
1570266854.47239
1570266854.48801
1570266854.50364
1570266854.51927
1570266854.53489
1570266854.55052
1570266854.56614
1570266854.58177
1570266854.59739
1570266854.61302
1570266854.62865
1570266854.64427
1570266854.6599
1570266854.67552
1570266854.69115
1570266854.70677
1570266854.7224
1570266854.73803
1570266854.75365
1570266854.76928
1570266854.7849
1570266854.80053
1570266854.81615
1570266854.83178
1570266854.84741
1570266854.86303
1570266854.87866
1570266854.89428
1570266854.90991
1570266854.92553
1570266854.94116
1570266854.95679
1570266854.97241
1570266854.98804
1570266855.00366
1570266855.01929
1570266855.03491
1570266855.05054
1570266855.06617
1570266855.08179
1570266855.09742
1570266855.11304
1570266855.12867
1570266855.14429
1570266855.15992
1570266855.17555
1570266855.19117
1570266855.2068
1570266855.22242
1570266855.23805
1570266855.25367
1570266855.2693
1570266855.28493
1570266855.30055
1570266855.31618
1570266855.3318
1570266855.34743
1570266855.36305
1570266855.37868
1570266855.39431
1570266855.40993
1570266855.42556
1570266855.44118
1570266855.45681
1570266855.47243
1570266855.48806
1570266855.50369
1570266855.51931
1570266855.53494
1570266855.55056
1570266855.56619
1570266855.58181
1570266855.59744
1570266855.61307
1570266855.62869
1570266855.64432
1570266855.65994
1570266855.67557
1570266855.69119
1570266855.70682
1570266855.72245
1570266855.73807
1570266855.7537
1570266855.76932
1570266855.78495
1570266855.80057
1570266855.8162
1570266855.83183
1570266855.84745
1570266855.86308
1570266855.8787
1570266855.89433
1570266855.90996
1570266855.92558
1570266855.94121
1570266855.95683
1570266855.97246
1570266855.98808
1570266856.00371
1570266856.01934
1570266856.03496
1570266856.05059
1570266856.06621
1570266856.08184
1570266856.09746
1570266856.11309
1570266856.12872
1570266856.14434
1570266856.15997
1570266856.17559
1570266856.19122
1570266856.20684
1570266856.22247
1570266856.2381
1570266856.25372
1570266856.26935
1570266856.28497
1570266856.3006
1570266856.31622
1570266856.33185
1570266856.34748
1570266856.3631
1570266856.37873
1570266856.39435
1570266856.40998
1570266856.4256
1570266856.44123
1570266856.45686
1570266856.47248
1570266856.48811
1570266856.50373
1570266856.51936
1570266856.53498
1570266856.55061
1570266856.56624
1570266856.58186
1570266856.59749
1570266856.61311
1570266856.62874
1570266856.64436
1570266856.65999
1570266856.67562
1570266856.69124
1570266856.70687
1570266856.72249
1570266856.73812
1570266856.75374
1570266856.76937
1570266856.785
1570266856.80062
1570266856.81625
1570266856.83187
1570266856.8475
1570266856.86312
1570266856.87875
1570266856.89438
1570266856.91
1570266856.92563
1570266856.94125
1570266856.95688
1570266856.9725
1570266856.98813
1570266857.00376
1570266857.01938
1570266857.03501
1570266857.05063
1570266857.06626
1570266857.08188
1570266857.09751
1570266857.11314
1570266857.12876
1570266857.14439
1570266857.16001
1570266857.17564
1570266857.19126
1570266857.20689
1570266857.22252
1570266857.23814
1570266857.25377
1570266857.26939
1570266857.28502
1570266857.30064
1570266857.31627
1570266857.3319
1570266857.34752
1570266857.36315
1570266857.37877
1570266857.3944
1570266857.41002
1570266857.42565
1570266857.44128
1570266857.4569
1570266857.47253
1570266857.48815
1570266857.50378
1570266857.5194
1570266857.53503
1570266857.55066
1570266857.56628
1570266857.58191
1570266857.59753
1570266857.61316
1570266857.62878
1570266857.64441
1570266857.66004
1570266857.67566
1570266857.69129
1570266857.70691
1570266857.72254
1570266857.73816
1570266857.75379
1570266857.76942
1570266857.78504
1570266857.80067
1570266857.81629
1570266857.83192
1570266857.84754
1570266857.86317
1570266857.8788
1570266857.89442
1570266857.91005
1570266857.92567
1570266857.9413
1570266857.95692
1570266857.97255
1570266857.98818
1570266858.0038
1570266858.01943
1570266858.03505
1570266858.05068
1570266858.0663
1570266858.08193
1570266858.09756
1570266858.11318
1570266858.12881
1570266858.14443
1570266858.16006
1570266858.17568
1570266858.19131
1570266858.20694
1570266858.22256
1570266858.23819
1570266858.25381
1570266858.26944
1570266858.28506
1570266858.30069
1570266858.31632
1570266858.33194
1570266858.34757
1570266858.36319
1570266858.37882
1570266858.39444
1570266858.41007
1570266858.4257
1570266858.44132
1570266858.45695
1570266858.47257
1570266858.4882
1570266858.50382
1570266858.51945
1570266858.53508
1570266858.5507
1570266858.56633
1570266858.58195
1570266858.59758
1570266858.61321
1570266858.62883
1570266858.64446
1570266858.66008
1570266858.67571
1570266858.69133
1570266858.70696
1570266858.72259
1570266858.73821
1570266858.75384
1570266858.76946
1570266858.78509
1570266858.80071
1570266858.81634
1570266858.83197
1570266858.84759
1570266858.86322
1570266858.87884
1570266858.89447
1570266858.91009
1570266858.92572
1570266858.94135
1570266858.95697
1570266858.9726
1570266858.98822
1570266859.00385
1570266859.01947
1570266859.0351
1570266859.05073
1570266859.06635
1570266859.08198
1570266859.0976
1570266859.11323
1570266859.12885
1570266859.14448
1570266859.16011
1570266859.17573
1570266859.19136
1570266859.20698
1570266859.22261
1570266859.23823
1570266859.25386
1570266859.26949
1570266859.28511
1570266859.30074
1570266859.31636
1570266859.33199
1570266859.34761
1570266859.36324
1570266859.37887
1570266859.39449
1570266859.41012
1570266859.42574
1570266859.44137
1570266859.45699
1570266859.47262
1570266859.48825
1570266859.50387
1570266859.5195
1570266859.53512
1570266859.55075
1570266859.56637
1570266859.582
1570266859.59763
1570266859.61325
1570266859.62888
1570266859.6445
1570266859.66013
1570266859.67575
1570266859.69138
1570266859.70701
1570266859.72263
1570266859.73826
1570266859.75388
1570266859.76951
1570266859.78513
1570266859.80076
1570266859.81639
1570266859.83201
1570266859.84764
1570266859.86326
1570266859.87889
1570266859.89451
1570266859.91014
1570266859.92577
1570266859.94139
1570266859.95702
1570266859.97264
1570266859.98827
1570266860.00389
1570266860.01952
1570266860.03515
1570266860.05077
1570266860.0664
1570266860.08202
1570266860.09765
1570266860.11327
1570266860.1289
1570266860.14453
1570266860.16015
1570266860.17578
1570266860.1914
1570266860.20703
1570266860.22265
1570266860.23828
1570266860.25391
1570266860.26953
1570266860.28516
1570266860.30078
1570266860.31641
1570266860.33203
1570266860.34766
1570266860.36329
1570266860.37891
1570266860.39454
1570266860.41016
1570266860.42579
1570266860.44141
1570266860.45704
1570266860.47267
1570266860.48829
1570266860.50392
1570266860.51954
1570266860.53517
1570266860.55079
1570266860.56642
1570266860.58205
1570266860.59767
1570266860.6133
1570266860.62892
1570266860.64455
1570266860.66017
1570266860.6758
1570266860.69143
1570266860.70705
1570266860.72268
1570266860.7383
1570266860.75393
1570266860.76956
1570266860.78518
1570266860.80081
1570266860.81643
1570266860.83206
1570266860.84768
1570266860.86331
1570266860.87894
1570266860.89456
1570266860.91019
1570266860.92581
1570266860.94144
1570266860.95706
1570266860.97269
1570266860.98832
1570266861.00394
1570266861.01957
1570266861.03519
1570266861.05082
1570266861.06644
1570266861.08207
1570266861.0977
1570266861.11332
1570266861.12895
1570266861.14457
1570266861.1602
1570266861.17582
1570266861.19145
1570266861.20708
1570266861.2227
1570266861.23833
1570266861.25395
1570266861.26958
1570266861.2852
1570266861.30083
1570266861.31646
1570266861.33208
1570266861.34771
1570266861.36333
1570266861.37896
1570266861.39458
1570266861.41021
1570266861.42584
1570266861.44146
1570266861.45709
1570266861.47271
1570266861.48834
1570266861.50396
1570266861.51959
1570266861.53522
1570266861.55084
1570266861.56647
1570266861.58209
1570266861.59772
1570266861.61334
1570266861.62897
1570266861.6446
1570266861.66022
1570266861.67585
1570266861.69147
1570266861.7071
1570266861.72272
1570266861.73835
1570266861.75398
1570266861.7696
1570266861.78523
1570266861.80085
1570266861.81648
1570266861.8321
1570266861.84773
1570266861.86336
1570266861.87898
1570266861.89461
1570266861.91023
1570266861.92586
1570266861.94148
1570266861.95711
1570266861.97274
1570266861.98836
1570266862.00399
1570266862.01961
1570266862.03524
1570266862.05086
1570266862.06649
1570266862.08212
1570266862.09774
1570266862.11337
1570266862.12899
1570266862.14462
1570266862.16024
1570266862.17587
1570266862.1915
1570266862.20712
1570266862.22275
1570266862.23837
1570266862.254
1570266862.26962
1570266862.28525
1570266862.30088
1570266862.3165
1570266862.33213
1570266862.34775
1570266862.36338
1570266862.379
1570266862.39463
1570266862.41026
1570266862.42588
1570266862.44151
1570266862.45713
1570266862.47276
1570266862.48838
1570266862.50401
1570266862.51964
1570266862.53526
1570266862.55089
1570266862.56651
1570266862.58214
1570266862.59776
1570266862.61339
1570266862.62902
1570266862.64464
1570266862.66027
1570266862.67589
1570266862.69152
1570266862.70714
1570266862.72277
1570266862.7384
1570266862.75402
1570266862.76965
1570266862.78527
1570266862.8009
1570266862.81652
1570266862.83215
1570266862.84778
1570266862.8634
1570266862.87903
1570266862.89465
1570266862.91028
1570266862.9259
1570266862.94153
1570266862.95716
1570266862.97278
1570266862.98841
1570266863.00403
1570266863.01966
1570266863.03529
1570266863.05091
1570266863.06654
1570266863.08216
1570266863.09779
1570266863.11341
1570266863.12904
1570266863.14467
1570266863.16029
1570266863.17592
1570266863.19154
1570266863.20717
1570266863.22279
1570266863.23842
1570266863.25405
1570266863.26967
1570266863.2853
1570266863.30092
1570266863.31655
1570266863.33217
1570266863.3478
1570266863.36343
1570266863.37905
1570266863.39468
1570266863.4103
1570266863.42593
1570266863.44155
1570266863.45718
1570266863.47281
1570266863.48843
1570266863.50406
1570266863.51968
1570266863.53531
1570266863.55093
1570266863.56656
1570266863.58219
1570266863.59781
1570266863.61344
1570266863.62906
1570266863.64469
1570266863.66031
1570266863.67594
1570266863.69157
1570266863.70719
1570266863.72282
1570266863.73844
1570266863.75407
1570266863.76969
1570266863.78532
1570266863.80095
1570266863.81657
1570266863.8322
1570266863.84782
1570266863.86345
1570266863.87907
1570266863.8947
1570266863.91033
1570266863.92595
1570266863.94158
1570266863.9572
1570266863.97283
1570266863.98845
1570266864.00408
1570266864.01971
1570266864.03533
1570266864.05096
1570266864.06658
1570266864.08221
1570266864.09783
1570266864.11346
1570266864.12909
1570266864.14471
1570266864.16034
1570266864.17596
1570266864.19159
1570266864.20721
1570266864.22284
1570266864.23847
1570266864.25409
1570266864.26972
1570266864.28534
1570266864.30097
1570266864.31659
1570266864.33222
1570266864.34785
1570266864.36347
1570266864.3791
1570266864.39472
1570266864.41035
1570266864.42597
1570266864.4416
1570266864.45723
1570266864.47285
1570266864.48848
1570266864.5041
1570266864.51973
1570266864.53535
1570266864.55098
1570266864.56661
1570266864.58223
1570266864.59786
1570266864.61348
1570266864.62911
1570266864.64473
1570266864.66036
1570266864.67599
1570266864.69161
1570266864.70724
1570266864.72286
1570266864.73849
1570266864.75411
1570266864.76974
1570266864.78537
1570266864.80099
1570266864.81662
1570266864.83224
1570266864.84787
1570266864.86349
1570266864.87912
1570266864.89475
1570266864.91037
1570266864.926
1570266864.94162
1570266864.95725
1570266864.97287
1570266864.9885
1570266865.00413
1570266865.01975
1570266865.03538
1570266865.051
1570266865.06663
1570266865.08225
1570266865.09788
1570266865.11351
1570266865.12913
1570266865.14476
1570266865.16038
1570266865.17601
1570266865.19163
1570266865.20726
1570266865.22289
1570266865.23851
1570266865.25414
1570266865.26976
1570266865.28539
1570266865.30101
1570266865.31664
1570266865.33227
1570266865.34789
1570266865.36352
1570266865.37914
1570266865.39477
1570266865.41039
1570266865.42602
1570266865.44165
1570266865.45727
1570266865.4729
1570266865.48852
1570266865.50415
1570266865.51977
1570266865.5354
1570266865.55103
1570266865.56665
1570266865.58228
1570266865.5979
1570266865.61353
1570266865.62916
1570266865.64478
1570266865.66041
1570266865.67603
1570266865.69166
1570266865.70728
1570266865.72291
1570266865.73854
1570266865.75416
1570266865.76979
1570266865.78541
1570266865.80104
1570266865.81666
1570266865.83229
1570266865.84792
1570266865.86354
1570266865.87917
1570266865.89479
1570266865.91042
1570266865.92604
1570266865.94167
1570266865.9573
1570266865.97292
1570266865.98855
1570266866.00417
1570266866.0198
1570266866.03542
1570266866.05105
1570266866.06668
1570266866.0823
1570266866.09793
1570266866.11355
1570266866.12918
1570266866.1448
1570266866.16043
1570266866.17606
1570266866.19168
1570266866.20731
1570266866.22293
1570266866.23856
1570266866.25418
1570266866.26981
1570266866.28544
1570266866.30106
1570266866.31669
1570266866.33231
1570266866.34794
1570266866.36356
1570266866.37919
1570266866.39482
1570266866.41044
1570266866.42607
1570266866.44169
1570266866.45732
1570266866.47294
1570266866.48857
1570266866.5042
1570266866.51982
1570266866.53545
1570266866.55107
1570266866.5667
1570266866.58232
1570266866.59795
1570266866.61358
1570266866.6292
1570266866.64483
1570266866.66045
1570266866.67608
1570266866.6917
1570266866.70733
1570266866.72296
1570266866.73858
1570266866.75421
1570266866.76983
1570266866.78546
1570266866.80108
1570266866.81671
1570266866.83234
1570266866.84796
1570266866.86359
1570266866.87921
1570266866.89484
1570266866.91046
1570266866.92609
1570266866.94172
1570266866.95734
1570266866.97297
1570266866.98859
1570266867.00422
1570266867.01984
1570266867.03547
1570266867.0511
1570266867.06672
1570266867.08235
1570266867.09797
1570266867.1136
1570266867.12922
1570266867.14485
1570266867.16048
1570266867.1761
1570266867.19173
1570266867.20735
1570266867.22298
1570266867.2386
1570266867.25423
1570266867.26986
1570266867.28548
1570266867.30111
1570266867.31673
1570266867.33236
1570266867.34798
1570266867.36361
1570266867.37924
1570266867.39486
1570266867.41049
1570266867.42611
1570266867.44174
1570266867.45736
1570266867.47299
1570266867.48862
1570266867.50424
1570266867.51987
1570266867.53549
1570266867.55112
1570266867.56674
1570266867.58237
1570266867.598
1570266867.61362
1570266867.62925
1570266867.64487
1570266867.6605
1570266867.67612
1570266867.69175
1570266867.70738
1570266867.723
1570266867.73863
1570266867.75425
1570266867.76988
1570266867.7855
1570266867.80113
1570266867.81676
1570266867.83238
1570266867.84801
1570266867.86363
1570266867.87926
1570266867.89489
1570266867.91051
1570266867.92614
1570266867.94176
1570266867.95739
1570266867.97301
1570266867.98864
1570266868.00427
1570266868.01989
1570266868.03552
1570266868.05114
1570266868.06677
1570266868.08239
1570266868.09802
1570266868.11365
1570266868.12927
1570266868.1449
1570266868.16052
1570266868.17615
1570266868.19177
1570266868.2074
1570266868.22303
1570266868.23865
1570266868.25428
1570266868.2699
1570266868.28553
1570266868.30115
1570266868.31678
1570266868.33241
1570266868.34803
1570266868.36366
1570266868.37928
1570266868.39491
1570266868.41053
1570266868.42616
1570266868.44179
1570266868.45741
1570266868.47304
1570266868.48866
1570266868.50429
1570266868.51991
1570266868.53554
1570266868.55117
1570266868.56679
1570266868.58242
1570266868.59804
1570266868.61367
1570266868.62929
1570266868.64492
1570266868.66055
1570266868.67617
1570266868.6918
1570266868.70742
1570266868.72305
1570266868.73867
1570266868.7543
1570266868.76993
1570266868.78555
1570266868.80118
1570266868.8168
1570266868.83243
1570266868.84805
1570266868.86368
1570266868.87931
1570266868.89493
1570266868.91056
1570266868.92618
1570266868.94181
1570266868.95743
1570266868.97306
1570266868.98869
1570266869.00431
1570266869.01994
1570266869.03556
1570266869.05119
1570266869.06681
1570266869.08244
1570266869.09807
1570266869.11369
1570266869.12932
1570266869.14494
1570266869.16057
1570266869.17619
1570266869.19182
1570266869.20745
1570266869.22307
1570266869.2387
1570266869.25432
1570266869.26995
1570266869.28557
1570266869.3012
1570266869.31683
1570266869.33245
1570266869.34808
1570266869.3637
1570266869.37933
1570266869.39495
1570266869.41058
1570266869.42621
1570266869.44183
1570266869.45746
1570266869.47308
1570266869.48871
1570266869.50433
1570266869.51996
1570266869.53559
1570266869.55121
1570266869.56684
1570266869.58246
1570266869.59809
1570266869.61371
1570266869.62934
1570266869.64497
1570266869.66059
1570266869.67622
1570266869.69184
1570266869.70747
1570266869.72309
1570266869.73872
1570266869.75435
1570266869.76997
1570266869.7856
1570266869.80122
1570266869.81685
1570266869.83247
1570266869.8481
1570266869.86373
1570266869.87935
1570266869.89498
1570266869.9106
1570266869.92623
1570266869.94185
1570266869.95748
1570266869.97311
1570266869.98873
1570266870.00436
1570266870.01998
1570266870.03561
1570266870.05123
1570266870.06686
1570266870.08249
1570266870.09811
1570266870.11374
1570266870.12936
1570266870.14499
1570266870.16061
1570266870.17624
1570266870.19187
1570266870.20749
1570266870.22312
1570266870.23874
1570266870.25437
1570266870.26999
1570266870.28562
1570266870.30125
1570266870.31687
1570266870.3325
1570266870.34812
1570266870.36375
1570266870.37937
1570266870.395
1570266870.41063
1570266870.42625
1570266870.44188
1570266870.4575
1570266870.47313
1570266870.48875
1570266870.50438
1570266870.52001
1570266870.53563
1570266870.55126
1570266870.56688
1570266870.58251
1570266870.59814
1570266870.61376
1570266870.62939
1570266870.64501
1570266870.66064
1570266870.67626
1570266870.69189
1570266870.70752
1570266870.72314
1570266870.73877
1570266870.75439
1570266870.77002
1570266870.78564
1570266870.80127
1570266870.8169
1570266870.83252
1570266870.84815
1570266870.86377
1570266870.8794
1570266870.89502
1570266870.91065
1570266870.92628
1570266870.9419
1570266870.95753
1570266870.97315
1570266870.98878
1570266871.0044
1570266871.02003
1570266871.03566
1570266871.05128
1570266871.06691
1570266871.08253
1570266871.09816
1570266871.11378
1570266871.12941
1570266871.14504
1570266871.16066
1570266871.17629
1570266871.19191
1570266871.20754
1570266871.22316
1570266871.23879
1570266871.25442
1570266871.27004
1570266871.28567
1570266871.30129
1570266871.31692
1570266871.33254
1570266871.34817
1570266871.3638
1570266871.37942
1570266871.39505
1570266871.41067
1570266871.4263
1570266871.44192
1570266871.45755
1570266871.47318
1570266871.4888
1570266871.50443
1570266871.52005
1570266871.53568
1570266871.5513
1570266871.56693
1570266871.58256
1570266871.59818
1570266871.61381
1570266871.62943
1570266871.64506
1570266871.66068
1570266871.67631
1570266871.69194
1570266871.70756
1570266871.72319
1570266871.73881
1570266871.75444
1570266871.77006
1570266871.78569
1570266871.80132
1570266871.81694
1570266871.83257
1570266871.84819
1570266871.86382
1570266871.87944
1570266871.89507
1570266871.9107
1570266871.92632
1570266871.94195
1570266871.95757
1570266871.9732
1570266871.98882
1570266872.00445
1570266872.02008
1570266872.0357
1570266872.05133
1570266872.06695
1570266872.08258
1570266872.0982
1570266872.11383
1570266872.12946
1570266872.14508
1570266872.16071
1570266872.17633
1570266872.19196
1570266872.20758
1570266872.22321
1570266872.23884
1570266872.25446
1570266872.27009
1570266872.28571
1570266872.30134
1570266872.31696
1570266872.33259
1570266872.34822
1570266872.36384
1570266872.37947
1570266872.39509
1570266872.41072
1570266872.42634
1570266872.44197
1570266872.4576
1570266872.47322
1570266872.48885
1570266872.50447
1570266872.5201
1570266872.53572
1570266872.55135
1570266872.56698
1570266872.5826
1570266872.59823
1570266872.61385
1570266872.62948
1570266872.6451
1570266872.66073
1570266872.67636
1570266872.69198
1570266872.70761
1570266872.72323
1570266872.73886
1570266872.75449
1570266872.77011
1570266872.78574
1570266872.80136
1570266872.81699
1570266872.83261
1570266872.84824
1570266872.86387
1570266872.87949
1570266872.89512
1570266872.91074
1570266872.92637
1570266872.94199
1570266872.95762
1570266872.97325
1570266872.98887
1570266873.0045
1570266873.02012
1570266873.03575
1570266873.05137
1570266873.067
1570266873.08263
1570266873.09825
1570266873.11388
1570266873.1295
1570266873.14513
1570266873.16075
1570266873.17638
1570266873.19201
1570266873.20763
1570266873.22326
1570266873.23888
1570266873.25451
1570266873.27013
1570266873.28576
1570266873.30139
1570266873.31701
1570266873.33264
1570266873.34826
1570266873.36389
1570266873.37951
1570266873.39514
1570266873.41077
1570266873.42639
1570266873.44202
1570266873.45764
1570266873.47327
1570266873.48889
1570266873.50452
1570266873.52015
1570266873.53577
1570266873.5514
1570266873.56702
1570266873.58265
1570266873.59827
1570266873.6139
1570266873.62953
1570266873.64515
1570266873.66078
1570266873.6764
1570266873.69203
1570266873.70765
1570266873.72328
1570266873.73891
1570266873.75453
1570266873.77016
1570266873.78578
1570266873.80141
1570266873.81703
1570266873.83266
1570266873.84829
1570266873.86391
1570266873.87954
1570266873.89516
1570266873.91079
1570266873.92641
1570266873.94204
1570266873.95767
1570266873.97329
1570266873.98892
1570266874.00454
1570266874.02017
1570266874.03579
1570266874.05142
1570266874.06705
1570266874.08267
1570266874.0983
1570266874.11392
1570266874.12955
1570266874.14517
1570266874.1608
1570266874.17643
1570266874.19205
1570266874.20768
1570266874.2233
1570266874.23893
1570266874.25455
1570266874.27018
1570266874.28581
1570266874.30143
1570266874.31706
1570266874.33268
1570266874.34831
1570266874.36393
1570266874.37956
1570266874.39519
1570266874.41081
1570266874.42644
1570266874.44206
1570266874.45769
1570266874.47331
1570266874.48894
1570266874.50457
1570266874.52019
1570266874.53582
1570266874.55144
1570266874.56707
1570266874.58269
1570266874.59832
1570266874.61395
1570266874.62957
1570266874.6452
1570266874.66082
1570266874.67645
1570266874.69207
1570266874.7077
1570266874.72333
1570266874.73895
1570266874.75458
1570266874.7702
1570266874.78583
1570266874.80145
1570266874.81708
1570266874.83271
1570266874.84833
1570266874.86396
1570266874.87958
1570266874.89521
1570266874.91083
1570266874.92646
1570266874.94209
1570266874.95771
1570266874.97334
1570266874.98896
1570266875.00459
1570266875.02022
1570266875.03584
1570266875.05147
1570266875.06709
1570266875.08272
1570266875.09834
1570266875.11397
1570266875.1296
1570266875.14522
1570266875.16085
1570266875.17647
1570266875.1921
1570266875.20772
1570266875.22335
1570266875.23898
1570266875.2546
1570266875.27023
1570266875.28585
1570266875.30148
1570266875.3171
1570266875.33273
1570266875.34836
1570266875.36398
1570266875.37961
1570266875.39523
1570266875.41086
1570266875.42648
1570266875.44211
1570266875.45774
1570266875.47336
1570266875.48899
1570266875.50461
1570266875.52024
1570266875.53586
1570266875.55149
1570266875.56712
1570266875.58274
1570266875.59837
1570266875.61399
1570266875.62962
1570266875.64524
1570266875.66087
1570266875.6765
1570266875.69212
1570266875.70775
1570266875.72337
1570266875.739
1570266875.75462
1570266875.77025
1570266875.78588
1570266875.8015
1570266875.81713
1570266875.83275
1570266875.84838
1570266875.864
1570266875.87963
1570266875.89526
1570266875.91088
1570266875.92651
1570266875.94213
1570266875.95776
1570266875.97338
1570266875.98901
1570266876.00464
1570266876.02026
1570266876.03589
1570266876.05151
1570266876.06714
1570266876.08276
1570266876.09839
1570266876.11402
1570266876.12964
1570266876.14527
1570266876.16089
1570266876.17652
1570266876.19214
1570266876.20777
1570266876.2234
1570266876.23902
1570266876.25465
1570266876.27027
1570266876.2859
1570266876.30152
1570266876.31715
1570266876.33278
1570266876.3484
1570266876.36403
1570266876.37965
1570266876.39528
1570266876.4109
1570266876.42653
1570266876.44216
1570266876.45778
1570266876.47341
1570266876.48903
1570266876.50466
1570266876.52028
1570266876.53591
1570266876.55154
1570266876.56716
1570266876.58279
1570266876.59841
1570266876.61404
1570266876.62966
1570266876.64529
1570266876.66092
1570266876.67654
1570266876.69217
1570266876.70779
1570266876.72342
1570266876.73904
1570266876.75467
1570266876.7703
1570266876.78592
1570266876.80155
1570266876.81717
1570266876.8328
1570266876.84842
1570266876.86405
1570266876.87968
1570266876.8953
1570266876.91093
1570266876.92655
1570266876.94218
1570266876.9578
1570266876.97343
1570266876.98906
1570266877.00468
1570266877.02031
1570266877.03593
1570266877.05156
1570266877.06718
1570266877.08281
1570266877.09844
1570266877.11406
1570266877.12969
1570266877.14531
1570266877.16094
1570266877.17656
1570266877.19219
1570266877.20782
1570266877.22344
1570266877.23907
1570266877.25469
1570266877.27032
1570266877.28594
1570266877.30157
1570266877.3172
1570266877.33282
1570266877.34845
1570266877.36407
1570266877.3797
1570266877.39532
1570266877.41095
1570266877.42658
1570266877.4422
1570266877.45783
1570266877.47345
1570266877.48908
1570266877.5047
1570266877.52033
1570266877.53596
1570266877.55158
1570266877.56721
1570266877.58283
1570266877.59846
1570266877.61409
1570266877.62971
1570266877.64534
1570266877.66096
1570266877.67659
1570266877.69221
1570266877.70784
1570266877.72347
1570266877.73909
1570266877.75472
1570266877.77034
1570266877.78597
1570266877.80159
1570266877.81722
1570266877.83285
1570266877.84847
1570266877.8641
1570266877.87972
1570266877.89535
1570266877.91097
1570266877.9266
1570266877.94223
1570266877.95785
1570266877.97348
1570266877.9891
1570266878.00473
1570266878.02035
1570266878.03598
1570266878.05161
1570266878.06723
1570266878.08286
1570266878.09848
1570266878.11411
1570266878.12973
1570266878.14536
1570266878.16099
1570266878.17661
1570266878.19224
1570266878.20786
1570266878.22349
1570266878.23911
1570266878.25474
1570266878.27037
1570266878.28599
1570266878.30162
1570266878.31724
1570266878.33287
1570266878.34849
1570266878.36412
1570266878.37975
1570266878.39537
1570266878.411
1570266878.42662
1570266878.44225
1570266878.45787
1570266878.4735
1570266878.48913
1570266878.50475
1570266878.52038
1570266878.536
1570266878.55163
1570266878.56725
1570266878.58288
1570266878.59851
1570266878.61413
1570266878.62976
1570266878.64538
1570266878.66101
1570266878.67663
1570266878.69226
1570266878.70789
1570266878.72351
1570266878.73914
1570266878.75476
1570266878.77039
1570266878.78601
1570266878.80164
1570266878.81727
1570266878.83289
1570266878.84852
1570266878.86414
1570266878.87977
1570266878.89539
1570266878.91102
1570266878.92665
1570266878.94227
1570266878.9579
1570266878.97352
1570266878.98915
1570266879.00477
1570266879.0204
1570266879.03603
1570266879.05165
1570266879.06728
1570266879.0829
1570266879.09853
1570266879.11415
1570266879.12978
1570266879.14541
1570266879.16103
1570266879.17666
1570266879.19228
1570266879.20791
1570266879.22353
1570266879.23916
1570266879.25479
1570266879.27041
1570266879.28604
1570266879.30166
1570266879.31729
1570266879.33291
1570266879.34854
1570266879.36417
1570266879.37979
1570266879.39542
1570266879.41104
1570266879.42667
1570266879.44229
1570266879.45792
1570266879.47355
1570266879.48917
1570266879.5048
1570266879.52042
1570266879.53605
1570266879.55167
1570266879.5673
1570266879.58293
1570266879.59855
1570266879.61418
1570266879.6298
1570266879.64543
1570266879.66105
1570266879.67668
1570266879.69231
1570266879.70793
1570266879.72356
1570266879.73918
1570266879.75481
1570266879.77043
1570266879.78606
1570266879.80169
1570266879.81731
1570266879.83294
1570266879.84856
1570266879.86419
1570266879.87982
1570266879.89544
1570266879.91107
1570266879.92669
1570266879.94232
1570266879.95794
1570266879.97357
1570266879.9892
1570266880.00482
1570266880.02045
1570266880.03607
1570266880.0517
1570266880.06732
1570266880.08295
1570266880.09858
1570266880.1142
1570266880.12983
1570266880.14545
1570266880.16108
1570266880.1767
1570266880.19233
1570266880.20796
1570266880.22358
1570266880.23921
1570266880.25483
1570266880.27046
1570266880.28608
1570266880.30171
1570266880.31734
1570266880.33296
1570266880.34859
1570266880.36421
1570266880.37984
1570266880.39546
1570266880.41109
1570266880.42672
1570266880.44234
1570266880.45797
1570266880.47359
1570266880.48922
1570266880.50484
1570266880.52047
1570266880.5361
1570266880.55172
1570266880.56735
1570266880.58297
1570266880.5986
1570266880.61422
1570266880.62985
1570266880.64548
1570266880.6611
1570266880.67673
1570266880.69235
1570266880.70798
1570266880.7236
1570266880.73923
1570266880.75486
1570266880.77048
1570266880.78611
1570266880.80173
1570266880.81736
1570266880.83298
1570266880.84861
1570266880.86424
1570266880.87986
1570266880.89549
1570266880.91111
1570266880.92674
1570266880.94236
1570266880.95799
1570266880.97362
1570266880.98924
1570266881.00487
1570266881.02049
1570266881.03612
1570266881.05174
1570266881.06737
1570266881.083
1570266881.09862
1570266881.11425
1570266881.12987
1570266881.1455
1570266881.16112
1570266881.17675
1570266881.19238
1570266881.208
1570266881.22363
1570266881.23925
1570266881.25488
1570266881.2705
1570266881.28613
1570266881.30176
1570266881.31738
1570266881.33301
1570266881.34863
1570266881.36426
1570266881.37988
1570266881.39551
1570266881.41114
1570266881.42676
1570266881.44239
1570266881.45801
1570266881.47364
1570266881.48926
1570266881.50489
1570266881.52052
1570266881.53614
1570266881.55177
1570266881.56739
1570266881.58302
1570266881.59864
1570266881.61427
1570266881.6299
1570266881.64552
1570266881.66115
1570266881.67677
1570266881.6924
1570266881.70802
1570266881.72365
1570266881.73928
1570266881.7549
1570266881.77053
1570266881.78615
1570266881.80178
1570266881.8174
1570266881.83303
1570266881.84866
1570266881.86428
1570266881.87991
1570266881.89553
1570266881.91116
1570266881.92678
1570266881.94241
1570266881.95804
1570266881.97366
1570266881.98929
1570266882.00491
1570266882.02054
1570266882.03617
1570266882.05179
1570266882.06742
1570266882.08304
1570266882.09867
1570266882.11429
1570266882.12992
1570266882.14555
1570266882.16117
1570266882.1768
1570266882.19242
1570266882.20805
1570266882.22367
1570266882.2393
1570266882.25493
1570266882.27055
1570266882.28618
1570266882.3018
1570266882.31743
1570266882.33305
1570266882.34868
1570266882.36431
1570266882.37993
1570266882.39556
1570266882.41118
1570266882.42681
1570266882.44243
1570266882.45806
1570266882.47369
1570266882.48931
1570266882.50494
1570266882.52056
1570266882.53619
1570266882.55181
1570266882.56744
1570266882.58307
1570266882.59869
1570266882.61432
1570266882.62994
1570266882.64557
1570266882.66119
1570266882.67682
1570266882.69245
1570266882.70807
1570266882.7237
1570266882.73932
1570266882.75495
1570266882.77057
1570266882.7862
1570266882.80183
1570266882.81745
1570266882.83308
1570266882.8487
1570266882.86433
1570266882.87995
1570266882.89558
1570266882.91121
1570266882.92683
1570266882.94246
1570266882.95808
1570266882.97371
1570266882.98933
1570266883.00496
1570266883.02059
1570266883.03621
1570266883.05184
1570266883.06746
1570266883.08309
1570266883.09871
1570266883.11434
1570266883.12997
1570266883.14559
1570266883.16122
1570266883.17684
1570266883.19247
1570266883.20809
1570266883.22372
1570266883.23935
1570266883.25497
1570266883.2706
1570266883.28622
1570266883.30185
1570266883.31747
1570266883.3331
1570266883.34873
1570266883.36435
1570266883.37998
1570266883.3956
1570266883.41123
1570266883.42685
1570266883.44248
1570266883.45811
1570266883.47373
1570266883.48936
1570266883.50498
1570266883.52061
1570266883.53623
1570266883.55186
1570266883.56749
1570266883.58311
1570266883.59874
1570266883.61436
1570266883.62999
1570266883.64561
1570266883.66124
1570266883.67687
1570266883.69249
1570266883.70812
1570266883.72374
1570266883.73937
1570266883.75499
1570266883.77062
1570266883.78625
1570266883.80187
1570266883.8175
1570266883.83312
1570266883.84875
1570266883.86437
1570266883.88
1570266883.89563
1570266883.91125
1570266883.92688
1570266883.9425
1570266883.95813
1570266883.97375
1570266883.98938
1570266884.00501
1570266884.02063
1570266884.03626
1570266884.05188
1570266884.06751
1570266884.08313
1570266884.09876
1570266884.11439
1570266884.13001
1570266884.14564
1570266884.16126
1570266884.17689
1570266884.19251
1570266884.20814
1570266884.22377
1570266884.23939
1570266884.25502
1570266884.27064
1570266884.28627
1570266884.30189
1570266884.31752
1570266884.33315
1570266884.34877
1570266884.3644
1570266884.38002
1570266884.39565
1570266884.41127
1570266884.4269
1570266884.44253
1570266884.45815
1570266884.47378
1570266884.4894
1570266884.50503
1570266884.52065
1570266884.53628
1570266884.55191
1570266884.56753
1570266884.58316
1570266884.59878
1570266884.61441
1570266884.63003
1570266884.64566
1570266884.66129
1570266884.67691
1570266884.69254
1570266884.70816
1570266884.72379
1570266884.73942
1570266884.75504
1570266884.77067
1570266884.78629
1570266884.80192
1570266884.81754
1570266884.83317
1570266884.8488
1570266884.86442
1570266884.88005
1570266884.89567
1570266884.9113
1570266884.92692
1570266884.94255
1570266884.95818
1570266884.9738
1570266884.98943
1570266885.00505
1570266885.02068
1570266885.0363
1570266885.05193
1570266885.06756
1570266885.08318
1570266885.09881
1570266885.11443
1570266885.13006
1570266885.14568
1570266885.16131
1570266885.17694
1570266885.19256
1570266885.20819
1570266885.22381
1570266885.23944
1570266885.25506
1570266885.27069
1570266885.28632
1570266885.30194
1570266885.31757
1570266885.33319
1570266885.34882
1570266885.36444
1570266885.38007
1570266885.3957
1570266885.41132
1570266885.42695
1570266885.44257
1570266885.4582
1570266885.47382
1570266885.48945
1570266885.50508
1570266885.5207
1570266885.53633
1570266885.55195
1570266885.56758
1570266885.5832
1570266885.59883
1570266885.61446
1570266885.63008
1570266885.64571
1570266885.66133
1570266885.67696
1570266885.69258
1570266885.70821
1570266885.72384
1570266885.73946
1570266885.75509
1570266885.77071
1570266885.78634
1570266885.80196
1570266885.81759
1570266885.83322
1570266885.84884
1570266885.86447
1570266885.88009
1570266885.89572
1570266885.91134
1570266885.92697
1570266885.9426
1570266885.95822
1570266885.97385
1570266885.98947
1570266886.0051
1570266886.02072
1570266886.03635
1570266886.05198
1570266886.0676
1570266886.08323
1570266886.09885
1570266886.11448
1570266886.1301
1570266886.14573
1570266886.16136
1570266886.17698
1570266886.19261
1570266886.20823
1570266886.22386
1570266886.23948
1570266886.25511
1570266886.27074
1570266886.28636
1570266886.30199
1570266886.31761
1570266886.33324
1570266886.34886
1570266886.36449
1570266886.38012
1570266886.39574
1570266886.41137
1570266886.42699
1570266886.44262
1570266886.45824
1570266886.47387
1570266886.4895
1570266886.50512
1570266886.52075
1570266886.53637
1570266886.552
1570266886.56762
1570266886.58325
1570266886.59888
1570266886.6145
1570266886.63013
1570266886.64575
1570266886.66138
1570266886.677
1570266886.69263
1570266886.70826
1570266886.72388
1570266886.73951
1570266886.75513
1570266886.77076
1570266886.78638
1570266886.80201
1570266886.81764
1570266886.83326
1570266886.84889
1570266886.86451
1570266886.88014
1570266886.89577
1570266886.91139
1570266886.92702
1570266886.94264
1570266886.95827
1570266886.97389
1570266886.98952
1570266887.00515
1570266887.02077
1570266887.0364
1570266887.05202
1570266887.06765
1570266887.08327
1570266887.0989
1570266887.11453
1570266887.13015
1570266887.14578
1570266887.1614
1570266887.17703
1570266887.19265
1570266887.20828
1570266887.22391
1570266887.23953
1570266887.25516
1570266887.27078
1570266887.28641
1570266887.30203
1570266887.31766
1570266887.33329
1570266887.34891
1570266887.36454
1570266887.38016
1570266887.39579
1570266887.41141
1570266887.42704
1570266887.44267
1570266887.45829
1570266887.47392
1570266887.48954
1570266887.50517
1570266887.52079
1570266887.53642
1570266887.55205
1570266887.56767
1570266887.5833
1570266887.59892
1570266887.61455
1570266887.63017
1570266887.6458
1570266887.66143
1570266887.67705
1570266887.69268
1570266887.7083
1570266887.72393
1570266887.73955
1570266887.75518
1570266887.77081
1570266887.78643
1570266887.80206
1570266887.81768
1570266887.83331
1570266887.84893
1570266887.86456
1570266887.88019
1570266887.89581
1570266887.91144
1570266887.92706
1570266887.94269
1570266887.95831
1570266887.97394
1570266887.98957
1570266888.00519
1570266888.02082
1570266888.03644
1570266888.05207
1570266888.06769
1570266888.08332
1570266888.09895
1570266888.11457
1570266888.1302
1570266888.14582
1570266888.16145
1570266888.17707
1570266888.1927
1570266888.20833
1570266888.22395
1570266888.23958
1570266888.2552
1570266888.27083
1570266888.28645
1570266888.30208
1570266888.31771
1570266888.33333
1570266888.34896
1570266888.36458
1570266888.38021
1570266888.39583
1570266888.41146
1570266888.42709
1570266888.44271
1570266888.45834
1570266888.47396
1570266888.48959
1570266888.50521
1570266888.52084
1570266888.53647
1570266888.55209
1570266888.56772
1570266888.58334
1570266888.59897
1570266888.61459
1570266888.63022
1570266888.64585
1570266888.66147
1570266888.6771
1570266888.69272
1570266888.70835
1570266888.72397
1570266888.7396
1570266888.75523
1570266888.77085
1570266888.78648
1570266888.8021
1570266888.81773
1570266888.83335
1570266888.84898
1570266888.86461
1570266888.88023
1570266888.89586
1570266888.91148
1570266888.92711
1570266888.94273
1570266888.95836
1570266888.97399
1570266888.98961
1570266889.00524
1570266889.02086
1570266889.03649
1570266889.05211
1570266889.06774
1570266889.08337
1570266889.09899
1570266889.11462
1570266889.13024
1570266889.14587
1570266889.16149
1570266889.17712
1570266889.19275
1570266889.20837
1570266889.224
1570266889.23962
1570266889.25525
1570266889.27087
1570266889.2865
1570266889.30213
1570266889.31775
1570266889.33338
1570266889.349
1570266889.36463
1570266889.38025
1570266889.39588
1570266889.41151
1570266889.42713
1570266889.44276
1570266889.45838
1570266889.47401
1570266889.48963
1570266889.50526
1570266889.52089
1570266889.53651
1570266889.55214
1570266889.56776
1570266889.58339
1570266889.59902
1570266889.61464
1570266889.63027
1570266889.64589
1570266889.66152
1570266889.67714
1570266889.69277
1570266889.7084
1570266889.72402
1570266889.73965
1570266889.75527
1570266889.7709
1570266889.78652
1570266889.80215
1570266889.81778
1570266889.8334
1570266889.84903
1570266889.86465
1570266889.88028
1570266889.8959
1570266889.91153
1570266889.92716
1570266889.94278
1570266889.95841
1570266889.97403
1570266889.98966
1570266890.00528
1570266890.02091
1570266890.03654
1570266890.05216
1570266890.06779
1570266890.08341
1570266890.09904
1570266890.11466
1570266890.13029
1570266890.14592
1570266890.16154
1570266890.17717
1570266890.19279
1570266890.20842
1570266890.22404
1570266890.23967
1570266890.2553
1570266890.27092
1570266890.28655
1570266890.30217
1570266890.3178
1570266890.33342
1570266890.34905
1570266890.36468
1570266890.3803
1570266890.39593
1570266890.41155
1570266890.42718
1570266890.4428
1570266890.45843
1570266890.47406
1570266890.48968
1570266890.50531
1570266890.52093
1570266890.53656
1570266890.55218
1570266890.56781
1570266890.58344
1570266890.59906
1570266890.61469
1570266890.63031
1570266890.64594
1570266890.66156
1570266890.67719
1570266890.69282
1570266890.70844
1570266890.72407
1570266890.73969
1570266890.75532
1570266890.77094
1570266890.78657
1570266890.8022
1570266890.81782
1570266890.83345
1570266890.84907
1570266890.8647
1570266890.88032
1570266890.89595
1570266890.91158
1570266890.9272
1570266890.94283
1570266890.95845
1570266890.97408
1570266890.9897
1570266891.00533
1570266891.02096
1570266891.03658
1570266891.05221
1570266891.06783
1570266891.08346
1570266891.09908
1570266891.11471
1570266891.13034
1570266891.14596
1570266891.16159
1570266891.17721
1570266891.19284
1570266891.20846
1570266891.22409
1570266891.23972
1570266891.25534
1570266891.27097
1570266891.28659
1570266891.30222
1570266891.31784
1570266891.33347
1570266891.3491
1570266891.36472
1570266891.38035
1570266891.39597
1570266891.4116
1570266891.42722
1570266891.44285
1570266891.45848
1570266891.4741
1570266891.48973
1570266891.50535
1570266891.52098
1570266891.5366
1570266891.55223
1570266891.56786
1570266891.58348
1570266891.59911
1570266891.61473
1570266891.63036
1570266891.64598
1570266891.66161
1570266891.67724
1570266891.69286
1570266891.70849
1570266891.72411
1570266891.73974
1570266891.75537
1570266891.77099
1570266891.78662
1570266891.80224
1570266891.81787
1570266891.83349
1570266891.84912
1570266891.86475
1570266891.88037
1570266891.896
1570266891.91162
1570266891.92725
1570266891.94287
1570266891.9585
1570266891.97413
1570266891.98975
1570266892.00538
1570266892.021
1570266892.03663
1570266892.05225
1570266892.06788
1570266892.08351
1570266892.09913
1570266892.11476
1570266892.13038
1570266892.14601
1570266892.16163
1570266892.17726
1570266892.19289
1570266892.20851
1570266892.22414
1570266892.23976
1570266892.25539
1570266892.27101
1570266892.28664
1570266892.30227
1570266892.31789
1570266892.33352
1570266892.34914
1570266892.36477
1570266892.38039
1570266892.39602
1570266892.41165
1570266892.42727
1570266892.4429
1570266892.45852
1570266892.47415
1570266892.48977
1570266892.5054
1570266892.52103
1570266892.53665
1570266892.55228
1570266892.5679
1570266892.58353
1570266892.59915
1570266892.61478
1570266892.63041
1570266892.64603
1570266892.66166
1570266892.67728
1570266892.69291
1570266892.70853
1570266892.72416
1570266892.73979
1570266892.75541
1570266892.77104
1570266892.78666
1570266892.80229
1570266892.81791
1570266892.83354
1570266892.84917
1570266892.86479
1570266892.88042
1570266892.89604
1570266892.91167
1570266892.92729
1570266892.94292
1570266892.95855
1570266892.97417
1570266892.9898
1570266893.00542
1570266893.02105
1570266893.03667
1570266893.0523
1570266893.06793
1570266893.08355
1570266893.09918
1570266893.1148
1570266893.13043
1570266893.14605
1570266893.16168
1570266893.17731
1570266893.19293
1570266893.20856
1570266893.22418
1570266893.23981
1570266893.25543
1570266893.27106
1570266893.28669
1570266893.30231
1570266893.31794
1570266893.33356
1570266893.34919
1570266893.36481
1570266893.38044
1570266893.39607
1570266893.41169
1570266893.42732
1570266893.44294
1570266893.45857
1570266893.47419
1570266893.48982
1570266893.50545
1570266893.52107
1570266893.5367
1570266893.55232
1570266893.56795
1570266893.58357
1570266893.5992
1570266893.61483
1570266893.63045
1570266893.64608
1570266893.6617
1570266893.67733
1570266893.69295
1570266893.70858
1570266893.72421
1570266893.73983
1570266893.75546
1570266893.77108
1570266893.78671
1570266893.80233
1570266893.81796
1570266893.83359
1570266893.84921
1570266893.86484
1570266893.88046
1570266893.89609
1570266893.91171
1570266893.92734
1570266893.94297
1570266893.95859
1570266893.97422
1570266893.98984
1570266894.00547
1570266894.0211
1570266894.03672
1570266894.05235
1570266894.06797
1570266894.0836
1570266894.09922
1570266894.11485
1570266894.13048
1570266894.1461
1570266894.16173
1570266894.17735
1570266894.19298
1570266894.2086
1570266894.22423
1570266894.23986
1570266894.25548
1570266894.27111
1570266894.28673
1570266894.30236
1570266894.31798
1570266894.33361
1570266894.34924
1570266894.36486
1570266894.38049
1570266894.39611
1570266894.41174
1570266894.42736
1570266894.44299
1570266894.45862
1570266894.47424
1570266894.48987
1570266894.50549
1570266894.52112
1570266894.53674
1570266894.55237
1570266894.568
1570266894.58362
1570266894.59925
1570266894.61487
1570266894.6305
1570266894.64612
1570266894.66175
1570266894.67738
1570266894.693
1570266894.70863
1570266894.72425
1570266894.73988
1570266894.7555
1570266894.77113
1570266894.78676
1570266894.80238
1570266894.81801
1570266894.83363
1570266894.84926
1570266894.86488
1570266894.88051
1570266894.89614
1570266894.91176
1570266894.92739
1570266894.94301
1570266894.95864
1570266894.97426
1570266894.98989
1570266895.00552
1570266895.02114
1570266895.03677
1570266895.05239
1570266895.06802
1570266895.08364
1570266895.09927
1570266895.1149
1570266895.13052
1570266895.14615
1570266895.16177
1570266895.1774
1570266895.19302
1570266895.20865
1570266895.22428
1570266895.2399
1570266895.25553
1570266895.27115
1570266895.28678
1570266895.3024
1570266895.31803
1570266895.33366
1570266895.34928
1570266895.36491
1570266895.38053
1570266895.39616
1570266895.41178
1570266895.42741
1570266895.44304
1570266895.45866
1570266895.47429
1570266895.48991
1570266895.50554
1570266895.52116
1570266895.53679
1570266895.55242
1570266895.56804
1570266895.58367
1570266895.59929
1570266895.61492
1570266895.63054
1570266895.64617
1570266895.6618
1570266895.67742
1570266895.69305
1570266895.70867
1570266895.7243
1570266895.73992
1570266895.75555
1570266895.77118
1570266895.7868
1570266895.80243
1570266895.81805
1570266895.83368
1570266895.8493
1570266895.86493
1570266895.88056
1570266895.89618
1570266895.91181
1570266895.92743
1570266895.94306
1570266895.95868
1570266895.97431
1570266895.98994
1570266896.00556
1570266896.02119
1570266896.03681
1570266896.05244
1570266896.06806
1570266896.08369
1570266896.09932
1570266896.11494
1570266896.13057
1570266896.14619
1570266896.16182
1570266896.17744
1570266896.19307
1570266896.2087
1570266896.22432
1570266896.23995
1570266896.25557
1570266896.2712
1570266896.28682
1570266896.30245
1570266896.31808
1570266896.3337
1570266896.34933
1570266896.36495
1570266896.38058
1570266896.3962
1570266896.41183
1570266896.42746
1570266896.44308
1570266896.45871
1570266896.47433
1570266896.48996
1570266896.50558
1570266896.52121
1570266896.53684
1570266896.55246
1570266896.56809
1570266896.58371
1570266896.59934
1570266896.61496
1570266896.63059
1570266896.64622
1570266896.66184
1570266896.67747
1570266896.69309
1570266896.70872
1570266896.72435
1570266896.73997
1570266896.7556
1570266896.77122
1570266896.78685
1570266896.80247
1570266896.8181
1570266896.83373
1570266896.84935
1570266896.86498
1570266896.8806
1570266896.89623
1570266896.91185
1570266896.92748
1570266896.94311
1570266896.95873
1570266896.97436
1570266896.98998
1570266897.00561
1570266897.02123
1570266897.03686
1570266897.05249
1570266897.06811
1570266897.08374
1570266897.09936
1570266897.11499
1570266897.13061
1570266897.14624
1570266897.16187
1570266897.17749
1570266897.19312
1570266897.20874
1570266897.22437
1570266897.23999
1570266897.25562
1570266897.27125
1570266897.28687
1570266897.3025
1570266897.31812
1570266897.33375
1570266897.34937
1570266897.365
1570266897.38063
1570266897.39625
1570266897.41188
1570266897.4275
1570266897.44313
1570266897.45875
1570266897.47438
1570266897.49001
1570266897.50563
1570266897.52126
1570266897.53688
1570266897.55251
1570266897.56813
1570266897.58376
1570266897.59939
1570266897.61501
1570266897.63064
1570266897.64626
1570266897.66189
1570266897.67751
1570266897.69314
1570266897.70877
1570266897.72439
1570266897.74002
1570266897.75564
1570266897.77127
1570266897.78689
1570266897.80252
1570266897.81815
1570266897.83377
1570266897.8494
1570266897.86502
1570266897.88065
1570266897.89627
1570266897.9119
1570266897.92753
1570266897.94315
1570266897.95878
1570266897.9744
1570266897.99003
1570266898.00565
1570266898.02128
1570266898.03691
1570266898.05253
1570266898.06816
1570266898.08378
1570266898.09941
1570266898.11503
1570266898.13066
1570266898.14629
1570266898.16191
1570266898.17754
1570266898.19316
1570266898.20879
1570266898.22441
1570266898.24004
1570266898.25567
1570266898.27129
1570266898.28692
1570266898.30254
1570266898.31817
1570266898.33379
1570266898.34942
1570266898.36505
1570266898.38067
1570266898.3963
1570266898.41192
1570266898.42755
1570266898.44317
1570266898.4588
1570266898.47443
1570266898.49005
1570266898.50568
1570266898.5213
1570266898.53693
1570266898.55255
1570266898.56818
1570266898.58381
1570266898.59943
1570266898.61506
1570266898.63068
1570266898.64631
1570266898.66193
1570266898.67756
1570266898.69319
1570266898.70881
1570266898.72444
1570266898.74006
1570266898.75569
1570266898.77131
1570266898.78694
1570266898.80257
1570266898.81819
1570266898.83382
1570266898.84944
1570266898.86507
1570266898.8807
1570266898.89632
1570266898.91195
1570266898.92757
1570266898.9432
1570266898.95882
1570266898.97445
1570266898.99008
1570266899.0057
1570266899.02133
1570266899.03695
1570266899.05258
1570266899.0682
1570266899.08383
1570266899.09946
1570266899.11508
1570266899.13071
1570266899.14633
1570266899.16196
1570266899.17758
1570266899.19321
1570266899.20884
1570266899.22446
1570266899.24009
1570266899.25571
1570266899.27134
1570266899.28696
1570266899.30259
1570266899.31822
1570266899.33384
1570266899.34947
1570266899.36509
1570266899.38072
1570266899.39634
1570266899.41197
1570266899.4276
1570266899.44322
1570266899.45885
1570266899.47447
1570266899.4901
1570266899.50572
1570266899.52135
1570266899.53698
1570266899.5526
1570266899.56823
1570266899.58385
1570266899.59948
1570266899.6151
1570266899.63073
1570266899.64636
1570266899.66198
1570266899.67761
1570266899.69323
1570266899.70886
1570266899.72448
1570266899.74011
1570266899.75574
1570266899.77136
1570266899.78699
1570266899.80261
1570266899.81824
1570266899.83386
1570266899.84949
1570266899.86512
1570266899.88074
1570266899.89637
1570266899.91199
1570266899.92762
1570266899.94324
1570266899.95887
1570266899.9745
1570266899.99012
1570266900.00575
1570266900.02137
1570266900.037
1570266900.05262
1570266900.06825
1570266900.08388
1570266900.0995
1570266900.11513
1570266900.13075
1570266900.14638
1570266900.162
1570266900.17763
1570266900.19326
1570266900.20888
1570266900.22451
1570266900.24013
1570266900.25576
1570266900.27138
1570266900.28701
1570266900.30264
1570266900.31826
1570266900.33389
1570266900.34951
1570266900.36514
1570266900.38076
1570266900.39639
1570266900.41202
1570266900.42764
1570266900.44327
1570266900.45889
1570266900.47452
1570266900.49014
1570266900.50577
1570266900.5214
1570266900.53702
1570266900.55265
1570266900.56827
1570266900.5839
1570266900.59952
1570266900.61515
1570266900.63078
1570266900.6464
1570266900.66203
1570266900.67765
1570266900.69328
1570266900.7089
1570266900.72453
1570266900.74016
1570266900.75578
1570266900.77141
1570266900.78703
1570266900.80266
1570266900.81828
1570266900.83391
1570266900.84954
1570266900.86516
1570266900.88079
1570266900.89641
1570266900.91204
1570266900.92766
1570266900.94329
1570266900.95892
1570266900.97454
1570266900.99017
1570266901.00579
1570266901.02142
1570266901.03704
1570266901.05267
1570266901.0683
1570266901.08392
1570266901.09955
1570266901.11517
1570266901.1308
1570266901.14643
1570266901.16205
1570266901.17768
1570266901.1933
1570266901.20893
1570266901.22455
1570266901.24018
1570266901.25581
1570266901.27143
1570266901.28706
1570266901.30268
1570266901.31831
1570266901.33393
1570266901.34956
1570266901.36519
1570266901.38081
1570266901.39644
1570266901.41206
1570266901.42769
1570266901.44331
1570266901.45894
1570266901.47457
1570266901.49019
1570266901.50582
1570266901.52144
1570266901.53707
1570266901.55269
1570266901.56832
1570266901.58395
1570266901.59957
1570266901.6152
1570266901.63082
1570266901.64645
1570266901.66207
1570266901.6777
1570266901.69333
1570266901.70895
1570266901.72458
1570266901.7402
1570266901.75583
1570266901.77145
1570266901.78708
1570266901.80271
1570266901.81833
1570266901.83396
1570266901.84958
1570266901.86521
1570266901.88083
1570266901.89646
1570266901.91209
1570266901.92771
1570266901.94334
1570266901.95896
1570266901.97459
1570266901.99021
1570266902.00584
1570266902.02147
1570266902.03709
1570266902.05272
1570266902.06834
1570266902.08397
1570266902.09959
1570266902.11522
1570266902.13085
1570266902.14647
1570266902.1621
1570266902.17772
1570266902.19335
1570266902.20897
1570266902.2246
1570266902.24023
1570266902.25585
1570266902.27148
1570266902.2871
1570266902.30273
1570266902.31835
1570266902.33398
1570266902.34961
1570266902.36523
1570266902.38086
1570266902.39648
1570266902.41211
1570266902.42773
1570266902.44336
1570266902.45899
1570266902.47461
1570266902.49024
1570266902.50586
1570266902.52149
1570266902.53711
1570266902.55274
1570266902.56837
1570266902.58399
1570266902.59962
1570266902.61524
1570266902.63087
1570266902.64649
1570266902.66212
1570266902.67775
1570266902.69337
1570266902.709
1570266902.72462
1570266902.74025
1570266902.75587
1570266902.7715
1570266902.78713
1570266902.80275
1570266902.81838
1570266902.834
1570266902.84963
1570266902.86525
1570266902.88088
1570266902.89651
1570266902.91213
1570266902.92776
1570266902.94338
1570266902.95901
1570266902.97463
1570266902.99026
1570266903.00589
1570266903.02151
1570266903.03714
1570266903.05276
1570266903.06839
1570266903.08401
1570266903.09964
1570266903.11527
1570266903.13089
1570266903.14652
1570266903.16214
1570266903.17777
1570266903.19339
1570266903.20902
1570266903.22465
1570266903.24027
1570266903.2559
1570266903.27152
1570266903.28715
1570266903.30277
1570266903.3184
1570266903.33403
1570266903.34965
1570266903.36528
1570266903.3809
1570266903.39653
1570266903.41215
1570266903.42778
1570266903.44341
1570266903.45903
1570266903.47466
1570266903.49028
1570266903.50591
1570266903.52153
1570266903.53716
1570266903.55279
1570266903.56841
1570266903.58404
1570266903.59966
1570266903.61529
1570266903.63091
1570266903.64654
1570266903.66217
1570266903.67779
1570266903.69342
1570266903.70904
1570266903.72467
1570266903.7403
1570266903.75592
1570266903.77155
1570266903.78717
1570266903.8028
1570266903.81842
1570266903.83405
1570266903.84968
1570266903.8653
1570266903.88093
1570266903.89655
1570266903.91218
1570266903.9278
1570266903.94343
1570266903.95906
1570266903.97468
1570266903.99031
1570266904.00593
1570266904.02156
1570266904.03718
1570266904.05281
1570266904.06844
1570266904.08406
1570266904.09969
1570266904.11531
1570266904.13094
1570266904.14656
1570266904.16219
1570266904.17782
1570266904.19344
1570266904.20907
1570266904.22469
1570266904.24032
1570266904.25594
1570266904.27157
1570266904.2872
1570266904.30282
1570266904.31845
1570266904.33407
1570266904.3497
1570266904.36532
1570266904.38095
1570266904.39658
1570266904.4122
1570266904.42783
1570266904.44345
1570266904.45908
1570266904.4747
1570266904.49033
1570266904.50596
1570266904.52158
1570266904.53721
1570266904.55283
1570266904.56846
1570266904.58408
1570266904.59971
1570266904.61534
1570266904.63096
1570266904.64659
1570266904.66221
1570266904.67784
1570266904.69346
1570266904.70909
1570266904.72472
1570266904.74034
1570266904.75597
1570266904.77159
1570266904.78722
1570266904.80284
1570266904.81847
1570266904.8341
1570266904.84972
1570266904.86535
1570266904.88097
1570266904.8966
1570266904.91222
1570266904.92785
1570266904.94348
1570266904.9591
1570266904.97473
1570266904.99035
1570266905.00598
1570266905.0216
1570266905.03723
1570266905.05286
1570266905.06848
1570266905.08411
1570266905.09973
1570266905.11536
1570266905.13098
1570266905.14661
1570266905.16224
1570266905.17786
1570266905.19349
1570266905.20911
1570266905.22474
1570266905.24036
1570266905.25599
1570266905.27162
1570266905.28724
1570266905.30287
1570266905.31849
1570266905.33412
1570266905.34974
1570266905.36537
1570266905.381
1570266905.39662
1570266905.41225
1570266905.42787
1570266905.4435
1570266905.45912
1570266905.47475
1570266905.49038
1570266905.506
1570266905.52163
1570266905.53725
1570266905.55288
1570266905.5685
1570266905.58413
1570266905.59976
1570266905.61538
1570266905.63101
1570266905.64663
1570266905.66226
1570266905.67788
1570266905.69351
1570266905.70914
1570266905.72476
1570266905.74039
1570266905.75601
1570266905.77164
1570266905.78726
1570266905.80289
1570266905.81852
1570266905.83414
1570266905.84977
1570266905.86539
1570266905.88102
1570266905.89664
1570266905.91227
1570266905.9279
1570266905.94352
1570266905.95915
1570266905.97477
1570266905.9904
1570266906.00603
1570266906.02165
1570266906.03728
1570266906.0529
1570266906.06853
1570266906.08415
1570266906.09978
1570266906.11541
1570266906.13103
1570266906.14666
1570266906.16228
1570266906.17791
1570266906.19353
1570266906.20916
1570266906.22479
1570266906.24041
1570266906.25604
1570266906.27166
1570266906.28729
1570266906.30291
1570266906.31854
1570266906.33417
1570266906.34979
1570266906.36542
1570266906.38104
1570266906.39667
1570266906.41229
1570266906.42792
1570266906.44355
1570266906.45917
1570266906.4748
1570266906.49042
1570266906.50605
1570266906.52167
1570266906.5373
1570266906.55293
1570266906.56855
1570266906.58418
1570266906.5998
1570266906.61543
1570266906.63105
1570266906.64668
1570266906.66231
1570266906.67793
1570266906.69356
1570266906.70918
1570266906.72481
1570266906.74043
1570266906.75606
1570266906.77169
1570266906.78731
1570266906.80294
1570266906.81856
1570266906.83419
1570266906.84981
1570266906.86544
1570266906.88107
1570266906.89669
1570266906.91232
1570266906.92794
1570266906.94357
1570266906.95919
1570266906.97482
1570266906.99045
1570266907.00607
1570266907.0217
1570266907.03732
1570266907.05295
1570266907.06857
1570266907.0842
1570266907.09983
1570266907.11545
1570266907.13108
1570266907.1467
1570266907.16233
1570266907.17795
1570266907.19358
1570266907.20921
1570266907.22483
1570266907.24046
1570266907.25608
1570266907.27171
1570266907.28733
1570266907.30296
1570266907.31859
1570266907.33421
1570266907.34984
1570266907.36546
1570266907.38109
1570266907.39671
1570266907.41234
1570266907.42797
1570266907.44359
1570266907.45922
1570266907.47484
1570266907.49047
1570266907.50609
1570266907.52172
1570266907.53735
1570266907.55297
1570266907.5686
1570266907.58422
1570266907.59985
1570266907.61547
1570266907.6311
1570266907.64673
1570266907.66235
1570266907.67798
1570266907.6936
1570266907.70923
1570266907.72485
1570266907.74048
1570266907.75611
1570266907.77173
1570266907.78736
1570266907.80298
1570266907.81861
1570266907.83423
1570266907.84986
1570266907.86549
1570266907.88111
1570266907.89674
1570266907.91236
1570266907.92799
1570266907.94361
1570266907.95924
1570266907.97487
1570266907.99049
1570266908.00612
1570266908.02174
1570266908.03737
1570266908.05299
1570266908.06862
1570266908.08425
1570266908.09987
1570266908.1155
1570266908.13112
1570266908.14675
1570266908.16237
1570266908.178
1570266908.19363
1570266908.20925
1570266908.22488
1570266908.2405
1570266908.25613
1570266908.27175
1570266908.28738
1570266908.30301
1570266908.31863
1570266908.33426
1570266908.34988
1570266908.36551
1570266908.38113
1570266908.39676
1570266908.41239
1570266908.42801
1570266908.44364
1570266908.45926
1570266908.47489
1570266908.49051
1570266908.50614
1570266908.52177
1570266908.53739
1570266908.55302
1570266908.56864
1570266908.58427
1570266908.5999
1570266908.61552
1570266908.63115
1570266908.64677
1570266908.6624
1570266908.67802
1570266908.69365
1570266908.70928
1570266908.7249
1570266908.74053
1570266908.75615
1570266908.77178
1570266908.7874
1570266908.80303
1570266908.81866
1570266908.83428
1570266908.84991
1570266908.86553
1570266908.88116
1570266908.89678
1570266908.91241
1570266908.92804
1570266908.94366
1570266908.95929
1570266908.97491
1570266908.99054
1570266909.00616
1570266909.02179
1570266909.03742
1570266909.05304
1570266909.06867
1570266909.08429
1570266909.09992
1570266909.11554
1570266909.13117
1570266909.1468
1570266909.16242
1570266909.17805
1570266909.19367
1570266909.2093
1570266909.22492
1570266909.24055
1570266909.25618
1570266909.2718
1570266909.28743
1570266909.30305
1570266909.31868
1570266909.3343
1570266909.34993
1570266909.36556
1570266909.38118
1570266909.39681
1570266909.41243
1570266909.42806
1570266909.44368
1570266909.45931
1570266909.47494
1570266909.49056
1570266909.50619
1570266909.52181
1570266909.53744
1570266909.55306
1570266909.56869
1570266909.58432
1570266909.59994
1570266909.61557
1570266909.63119
1570266909.64682
1570266909.66244
1570266909.67807
1570266909.6937
1570266909.70932
1570266909.72495
1570266909.74057
1570266909.7562
1570266909.77182
1570266909.78745
1570266909.80308
1570266909.8187
1570266909.83433
1570266909.84995
1570266909.86558
1570266909.8812
1570266909.89683
1570266909.91246
1570266909.92808
1570266909.94371
1570266909.95933
1570266909.97496
1570266909.99058
1570266910.00621
1570266910.02184
1570266910.03746
1570266910.05309
1570266910.06871
1570266910.08434
1570266910.09996
1570266910.11559
1570266910.13122
1570266910.14684
1570266910.16247
1570266910.17809
1570266910.19372
1570266910.20934
1570266910.22497
1570266910.2406
1570266910.25622
1570266910.27185
1570266910.28747
1570266910.3031
1570266910.31872
1570266910.33435
1570266910.34998
1570266910.3656
1570266910.38123
1570266910.39685
1570266910.41248
1570266910.4281
1570266910.44373
1570266910.45936
1570266910.47498
1570266910.49061
1570266910.50623
1570266910.52186
1570266910.53748
1570266910.55311
1570266910.56874
1570266910.58436
1570266910.59999
1570266910.61561
1570266910.63124
1570266910.64686
1570266910.66249
1570266910.67812
1570266910.69374
1570266910.70937
1570266910.72499
1570266910.74062
1570266910.75624
1570266910.77187
1570266910.7875
1570266910.80312
1570266910.81875
1570266910.83437
1570266910.85
1570266910.86563
1570266910.88125
1570266910.89688
1570266910.9125
1570266910.92813
1570266910.94375
1570266910.95938
1570266910.97501
1570266910.99063
1570266911.00626
1570266911.02188
1570266911.03751
1570266911.05313
1570266911.06876
1570266911.08439
1570266911.10001
1570266911.11564
1570266911.13126
1570266911.14689
1570266911.16251
1570266911.17814
1570266911.19377
1570266911.20939
1570266911.22502
1570266911.24064
1570266911.25627
1570266911.27189
1570266911.28752
1570266911.30315
1570266911.31877
1570266911.3344
1570266911.35002
1570266911.36565
1570266911.38127
1570266911.3969
1570266911.41253
1570266911.42815
1570266911.44378
1570266911.4594
1570266911.47503
1570266911.49065
1570266911.50628
1570266911.52191
1570266911.53753
1570266911.55316
1570266911.56878
1570266911.58441
1570266911.60003
1570266911.61566
1570266911.63129
1570266911.64691
1570266911.66254
1570266911.67816
1570266911.69379
1570266911.70941
1570266911.72504
1570266911.74067
1570266911.75629
1570266911.77192
1570266911.78754
1570266911.80317
1570266911.81879
1570266911.83442
1570266911.85005
1570266911.86567
1570266911.8813
1570266911.89692
1570266911.91255
1570266911.92817
1570266911.9438
1570266911.95943
1570266911.97505
1570266911.99068
1570266912.0063
1570266912.02193
1570266912.03755
1570266912.05318
1570266912.06881
1570266912.08443
1570266912.10006
1570266912.11568
1570266912.13131
1570266912.14693
1570266912.16256
1570266912.17819
1570266912.19381
1570266912.20944
1570266912.22506
1570266912.24069
1570266912.25631
1570266912.27194
1570266912.28757
1570266912.30319
1570266912.31882
1570266912.33444
1570266912.35007
1570266912.36569
1570266912.38132
1570266912.39695
1570266912.41257
1570266912.4282
1570266912.44382
1570266912.45945
1570266912.47507
1570266912.4907
1570266912.50633
1570266912.52195
1570266912.53758
1570266912.5532
1570266912.56883
1570266912.58445
1570266912.60008
1570266912.61571
1570266912.63133
1570266912.64696
1570266912.66258
1570266912.67821
1570266912.69383
1570266912.70946
1570266912.72509
1570266912.74071
1570266912.75634
1570266912.77196
1570266912.78759
1570266912.80321
1570266912.81884
1570266912.83447
1570266912.85009
1570266912.86572
1570266912.88134
1570266912.89697
1570266912.91259
1570266912.92822
1570266912.94385
1570266912.95947
1570266912.9751
1570266912.99072
1570266913.00635
1570266913.02198
1570266913.0376
1570266913.05323
1570266913.06885
1570266913.08448
1570266913.1001
1570266913.11573
1570266913.13136
1570266913.14698
1570266913.16261
1570266913.17823
1570266913.19386
1570266913.20948
1570266913.22511
1570266913.24074
1570266913.25636
1570266913.27199
1570266913.28761
1570266913.30324
1570266913.31886
1570266913.33449
1570266913.35012
1570266913.36574
1570266913.38137
1570266913.39699
1570266913.41262
1570266913.42824
1570266913.44387
1570266913.4595
1570266913.47512
1570266913.49075
1570266913.50637
1570266913.522
1570266913.53762
1570266913.55325
1570266913.56888
1570266913.5845
1570266913.60013
1570266913.61575
1570266913.63138
1570266913.647
1570266913.66263
1570266913.67826
1570266913.69388
1570266913.70951
1570266913.72513
1570266913.74076
1570266913.75638
1570266913.77201
1570266913.78764
1570266913.80326
1570266913.81889
1570266913.83451
1570266913.85014
1570266913.86576
1570266913.88139
1570266913.89702
1570266913.91264
1570266913.92827
1570266913.94389
1570266913.95952
1570266913.97514
1570266913.99077
1570266914.0064
1570266914.02202
1570266914.03765
1570266914.05327
1570266914.0689
1570266914.08452
1570266914.10015
1570266914.11578
1570266914.1314
1570266914.14703
1570266914.16265
1570266914.17828
1570266914.1939
1570266914.20953
1570266914.22516
1570266914.24078
1570266914.25641
1570266914.27203
1570266914.28766
1570266914.30328
1570266914.31891
1570266914.33454
1570266914.35016
1570266914.36579
1570266914.38141
1570266914.39704
1570266914.41266
1570266914.42829
1570266914.44392
1570266914.45954
1570266914.47517
1570266914.49079
1570266914.50642
1570266914.52204
1570266914.53767
1570266914.5533
1570266914.56892
1570266914.58455
1570266914.60017
1570266914.6158
1570266914.63142
1570266914.64705
1570266914.66268
1570266914.6783
1570266914.69393
1570266914.70955
1570266914.72518
1570266914.7408
1570266914.75643
1570266914.77206
1570266914.78768
1570266914.80331
1570266914.81893
1570266914.83456
1570266914.85018
1570266914.86581
1570266914.88144
1570266914.89706
1570266914.91269
1570266914.92831
1570266914.94394
1570266914.95956
1570266914.97519
1570266914.99082
1570266915.00644
1570266915.02207
1570266915.03769
1570266915.05332
1570266915.06894
1570266915.08457
1570266915.1002
1570266915.11582
1570266915.13145
1570266915.14707
1570266915.1627
1570266915.17832
1570266915.19395
1570266915.20958
1570266915.2252
1570266915.24083
1570266915.25645
1570266915.27208
1570266915.2877
1570266915.30333
1570266915.31896
1570266915.33458
1570266915.35021
1570266915.36583
1570266915.38146
1570266915.39708
1570266915.41271
1570266915.42834
1570266915.44396
1570266915.45959
1570266915.47521
1570266915.49084
1570266915.50646
1570266915.52209
1570266915.53772
1570266915.55334
1570266915.56897
1570266915.58459
1570266915.60022
1570266915.61584
1570266915.63147
1570266915.6471
1570266915.66272
1570266915.67835
1570266915.69397
1570266915.7096
1570266915.72523
1570266915.74085
1570266915.75648
1570266915.7721
1570266915.78773
1570266915.80335
1570266915.81898
1570266915.83461
1570266915.85023
1570266915.86586
1570266915.88148
1570266915.89711
1570266915.91273
1570266915.92836
1570266915.94399
1570266915.95961
1570266915.97524
1570266915.99086
1570266916.00649
1570266916.02211
1570266916.03774
1570266916.05337
1570266916.06899
1570266916.08462
1570266916.10024
1570266916.11587
1570266916.13149
1570266916.14712
1570266916.16275
1570266916.17837
1570266916.194
1570266916.20962
1570266916.22525
1570266916.24087
1570266916.2565
1570266916.27213
1570266916.28775
1570266916.30338
1570266916.319
1570266916.33463
1570266916.35025
1570266916.36588
1570266916.38151
1570266916.39713
1570266916.41276
1570266916.42838
1570266916.44401
1570266916.45963
1570266916.47526
1570266916.49089
1570266916.50651
1570266916.52214
1570266916.53776
1570266916.55339
1570266916.56901
1570266916.58464
1570266916.60027
1570266916.61589
1570266916.63152
1570266916.64714
1570266916.66277
1570266916.67839
1570266916.69402
1570266916.70965
1570266916.72527
1570266916.7409
1570266916.75652
1570266916.77215
1570266916.78777
1570266916.8034
1570266916.81903
1570266916.83465
1570266916.85028
1570266916.8659
1570266916.88153
1570266916.89715
1570266916.91278
1570266916.92841
1570266916.94403
1570266916.95966
1570266916.97528
1570266916.99091
1570266917.00653
1570266917.02216
1570266917.03779
1570266917.05341
1570266917.06904
1570266917.08466
1570266917.10029
1570266917.11591
1570266917.13154
1570266917.14717
1570266917.16279
1570266917.17842
1570266917.19404
1570266917.20967
1570266917.22529
1570266917.24092
1570266917.25655
1570266917.27217
1570266917.2878
1570266917.30342
1570266917.31905
1570266917.33467
1570266917.3503
1570266917.36593
1570266917.38155
1570266917.39718
1570266917.4128
1570266917.42843
1570266917.44405
1570266917.45968
1570266917.47531
1570266917.49093
1570266917.50656
1570266917.52218
1570266917.53781
1570266917.55343
1570266917.56906
1570266917.58469
1570266917.60031
1570266917.61594
1570266917.63156
1570266917.64719
1570266917.66281
1570266917.67844
1570266917.69407
1570266917.70969
1570266917.72532
1570266917.74094
1570266917.75657
1570266917.77219
1570266917.78782
1570266917.80345
1570266917.81907
1570266917.8347
1570266917.85032
1570266917.86595
1570266917.88158
1570266917.8972
1570266917.91283
1570266917.92845
1570266917.94408
1570266917.9597
1570266917.97533
1570266917.99096
1570266918.00658
1570266918.02221
1570266918.03783
1570266918.05346
1570266918.06908
1570266918.08471
1570266918.10034
1570266918.11596
1570266918.13159
1570266918.14721
1570266918.16284
1570266918.17846
1570266918.19409
1570266918.20972
1570266918.22534
1570266918.24097
1570266918.25659
1570266918.27222
1570266918.28784
1570266918.30347
1570266918.3191
1570266918.33472
1570266918.35035
1570266918.36597
1570266918.3816
1570266918.39722
1570266918.41285
1570266918.42848
1570266918.4441
1570266918.45973
1570266918.47535
1570266918.49098
1570266918.5066
1570266918.52223
1570266918.53786
1570266918.55348
1570266918.56911
1570266918.58473
1570266918.60036
1570266918.61598
1570266918.63161
1570266918.64724
1570266918.66286
1570266918.67849
1570266918.69411
1570266918.70974
1570266918.72536
1570266918.74099
1570266918.75662
1570266918.77224
1570266918.78787
1570266918.80349
1570266918.81912
1570266918.83474
1570266918.85037
1570266918.866
1570266918.88162
1570266918.89725
1570266918.91287
1570266918.9285
1570266918.94412
1570266918.95975
1570266918.97538
1570266918.991
1570266919.00663
1570266919.02225
1570266919.03788
1570266919.0535
1570266919.06913
1570266919.08476
1570266919.10038
1570266919.11601
1570266919.13163
1570266919.14726
1570266919.16288
1570266919.17851
1570266919.19414
1570266919.20976
1570266919.22539
1570266919.24101
1570266919.25664
1570266919.27226
1570266919.28789
1570266919.30352
1570266919.31914
1570266919.33477
1570266919.35039
1570266919.36602
1570266919.38164
1570266919.39727
1570266919.4129
1570266919.42852
1570266919.44415
1570266919.45977
1570266919.4754
1570266919.49102
1570266919.50665
1570266919.52228
1570266919.5379
1570266919.55353
1570266919.56915
1570266919.58478
1570266919.6004
1570266919.61603
1570266919.63166
1570266919.64728
1570266919.66291
1570266919.67853
1570266919.69416
1570266919.70978
1570266919.72541
1570266919.74104
1570266919.75666
1570266919.77229
1570266919.78791
1570266919.80354
1570266919.81916
1570266919.83479
1570266919.85042
1570266919.86604
1570266919.88167
1570266919.89729
1570266919.91292
1570266919.92854
1570266919.94417
1570266919.9598
1570266919.97542
1570266919.99105
1570266920.00667
1570266920.0223
1570266920.03792
1570266920.05355
1570266920.06918
1570266920.0848
1570266920.10043
1570266920.11605
1570266920.13168
1570266920.14731
1570266920.16293
1570266920.17856
1570266920.19418
1570266920.20981
1570266920.22543
1570266920.24106
1570266920.25669
1570266920.27231
1570266920.28794
1570266920.30356
1570266920.31919
1570266920.33481
1570266920.35044
1570266920.36607
1570266920.38169
1570266920.39732
1570266920.41294
1570266920.42857
1570266920.44419
1570266920.45982
1570266920.47545
1570266920.49107
1570266920.5067
1570266920.52232
1570266920.53795
1570266920.55357
1570266920.5692
1570266920.58483
1570266920.60045
1570266920.61608
1570266920.6317
1570266920.64733
1570266920.66295
1570266920.67858
1570266920.69421
1570266920.70983
1570266920.72546
1570266920.74108
1570266920.75671
1570266920.77233
1570266920.78796
1570266920.80359
1570266920.81921
1570266920.83484
1570266920.85046
1570266920.86609
1570266920.88171
1570266920.89734
1570266920.91297
1570266920.92859
1570266920.94422
1570266920.95984
1570266920.97547
1570266920.99109
1570266921.00672
1570266921.02235
1570266921.03797
1570266921.0536
1570266921.06922
1570266921.08485
1570266921.10047
1570266921.1161
1570266921.13173
1570266921.14735
1570266921.16298
1570266921.1786
1570266921.19423
1570266921.20985
1570266921.22548
1570266921.24111
1570266921.25673
1570266921.27236
1570266921.28798
1570266921.30361
1570266921.31923
1570266921.33486
1570266921.35049
1570266921.36611
1570266921.38174
1570266921.39736
1570266921.41299
1570266921.42861
1570266921.44424
1570266921.45987
1570266921.47549
1570266921.49112
1570266921.50674
1570266921.52237
1570266921.53799
1570266921.55362
1570266921.56925
1570266921.58487
1570266921.6005
1570266921.61612
1570266921.63175
1570266921.64737
1570266921.663
1570266921.67863
1570266921.69425
1570266921.70988
1570266921.7255
1570266921.74113
1570266921.75675
1570266921.77238
1570266921.78801
1570266921.80363
1570266921.81926
1570266921.83488
1570266921.85051
1570266921.86613
1570266921.88176
1570266921.89739
1570266921.91301
1570266921.92864
1570266921.94426
1570266921.95989
1570266921.97551
1570266921.99114
1570266922.00677
1570266922.02239
1570266922.03802
1570266922.05364
1570266922.06927
1570266922.08489
1570266922.10052
1570266922.11615
1570266922.13177
1570266922.1474
1570266922.16302
1570266922.17865
1570266922.19427
1570266922.2099
1570266922.22553
1570266922.24115
1570266922.25678
1570266922.2724
1570266922.28803
1570266922.30365
1570266922.31928
1570266922.33491
1570266922.35053
1570266922.36616
1570266922.38178
1570266922.39741
1570266922.41303
1570266922.42866
1570266922.44429
1570266922.45991
1570266922.47554
1570266922.49116
1570266922.50679
1570266922.52241
1570266922.53804
1570266922.55367
1570266922.56929
1570266922.58492
1570266922.60054
1570266922.61617
1570266922.63179
1570266922.64742
1570266922.66305
1570266922.67867
1570266922.6943
1570266922.70992
1570266922.72555
1570266922.74118
1570266922.7568
1570266922.77243
1570266922.78805
1570266922.80368
1570266922.8193
1570266922.83493
1570266922.85056
1570266922.86618
1570266922.88181
1570266922.89743
1570266922.91306
1570266922.92868
1570266922.94431
1570266922.95994
1570266922.97556
1570266922.99119
1570266923.00681
1570266923.02244
1570266923.03806
1570266923.05369
1570266923.06932
1570266923.08494
1570266923.10057
1570266923.11619
1570266923.13182
1570266923.14744
1570266923.16307
1570266923.1787
1570266923.19432
1570266923.20995
1570266923.22557
1570266923.2412
1570266923.25682
1570266923.27245
1570266923.28808
1570266923.3037
1570266923.31933
1570266923.33495
1570266923.35058
1570266923.3662
1570266923.38183
1570266923.39746
1570266923.41308
1570266923.42871
1570266923.44433
1570266923.45996
1570266923.47558
1570266923.49121
1570266923.50684
1570266923.52246
1570266923.53809
1570266923.55371
1570266923.56934
1570266923.58496
1570266923.60059
1570266923.61622
1570266923.63184
1570266923.64747
1570266923.66309
1570266923.67872
1570266923.69434
1570266923.70997
1570266923.7256
1570266923.74122
1570266923.75685
1570266923.77247
1570266923.7881
1570266923.80372
1570266923.81935
1570266923.83498
1570266923.8506
1570266923.86623
1570266923.88185
1570266923.89748
1570266923.9131
1570266923.92873
1570266923.94436
1570266923.95998
1570266923.97561
1570266923.99123
1570266924.00686
1570266924.02248
1570266924.03811
1570266924.05374
1570266924.06936
1570266924.08499
1570266924.10061
1570266924.11624
1570266924.13186
1570266924.14749
1570266924.16312
1570266924.17874
1570266924.19437
1570266924.20999
1570266924.22562
1570266924.24124
1570266924.25687
1570266924.2725
1570266924.28812
1570266924.30375
1570266924.31937
1570266924.335
1570266924.35062
1570266924.36625
1570266924.38188
1570266924.3975
1570266924.41313
1570266924.42875
1570266924.44438
1570266924.46
1570266924.47563
1570266924.49126
1570266924.50688
1570266924.52251
1570266924.53813
1570266924.55376
1570266924.56938
1570266924.58501
1570266924.60064
1570266924.61626
1570266924.63189
1570266924.64751
1570266924.66314
1570266924.67876
1570266924.69439
1570266924.71002
1570266924.72564
1570266924.74127
1570266924.75689
1570266924.77252
1570266924.78814
1570266924.80377
1570266924.8194
1570266924.83502
1570266924.85065
1570266924.86627
1570266924.8819
1570266924.89752
1570266924.91315
1570266924.92878
1570266924.9444
1570266924.96003
1570266924.97565
1570266924.99128
1570266925.00691
1570266925.02253
1570266925.03816
1570266925.05378
1570266925.06941
1570266925.08503
1570266925.10066
1570266925.11629
1570266925.13191
1570266925.14754
1570266925.16316
1570266925.17879
1570266925.19441
1570266925.21004
1570266925.22567
1570266925.24129
1570266925.25692
1570266925.27254
1570266925.28817
1570266925.30379
1570266925.31942
1570266925.33505
1570266925.35067
1570266925.3663
1570266925.38192
1570266925.39755
1570266925.41317
1570266925.4288
1570266925.44443
1570266925.46005
1570266925.47568
1570266925.4913
1570266925.50693
1570266925.52255
1570266925.53818
1570266925.55381
1570266925.56943
1570266925.58506
1570266925.60068
1570266925.61631
1570266925.63193
1570266925.64756
1570266925.66319
1570266925.67881
1570266925.69444
1570266925.71006
1570266925.72569
1570266925.74131
1570266925.75694
1570266925.77257
1570266925.78819
1570266925.80382
1570266925.81944
1570266925.83507
1570266925.85069
1570266925.86632
1570266925.88195
1570266925.89757
1570266925.9132
1570266925.92882
1570266925.94445
1570266925.96007
1570266925.9757
1570266925.99133
1570266926.00695
1570266926.02258
1570266926.0382
1570266926.05383
1570266926.06945
1570266926.08508
1570266926.10071
1570266926.11633
1570266926.13196
1570266926.14758
1570266926.16321
1570266926.17883
1570266926.19446
1570266926.21009
1570266926.22571
1570266926.24134
1570266926.25696
1570266926.27259
1570266926.28821
1570266926.30384
1570266926.31947
1570266926.33509
1570266926.35072
1570266926.36634
1570266926.38197
1570266926.39759
1570266926.41322
1570266926.42885
1570266926.44447
1570266926.4601
1570266926.47572
1570266926.49135
1570266926.50697
1570266926.5226
1570266926.53823
1570266926.55385
1570266926.56948
1570266926.5851
1570266926.60073
1570266926.61635
1570266926.63198
1570266926.64761
1570266926.66323
1570266926.67886
1570266926.69448
1570266926.71011
1570266926.72573
1570266926.74136
1570266926.75699
1570266926.77261
1570266926.78824
1570266926.80386
1570266926.81949
1570266926.83511
1570266926.85074
1570266926.86637
1570266926.88199
1570266926.89762
1570266926.91324
1570266926.92887
1570266926.94449
1570266926.96012
1570266926.97575
1570266926.99137
1570266927.007
1570266927.02262
1570266927.03825
1570266927.05387
1570266927.0695
1570266927.08513
1570266927.10075
1570266927.11638
1570266927.132
1570266927.14763
1570266927.16325
1570266927.17888
1570266927.19451
1570266927.21013
1570266927.22576
1570266927.24138
1570266927.25701
1570266927.27263
1570266927.28826
1570266927.30389
1570266927.31951
1570266927.33514
1570266927.35076
1570266927.36639
1570266927.38201
1570266927.39764
1570266927.41327
1570266927.42889
1570266927.44452
1570266927.46014
1570266927.47577
1570266927.4914
1570266927.50702
1570266927.52265
1570266927.53827
1570266927.5539
1570266927.56952
1570266927.58515
1570266927.60078
1570266927.6164
1570266927.63203
1570266927.64765
1570266927.66328
1570266927.6789
1570266927.69453
1570266927.71016
1570266927.72578
1570266927.74141
1570266927.75703
1570266927.77266
1570266927.78828
1570266927.80391
1570266927.81954
1570266927.83516
1570266927.85079
1570266927.86641
1570266927.88204
1570266927.89766
1570266927.91329
1570266927.92892
1570266927.94454
1570266927.96017
1570266927.97579
1570266927.99142
1570266928.00704
1570266928.02267
1570266928.0383
1570266928.05392
1570266928.06955
1570266928.08517
1570266928.1008
1570266928.11642
1570266928.13205
1570266928.14768
1570266928.1633
1570266928.17893
1570266928.19455
1570266928.21018
1570266928.2258
1570266928.24143
1570266928.25706
1570266928.27268
1570266928.28831
1570266928.30393
1570266928.31956
1570266928.33518
1570266928.35081
1570266928.36644
1570266928.38206
1570266928.39769
1570266928.41331
1570266928.42894
1570266928.44456
1570266928.46019
1570266928.47582
1570266928.49144
1570266928.50707
1570266928.52269
1570266928.53832
1570266928.55394
1570266928.56957
1570266928.5852
1570266928.60082
1570266928.61645
1570266928.63207
1570266928.6477
1570266928.66332
1570266928.67895
1570266928.69458
1570266928.7102
1570266928.72583
1570266928.74145
1570266928.75708
1570266928.7727
1570266928.78833
1570266928.80396
1570266928.81958
1570266928.83521
1570266928.85083
1570266928.86646
1570266928.88208
1570266928.89771
1570266928.91334
1570266928.92896
1570266928.94459
1570266928.96021
1570266928.97584
1570266928.99146
1570266929.00709
1570266929.02272
1570266929.03834
1570266929.05397
1570266929.06959
1570266929.08522
1570266929.10084
1570266929.11647
1570266929.1321
1570266929.14772
1570266929.16335
1570266929.17897
1570266929.1946
1570266929.21022
1570266929.22585
1570266929.24148
1570266929.2571
1570266929.27273
1570266929.28835
1570266929.30398
1570266929.3196
1570266929.33523
1570266929.35086
1570266929.36648
1570266929.38211
1570266929.39773
1570266929.41336
1570266929.42898
1570266929.44461
1570266929.46024
1570266929.47586
1570266929.49149
1570266929.50711
1570266929.52274
1570266929.53836
1570266929.55399
1570266929.56962
1570266929.58524
1570266929.60087
1570266929.61649
1570266929.63212
1570266929.64774
1570266929.66337
1570266929.679
1570266929.69462
1570266929.71025
1570266929.72587
1570266929.7415
1570266929.75712
1570266929.77275
1570266929.78838
1570266929.804
1570266929.81963
1570266929.83525
1570266929.85088
1570266929.86651
1570266929.88213
1570266929.89776
1570266929.91338
1570266929.92901
1570266929.94463
1570266929.96026
1570266929.97589
1570266929.99151
1570266930.00714
1570266930.02276
1570266930.03839
1570266930.05401
1570266930.06964
1570266930.08527
1570266930.10089
1570266930.11652
1570266930.13214
1570266930.14777
1570266930.16339
1570266930.17902
1570266930.19465
1570266930.21027
1570266930.2259
1570266930.24152
1570266930.25715
