18.48282
15.22955
12.13287
9.363586
6.972687
4.959991
3.207458
1.44046
-0.6204224
-3.229797
-6.470795
-10.00369
-13.18759
-15.25174
-15.46484
-13.36777
-8.93454
-2.584991
4.929169
12.7204
19.95999
26.01273
30.49612
33.27979
34.47046
34.30679
33.14627
31.30252
29.03326
26.48257
23.7514
20.81598
17.69531
14.39041
10.92749
7.511475
4.254395
1.228607
-1.614136
-4.45993
-7.534119
-10.90639
-14.66943
-18.756
-22.80293
-26.38249
-28.91946
-29.80782
-28.54179
-24.92795
-19.10951
-11.72882
-3.607819
4.350769
11.39636
17.03839
21.09947
23.58234
24.61572
24.41522
23.20695
21.2778
18.93852
16.45457
14.0359
11.82664
9.853897
8.080719
6.43779
4.780624
3.030823
1.184265
-0.76828
-2.732544
-4.608963
-6.438568
-8.379593
-10.64099
-13.48575
-16.96434
-20.7963
-24.49663
-27.28413
-28.52187
-27.74956
-24.90007
-20.30342
-14.5528
-8.301071
-2.130722
3.455582
8.238663
12.01262
14.73393
16.48395
17.3553
17.57184
17.33913
16.90698
16.429
16.16089
16.17575
16.52396
17.15654
17.87767
18.38458
18.47534
18.02417
17.05574
15.7947
14.31551
12.65792
10.79971
8.59079
5.988747
3.028961
-0.1724625
-3.408371
-6.4534
-9.210869
-11.71471
-14.05753
-16.48827
-19.1292
-22.04791
-25.23122
-28.53881
-31.66427
-34.20475
-35.67621
-35.54356
-33.49028
-29.36402
-23.40448
-16.19586
-8.517403
-1.097626
5.454254
10.83186
14.97327
17.86337
19.70942
20.64398
20.80499
20.38498
19.58218
18.6155
17.76041
17.21041
17.05189
17.23745
17.56061
17.80232
17.80978
17.48116
16.74562
15.6237
14.03192
11.94137
9.3567
6.419106
3.380082
0.597702
-1.714447
-3.562957
-5.162061
-6.885815
-9.024152
-11.67424
-14.63074
-17.44314
-19.54997
-20.46603
-19.91536
-17.86608
-14.57861
-10.48209
-6.080854
-1.947132
1.51445
4.050663
5.679375
6.644081
7.244038
7.772739
8.337116
8.896961
9.25798
9.331814
9.058762
8.561569
7.994652
7.443687
6.851685
6.110489
5.133408
3.948318
2.750702
1.734207
1.07608
0.7603378
0.5920563
0.3164139
-0.3410034
-1.510231
-3.211281
-5.324951
-7.712479
-10.23882
-12.8184
-15.40154
-17.90839
-20.19097
-22.00638
-23.02946
-22.98549
-21.72162
-19.2123
-15.65169
-11.3989
-6.920151
-2.746658
0.7003326
3.132675
4.486694
4.871796
4.57103
3.882355
3.069763
2.274307
1.574997
1.003357
0.5931244
0.3928833
0.4857635
0.9184113
1.641403
2.498596
3.269623
3.708954
3.662369
3.094269
2.055191
0.7233734
-0.7684326
-2.286804
-3.82547
-5.44455
-7.331146
-9.643448
-12.51401
-15.88997
-19.54842
-23.13803
-26.15019
-28.12439
-28.72589
-27.84512
-25.53461
-22.07315
-17.84152
-13.34996
-9.027695
-5.196915
-2.060791
0.3127441
1.910889
2.817886
3.194016
3.161743
2.903702
2.630219
2.514648
2.709106
3.284225
4.227051
5.453537
6.877914
8.406143
9.921967
11.30556
12.34991
12.82336
12.51463
11.25479
8.947083
5.634033
1.52356
-3.082886
-7.932953
-12.82333
-17.69269
-22.51282
-27.37436
-32.35168
-37.46484
-42.59119
-47.41266
-51.57394
-54.62869
-56.19672
-56.03073
-54.10263
-50.55911
-45.71127
-39.91473
-33.5809
-27.1889
-21.18094
-15.94632
-11.6489
-8.216003
-5.360794
-2.783066
-0.3079681
2.042831
4.009125
5.376602
5.972656
5.771332
4.774841
2.896606
-0.0206604
-4.138596
-9.405762
-15.45381
-21.6078
-27.09827
-31.26746
-33.70233
-34.37924
-33.53252
-31.56013
-28.97032
-26.25894
-23.843
-22.11801
-21.30353
-21.48769
-22.5414
-24.14615
-25.73906
-26.67679
-26.26703
-23.94905
-19.61365
-13.59201
-6.614594
0.3843079
6.531387
11.32755
14.69633
16.9547
18.62092
20.1763
21.91553
23.91853
26.11277
28.32874
30.4355
32.32444
33.9135
35.13948
35.88731
36.10727
35.76875
34.8885
33.5486
31.73537
29.40364
26.38605
22.65427
18.14611
13.07029
7.740788
2.553291
-2.119938
-6.075203
-9.297611
-12.05933
-14.67458
-17.54351
-20.89639
-24.66628
-28.43263
-31.5906
-33.39538
-33.31219
-31.10521
-26.86803
-21.09295
-14.40739
-7.453048
-0.8174324
5.003311
9.667055
12.96461
14.86009
15.49296
15.07584
13.89474
12.23176
10.24256
8.047096
5.728024
3.422821
1.251392
-0.5688362
-1.949997
-2.851334
-3.294594
-3.455276
-3.494003
-3.594299
-3.887726
-4.539978
-5.519188
-6.911819
-8.639351
-10.65028
-13.01249
-15.69451
-18.62626
-21.65923
-24.46064
-26.57182
-27.60938
-27.24586
-25.41309
-22.34993
-18.33859
-13.72313
-8.86673
-4.011169
0.6748352
5.026047
8.937027
12.32417
15.09094
17.24698
18.81317
19.82996
20.35793
20.50262
20.32788
19.9227
19.40796
18.80492
18.21623
17.58585
16.79179
15.70969
14.22562
12.29346
10.00848
7.51181
4.994232
2.676208
0.5963135
-1.332947
-3.219116
-5.255615
-7.595276
-10.21188
-12.98132
-15.6171
-17.72089
-18.93631
-18.91937
-17.31088
-13.84616
-8.470337
-1.371643
6.969025
15.84641
24.55325
32.51758
39.44391
45.30692
50.2272
54.43195
58.10785
61.43555
64.55966
67.55771
70.41998
73.08228
75.47275
77.56778
79.52701
81.59311
84.01108
86.99081
90.56369
94.58319
98.71466
102.3937
104.9616
105.8228
104.6152
101.3476
96.44266
90.54337
84.2384
77.81177
71.23508
64.37714
57.18741
49.95233
43.28073
37.96014
34.65906
33.80026
35.32466
38.76825
43.42134
48.42624
52.92743
56.14719
57.50612
56.68051
53.69041
48.86739
42.7076
35.8136
28.70146
21.75964
15.20512
9.080856
3.26918
-2.486252
-8.475372
-15.00684
-22.17105
-29.81583
-37.44596
-44.36948
-50.01718
-54.00711
-56.37196
-57.43463
-57.73142
-57.84896
-58.40607
-59.98149
-63.01551
-67.79144
-74.15352
-81.51655
-88.87088
-94.95959
-98.67406
-99.32549
-96.90926
-91.95059
-85.35226
-78.11227
-71.09167
-64.91934
-59.95024
-56.37527
-54.15529
-53.14413
-53.06287
-53.53151
-54.13123
-54.48981
-54.31253
-53.44386
-51.89186
-49.7625
-47.24097
-44.49654
-41.64983
-38.77098
-35.86766
-33.01657
-30.30605
-27.80403
-25.59566
-23.63565
-21.88358
-20.2868
-18.85132
-17.60364
-16.49068
-15.36961
-13.78336
-11.23366
-7.229843
-1.557556
5.555878
13.43034
21.18317
27.90352
32.8696
35.746
36.51958
35.45593
33.03798
29.73334
26.0069
22.24104
18.54907
14.81293
10.77782
6.165924
0.8927307
-4.840164
-10.67458
-16.10002
-20.75096
-24.48204
-27.43921
-29.97891
-32.55127
-35.60446
-39.32893
-43.71011
-48.32922
-52.51799
-55.4697
-56.32603
-54.43491
-49.50253
-41.7715
-31.85484
-20.80647
-9.709839
0.4354553
8.913208
15.48053
20.24352
23.5023
25.57487
26.7655
27.21616
27.07256
26.3746
25.12689
23.29604
20.7998
17.52834
13.506
8.905869
4.040565
-0.7258759
-5.181053
-9.33374
-13.4657
-17.98798
-23.26546
-29.29383
-35.6832
-41.66898
-46.28442
-48.62593
-48.1879
-44.83978
-38.96613
-31.32598
-22.86876
-14.57346
-7.273117
-1.493973
2.651398
5.218666
6.472775
6.605007
5.807713
4.171295
1.831371
-1.07991
-4.323914
-7.73534
-11.2368
-14.79976
-18.35852
-21.64912
-24.32693
-26.00356
-26.56252
-26.14101
-25.32922
-24.88894
-25.52472
-27.65507
-31.1552
-35.35925
-39.25241
-41.76516
-42.00025
-39.55225
-34.50044
-27.34888
-18.85756
-9.851051
-1.048454
6.976837
13.75154
18.88094
22.13011
23.44048
23.06146
21.4734
19.29266
17.07536
15.17169
13.61282
12.15654
10.51183
8.489716
6.162354
3.700851
1.311722
-0.916153
-3.081985
-5.400284
-8.134964
-11.54185
-15.71051
-20.47598
-25.3636
-29.57101
-32.0766
-31.84915
-28.25009
-21.23856
-11.45862
-0.04766846
11.66141
22.52161
31.71857
38.8605
43.84824
46.76239
47.81601
47.33331
45.72455
43.40921
40.77756
38.04459
35.27975
32.43796
29.46133
26.36737
23.26868
20.34875
17.7236
15.37753
13.09595
10.44464
6.97229
2.352692
-3.289398
-9.395355
-15.04099
-19.09143
-20.65161
-19.24026
-14.97641
-8.462952
-0.5063782
8.053436
16.4982
24.2908
31.03009
36.43665
40.39536
42.91467
44.06146
44.02856
43.02557
41.19495
38.62811
35.41821
31.70587
27.70447
23.66211
19.78845
16.15277
12.65131
9.074097
5.113831
0.4859009
-4.919067
-10.94531
-17.08447
-22.55139
-26.40863
-27.79114
-26.10193
-21.18829
-13.47083
-3.752625
6.89917
17.48846
27.08008
35.07526
41.06445
44.90985
46.7738
46.93683
45.80743
43.76373
41.15601
38.14685
34.82562
31.1673
27.23456
23.19037
19.28162
15.8324
12.97736
10.75366
9.004333
7.332214
5.273071
2.347229
-1.745544
-6.946228
-12.68774
-18.05396
-21.84351
-22.87708
-20.43787
-14.34381
-5.206482
5.889038
17.59332
28.75696
38.52258
46.49585
52.55371
56.68054
58.97443
59.50696
58.46301
56.16833
53.09589
49.59802
45.86432
41.7738
37.00684
31.38708
24.95599
18.03918
11.20313
4.842957
-0.9019775
-6.204956
-11.50574
-17.29901
-23.91339
-31.41827
-39.60828
-47.88464
-55.42261
-61.17047
-64.01843
-63.12219
-58.22388
-49.64063
-38.30859
-25.44232
-12.21405
0.4067993
11.7652
21.51416
29.45819
35.45325
39.47034
41.6236
42.17596
41.62402
40.4538
39.08521
37.75873
36.39594
34.76825
32.57965
29.65826
26.05084
21.9906
17.76611
13.56317
9.390137
4.981018
0.05682373
-5.691467
-12.45099
-20.15314
-28.39221
-36.35901
-42.91296
-46.75458
-46.82416
-42.53308
-34.03802
-22.20102
-8.284302
6.376953
20.61618
33.50836
44.44
52.97693
58.89169
62.18219
63.02835
61.84106
59.21069
55.74197
51.92615
48.03278
44.0798
39.8382
35.01984
29.41068
23.07346
16.33249
9.716522
3.708191
-1.449677
-5.835846
-9.853394
-14.08859
-19.13272
-25.32169
-32.59351
-40.30844
-47.40009
-52.55466
-54.57764
-52.73825
-46.98685
-37.98108
-26.78543
-14.61206
-2.503021
8.804596
18.84171
27.29614
33.96078
38.73755
41.64273
42.86157
42.73062
41.64755
39.99698
38.02921
35.75519
33.0426
29.68567
25.57483
20.78604
15.60638
10.48856
5.830261
1.806519
-1.783203
-5.424469
-9.675507
-15.02036
-21.70599
-29.66753
-38.45934
-47.23117
-54.84515
-59.99774
-61.52689
-58.77512
-51.7605
-41.25685
-28.58611
-15.17824
-2.293304
9.149719
18.60101
25.73297
30.32722
32.39445
32.20436
30.35548
27.62486
24.77147
22.3054
20.36886
18.74541
16.9825
14.67111
11.56606
7.788345
3.660042
-0.2756882
-3.512589
-5.754227
-7.069557
-7.939659
-9.1003
-11.31164
-15.07145
-20.4283
-26.79476
-33.14825
-38.13303
-40.52061
-39.48911
-34.82188
-26.95166
-16.81794
-5.621319
5.426802
15.33974
23.39017
29.11695
32.3051
33.06436
31.71873
28.90773
25.34583
21.65234
18.23113
15.01763
11.73121
7.952858
3.524864
-1.416885
-6.419464
-10.93479
-14.60553
-17.37465
-19.55956
-21.69507
-24.41058
-28.15154
-33.17212
-39.35782
-46.19879
-52.82256
-58.08516
-60.79922
-59.98929
-55.22711
-46.75389
-35.47865
-22.66196
-9.613617
2.541763
13.09196
21.55829
27.74258
31.57341
33.09386
32.58029
30.55112
27.72301
24.74382
22.05252
19.71729
17.46567
14.95419
11.93141
8.348999
4.375702
0.2633362
-3.767456
-7.631714
-11.37433
-15.18066
-19.23434
-23.78735
-29.00012
-34.84146
-40.94788
-46.52481
-50.53317
-51.88879
-49.92697
-44.54358
-36.30896
-26.19388
-15.27505
-4.502625
5.470306
14.16312
21.27295
26.41986
29.38293
30.12872
28.98315
26.59592
23.73108
21.07117
18.94809
17.39618
16.11401
14.69861
12.85992
10.52179
7.761047
4.738678
1.644592
-1.493927
-4.709381
-8.106598
-11.88922
-16.20737
-21.21997
-26.76752
-32.45673
-37.49332
-40.87817
-41.64758
-39.12042
-33.18781
-24.33636
-13.62122
-2.191345
8.798615
18.49985
26.3562
32.01978
35.40982
36.48819
35.53149
32.86874
29.1395
25.02103
21.14267
17.86282
15.14926
12.67422
9.964447
6.643646
2.580658
-2.045807
-6.867035
-11.49008
-15.60651
-19.2348
-22.51501
-25.75653
-29.24622
-33.16016
-37.43024
-41.64203
-45.06921
-46.75592
-45.91284
-42.07556
-35.37372
-26.49664
-16.44373
-6.395691
2.689819
10.03888
15.25812
18.16406
18.87152
17.74835
15.34949
12.43274
9.583618
7.143921
5.132446
3.341248
1.453369
-0.7470703
-3.243469
-5.882629
-8.35614
-10.44318
-12.01404
-13.13586
-13.98615
-14.87079
-16.19897
-18.33777
-21.51355
-25.5882
-30.04279
-34.00049
-36.44336
-36.5545
-33.91089
-28.69641
-21.58319
-13.55658
-5.604065
1.462402
7.116028
11.14435
13.5011
14.28833
13.65607
11.82739
9.078369
5.764587
2.167419
-1.561951
-5.44165
-9.633728
-14.2702
-19.34485
-24.69781
-29.93262
-34.6134
-38.44086
-41.38702
-43.75916
-46.08282
-48.84137
-52.23065
-56.09656
-59.79639
-62.41394
-63.04266
-60.95355
-55.89612
-48.08179
-38.11993
-26.90967
-15.43811
-4.621643
4.839233
12.46814
17.9812
21.31226
22.51349
21.91022
20.00928
17.41742
14.75208
12.38348
10.41772
8.764221
7.125061
5.169983
2.791748
0.0411377
-2.871094
-5.632507
-8.075684
-10.2702
-12.39093
-14.84082
-17.98364
-21.97876
-26.74597
-31.78162
-36.26617
-39.22076
-39.70966
-37.10406
-31.27759
-22.6637
-12.16144
-0.8649902
10.1192
19.93976
27.99371
33.9321
37.63138
39.17722
38.81598
36.96741
34.15933
30.90826
27.64502
24.52414
21.60126
18.82602
16.11237
13.38058
10.57501
7.651581
4.549774
1.207397
-2.529877
-6.758667
-11.6044
-17.11359
-23.11368
-29.17288
-34.46844
-38.01743
-38.92804
-36.71851
-31.44476
-23.68112
-14.32584
-4.379395
5.299652
14.02356
21.26147
26.7059
30.18744
31.79926
31.87695
30.96979
29.6474
28.29337
26.9794
25.49976
23.58945
21.00394
17.70966
13.89291
9.865448
6.007233
2.616608
-0.2044067
-2.533142
-4.595581
-6.793701
-9.55014
-13.11526
-17.36041
-21.6983
-25.18628
-26.79697
-25.77838
-21.80719
-15.20361
-6.761627
2.449921
11.34979
19.11591
25.20724
29.39459
31.60367
32.03314
31.00537
28.91544
26.18719
23.06241
19.65045
15.87149
11.62076
6.788574
1.477203
-4.027618
-9.352753
-14.11673
-18.16855
-21.52148
-24.3598
-27.02127
-29.85742
-33.11389
-36.81042
-40.63333
-43.8773
-45.63235
-45.04568
-41.472
-34.84749
-25.63467
-14.79787
-3.526703
6.972458
15.82822
22.52777
26.90674
29.20558
29.76509
29.00974
27.3289
25.07518
22.53265
19.99529
17.68307
15.55861
13.58504
11.56628
9.406845
7.165268
4.939087
2.898758
1.073212
-0.6248016
-2.532883
-4.93399
-8.045456
-11.79688
-15.63699
-18.77591
-20.1102
-18.6011
-13.5659
-4.963608
6.524887
19.59088
32.58243
44.06038
52.86725
58.47346
60.83607
60.30798
57.43887
52.88379
47.30029
41.16498
34.97865
29.05807
23.6892
18.95252
14.83355
11.22254
7.890121
4.611404
1.093651
-2.863754
-7.5522
-13.1765
-19.86355
-27.49309
-35.40823
-42.55939
-47.57315
-49.23439
-46.86326
-40.59964
-31.34527
-20.4811
-9.489616
0.4729996
8.683662
14.89885
19.15506
21.63757
22.56902
22.11192
20.49998
17.94338
14.72713
11.14635
7.479424
3.94648
0.6707153
-2.326462
-5.082672
-7.718292
-10.42943
-13.51693
-17.36668
-22.31291
-28.47099
-35.61769
-43.01439
-49.48732
-53.71596
-54.46053
-51.08048
-43.59367
-32.76696
-19.89034
-6.525135
5.928711
16.45883
24.47158
29.86403
32.79205
33.57828
32.65435
30.45739
27.38636
23.73732
19.73107
15.43175
10.81813
5.971024
0.9566202
-4.002605
-8.692134
-12.96762
-16.89128
-20.77401
-25.1366
-30.50694
-37.12795
-44.89771
-53.09241
-60.53917
-65.78375
-67.53587
-65.01146
-58.20043
-47.7995
-34.98757
-21.16602
-7.522545
4.982658
15.71008
24.21644
30.246
33.81225
35.06885
34.4874
32.66586
30.20902
27.50664
24.67672
21.63768
18.25689
14.52776
10.54597
6.540634
2.754562
-0.6616058
-3.6884
-6.466156
-9.211075
-12.25165
-15.9191
-20.50278
-26.09575
-32.4091
-38.72421
-43.86612
-46.5246
-45.62314
-40.63457
-31.77951
-19.90356
-6.243149
7.942276
21.59712
34.08505
44.9366
53.81142
60.36993
64.35242
65.71896
64.74557
62.03415
58.28458
54.20969
50.18939
46.27841
42.38226
38.36694
34.22983
30.13287
26.38824
23.18344
20.59775
18.43695
16.28165
13.6835
10.25763
5.825989
0.6018677
-4.797058
-9.47052
-12.37021
-12.6051
-9.689392
-3.67749
4.809143
14.7879
25.16867
35.05536
43.84247
51.17081
56.90079
60.98785
63.44131
64.38666
63.98761
62.56931
60.47513
57.98471
55.17947
51.99509
48.22995
43.73532
38.47925
32.67508
26.65707
20.73654
15.16571
9.898987
4.703857
-0.849762
-7.185608
-14.50961
-22.55002
-30.5918
-37.54868
-42.18143
-43.49155
-40.94666
-34.72116
-25.61438
-14.79065
-3.463989
7.333984
16.98245
25.22928
32.13596
37.81699
42.27087
45.39285
47.05844
47.2524
46.19136
44.35191
42.24821
40.22957
38.40276
36.59845
34.45294
31.65276
28.05202
23.64908
18.73961
13.62111
8.511612
3.538727
-1.370255
-6.37796
-11.71974
-17.55013
-24.02788
-31.0524
-38.28349
-45.14963
-50.74236
-54.0834
-54.29544
-50.8806
-43.86397
-33.89728
-22.06374
-9.636566
2.241623
12.77518
21.51508
28.35979
33.44555
37.05584
39.51169
41.13857
42.1905
42.85643
43.27377
43.44773
43.31226
42.74939
41.61943
39.84982
37.40863
34.42252
31.08484
27.65504
24.37035
21.3078
18.48202
15.74047
12.92065
9.826757
6.304358
2.328106
-2.034348
-6.643841
-11.39536
-16.14058
-20.79047
-25.28329
-29.49177
-33.39962
-37.0619
-40.65155
-44.49352
-48.90129
-54.03
-59.66053
-65.30179
-70.08414
-73.1554
-73.80418
-71.68969
-66.97205
-60.22067
-52.28794
-44.00618
-36.15482
-29.20189
-23.42328
-18.84875
-15.42473
-13.00394
-11.47707
-10.73607
-10.63486
-11.03226
-11.63522
-12.23871
-12.61412
-12.75407
-12.7383
-12.7493
-12.97237
-13.54506
-14.51572
-15.80032
-17.31575
-18.94965
-20.64479
-22.29814
-23.78409
-24.99051
-25.89426
-26.57535
-27.24681
-28.17145
-29.52696
-31.30302
-33.13063
-34.40195
-34.38879
-32.40521
-28.1035
-21.45525
-12.89903
-3.119415
7.08522
16.97113
26.01196
33.79065
40.19118
45.11072
48.55072
50.49442
50.94328
50.0061
47.86679
44.81239
41.13705
37.30667
33.69304
30.5508
28.01318
25.95969
24.21184
22.50232
20.63087
18.49498
16.14365
13.64081
11.01534
8.315598
5.492386
2.612534
-0.3348236
-3.416016
-6.755707
-10.46657
-14.48604
-18.47627
-21.7048
-23.34575
-22.69453
-19.54007
-14.22501
-7.528732
-0.4317627
6.215912
11.80084
16.07964
18.99966
20.65689
21.27118
21.04053
20.25836
19.14459
17.86917
16.42441
14.74829
12.75162
10.3613
7.628906
4.5755
1.386505
-1.758392
-4.640533
-7.116119
-9.121521
-10.7002
-12.0416
-13.39163
-15.01892
-17.04291
-19.54721
-22.43448
-25.68469
-29.28217
-33.21854
-37.54422
-42.1665
-46.82681
-50.98523
-53.92822
-54.9021
-53.30856
-49.01215
-42.38785
-34.28281
-25.7135
-17.64154
-10.68451
-5.087463
-0.8313599
2.366028
4.658661
6.13324
6.778137
6.658173
5.884613
4.677185
3.238129
1.725861
0.1182861
-1.732239
-3.931519
-6.638702
-9.730591
-13.01205
-16.30173
-19.45755
-22.44708
-25.30664
-28.09833
-30.82031
-33.48373
-36.05429
-38.51874
-40.90646
-43.30878
-45.70444
-48.0379
-50.11285
-51.5108
-51.74072
-50.27783
-46.79294
-41.21405
-33.86166
-25.24283
-15.96591
-6.681641
2.181366
10.32117
17.58859
23.89578
29.12219
33.20984
36.06094
37.69632
38.18839
37.7433
36.57527
34.88081
32.83847
30.45235
27.83531
25.0255
22.22902
19.66444
17.52361
15.78218
14.23357
12.55856
10.33554
7.307693
3.300003
-1.669907
-7.464722
-13.77567
-20.17522
-26.06061
-30.61603
-33.12291
-32.97781
-29.96828
-24.39618
-16.84805
-8.121887
1.041031
9.998459
18.31721
25.66316
31.87531
36.832
40.4593
42.86491
44.14262
44.52724
44.20143
43.29562
41.82109
39.70406
36.78415
32.92265
28.24706
22.98102
17.50227
12.17113
7.225662
2.672272
-1.580765
-5.757492
-10.1114
-14.79227
-19.95943
-25.73787
-32.00328
-38.40736
-44.29724
-48.75075
-50.89948
-50.13199
-46.27576
-39.67953
-31.05643
-21.19346
-10.86382
-0.6567307
8.945229
17.56889
24.88022
30.68279
34.89306
37.63415
39.13527
39.56299
39.06081
37.70078
35.48874
32.47282
28.72052
24.32349
19.46053
14.30661
8.996887
3.689537
-1.446945
-6.357086
-11.03438
-15.54768
-20.06165
-24.71731
-29.69227
-35.06153
-40.80243
-46.61366
-52.01665
-56.29473
-58.61473
-58.2426
-54.64302
-47.84531
-38.30046
-26.83443
-14.43916
-2.056572
9.627197
20.10025
29.03426
36.27477
41.68848
45.30605
47.24568
47.79338
47.22581
45.86736
43.89661
41.39529
38.42443
34.98055
31.10547
26.87328
22.40973
17.87722
13.42606
9.202629
5.242363
1.479221
-2.301449
-6.393848
-11.06851
-16.60415
-23.01444
-30.0084
-36.92492
-42.71865
-46.17698
-46.30509
-42.54191
-34.93465
-24.22353
-11.52479
1.91412
14.94605
26.67937
36.61499
44.45054
50.17684
53.95585
56.06607
56.86147
56.65393
55.64104
53.84971
51.29757
47.94424
43.82005
39.03404
33.83077
28.42597
22.99888
17.516
11.84573
5.829851
-0.6591072
-7.579012
-14.7989
-22.09449
-29.27056
-36.14574
-42.7396
-49.11211
-55.38414
-61.62466
-67.75494
-73.45911
-78.13544
-80.9623
-81.04733
-77.74896
-70.81556
-60.53853
-47.62496
-33.09773
-18.06235
-3.511518
9.763834
21.21955
30.4986
37.36278
41.70699
43.61198
43.37597
41.44767
38.4395
34.9265
31.33307
27.83086
24.33115
20.6511
16.6557
12.42238
8.183063
4.270386
0.9016218
-1.865628
-4.273779
-6.764012
-9.930799
-14.15892
-19.55037
-25.7266
-31.86102
-36.95246
-39.87851
-39.80138
-36.28717
-29.50776
-20.03329
-8.753334
3.347277
15.41855
26.67447
36.51582
44.49694
50.35333
53.91956
55.22281
54.47592
52.06387
48.53506
44.39852
40.06729
35.69513
31.29727
26.76881
22.03576
17.18948
12.45082
8.152058
4.422142
1.206341
-1.782703
-4.909725
-8.486073
-12.67249
-17.44643
-22.70845
-28.14892
-33.37891
-37.7878
-40.62959
-41.17566
-38.96718
-33.98694
-26.72125
-18.05631
-8.942345
-0.1483994
7.884659
15.02872
21.37235
27.00928
31.91516
35.96165
39.05239
41.10676
42.21273
42.4779
41.96566
40.72551
38.7627
36.08994
32.83359
29.29127
25.85514
22.79912
20.24529
17.99954
15.79376
13.28557
10.32876
6.977737
3.357118
-0.351285
-4.191895
-8.344563
-13.19258
-19.01068
-25.92138
-33.62926
-41.46568
-48.51202
-53.73328
-56.12216
-54.90755
-49.88511
-41.29828
-29.96223
-16.95699
-3.501716
9.303867
20.58961
29.90404
37.16855
42.47852
46.08638
48.25098
49.23656
49.2533
48.45487
47.02474
45.06108
42.65608
39.89738
36.9042
33.88473
30.99578
28.34426
25.85823
23.38863
20.67002
17.51243
13.91714
10.13329
6.540115
3.507797
1.240646
-0.3492661
-1.629784
-3.225517
-5.692772
-9.407158
-14.36655
-20.15995
-26.00141
-30.89036
-33.84681
-34.07914
-31.3103
-25.74467
-18.14587
-9.638115
-1.355453
5.765533
11.20782
14.79788
16.67157
17.13229
16.60767
15.48639
14.12196
12.82002
11.74568
10.93018
10.21378
9.394196
8.30957
6.934799
5.341965
3.635742
1.903168
0.09759521
-1.85817
-4.107895
-6.691559
-9.552872
-12.50935
-15.31259
-17.81404
-19.88013
-21.59319
-23.12997
-24.80077
-27.00513
-29.96774
-33.73627
-37.9016
-41.703
-44.17311
-44.47736
-42.13788
-37.22543
-30.36536
-22.48657
-14.53604
-7.199921
-0.854187
4.341797
8.397064
11.3584
13.34341
14.51746
15.06708
15.14728
14.91586
14.45807
13.80087
12.90405
11.73795
10.25623
8.413177
6.180878
3.590149
0.7306519
-2.317261
-5.52594
-8.892609
-12.50992
-16.44302
-20.65607
-25.07376
-29.5451
-33.93454
-38.23413
-42.3566
-46.17209
-49.33319
-51.28378
-51.30481
-48.77609
-43.31293
-35.01337
-24.48541
-12.63873
-0.5495911
10.81372
20.68884
28.61578
34.3909
38.06677
39.90662
40.31824
39.82587
38.88681
37.77878
36.59509
35.1478
33.12766
30.33273
26.65924
22.24905
17.37943
12.36438
7.398132
2.68811
-1.829895
-6.334106
-11.0675
-16.36563
-22.53854
-29.6561
-37.53375
-45.57248
-52.73795
-57.98648
-60.43463
-59.56766
-55.37259
-48.27405
-38.9964
-28.41125
-17.43362
-6.863922
2.513672
10.16034
15.74158
19.14301
20.49738
20.05716
18.2298
15.48218
12.25967
8.928131
5.700012
2.676208
-0.1950684
-2.985321
-5.695038
-8.25705
-10.51172
-12.2822
-13.60715
-14.64627
-15.73221
-17.36414
-19.9292
-23.5148
-27.82285
-32.09402
-35.21893
-36.13565
-34.13092
-29.0119
-21.22015
-11.58203
-1.097168
9.30545
18.81085
26.84946
33.03641
37.12927
39.15097
39.3873
38.36627
36.66507
34.77554
32.89682
30.97537
28.76321
26.0022
22.60849
18.68939
14.53619
10.36691
6.390106
2.591125
-1.098419
-4.895264
-8.979401
-13.49719
-18.54858
-23.94708
-29.34375
-34.09491
-37.45026
-38.56055
-36.90369
-32.3577
-25.31699
-16.62744
-7.281311
1.706207
9.536041
15.65173
19.7699
21.83908
21.97739
20.42947
17.60809
14.05017
10.24371
6.49118
2.884674
-0.7064209
-4.359497
-8.125305
-11.83649
-15.28842
-18.30582
-20.98267
-23.66556
-26.89542
-31.14142
-36.61911
-43.13907
-50.12003
-56.71277
-61.9408
-64.94635
-65.08096
-62.14084
-56.33182
-48.25955
-38.83636
-29.05383
-19.74744
-11.68414
-5.358551
-1.011627
1.303192
1.766525
0.8098297
-0.9940338
-3.140366
-5.190109
-7.084778
-8.977036
-11.13141
-13.76276
-16.81152
-19.98584
-22.91234
-25.28841
-26.98936
-28.17264
-29.17323
-30.31145
-31.95226
-34.14865
-36.70334
-39.10329
-40.51892
-40.04443
-36.90633
-30.63261
-21.28409
-9.611191
3.324066
16.26595
28.06766
37.925
45.46709
50.66336
53.76154
55.18552
55.26676
54.42476
52.95401
50.99947
48.6542
45.88409
42.58593
38.68245
34.24427
29.34712
24.25912
19.24553
14.40921
9.738783
5.017514
-0.1026001
-5.782003
-11.81981
-17.56705
-21.95642
-23.84562
-22.41265
-17.41945
-9.301802
0.8773384
11.81577
22.27316
31.32545
38.43889
43.44925
46.45089
47.71971
47.57915
46.30082
44.18679
41.44061
38.09968
34.11795
29.38557
23.86233
17.66537
11.10842
4.491394
-1.889664
-7.902786
-13.76351
-19.79105
-26.35347
-33.48251
-40.75326
-47.22022
-51.65046
-52.83327
-49.93185
-42.85217
-32.23198
-19.35698
-5.684448
7.381149
18.85005
28.19466
35.24316
40.09029
42.89874
43.93271
43.33714
41.28128
37.94708
33.52838
28.26842
22.4343
16.3725
10.34689
4.687912
-0.3864746
-4.948105
-9.202087
-13.53021
-18.41507
-24.27321
-31.24835
-39.07117
-46.99393
-53.73152
-57.87009
-58.10916
-53.66057
-44.52283
-31.55652
-16.16393
0.02949524
15.54356
29.29778
40.58929
49.10492
54.71361
57.54248
57.78337
55.73033
51.77522
46.30888
39.74323
32.44
24.75806
16.9357
9.117767
1.462891
-5.908783
-12.86386
-19.26245
-25.13968
-30.77686
-36.7309
-43.59467
-51.73425
-60.81775
-69.73486
-76.82648
-80.26733
-78.72794
-71.8121
-60.1525
-45.1647
-28.51706
-11.77142
3.941376
17.84592
29.44135
38.32217
44.21899
46.98621
46.84543
44.34909
40.2207
35.23306
29.98013
24.68564
19.22775
13.37723
6.860199
-0.2905884
-7.743134
-15.02863
-21.63632
-27.30664
-32.23169
-36.90973
-41.9072
-47.68344
-54.40933
-61.81528
-69.23364
-75.49707
-79.11777
-78.68024
-73.06238
-61.96774
-45.9996
-26.62598
-5.727386
14.77142
33.41998
49.30551
61.94138
71.17664
77.07825
79.86511
79.94922
78.08563
74.95184
71.25037
67.39362
63.48608
59.3728
54.83783
49.73108
44.22778
38.70758
33.54608
28.99097
24.97589
21.07574
16.67645
11.1568
4.096313
-4.495422
-14.08771
-23.60809
-31.63153
-36.64313
-37.39063
-33.19885
-24.1778
-11.27881
4.029114
20.08881
35.39752
48.89813
60.0224
68.45508
74.19861
77.32111
77.97516
76.48102
73.3371
69.1272
64.40497
59.52112
54.52863
49.22028
43.37885
36.88959
29.92578
22.88177
16.14117
9.940002
4.290588
-1.131409
-6.881897
-13.48163
-21.29572
-30.18921
-39.33502
-47.37787
-52.63214
-53.54797
-49.23108
-39.69879
-25.86664
-9.328674
8.149475
25.0307
40.19513
52.94958
62.94708
70.04907
74.20453
75.56964
74.42462
71.23779
66.75787
61.69537
56.6228
51.81012
47.11896
42.17645
36.60846
30.20105
23.01074
15.46558
7.896729
0.5847778
-6.420898
-13.35004
-20.59845
-28.54327
-37.4201
-47.14294
-57.164
-66.52789
-73.87292
-77.79926
-77.27631
-71.93512
-62.10938
-48.82886
-33.49719
-17.58633
-2.426422
11.08472
22.46368
31.52875
38.3606
43.19009
46.23294
47.69534
47.81906
46.79092
44.92514
42.56219
39.95822
37.28265
34.50766
31.38641
27.63062
23.05209
17.58942
11.37039
4.618042
-2.340057
-9.194366
-15.67606
-21.64728
-27.07016
-32.02478
-36.80145
-41.76105
-47.11765
-52.771
-58.11774
-62.13611
-63.58093
-61.31766
-54.72855
-43.94409
-29.87704
-13.84558
2.607574
18.21292
32.09869
43.72369
52.87192
59.46082
63.52542
65.28433
65.18161
63.80377
61.73611
59.37787
56.8703
54.11346
51.00153
47.43323
43.54477
39.5946
35.76627
32.20505
28.86288
25.57416
22.05273
18.03931
13.31653
7.795807
1.6297
-4.950195
-11.44051
-17.3987
-22.54405
-26.83255
-30.50742
-34.01849
-37.86096
-42.49188
-48.16626
-54.66644
-61.36984
-67.25967
-71.12973
-71.91177
-68.99109
-62.34041
-52.55013
-40.69325
-27.79918
-14.86626
-2.635086
8.416794
18.01086
25.99443
32.26835
36.96631
40.18436
42.08192
42.74472
42.14168
40.3632
37.46982
33.69476
29.29454
24.66629
20.07048
15.7188
11.66444
7.857967
4.304523
0.9766083
-2.178236
-5.25441
-8.310772
-11.45235
-14.72474
-18.21518
-22.05999
-26.45958
-31.69695
-37.8813
-44.76854
-51.58035
-57.15039
-60.14533
-59.4981
-54.86587
-46.61586
-35.79039
-23.74988
-11.74773
-0.837719
8.357189
15.51327
20.66216
23.97401
25.80637
26.55046
26.57066
26.16751
25.39802
24.24254
22.6278
20.64172
18.39131
16.08308
13.84844
11.70642
9.531204
7.134674
4.385986
1.19281
-2.352127
-6.090866
-9.917847
-13.7287
-17.57657
-21.61671
-26.08162
-31.23358
-37.2077
-43.96452
-51.01561
-57.62798
-62.70848
-65.22386
-64.37448
-59.8512
-51.98972
-41.64433
-30.00328
-18.2489
-7.452972
1.782471
9.11264
14.50153
18.15257
20.31544
21.35864
21.63087
21.46638
21.03539
20.51817
19.9183
19.15137
18.19598
16.96028
15.41191
13.51746
11.30669
8.870041
6.354645
3.927124
1.609558
-0.5764771
-2.796356
-5.264038
-8.166443
-11.60104
-15.64551
-20.27133
-25.40268
-30.82175
-35.99478
-40.20026
-42.56885
-42.35678
-39.17169
-33.17313
-24.94968
-15.34247
-5.288208
4.455475
13.30743
20.98898
27.34174
32.25372
35.68573
37.59244
37.98108
36.87689
34.42731
30.83401
26.39139
21.35092
15.92465
10.28989
4.694885
-0.6077576
-5.465942
-9.739807
-13.50333
-16.98254
-20.43524
-24.0249
-27.8187
-31.70367
-35.52011
-39.21405
-42.8118
-46.53085
-50.67453
-55.41217
-60.65723
-65.90555
-70.35895
-72.97122
-72.81531
-69.37967
-62.74582
-53.56503
-42.862
-31.79678
-21.38934
-12.35211
-4.969116
0.7839966
5.177887
8.478729
10.94464
12.77536
14.08469
14.93317
15.36798
15.46313
15.14169
14.44073
13.30496
11.68378
9.639374
7.297516
4.852203
2.487427
0.3652344
-1.549347
-3.353821
-5.220642
-7.298615
-9.685913
-12.38513
-15.41898
-18.89603
-22.95648
-27.8186
-33.40759
-39.27008
-44.57675
-48.17999
-48.98492
-46.23773
-39.8342
-30.25317
-18.48151
-5.670532
7.105713
18.9751
29.41904
38.03024
44.66156
49.32864
52.20999
53.60886
53.87891
53.37088
52.34143
51.10196
49.70563
48.16312
46.30035
43.92645
40.81097
36.91275
32.4574
27.78436
23.3822
19.39331
15.76083
12.17783
8.268402
3.791229
-1.353439
-7.012802
-13.0717
-19.44334
-26.1935
-33.30756
-40.52699
-47.22353
-52.41479
-55.08466
-54.49557
-50.43303
-43.26114
-33.76447
-22.9043
-11.53958
-0.4655609
9.767853
18.67209
25.90237
31.27206
34.8044
36.69817
37.19942
36.57245
34.91499
32.41518
29.24806
25.69136
22.09798
18.69499
15.62628
12.78763
9.972885
6.944168
3.531494
-0.3474121
-4.729111
-9.618698
-15.01085
-20.86278
-27.0643
-33.49228
-40.04497
-46.72556
-53.58279
-60.66917
-67.84428
-74.70354
-80.47221
-84.15236
-84.80731
-81.75644
-74.87665
-64.57326
-51.748
-37.53297
-23.06483
-9.345657
2.933899
13.22502
21.24004
26.86891
30.22241
31.64987
31.58858
30.53883
28.86606
26.82124
24.48059
21.89978
19.14703
16.22791
13.23552
10.15813
7.031578
3.923904
0.9224548
-1.948608
-4.661522
-7.259323
-9.997093
-13.09637
-16.92193
-21.74023
-27.70711
-34.76521
-42.46871
-49.9353
-55.84673
-58.85559
-57.74079
-51.92459
-41.59148
-27.66664
-11.67124
4.844116
20.4973
34.36282
45.94864
55.1247
61.78384
65.9341
67.64562
67.09081
64.70094
61.0801
56.77102
52.1327
47.25714
41.95801
36.0122
29.35897
22.13618
14.6344
7.230694
0.1702614
-6.4021
-12.52195
-18.44845
-24.60992
-31.45852
-39.47513
-48.79826
-59.0971
-69.64996
-79.11388
-86.00031
-88.99226
-87.20968
-80.44573
-69.19913
-54.46828
-37.53511
-19.74631
-2.264252
13.9736
28.22495
39.92033
48.70879
54.44333
57.21758
57.4071
55.58858
52.38307
48.40518
44.01962
39.38655
34.4521
29.08971
23.3383
17.44138
11.78731
6.758331
2.583359
-0.8778839
-3.980942
-7.401688
-11.82349
-17.73366
-25.29733
-34.27145
-44.00296
-53.33865
-60.82315
-64.9068
-64.40152
-58.75577
-48.24057
-33.88452
-17.24356
0.09054565
16.84357
32.15958
45.55875
56.72275
65.39548
71.33289
74.41559
74.72913
72.6528
68.78101
63.7204
57.90408
51.59506
44.87427
37.73849
30.32339
22.99857
16.24152
10.54303
6.114624
2.756317
-0.1167297
-3.349976
-7.896606
-14.39914
-22.97397
-33.11133
-43.64203
-52.91968
-59.15448
-60.76239
-56.83725
-47.35498
-33.12796
-15.61526
3.436371
22.40381
39.96622
55.25818
67.69077
76.84784
82.4111
84.29874
82.74863
78.271
71.72061
64.01834
55.90408
47.78751
39.74747
31.64767
23.41516
15.13382
7.077209
-0.4285278
-7.221313
-13.39374
-19.341
-25.61136
-32.7887
-41.22018
-50.94052
-61.33035
-71.19583
-78.81561
-82.33762
-80.21347
-71.69891
-57.05319
-37.59198
-15.27264
7.841705
29.90942
49.61487
66.061
78.79813
87.53183
92.28326
93.30853
91.16223
86.60968
80.48032
73.52905
66.30634
59.05774
51.77576
44.38443
36.86432
29.32965
22.01688
15.17297
8.951874
3.433777
-1.610413
-6.54248
-11.82452
-17.93762
-25.2355
-33.76422
-43.14478
-52.44476
-60.24338
-64.9743
-65.27985
-60.49594
-50.81833
-37.27814
-21.39728
-4.799103
11.09332
25.35266
37.44724
47.15903
54.44028
59.34174
62.00708
62.71472
61.8363
59.746
56.849
53.41791
49.69861
45.836
41.92831
38.1463
34.50568
31.0134
27.47778
23.67325
19.36859
14.45425
9.070862
3.44397
-2.151123
-7.650055
-13.13696
-18.97064
-25.5379
-33.10883
-41.76178
-51.04608
-60.15121
-67.7587
-72.3136
-72.3194
-66.81732
-55.68143
-39.71127
-20.53583
-0.07669067
19.79047
37.72955
52.96207
65.22537
74.54233
80.96265
84.67664
85.88153
84.95755
82.40704
78.81961
74.64172
70.05991
65.1051
59.66272
53.80756
47.78076
42.02713
36.93472
32.62109
28.83514
24.94772
20.38062
14.74519
8.060425
0.736557
-6.672638
-13.6629
-20.06894
-26.06287
-32.15649
-38.87395
-46.56609
-55.19301
-64.08469
-72.13426
-77.93867
-80.17905
-77.98175
-71.1321
-60.10538
-45.93637
-30.00308
-13.69505
1.683273
15.15621
26.13997
34.45868
40.22613
43.75136
45.4573
45.7234
44.97189
43.45865
41.38485
38.82924
35.69007
31.92179
27.48885
22.59062
17.44921
12.51096
7.973951
3.872775
0.01429653
-3.958803
-8.33429
-13.29025
-18.80072
-24.776
-30.97066
-37.17677
-43.27534
-49.19691
-55.04322
-61.03479
-67.41228
-74.27744
-81.42793
-88.09178
-93.11728
-95.28686
-93.5762
-87.65459
-77.93989
-65.40214
-51.3483
-37.00445
-23.37962
-11.11588
-0.6959381
7.728706
14.07765
18.41724
21.02162
22.22092
22.3576
21.65561
20.30074
18.35056
15.98395
13.43834
10.97121
8.908646
7.451538
6.534851
5.836014
4.876785
3.125824
0.2762451
-3.638763
-8.322052
-13.19958
-17.74443
-21.63246
-24.77554
-27.38933
-29.87769
-32.60054
-35.64552
-38.84595
-41.50882
-42.67062
-41.32027
-36.71948
-28.75298
-17.97778
-5.535614
7.294968
19.28159
29.70056
38.28101
45.10258
50.39458
54.30357
56.84686
57.9362
57.5885
55.91261
53.27437
50.1824
47.07539
44.22707
41.67969
39.27391
36.71498
33.75591
30.16608
25.91985
21.09821
15.87274
10.47536
5.033722
-0.4248962
-6.006134
-11.8324
-18.13684
-25.01926
-32.44263
-40.11688
-47.48978
-53.68411
-57.71729
-58.69861
-55.99777
-49.60513
-40.01859
-28.19473
-15.32922
-2.603851
9.002075
18.74512
26.20435
31.35043
34.29822
35.41693
35.10941
33.75693
31.67441
29.14783
26.44821
23.79312
21.44312
19.38629
17.51627
15.578
13.24847
10.29678
6.655029
2.407898
-2.296539
-7.145111
-12.02051
-16.74622
-21.26086
-25.64999
-30.06277
-34.77963
-39.92743
-45.49481
-50.95471
-55.61282
-58.44705
-58.64713
-55.85675
-50.20279
-42.38647
-33.27267
-23.75626
-14.414
-5.683899
2.2677
9.268951
15.06012
19.55579
22.74173
24.78436
25.95685
26.57037
26.70917
26.31445
25.23755
23.2793
20.51328
17.20856
13.75592
10.59088
8.024963
6.113068
4.644623
3.222137
1.260406
-1.605255
-5.647339
-10.74234
-16.49973
-22.37866
-27.90833
-32.86188
-37.37396
-41.79471
-46.49255
-51.80655
-57.67072
-63.66309
-68.98367
-72.59903
-73.43491
-70.75058
-64.27295
-54.37476
-41.94656
-28.18369
-14.24268
-1.063019
10.6777
20.65549
28.69891
34.79611
39.07968
41.77686
43.21606
43.7709
43.69653
43.04913
41.68085
39.34518
35.79282
30.98401
25.17615
18.95203
12.96616
7.735657
3.403229
-0.27771
-3.725037
-7.395691
-11.51028
-15.97797
-20.54141
-24.98132
-29.18994
-33.36658
-37.82776
-42.8508
-48.62109
-55.14078
-62.12393
-68.96735
-74.80154
-78.51654
-79.07001
-75.63605
-67.92084
-56.31635
-41.81339
-25.78381
-9.680664
5.253998
18.21848
28.70535
36.68689
42.32538
45.85016
47.62726
47.92072
47.03537
45.21167
42.73618
39.71579
36.32922
32.71518
29.00787
25.43011
22.17554
19.31091
16.69263
14.14001
11.30103
7.885345
3.67569
-1.362335
-7.100372
-13.34494
-19.86084
-26.44971
-32.95419
-39.40195
-45.96133
-52.86176
-60.09543
-67.20135
-73.2269
-76.76929
-76.52289
-71.60681
-61.96902
-48.48938
-32.58997
-15.92276
0.2171021
14.89252
27.63739
38.10321
46.12015
51.54654
54.41693
55.0639
53.96606
51.68045
48.60721
44.99078
40.82031
36.07581
30.84464
25.3248
19.88989
14.82892
10.29935
6.279449
2.635162
-0.9013672
-4.629608
-8.772461
-13.46219
-18.60596
-24.10812
-29.81152
-35.65048
-41.75461
-48.35815
-55.83667
-64.42999
-73.96347
-83.67117
-92.32016
-98.34927
-100.255
-97.0372
-88.46176
-75.15372
-58.41861
-39.8942
-21.1853
-3.604797
11.92691
24.91614
35.13461
42.58665
47.45461
50.02222
50.66472
49.78178
47.77625
44.96053
41.52332
37.5979
33.26505
28.6584
23.87602
19.06949
14.27992
9.567963
5.007233
0.597168
-3.663498
-7.789795
-11.79568
-15.80421
-19.95563
-24.52945
-29.82684
-36.0207
-42.99282
-50.16743
-56.46262
-60.46805
-60.82755
-56.56052
-47.45876
-34.1647
-17.9538
-0.3653717
17.15467
33.51181
47.97581
60.05773
69.42177
75.86275
79.35247
80.15775
78.83213
76.04241
72.39754
68.21684
63.4717
57.94758
51.48363
44.14319
36.26197
28.33474
20.78931
13.88458
7.581629
1.609354
-4.458515
-11.13352
-18.83783
-27.84755
-38.09659
-48.99592
-59.39846
-67.69408
-72.23447
-71.72345
-65.6087
-54.23743
-38.69656
-20.49949
-1.297119
17.40497
34.487
49.07291
60.55714
68.56964
72.92744
73.7906
71.64235
67.2
61.18625
54.26398
46.8782
39.25272
31.48349
23.59419
15.71118
8.106934
1.101883
-5.133102
-10.55132
-15.44095
-20.34125
-25.88927
-32.72485
-41.20966
-51.24223
-62.1335
-72.64862
-81.14462
-85.89651
-85.41541
-78.82062
-66.20018
-48.57892
-27.67737
-5.583008
15.83832
35.17719
51.53661
64.45633
73.74432
79.28851
81.04906
79.26321
74.50989
67.77513
60.16351
52.56673
45.40527
38.66777
32.03537
25.17459
18.01141
10.77557
3.861786
-2.376648
-7.883362
-12.99646
-18.31689
-24.586
-32.4874
-42.44434
-54.38058
-67.61011
-80.72333
-91.85751
-98.9736
-100.3128
-94.84863
-82.67502
-64.87766
-43.31729
-20.18793
2.597076
23.50769
41.55429
56.17523
67.00723
73.77319
76.43384
75.25952
70.879
64.32956
56.69577
48.85205
41.22946
33.7272
25.98959
17.71613
8.860687
-0.3684692
-9.502197
-18.07349
-25.77621
-32.45602
-38.24802
-43.37027
-48.16254
-53.18362
-59.18381
-66.63809
-75.6413
-85.50446
-94.68384
-101.1435
-102.7265
-97.94226
-86.38394
-68.88748
-47.19254
-23.56354
-0.1387024
21.37997
39.87799
54.79269
65.79623
72.79355
75.8425
75.27527
71.66742
65.87952
58.92059
51.59039
44.34821
37.24329
30.10291
22.73059
15.10223
7.313354
-0.4186401
-7.784973
-14.6131
-20.8786
-26.7074
-32.42914
-38.49188
-45.37964
-53.47791
-62.97968
-73.59912
-84.56805
-94.60126
-101.9621
-104.8856
-101.9388
-92.40399
-76.53308
-55.60382
-31.58649
-6.716431
16.99243
38.00476
55.33008
68.48755
77.31207
81.98785
82.91626
80.78943
76.43073
70.73987
64.51379
58.19189
51.84119
45.2428
38.11145
30.34937
22.21429
14.13672
6.574951
-0.1280518
-6.057007
-11.6499
-17.48254
-24.10992
-31.78485
-40.34906
-49.2547
-57.5119
-63.81854
-66.78583
-65.14929
-58.27631
-46.24219
-29.99554
-11.0603
8.894348
28.35156
46.25513
61.93744
75.02783
85.16028
92.03394
95.42279
95.42072
92.57867
87.65936
81.59155
75.09387
68.67041
62.53772
56.7616
51.41077
46.70471
42.97388
40.40015
38.97876
38.30603
37.65466
36.10034
32.88599
27.70532
20.9176
13.66663
7.527222
4.207642
5.03894
10.52246
20.28162
33.15271
47.6073
62.13977
75.60815
87.30103
96.82581
104.0248
108.6805
110.7466
110.2302
107.3699
102.6407
96.66895
90.13647
83.59485
77.44775
71.75134
66.42737
61.26379
56.03906
50.71417
45.41754
40.33746
35.60419
31.16602
26.69714
21.70166
15.62793
7.978638
-1.352722
-11.95251
-22.80542
-32.40039
-38.99274
-40.97961
-37.47003
-28.45386
-14.88568
1.635132
19.26556
36.33575
51.55133
64.10486
73.62567
79.97241
83.31055
83.89197
82.15344
78.59924
73.7464
68.14819
62.22644
56.47253
51.22473
46.82635
43.39349
40.97009
39.44312
38.57758
38.03247
37.35254
36.151
34.0603
30.95465
26.85315
21.89807
16.30945
10.29327
3.984314
-2.519897
-9.043579
-15.42294
-21.43976
-26.96359
-32.04614
-36.87469
-41.76031
-46.99219
-52.75589
-58.98627
-65.40115
-71.65204
-77.32715
-82.23965
-86.34058
-89.86502
-93.13721
-96.59247
-100.5175
-104.9045
-109.2918
-112.667
-113.755
-111.2356
-104.2482
-92.70706
-77.39932
-59.70042
-41.24164
-23.46292
-7.343613
6.497116
17.89183
26.82693
33.36252
37.58096
39.69397
40.02618
39.0692
37.39063
35.36514
33.1894
30.89488
28.40929
25.69364
22.93452
20.43156
18.44862
17.04174
15.93852
14.6229
12.52705
9.327066
5.019585
-0.06189537
-5.487255
-10.81608
-15.75494
-20.26917
-24.43314
-28.52736
-32.95043
-38.06224
-44.1748
-51.22974
-58.72252
-65.61941
-70.62807
-72.46657
-70.31327
-64.03526
-54.15932
-41.82355
-28.35399
-14.95918
-2.586487
8.16011
16.99409
23.78922
28.55411
31.39581
32.57123
32.49237
31.66949
30.52165
29.30399
28.0681
26.66458
24.93005
22.85031
20.47757
18.03238
15.73834
13.62265
11.5257
9.119568
6.094452
2.352234
-1.89563
-6.308899
-10.51154
-14.24399
-17.53741
-20.61972
-23.90479
-27.84998
-32.75668
-38.67004
-45.23685
-51.76678
-57.20764
-60.384
-60.31607
-56.53073
-49.27008
-39.35999
-27.99054
-16.34323
-5.348511
4.397614
12.53369
18.92218
23.49652
26.25555
27.35321
27.02197
25.61496
23.42419
20.69464
17.44159
13.75726
9.733215
5.57074
1.565308
-2.043396
-5.110474
-7.65564
-9.725342
-11.55682
-13.30212
-15.10474
-17.02148
-19.02338
-21.01147
-22.86426
-24.58453
-26.22516
-28.09845
-30.60413
-34.13989
-38.82568
-44.40277
-50.12775
-54.89734
-57.59448
-57.25708
-53.47656
-46.43542
-36.90198
-26.04175
-15.01849
-4.855896
3.821289
10.69519
15.75189
19.09436
20.97803
21.68103
21.43213
20.57562
19.37836
18.12958
17.01331
16.10638
15.35736
14.59436
13.62152
12.21545
10.24402
7.650574
4.46283
0.7770996
-3.237549
-7.469238
-11.75946
-15.90356
-19.8446
-23.50702
-27.02972
-30.56665
-34.26215
-38.27069
-42.55029
-46.72766
-50.10522
-51.85602
-51.07178
-47.25024
-40.37671
-30.97711
-20.08344
-8.913879
1.536804
10.57697
17.8562
23.29156
26.88013
28.7041
28.85577
27.48981
24.86493
21.35083
17.33704
13.20386
9.281067
5.695557
2.456238
-0.569458
-3.548828
-6.613586
-9.857056
-13.29144
-16.81842
-20.29761
-23.60931
-26.63696
-29.32172
-31.69507
-33.84338
-35.98651
-38.50238
-41.84302
-46.32098
-51.99225
-58.36877
-64.47412
-68.98792
-70.60736
-68.50226
-62.49567
-53.16901
-41.58551
-29.03748
-16.69092
-5.409485
4.313049
12.2276
18.30042
22.60492
25.20746
26.26782
25.98138
24.6521
22.66162
20.4408
18.32043
16.51501
15.11603
14.01715
12.97791
11.72998
10.0965
8.061523
5.694336
3.153687
0.4857178
-2.28949
-5.332458
-8.781799
-12.72119
-17.14331
-21.96552
-27.13568
-32.54736
-38.052
-43.19891
-47.29663
-49.31177
-48.26605
-43.52283
-35.1377
-23.88843
-11.02484
2.066528
14.28955
24.95831
33.8407
40.97729
46.38971
50.09473
52.02655
52.10931
50.39526
47.06799
42.46381
36.98431
31.13788
25.35809
20.06281
15.47681
11.60583
8.36438
5.586487
3.109253
0.8066406
-1.424438
-3.767639
-6.404053
-9.599731
-13.6463
-18.76038
-25.06531
-32.45984
-40.61157
-48.91797
-56.44208
-62.0307
-64.52155
-63.0376
-57.19055
-47.35046
-34.55304
-20.19843
-5.852539
7.216553
18.1568
26.64349
32.70691
36.67664
38.85065
39.48743
38.96429
37.57306
35.66064
33.51349
31.24554
28.80316
26.03357
22.77228
18.88605
14.43689
9.473633
4.151306
-1.422119
-7.212769
-13.14661
-19.17316
-25.14032
-30.92432
-36.45422
-41.83362
-47.22729
-52.86749
-58.93799
-65.27576
-71.2655
-75.8952
-77.94196
-76.36438
-70.70874
-61.14343
-48.4472
-33.79193
-18.32422
-3.002808
11.45245
24.49408
35.63287
44.50507
50.83539
54.64832
56.23187
56.08954
54.849
53.0448
51.013
48.76508
46.18225
43.02106
39.23395
34.96552
30.47626
26.08655
21.95154
18.00244
13.98035
9.510986
4.35968
-1.590454
-8.194092
-15.13049
-21.97156
-28.3764
-34.17206
-39.44177
-44.56201
-50.09613
-56.565
-64.13983
-72.4953
-80.64709
-87.2066
-90.69647
-89.78967
-83.79944
-72.81506
-57.69287
-39.8725
-21.07056
-2.838074
13.67334
27.81244
39.45154
48.70117
55.76575
60.8512
64.08655
65.64078
65.72427
64.68951
62.89319
60.63943
57.99866
54.97638
51.54776
47.72012
43.65137
39.52914
35.51202
31.58215
27.52353
22.9801
17.66003
11.44824
4.503632
-2.782501
-9.986786
-16.72183
-22.76105
-28.16248
-33.18954
-38.32932
-44.11447
-50.95346
-58.94492
-67.64417
-76.06311
-82.72437
-86.05328
-84.74313
-78.10229
-66.23856
-50.06787
-31.07394
-10.94254
8.729187
26.74033
42.29138
54.97382
64.63513
71.28906
75.04709
76.15201
75.07104
72.44861
68.98682
65.28149
61.62357
58.01648
54.24225
50.15045
45.72263
41.17081
36.74399
32.63269
28.83789
25.08322
21.06647
16.42523
10.99609
4.853027
-1.766571
-8.603729
-15.37595
-21.9465
-28.30753
-34.46533
-40.54037
-46.61899
-52.7317
-58.88431
-64.9583
-70.58424
-75.05679
-77.41284
-76.55856
-71.68622
-62.50359
-49.27634
-32.95955
-14.82266
3.705948
21.40761
37.33659
50.92741
61.77548
69.74141
74.9231
77.50159
77.91603
76.60519
74.10365
70.83072
67.15135
63.18112
58.99611
54.5575
49.8118
44.92404
40.00485
35.22597
30.73409
26.49142
22.23813
17.68385
12.47942
6.484238
-0.1169128
-7.014359
-13.81812
-20.21907
-26.15819
-31.79654
-37.45001
-43.54297
-50.40869
-58.14133
-66.51752
-74.77879
-81.71748
-85.87985
-85.8707
-80.8188
-70.61642
-56.01604
-38.2838
-18.98616
0.4685059
18.90523
35.36853
49.20013
59.93103
67.35129
71.55882
73.02849
72.34294
70.26517
67.37561
64.00307
60.27669
56.14612
51.6384
46.81804
41.88435
36.99211
32.32207
27.85545
23.55135
19.26672
14.81651
10.10852
5.068344
-0.3138962
-5.986549
-11.78722
-17.48428
-22.86563
-27.86432
-32.60355
-37.42886
-42.83551
-49.19757
-56.53314
-64.28234
-71.27615
-76.02077
-77.04359
-73.42334
-65.00709
-52.45663
-36.94183
-19.80869
-2.387138
14.29135
29.43194
42.49808
53.05803
60.901
66.00043
68.5711
68.99567
67.71205
65.15656
61.63865
57.36752
52.39061
46.78941
40.71246
34.55206
28.7533
23.7479
19.72535
16.57618
13.87666
11.06327
7.642197
3.370537
-1.633171
-7.107521
-12.63049
-17.92209
-22.89774
-27.75962
-32.85848
-38.61462
-45.25975
-52.79023
-60.78384
-68.40294
-74.5162
-77.85827
-77.31232
-72.21207
-62.58314
-48.99655
-32.67136
-15.05346
2.356682
18.28271
31.82428
42.51416
50.23083
55.03645
57.27639
57.44389
56.09621
53.79031
50.95796
47.77703
44.41875
40.83071
37.03123
33.05206
29.02124
25.07661
21.23692
17.38359
13.22235
8.525238
3.127632
-2.936737
-9.474983
-16.18635
-22.80054
-29.13483
-35.25833
-41.41431
-47.89359
-54.90633
-62.33389
-69.67484
-75.93665
-79.91898
-80.31705
-76.26737
-67.58796
-54.76715
-38.93654
-21.50072
-3.845032
12.80214
27.54935
39.79764
49.27308
55.84063
59.69231
61.19962
60.82635
59.11723
56.49393
53.25105
49.52592
45.37437
40.73925
35.70375
30.47163
25.33923
20.59075
16.37737
12.58012
8.925728
5.051018
0.6323166
-4.342743
-9.674919
-14.98822
-20.01077
-24.67178
-29.23958
-34.20609
-40.06517
-47.20113
-55.58152
-64.69389
-73.47973
-80.46342
-84.05183
-82.96068
-76.58824
-65.09796
-49.50765
-31.32561
-12.21278
6.336784
23.25394
37.78914
49.47978
58.07292
63.59254
66.21803
66.39111
64.66086
61.62662
57.7821
53.47225
48.8929
44.09854
39.27894
34.59964
30.33199
26.70694
23.76784
21.37354
19.13018
16.54114
13.0341
8.37011
2.467812
-4.395378
-11.76295
-19.20741
-26.41537
-33.36562
-40.15978
-47.06431
-54.2793
-62.02617
-70.2543
-78.55446
-86.11023
-91.58799
-93.51305
-90.56487
-82.19044
-68.65401
-51.15525
-31.38428
-11.05959
8.332752
25.75293
40.55358
52.35254
60.90239
66.23959
68.62158
68.47089
66.41527
63.06391
58.97292
54.56279
50.13277
45.81667
41.64359
37.60538
33.68746
29.94152
26.43444
23.26511
20.39078
17.65368
14.74313
11.25587
6.807079
1.198864
-5.474733
-12.81894
-20.30892
-27.47104
-34.03755
-40.05074
-45.82082
-51.82514
-58.49042
-66.02716
-74.34059
-82.98407
-91.06146
-97.32726
-100.46
-99.1866
-92.74106
-81.00262
-64.61594
-44.87867
-23.41633
-1.943355
18.14507
35.74736
50.26039
61.44178
69.31643
74.16054
76.32446
76.28757
74.5171
71.55734
67.83541
63.78057
59.64272
55.46354
51.22963
46.91454
42.58372
38.44168
34.72367
31.4563
28.48158
25.25213
21.1355
15.68357
8.840832
0.9945335
-7.196693
-15.0682
-22.20437
-28.50145
-34.10507
-39.39622
-44.86715
-50.98814
-57.99234
-65.69651
-73.50864
-80.23451
-84.41859
-84.6643
-80.07511
-70.49132
-56.57891
-39.58469
-20.97294
-2.264351
15.30476
30.77942
43.47791
52.95989
59.14887
62.22067
62.79253
61.62666
59.46234
56.89198
54.16097
51.22144
47.89722
44.09422
39.87947
35.51405
31.23802
27.18544
23.25225
19.11488
14.3063
8.551315
1.752075
-5.83979
-13.83574
-21.75256
-29.21593
-36.08753
-42.45188
-48.73349
-55.4126
-62.96518
-71.51265
-80.72089
-89.55135
-96.45476
-99.71826
-97.90784
-90.39047
-77.36981
-59.94795
-39.73157
-18.49828
2.153992
20.98067
37.15012
50.18947
59.91014
66.42578
70.05774
71.32434
70.73085
68.74329
65.6967
61.76526
57.14799
52.04028
46.69176
41.4102
36.47552
31.92633
27.61002
23.22182
18.3392
12.78275
6.515167
-0.2254944
-7.036285
-13.52074
-19.42023
-24.7599
-29.83363
-35.19792
-41.44318
-49.0163
-57.95247
-67.76579
-77.3465
-85.11371
-89.31169
-88.44055
-81.7404
-69.3044
-52.19641
-32.12109
-11.05756
9.24884
27.49713
42.97006
55.37549
64.58374
70.69284
73.87717
74.45972
72.95834
69.96375
66.04187
61.57095
56.75894
51.66376
46.4343
41.28812
36.51312
32.27536
28.55884
24.99533
21.06735
16.35016
10.56137
3.782471
-3.686279
-11.47333
-19.25537
-26.8743
-34.46851
-42.31506
-50.75745
-60.19742
-70.66943
-81.73758
-92.31424
-100.7334
-104.9951
-103.4904
-95.30139
-80.65179
-60.90573
-38.06302
-14.39847
8.23407
28.414
45.37433
58.67285
68.20627
74.05579
76.52917
76.26355
73.92032
70.3555
66.22864
62.0463
58.09341
54.57721
51.58298
49.07599
47.03503
45.04276
42.68903
39.49756
35.09937
29.30646
22.27365
14.31552
5.828674
-2.626129
-10.85416
-18.79239
-26.66714
-34.91669
-43.99863
-54.20105
-65.28992
-76.35416
-85.77103
-91.70178
-92.48755
-87.22906
-76.06393
-59.99146
-40.74106
-20.20959
-0.09484863
18.42545
34.49042
47.62805
57.62878
64.41925
68.2673
69.47446
68.47638
65.66531
61.57599
56.59052
51.13638
45.57004
40.0484
34.71909
29.51022
24.32233
18.98248
13.51849
7.86145
2.062073
-3.956848
-10.36557
-17.27319
-24.70386
-32.60635
-40.98987
-49.86078
-59.49667
-69.95392
-81.0676
-92.06485
-101.4937
-107.4497
-108.0958
-102.2703
-89.81635
-71.73538
-49.83405
-26.19598
-2.808472
18.81171
37.72369
53.29993
65.20996
73.30756
77.62061
78.39014
76.18463
71.68524
65.77942
59.26746
52.71271
46.52112
40.73743
35.17499
29.52765
23.50055
16.86188
9.711243
2.244629
-5.224854
-12.45886
-19.43188
-26.30615
-33.46912
-41.36951
-50.41718
-60.73138
-71.97797
-83.1756
-92.70892
-98.66388
-99.22363
-93.22162
-80.51099
-61.99133
-39.40137
-14.82544
9.804749
32.98724
53.65442
71.09912
84.8606
94.48224
99.73517
100.7159
97.87781
92.13043
84.53491
75.96851
67.01764
57.77936
48.13727
38.0296
27.61426
17.29254
7.596558
-1.091187
-8.696289
-15.4975
-22.14478
-29.42566
-38.08356
-48.59467
-60.92535
-74.26508
-87.05798
-97.17462
-102.2877
-100.6297
-91.42615
-75.17975
-53.48596
-28.66785
-3.010498
21.57269
43.72913
62.71313
78.00049
89.19006
96.03925
98.57135
97.22119
92.85321
86.53503
79.22559
71.55603
63.6557
55.33423
46.36377
36.7276
26.70203
16.784
7.433716
-1.126709
-8.988403
-16.58923
-24.47705
-33.20917
-43.26031
-54.86151
-67.83319
-81.33685
-93.82587
-103.1109
-106.8904
-103.3419
-91.76947
-72.83423
-48.409
-20.99249
6.793213
32.78662
55.55811
74.30939
88.76141
99.00348
105.3564
108.238
108.2631
105.9232
101.7202
96.13849
89.54272
82.2478
74.54657
66.72394
58.95172
51.27771
43.58746
35.66119
27.26917
18.31641
8.872437
-0.8364868
-10.58557
-20.25745
-29.98016
-39.99475
-50.71222
-62.55365
-75.776
-90.22046
-105.0876
-118.8237
-129.0993
-133.3873
-129.4996
-116.4872
-94.89325
-66.79218
-35.10693
-2.930725
27.16693
53.55988
75.56879
93.10071
106.3002
115.439
120.8018
122.7234
121.704
118.3093
113.1522
106.8386
99.90601
92.67993
85.35883
78.06799
70.83533
63.64221
56.56665
49.57922
42.6369
35.64832
28.33386
20.37366
11.48041
1.547485
-9.218323
-20.28357
-31.09326
-41.18811
-50.4632
-59.16779
-67.76904
-76.90515
-87.13739
-98.78558
-111.7379
-125.3652
-138.1928
-148.1575
-152.7631
-149.7592
-137.934
-117.6132
-90.49902
-59.25677
-26.75928
4.656738
33.42816
58.65454
79.85846
96.73932
108.9448
116.4359
119.5032
118.8035
115.2609
109.8561
103.2932
96.07678
88.4715
80.6734
72.9552
65.69879
59.21149
53.64661
48.9751
44.86884
40.90356
36.62592
31.67163
25.70624
18.55249
10.08447
0.4048462
-10.13489
-20.9519
-31.33588
-40.70178
-48.77307
-55.78857
-62.35443
-69.36237
-77.57632
-87.26859
-97.96783
-108.305
-116.2271
-119.5006
-116.2975
-105.7325
-88.20486
-65.26547
-39.17996
-12.40643
13.09006
36.00446
55.67712
71.88806
84.64609
93.92776
99.78745
102.4733
102.3852
100.1805
96.60791
92.33069
87.7337
82.95694
77.9498
72.59973
66.94684
61.11472
55.27542
49.6124
44.11829
38.57468
32.65057
25.97089
18.28555
9.536377
-0.07766724
-10.1496
-20.11221
-29.44528
-37.86621
-45.33731
-52.21396
-58.99594
-66.22626
-74.33783
-83.44617
-93.25565
-102.9582
-111.3058
-116.5926
-117.2296
-111.9805
-100.4045
-83.11601
-61.63132
-37.93759
-14.0986
8.143127
27.66725
43.7128
56.03978
64.64883
69.74519
71.71443
71.11258
68.601
64.84937
60.47932
55.86984
51.24596
46.68492
42.15852
37.73497
33.55843
29.80868
26.59803
23.87237
21.25179
18.16364
14.10493
8.822083
2.461388
-4.571014
-11.82199
-18.9742
-25.99028
-33.13682
-40.68299
-48.91338
-57.84274
-67.24287
-76.61292
-85.00036
-91.0825
-93.40302
-90.67985
-82.19959
-68.32691
-50.35801
-30.22153
-9.998705
8.725637
25.06521
38.6333
49.42702
57.56433
63.08564
65.96408
66.32109
64.39365
60.66403
55.659
49.90284
43.85406
37.80648
32.02203
26.54538
21.40926
16.47365
11.70209
6.914658
2.109909
-2.623444
-7.148132
-11.38484
-15.2946
-18.99207
-22.85315
-27.2382
-32.56552
-39.14064
-46.92708
-55.48799
-63.90927
-70.70821
-74.32674
-73.46576
-67.51314
-56.76096
-42.39058
-26.11041
-9.752991
5.271072
18.13925
28.56534
36.59915
42.32385
45.85037
47.21844
46.57547
44.16568
40.4939
36.11292
31.52737
27.03891
22.77356
18.57748
14.16104
9.338715
4.060577
-1.52121
-7.092773
-12.3172
-16.97739
-21.06927
-24.90131
-28.95663
-33.77228
-39.77237
-47.12778
-55.60364
-64.42017
-72.35562
-77.93228
-79.75015
-76.88049
-69.12125
-57.06195
-41.91739
-25.24222
-8.526367
6.975555
20.35803
31.14029
39.06241
44.05621
46.13754
45.50735
42.62222
38.15097
32.89548
27.58835
22.75443
18.55737
14.78888
11.1041
7.11441
2.666473
-2.255707
-7.484772
-12.84879
-18.19601
-23.49213
-28.81506
-34.30994
-40.25839
-46.92538
-54.5141
-62.94876
-71.71045
-79.71716
-85.55173
-87.71719
-85.07898
-77.35471
-65.08313
-49.49597
-32.17505
-14.60651
2.024719
16.97528
29.82318
40.39056
48.513
54.02716
56.90112
57.10046
54.867
50.48663
44.51276
37.4707
29.94733
22.37836
15.10602
8.314026
1.996765
-3.820374
-9.309631
-14.55994
-19.67242
-24.66266
-29.50763
-34.16864
-38.67676
-43.24335
-48.14984
-53.85815
-60.80359
-69.086
-78.30029
-87.31903
-94.45825
-97.76556
-95.68292
-87.4588
-73.41705
-54.95374
-33.98285
-12.58099
7.53949
25.14001
39.60803
50.76923
58.77765
63.95752
66.78564
67.76068
67.2431
65.52844
62.71777
58.84082
53.9538
48.20251
41.88544
35.32617
28.85852
22.61249
16.60468
10.65869
4.563965
-1.837463
-8.607605
-15.64642
-22.81689
-29.89822
-36.8056
-43.57849
-50.4357
-57.81827
-66.14133
-75.48941
-85.39169
-94.7037
-101.6704
-104.4529
-101.5179
-92.2821
-77.18973
-57.58307
-35.33682
-12.39587
9.567505
29.33179
46.10562
59.53049
69.48132
76.06134
79.64868
80.75287
79.97522
77.90555
75.04071
71.73334
68.14835
64.28354
60.01761
55.27295
50.00369
44.37384
38.64828
33.0589
27.73209
22.51367
17.06049
10.93936
3.87677
-4.207489
-12.97424
-21.95593
-30.7059
-38.94281
-46.66501
-54.02734
-61.33444
-68.93314
-77.15927
-86.04083
-95.15482
-103.5683
-109.8474
-112.261
-109.2857
-100.0565
-84.69666
-64.31107
-40.74881
-16.168
7.492523
28.85315
47.06012
61.81039
73.18118
81.34775
86.63187
89.33859
89.82617
88.6192
86.27161
83.23157
79.76508
75.95856
71.75195
67.11111
62.06665
56.75424
51.37717
46.05167
40.82925
35.60889
30.33725
24.96674
19.46347
13.79233
7.807495
1.369995
-5.675659
-13.30634
-21.39359
-29.62827
-37.70325
-45.35291
-52.44791
-59.22177
-66.11011
-73.68365
-82.26529
-91.76123
-101.3695
-109.6795
-114.9179
-115.2647
-109.5208
-97.3555
-79.39743
-57.08334
-32.32669
-7.101837
16.87698
38.2868
56.33969
70.52036
80.70444
86.96838
89.64035
89.30048
86.6633
82.49353
77.43155
72.02277
66.46075
60.79349
55.00079
49.04684
43.08029
37.33676
32.11108
27.49741
23.4014
19.38937
14.90222
9.485046
2.877075
-4.63266
-12.57016
-20.28119
-27.40439
-33.81128
-39.75336
-45.66022
-51.99536
-59.21176
-67.42877
-76.48541
-85.7178
-94.004
-99.71027
-101.0946
-96.79028
-86.2446
-70.01047
-49.49957
-26.65082
-3.423004
18.61301
38.41882
55.439
69.28351
79.77457
86.90347
90.86539
92.12186
91.29733
89.12048
86.00909
82.22037
77.659
72.25354
66.00873
59.07715
51.76849
44.3898
37.25125
30.4213
23.87619
17.42758
10.87347
4.015045
-3.292023
-10.96469
-18.85788
-26.60901
-33.84805
-40.2981
-45.93933
-50.94815
-55.76129
-60.97125
-67.07001
-74.39499
-82.88495
-91.92279
-100.2005
-105.9554
-107.3381
-102.8972
-92.08829
-75.39767
-54.27948
-30.71951
-6.727997
16.09671
36.60052
54.08577
68.16597
78.55911
85.23917
88.39935
88.51361
86.25877
82.429
77.81342
72.94374
68.05313
63.04062
57.78195
52.15939
46.31967
40.6226
35.4911
31.1523
27.47789
23.97653
19.93054
14.84509
8.453171
0.9398804
-7.175339
-15.36595
-23.19371
-30.4868
-37.28111
-43.78632
-50.20613
-56.92645
-64.36888
-72.7177
-81.88402
-91.15714
-99.24367
-104.3863
-104.842
-99.36383
-87.66295
-70.48352
-49.3792
-26.37445
-3.386658
18.04179
36.9279
52.78215
65.42604
74.8156
80.98726
84.13899
84.49631
82.5844
79.0701
74.56644
69.59924
64.48053
59.31329
54.14384
49.04385
44.06711
39.33191
34.96819
30.91592
27.06653
23.14796
18.82228
13.77776
7.73465
0.5657501
-7.6297
-16.52939
-25.65288
-34.50197
-42.75423
-50.34024
-57.45752
-64.5381
-72.05032
-80.33167
-89.36783
-98.55791
-106.7135
-112.1389
-113.0705
-108.0916
-96.55095
-78.88246
-56.46059
-31.33405
-5.69046
18.53809
39.95009
57.69328
71.4314
81.19768
87.28596
90.13486
90.18826
87.8858
83.6749
77.96941
71.22548
63.90799
56.44951
49.1449
42.19595
35.70604
29.70317
24.27003
19.45287
15.25467
11.47372
7.808441
3.862335
-0.6916809
-6.013412
-12.09265
-18.71371
-25.61595
-32.45505
-39.01013
-45.08786
-50.67342
-55.87491
-60.98672
-66.46544
-72.77701
-80.2522
-88.81848
-97.73502
-105.6194
-110.6429
-111.0128
-105.4941
-93.83452
-76.76271
-55.75381
-32.73563
-9.490707
12.54724
32.45439
49.62451
63.75674
74.67282
82.39818
87.1243
89.22896
89.23055
87.70308
85.19063
82.09351
78.60052
74.6552
70.14012
64.90961
59.00121
52.67725
46.34283
40.33112
34.83082
29.63956
24.28404
18.27346
11.34354
3.528114
-4.783661
-13.02399
-20.77312
-27.75957
-34.00254
-39.81455
-45.65341
-51.95972
-59.0921
-67.09675
-75.57447
-83.58333
-89.7333
-92.47687
-90.52856
-83.2156
-70.76739
-54.15543
-34.90936
-14.72129
4.962715
23.07259
38.96883
52.32674
62.9687
70.74657
75.67534
77.93343
77.90614
76.19532
73.54577
70.54495
67.44895
64.25063
60.66614
56.52464
51.77156
46.6018
41.31908
36.18951
31.27133
26.42711
21.43468
16.05182
10.11111
3.541946
-3.553772
-10.98595
-18.49685
-25.8484
-32.85534
-39.54458
-46.07907
-52.84364
-60.3125
-68.7793
-78.23245
-88.17522
-97.57032
-104.8861
-108.4523
-106.8377
-99.29812
-85.91009
-67.61215
-45.94293
-22.78708
0.09162903
21.16151
39.29041
53.77904
64.31628
70.99386
74.16019
74.40905
72.44821
69.0448
64.83707
60.35252
55.86777
51.46475
47.05899
42.56709
38.0089
33.57651
29.49801
25.93761
22.82826
19.83819
16.4679
12.18482
6.730003
0.1264915
-7.191505
-14.64588
-21.74744
-28.22427
-34.11484
-39.76274
-45.70879
-52.50161
-60.54353
-69.78881
-79.61627
-88.79134
-95.55321
-98.02205
-94.70227
-84.90244
-68.99023
-48.37336
-25.07229
-1.278255
21.066
40.63048
56.69633
69.0095
77.53082
82.42471
83.95695
82.6092
79.17565
74.48905
69.39751
64.46577
59.89587
55.56168
51.23067
46.71204
42.05362
37.45343
33.09948
28.88434
24.44626
19.11876
12.30473
3.67683
-6.60293
-17.88027
-29.23282
-39.77892
-49.01109
-56.83406
-63.56242
-69.70526
-75.90138
-82.66747
-90.22128
-98.3312
-106.1673
-112.4621
-115.5495
-113.9247
-106.5469
-93.32551
-75.15315
-53.67073
-30.91752
-8.695045
11.56378
29.07609
43.47395
54.62373
62.53294
67.28222
69.14024
68.50691
65.91795
61.84898
56.68237
50.62239
43.72833
36.19212
28.27438
20.41987
13.11677
6.842522
1.665844
-2.611492
-6.460274
-10.5417
-15.31378
-20.95091
-27.31698
-33.99933
-40.46446
-46.43407
-51.86829
-57.04877
-62.55077
-68.91027
-76.53096
-85.41053
-95.01365
-104.1194
-111.0866
-114.1221
-111.6921
-103.0601
-88.5121
-69.35481
-47.50154
-25.00484
-3.547028
15.7296
32.32663
46.18005
57.28738
65.6956
71.33228
74.15764
74.24875
71.93669
67.7189
62.24637
56.23747
50.20358
44.44116
39.04013
34.04382
29.40509
25.15839
21.32806
17.88531
14.70938
11.56903
8.185852
4.293823
-0.3574829
-6.027191
-12.88278
-20.95236
-29.98471
-39.16034
-47.12903
-52.0051
-52.0097
-45.93915
-33.62085
-16.02228
5.01886
27.2627
48.79636
68.2518
84.9332
98.52417
108.8475
115.7311
119.1136
119.0876
116.0034
110.5472
103.5297
95.6871
87.5654
79.49652
71.51062
63.53351
55.45547
47.21841
38.90598
30.63596
22.52911
14.64542
6.913605
-0.9088745
-9.186188
-18.21588
-28.29291
-39.54233
-51.83255
-64.59866
-76.64194
-86.27533
-91.6019
-91.02423
-83.71875
-70.02676
-51.38983
-29.87286
-7.659637
13.49731
32.44067
48.5506
61.48593
71.04929
77.08026
79.63159
79.02124
75.81631
70.7775
64.66959
58.13937
51.53708
44.96365
38.29138
31.34277
24.03943
16.37469
8.574493
0.9259033
-6.34201
-13.20364
-19.93344
-27.02103
-35.01263
-44.34891
-55.29703
-67.68628
-80.8302
-93.4743
-103.7694
-109.6342
-109.2087
-101.4097
-86.29318
-65.29599
-40.71033
-15.17419
8.976868
30.263
47.94388
61.94577
72.46228
79.75198
83.87292
84.97095
83.24414
79.04575
73.04434
65.8457
58.08423
50.1442
42.11523
33.93622
25.47589
16.66141
7.509064
-1.754852
-11.06448
-20.33469
-29.54666
-38.83588
-48.2709
-58.01349
-68.20752
-79.19666
-91.15018
-104.1318
-117.6785
-130.6555
-141.429
-147.9423
-148.4965
-142.0924
-128.8883
-110.1063
-87.91095
-64.70206
-42.64105
-23.36987
-7.620941
4.337769
12.79663
18.28729
21.42697
22.836
23.16272
22.96298
22.66681
22.60574
22.79544
23.1593
23.64517
24.29028
25.26874
26.69913
28.54065
30.45331
31.87268
32.09442
30.66858
27.47571
22.73639
16.97632
10.71173
4.35022
-1.912537
-8.106628
-14.55969
-21.54559
-29.15228
-37.04315
-44.06824
-48.6308
-48.93079
-43.61951
-32.23401
-15.49701
5.053528
27.38763
49.58301
70.34375
88.91754
105.0896
118.8304
130.2238
139.258
145.9549
150.3514
152.5308
152.7043
151.0444
147.8356
143.2155
137.4136
130.6661
123.3654
116.0259
109.0717
102.8359
97.13342
91.52142
85.19818
77.55103
68.31915
57.70953
46.33038
34.7926
23.61902
12.97809
2.820496
-7.136414
-17.1626
-27.48352
-38.073
-48.50543
-58.01276
-65.39456
-69.37711
-68.98663
-63.91
-54.65695
-42.36612
-28.50256
-14.35074
-0.9068604
11.28745
21.92896
30.69989
37.33328
41.67044
43.74677
43.8374
42.53729
40.30093
37.41214
33.9538
29.83475
25.02707
19.68704
14.17172
8.957184
4.536255
1.12265
-1.266907
-2.937256
-4.439148
-6.402069
-9.391388
-13.75124
-19.49655
-26.34212
-33.84192
-41.5405
-49.16951
-56.68956
-64.27275
-72.097
-80.15004
-87.98729
-94.69254
-99.08418
-99.98967
-96.56767
-88.67337
-76.9462
-62.68552
-47.5417
-33.19078
-20.92232
-11.48243
-5.103622
-1.497826
-0.06881714
-0.08644867
-0.8946991
-1.930328
-2.768959
-3.149719
-2.922684
-2.072533
-0.6336365
1.330303
3.804062
6.791473
10.29372
14.31812
18.72466
23.24041
27.44471
30.96914
33.53108
35.01772
35.55656
35.25295
34.23646
32.51445
29.98478
26.42215
21.61092
15.457
8.04587
-0.09791183
-8.116459
-14.86424
-19.16652
-20.09083
-17.3313
-11.22905
-2.61998
7.262917
17.36627
26.77137
34.91313
41.43665
46.19955
49.19636
50.58365
50.75262
50.11511
49.15926
48.07195
46.83041
45.21519
42.98039
40.04681
36.51088
32.60098
28.48357
24.25304
19.83304
15.12962
10.16177
5.006302
-0.2267456
-5.432068
-10.57202
-15.63202
-20.59027
-25.34067
-29.79245
-33.78461
-37.41693
-40.80054
-44.08575
-47.16675
-49.67331
-50.91467
-50.194
-47.00006
-41.24625
-33.48676
-24.6803
-16.11789
-8.861938
-3.599396
-0.4304199
0.9283752
1.017029
0.396759
-0.6057739
-1.805359
-3.19754
-4.810425
-6.548645
-8.261078
-9.746155
-10.7608
-11.13947
-10.77002
-9.697083
-8.135559
-6.577209
-5.521484
-5.524109
-6.888733
-9.607178
-13.48792
-18.20746
-23.41919
-28.87396
-34.45532
-40.04913
-45.66882
-51.25482
-56.65649
-61.6676
-65.83026
-68.40924
-68.474
-65.32135
-58.63483
-48.85345
-37.02142
-24.51501
-12.78052
-2.816833
4.816223
10.0509
13.0871
14.2439
13.79041
11.98669
9.202637
5.721252
2.024963
-1.550049
-4.852417
-7.792053
-10.43671
-12.86737
-15.15784
-17.22809
-19.03473
-20.44861
-21.48236
-22.35632
-23.17688
-24.08594
-25.03131
-25.96814
-26.71777
-27.27942
-27.73956
-28.44299
-29.82788
-32.10474
-35.22894
-38.60901
-41.30969
-42.26135
-40.58057
-35.87518
-28.41589
-19.04346
-8.85022
0.9981689
9.601807
16.5033
21.46582
24.52246
25.80957
25.49457
23.82617
21.19354
17.96191
14.4621
11.02173
7.71814
4.561218
1.471069
-1.662231
-4.926025
-8.351685
-11.91077
-15.49738
-19.01367
-22.4212
-25.71887
-29.00452
-32.47107
-36.24176
-40.32495
-44.64771
-49.09064
-53.70197
-58.61908
-63.95117
-69.4054
-74.31274
-77.58386
-78.03925
-74.92993
-68.08167
-58.07776
-46.06836
-33.34253
-21.01337
-9.884949
-0.4607544
6.990234
12.28729
15.36298
16.39728
15.6994
13.86017
11.60193
9.643433
8.404297
7.914978
7.815979
7.491211
6.436523
4.297119
1.101257
-2.841125
-6.98468
-10.87903
-14.21045
-16.88885
-19.09924
-21.16516
-23.66895
-27.1795
-32.19281
-38.85358
-46.8125
-55.08289
-62.20319
-66.5661
-66.73859
-62.02728
-52.47253
-38.8136
-22.44177
-4.848114
12.39349
27.83981
40.3385
49.20895
54.1947
55.55963
54.03445
50.48151
45.90158
41.03555
36.25848
31.53784
26.66229
21.24854
15.00769
7.905121
0.1352539
-7.816193
-15.46603
-22.55508
-29.13104
-35.46954
-42.09564
-49.49332
-57.95407
-67.44244
-77.3024
-86.39612
-93.20123
-96.09644
-93.77512
-85.58466
-71.70526
-53.18784
-31.72295
-9.124893
12.84903
32.75786
49.57726
62.5666
71.30534
75.75998
76.28969
73.63156
68.89755
63.1826
57.25804
51.40961
45.45302
38.92288
31.52002
23.29671
14.6231
6.091721
-1.835709
-8.98629
-15.6
-22.19947
-29.5331
-38.26029
-48.67153
-60.52263
-72.80444
-83.8277
-91.43908
-93.61777
-89.03753
-77.47007
-59.86998
-38.0093
-14.03932
10.10462
32.89185
53.2949
70.59349
84.25494
93.85455
99.19709
100.4601
98.23952
93.53833
87.47098
80.8799
74.24512
67.55898
60.49947
52.76781
44.37381
35.67249
27.21768
19.48889
12.64705
6.388168
0.1029968
-6.91684
-15.22679
-25.18494
-36.79297
-49.64618
-62.746
-74.48331
-82.74835
-85.41742
-80.76709
-68.09183
-48.03387
-22.41949
6.111572
34.86774
61.61475
84.81531
103.6114
117.7013
127.1989
132.3411
133.6466
131.7385
127.3441
121.183
113.7946
105.6754
97.21008
88.63818
80.14163
71.81314
63.60971
55.2926
46.67514
37.49771
27.74585
17.60538
7.37207
-2.688904
-12.28433
-21.34518
-30.04742
-38.6427
-47.66
-57.54114
-68.6051
-80.73108
-93.07709
-103.9325
-111.0314
-112.0756
-105.3359
-90.4379
-68.3428
-41.19681
-11.72318
17.46439
44.28937
67.36829
85.99155
99.89426
109.0812
113.8371
114.7593
112.6411
108.4933
103.2586
97.51736
91.59818
85.48227
78.94522
71.88455
64.38824
56.69247
49.20639
42.1572
35.4664
28.83856
21.84219
14.02246
5.284088
-4.184418
-13.94125
-23.37741
-32.15909
-40.22443
-47.79593
-55.3895
-63.66452
-73.1658
-84.18716
-96.48505
-108.9973
-119.9484
-127.1002
-128.1834
-121.7426
-107.5641
-86.72464
-61.37625
-34.06607
-7.080505
17.74255
39.17111
56.55933
69.51031
77.96497
82.18311
82.68683
80.30124
76.05084
70.87988
65.5795
60.64749
56.15424
51.85953
47.31976
42.00919
35.63092
28.14609
19.77612
10.89359
1.855377
-7.077942
-15.88776
-24.57492
-33.30283
-42.19318
-51.46439
-61.27133
-71.53119
-81.69177
-90.57233
-96.4834
-97.47986
-92.04221
-79.58862
-60.767
-37.32788
-11.61591
13.99802
37.67627
58.29114
75.41101
88.9436
98.82492
104.9312
107.0626
105.2265
99.72388
91.38266
81.27252
70.56683
60.1857
50.52429
41.60254
33.16162
24.923
16.77075
8.831055
1.277313
-5.755157
-12.35568
-18.91589
-25.82846
-33.51031
-42.28403
-52.27264
-63.405
-75.24432
-86.89386
-96.87558
-103.2563
-104.084
-97.95053
-84.57071
-64.9169
-40.94482
-15.06967
10.40811
33.77432
53.93668
70.30301
82.62054
90.77371
94.86932
95.2684
92.58569
87.59903
81.10168
73.79584
66.17166
58.48355
50.7836
43.11919
35.37941
27.52687
19.65456
11.89417
4.435913
-2.643646
-9.436722
-16.23326
-23.45142
-31.56903
-40.95421
-51.56053
-62.87473
-73.8365
-82.87636
-88.30209
-88.61928
-82.87607
-71.0656
-54.12999
-33.69037
-11.75328
9.702393
29.16769
45.62778
58.57758
67.81499
73.3019
75.2149
73.94527
70.07019
64.35033
57.67894
50.79893
44.26875
38.30687
32.83373
27.61659
22.42706
17.12558
11.79117
6.655258
1.77063
-2.834084
-7.317062
-11.92318
-16.90618
-22.58405
-29.255
-37.123
-46.25646
-56.45466
-66.93429
-76.39223
-83.21303
-85.75452
-82.97894
-74.60931
-61.28506
-44.31484
-25.41878
-6.204302
12.02315
28.26094
41.88336
52.313
59.19276
62.29433
61.78323
58.24564
52.7084
46.32753
40.06311
34.54549
29.78668
25.45878
21.03869
16.20074
11.00216
5.726223
0.6372986
-4.143761
-8.77813
-13.67784
-19.19709
-25.60894
-33.07333
-41.50028
-50.74577
-60.26843
-69.12335
-75.88552
-79.00245
-77.12281
-69.70069
-57.22263
-40.94071
-22.74982
-4.412186
12.6002
27.29594
39.07362
47.61281
52.75081
54.48733
53.09936
49.08852
43.22984
36.39229
29.33711
22.55743
16.31514
10.50287
4.846054
-0.9067993
-6.876266
-12.86729
-18.53725
-23.54971
-27.68283
-31.03571
-33.96329
-37.11389
-41.06839
-46.27209
-52.68127
-59.83176
-66.7085
-71.90607
-73.9599
-71.67616
-64.5247
-52.81407
-37.62796
-20.4671
-2.932831
13.65111
28.31142
40.4856
49.80208
56.09973
59.29768
59.46315
57.02092
52.57037
46.94974
40.92186
35.03427
29.44958
24.01189
18.42448
12.41357
5.9534
-0.6692352
-6.982254
-12.57838
-17.32048
-21.33318
-25.11295
-29.19902
-34.13239
-40.29881
-47.68257
-55.70215
-63.25055
-68.78583
-70.65228
-67.63715
-59.22647
-45.97655
-29.20164
-10.6787
7.936035
25.38571
40.79813
53.79132
64.09509
71.60767
76.26901
78.09085
77.31067
74.21698
69.37494
63.30902
56.60638
49.55304
42.27646
34.77814
26.95309
18.94385
10.90207
3.183685
-3.922302
-10.30109
-16.12497
-21.64169
-27.20007
-33.12262
-39.60709
-46.91177
-55.13467
-64.22607
-73.68231
-82.52042
-89.24646
-92.1651
-89.95065
-81.92279
-68.45419
-50.78778
-30.71878
-10.05289
9.617157
27.1683
41.95789
53.53241
61.77258
66.69147
68.51929
67.75339
65.077
61.117
56.42346
51.40826
46.29456
41.21808
36.34125
31.88934
28.03171
24.83542
22.12778
19.50876
16.52917
12.75803
7.939545
2.045013
-4.765381
-12.19724
-19.99719
-27.94815
-35.98969
-44.13132
-52.54562
-61.30612
-70.39713
-79.4838
-87.69604
-93.71936
-95.95886
-93.14719
-84.681
-71.05594
-53.51694
-33.94962
-14.20273
4.248718
20.58157
34.46655
45.78406
54.51764
60.61816
64.12863
65.25861
64.48911
62.36862
59.46649
56.14514
52.58051
48.76071
44.68774
40.52374
36.56174
33.12418
30.35394
28.147
26.09537
23.7142
20.63071
16.73108
12.1712
7.31723
2.538422
-1.986572
-6.24646
-10.46576
-14.97458
-20.02908
-25.71671
-31.97208
-38.57288
-45.224
-51.70319
-57.89706
-63.90387
-70.08066
-76.85318
-84.52209
-93.02908
-101.7615
-109.4092
-114.2279
-114.5048
-109.0428
-97.60181
-80.9025
-60.56738
-38.56509
-16.68796
3.754303
21.95844
37.51331
50.29395
60.19769
67.27112
71.58264
73.33368
72.92908
70.8161
67.41431
63.10132
58.24066
53.07269
47.8963
42.95032
38.41296
34.48346
31.16882
28.32739
25.74338
23.19733
20.37787
17.01483
12.79883
7.552429
1.30542
-5.81781
-13.52713
-21.47446
-29.31845
-36.86786
-43.99557
-50.77832
-57.46484
-64.26218
-71.35736
-78.61887
-85.48001
-90.92145
-93.58774
-92.13977
-85.73169
-74.30817
-58.55969
-39.82388
-19.62997
0.6260681
19.73825
36.87054
51.39664
62.84171
70.88022
75.41818
76.58884
74.92926
71.27658
66.47021
61.28119
56.16684
51.30023
46.63647
41.98392
37.24243
32.44464
27.80563
23.43033
19.30203
15.17944
10.6947
5.549072
-0.4717407
-7.373383
-14.97141
-22.90741
-30.8042
-38.19751
-44.81381
-50.57361
-55.67487
-60.6478
-66.06824
-72.36075
-79.401
-86.45486
-92.09866
-94.68237
-92.79779
-85.65588
-73.36423
-56.72449
-37.12512
-16.17227
4.624237
23.89978
40.70047
54.34641
64.51471
71.17929
74.60706
75.21439
73.49588
70.07739
65.62912
60.78247
56.02789
51.57349
47.33362
43.16846
38.8446
34.27194
29.50687
24.65289
19.73129
14.58856
8.948761
2.551239
-4.742126
-12.79724
-21.18408
-29.33282
-36.78278
-43.28934
-48.9577
-54.21158
-59.45953
-65.28113
-72.03766
-79.75015
-88.08878
-96.20184
-102.8082
-106.3063
-105.279
-98.80112
-86.78525
-70.01584
-49.92526
-28.28537
-6.772797
13.26071
30.89749
45.49664
56.69073
64.45242
69.02155
70.90921
70.76273
69.26926
66.96469
64.17719
60.96719
57.27161
53.01144
48.21036
43.11194
37.9339
32.97626
28.30688
23.77289
18.98334
13.5253
7.127075
-0.2845154
-8.409302
-16.82965
-25.10184
-33.04303
-40.58783
-47.99319
-55.67941
-64.16028
-73.86377
-84.70627
-95.94397
-106.1221
-113.3939
-115.7935
-112.0085
-101.5508
-85.02087
-63.95895
-40.32349
-16.16998
6.824631
27.40231
44.86769
58.91196
69.56976
76.99847
81.37762
83.02985
82.24706
79.45657
75.08873
69.52969
63.06683
55.93703
48.38727
40.67163
33.209
26.18242
19.70509
13.50146
7.163345
0.2543182
-7.473862
-15.92795
-24.91763
-34.0312
-43.12474
-52.00601
-60.69914
-69.20937
-77.63695
-86.21257
-95.04902
-104.0022
-112.3341
-118.6755
-121.1261
-117.8132
-107.4659
-89.80888
-65.82484
-37.30613
-6.55719
24.0817
52.49951
77.03351
96.45358
110.0006
117.6366
119.7706
117.3248
111.4674
103.4046
94.15813
84.54444
75.11832
66.2396
58.20309
51.06994
44.931
39.68816
35.10895
30.86129
26.49729
21.59251
15.86173
9.236923
1.856667
-5.865082
-13.48881
-20.79446
-27.7439
-34.75413
-42.38296
-51.134
-61.23606
-72.38077
-83.49651
-92.88766
-98.56077
-98.65494
-91.97754
-78.4263
-59.03546
-35.84406
-11.34149
12.18617
33.04379
50.37621
64.07216
74.37009
81.56372
85.87959
87.42055
86.3941
83.14352
78.24466
72.36183
66.09595
59.76482
53.40546
46.93562
40.20111
33.22359
26.04582
18.68217
11.14488
3.437439
-4.389221
-12.19968
-19.78198
-27.01312
-33.79568
-40.23363
-46.75226
-53.79343
-61.63412
-70.11041
-78.40628
-85.0426
-88.27405
-86.38953
-78.31064
-64.05475
-44.71875
-22.24576
1.183868
23.55862
43.43732
59.92496
72.55743
81.16245
85.72531
86.47379
83.89365
78.80511
72.3576
65.68726
59.66943
54.72134
50.71985
47.1055
43.21112
38.4537
32.47321
25.35315
17.46307
9.181091
0.8012695
-7.569763
-16.0528
-24.79236
-33.96634
-43.81052
-54.39594
-65.60156
-76.8942
-87.23145
-95.00214
-98.36972
-95.75296
-86.24072
-70.11905
-48.65054
-23.8735
2.017395
27.0387
49.7027
68.9888
84.43747
95.85208
103.2063
106.6095
106.2894
102.5645
96.02637
87.4375
77.60233
67.34589
57.24338
47.53912
38.27383
29.34726
20.70844
12.40045
4.522064
-2.921112
-10.04001
-17.0303
-24.16974
-31.60056
-39.48071
-47.99838
-57.22998
-67.2103
-77.55353
-87.36728
-95.09689
-98.85373
-96.80402
-87.87689
-72.11459
-50.58646
-25.24966
1.539642
27.52991
50.96393
70.66913
86.18378
97.37897
104.3601
107.3609
106.6241
102.552
95.78995
87.29269
78.01691
68.83902
60.20761
52.18948
44.55899
36.98987
29.30591
21.54147
13.82086
6.307404
-0.9455261
-7.939178
-14.70605
-21.38586
-28.13193
-35.22021
-42.84448
-51.30032
-60.60706
-70.34134
-79.44379
-86.33539
-89.20789
-86.57327
-77.65207
-62.71741
-43.12726
-20.76825
2.356659
24.54782
44.60028
61.81509
75.67487
85.85046
92.15683
94.51291
93.20544
88.85397
82.33603
74.57513
66.37808
58.25024
50.37656
42.75815
35.28027
27.9917
21.00827
14.53561
8.637177
3.237091
-2.00296
-7.566711
-13.93927
-21.54382
-30.58572
-41.1275
-52.97073
-65.58328
-77.95099
-88.65726
-95.97137
-98.28299
-94.54016
-84.4296
-68.56561
-48.38394
-25.64584
-2.209076
20.17587
40.15714
56.8233
69.80786
79.25296
85.60468
89.36438
91.02588
90.76596
88.68582
84.75397
79.16
72.27243
64.67841
56.9379
49.50311
42.58069
36.0499
29.71112
23.22626
16.42847
9.221893
1.717773
-5.95578
-13.62338
-21.11459
-28.43918
-35.67401
-43.03015
-50.8559
-59.5123
-69.03017
-78.95705
-88.13448
-94.90096
-97.44707
-94.34383
-85.02638
-70.0433
-50.81236
-29.31534
-7.430252
13.31831
31.92259
47.87195
60.93781
70.93912
77.77663
81.51413
82.25862
80.48975
76.76421
71.68785
65.72391
59.17104
52.16696
44.73921
37.12445
29.59113
22.56935
16.35402
10.99269
6.255867
1.708817
-3.101608
-8.491386
-14.43455
-20.68456
-26.84588
-32.59245
-37.79414
-42.66582
-47.56654
-52.8554
-58.76349
-65.21181
-71.75946
-77.62582
-81.69809
-82.76978
-79.82492
-72.30297
-60.33757
-44.70441
-26.70029
-7.88835
10.27811
26.67095
40.43929
51.11702
58.44678
62.47844
63.4801
62.05737
58.91232
54.81189
50.43512
46.16518
42.16575
38.377
34.66249
30.84667
27.03381
23.41344
20.15578
17.40645
14.9761
12.53462
9.632027
5.861336
0.9831161
-4.764519
-10.95535
-17.00873
-22.52039
-27.41103
-31.91515
-36.57362
-41.97142
-48.50378
-56.1965
-64.62306
-72.85786
-79.53645
-83.23688
-82.77881
-77.60257
-67.90871
-54.59384
-38.97867
-22.52367
-6.47702
8.332031
21.3307
32.18324
40.76709
47.07146
51.21469
53.44926
54.08226
53.41542
51.76015
49.25638
46.03087
42.16791
37.86258
33.33736
28.94574
24.89606
21.27237
17.97287
14.64752
10.99066
6.707458
1.722168
-3.913727
-9.904968
-15.95737
-21.91113
-27.66602
-33.32697
-39.04056
-44.99628
-51.27078
-57.77225
-64.07724
-69.37775
-72.68973
-72.90558
-69.25787
-61.47668
-49.97415
-35.80966
-20.37457
-5.14328
8.780396
20.69122
30.37265
37.73087
42.83444
45.68796
46.18442
44.36853
40.39273
34.7934
28.28467
21.78067
15.93484
11.19299
7.700195
5.22699
3.424408
1.944702
0.5064392
-1.148407
-3.157043
-5.692108
-8.844849
-12.61362
-16.86136
-21.3732
-25.95444
-30.41708
-34.81741
-39.27817
-43.80447
-48.173
-51.75159
-53.59906
-52.67212
-48.23871
-40.08218
-28.69003
-15.09286
-0.6090698
13.45078
26.09717
36.63834
44.77533
50.43262
53.68182
54.73108
53.84171
51.33307
47.59146
42.99725
37.88718
32.58307
27.19751
21.84814
16.55872
11.41608
6.545349
2.002808
-2.14386
-5.916626
-9.379395
-12.7301
-16.15509
-19.85864
-23.91052
-28.2251
-32.5838
-36.71771
-40.4505
-43.83295
-47.24976
-51.302
-56.59412
-63.41357
-71.51611
-79.97894
-87.45715
-92.34851
-93.28082
-89.52838
-81.10205
-68.77448
-53.84222
-37.69348
-21.62769
-6.666504
6.488159
17.45923
26.02386
32.1734
36.06384
37.8894
38.00977
36.67102
34.12726
30.58618
26.3111
21.53894
16.63702
11.94733
7.728516
4.075317
0.8933716
-2.127625
-5.31073
-8.973999
-13.32263
-18.34979
-23.94635
-29.93109
-36.05621
-42.09033
-47.91547
-53.47046
-58.93762
-64.64832
-70.90125
-77.81543
-85.16241
-92.23962
-97.88239
-100.7731
-99.65851
-93.75995
-82.90613
-67.59631
-48.99487
-28.61121
-8.051239
11.31918
28.51505
42.96555
54.47537
63.02652
68.8114
72.00586
72.80325
71.4812
68.37518
63.86005
58.33575
52.23666
45.91742
39.7627
34.04654
28.91754
24.38486
20.28204
16.32468
12.12015
7.41629
1.984619
-4.20517
-11.01682
-18.20953
-25.53113
-32.90369
-40.36548
-48.22845
-56.71603
-65.86615
-75.17966
-83.53238
-89.36237
-91.01669
-87.38199
-78.19553
-64.17206
-46.76575
-27.71417
-8.594727
9.40506
25.53906
39.31964
50.42664
58.61395
63.76389
65.91776
65.33838
62.46017
57.88007
52.23593
46.12738
39.97906
33.94049
28.01425
22.06052
15.89334
9.408813
2.765625
-3.761917
-9.812485
-15.09282
-19.57509
-23.37396
-26.8264
-30.48624
-34.95422
-40.7276
-47.92657
-56.01138
-63.75612
-69.41985
-71.25426
-67.99698
-59.33224
-45.93068
-29.15135
-10.55972
8.476776
26.8681
43.83153
58.63232
70.51855
78.85988
83.29941
83.82816
80.85303
75.13149
67.56586
59.05953
50.38035
42.04321
34.25393
27.10272
20.52223
14.27775
8.225506
2.170135
-4.065304
-10.72824
-18.08748
-26.4138
-35.85834
-46.36783
-57.71723
-69.41547
-80.66937
-90.31458
-96.83405
-98.61413
-94.21722
-82.96434
-65.18618
-42.36699
-16.86356
8.581562
31.49062
50.20689
64.02617
73.21622
78.51991
80.91348
81.03767
79.26863
75.69125
70.36112
63.56489
55.75972
47.56764
39.548
32.07669
25.26417
19.04215
13.31544
8.023399
3.144089
-1.519669
-6.374115
-12.15279
-19.70238
-29.62704
-41.77684
-55.03839
-67.388
-76.37328
-79.88292
-76.5719
-66.37122
-50.49776
-30.86191
-9.635361
11.25323
30.34744
46.81514
60.12457
70.03389
76.45433
79.37027
79.08688
76.12892
71.26221
65.31261
58.95055
52.6479
46.42674
40.06189
33.30917
26.12428
18.67899
11.40079
4.678467
-1.261536
-6.471039
-11.36664
-16.61035
-22.91812
-30.71652
-40.21353
-50.92688
-61.6478
-70.59244
-75.67096
-75.09033
-67.82831
-54.01706
-34.85535
-12.35162
11.27347
34.0531
54.50266
71.66516
84.90826
93.84265
98.38519
98.72556
95.50885
89.76102
82.6225
75.1142
67.89825
61.11453
54.50421
47.69403
40.34012
32.38992
24.1048
15.92728
8.203857
1.194275
-5.218201
-11.4104
-17.83038
-25.03088
-33.42563
-43.20172
-54.11572
-65.38611
-75.65155
-83.11041
-85.93723
-82.74213
-73.02347
-57.34583
-37.1734
-14.48318
8.746033
30.86139
50.59726
67.16608
79.95898
88.6084
93.00421
93.39795
90.3587
84.77194
77.67566
69.93579
62.18027
54.64236
47.29288
40.00598
32.65845
25.25412
17.91281
10.90524
4.385254
-1.561676
-7.156799
-12.67105
-18.54245
-25.22559
-33.02213
-42.01544
-51.81674
-61.61511
-70.06744
-75.67422
-76.96045
-72.85403
-63.17239
-48.47925
-30.17114
-10.03943
10.12259
28.85001
45.12286
58.23874
67.8287
73.6254
75.66083
74.19073
69.79367
63.31918
55.70877
47.8559
40.28644
33.25549
26.64995
20.36145
14.22887
8.248215
2.552261
-2.791351
-7.759323
-12.49631
-17.2588
-22.38426
-28.05299
-34.40109
-41.44604
-49.05794
-56.93947
-64.36194
-70.23828
-73.08803
-71.53615
-64.66978
-52.44009
-35.77068
-16.3446
3.829147
22.91867
39.51228
52.82974
62.50426
68.41907
70.74025
69.79265
66.12581
60.40686
53.45303
45.94151
38.52252
31.66408
25.479
19.83507
14.54672
9.385925
4.239151
-0.6978302
-5.194168
-9.002441
-12.05965
-14.64763
-17.2529
-20.49958
-24.88005
-30.64487
-37.55865
-45.0027
-51.8613
-56.7615
-58.35271
-55.63162
-48.29626
-36.85529
-22.48759
-6.723228
8.921349
23.29067
35.59119
45.33455
52.1905
55.92985
56.39029
53.77547
48.62058
41.75277
34.13594
26.62301
19.74933
13.66636
8.277878
3.333677
-1.374769
-5.909222
-10.17346
-14.09921
-17.54277
-20.48365
-22.97203
-25.15655
-27.31672
-29.85564
-33.13143
-37.40654
-42.59074
-48.21323
-53.28381
-56.55933
-56.74114
-52.97609
-45.06293
-33.53734
-19.52262
-4.355991
10.66565
24.52497
36.43426
45.81504
52.18599
55.30611
55.23768
52.45716
47.75184
42.12372
36.37891
30.82554
25.39957
19.7049
13.42945
6.52137
-0.7058945
-7.795944
-14.21871
-19.66631
-24.16079
-27.97162
-31.41138
-34.85398
-38.64038
-43.04688
-48.20245
-53.96175
-59.67532
-64.25787
-66.34122
-64.61384
-58.35825
-47.71092
-33.6086
-17.60413
-1.377121
13.74768
26.90112
37.72495
46.05089
51.68242
54.42897
54.28493
51.43739
46.45372
40.16986
33.3539
26.61214
20.1423
13.78627
7.378815
0.9918671
-5.132324
-10.59064
-15.06503
-18.59956
-21.50706
-24.34294
-27.6862
-31.98386
-37.35785
-43.77985
-50.84862
-57.90169
-63.99751
-67.92973
-68.58359
-65.10864
-57.26891
-45.40303
-30.50768
-13.78258
3.483917
20.09666
35.1205
47.68979
57.17218
63.04927
65.17224
63.67336
59.20085
52.68402
45.10359
37.40137
30.13249
23.57643
17.70816
12.40819
7.553375
3.105698
-0.8619995
-4.368469
-7.362167
-10.0063
-12.47084
-15.13918
-18.41444
-22.6727
-28.28563
-35.27821
-43.27899
-51.31247
-58.08568
-62.06219
-62.05832
-57.41431
-48.20786
-35.23843
-19.71619
-3.062744
13.44031
28.62903
41.62112
51.73334
58.55109
61.93643
62.02914
59.27344
54.32919
48.00217
41.0632
34.23132
28.05878
22.80951
18.43781
14.63269
11.01251
7.242249
3.173126
-1.117371
-5.439514
-9.685181
-13.94159
-18.43451
-23.49203
-29.3981
-36.21735
-43.78027
-51.58176
-58.77588
-64.25061
-66.81906
-65.49045
-59.70584
-49.58926
-35.96942
-20.2551
-4.106903
10.92874
23.56668
33.04825
39.05954
41.68427
41.30643
38.44937
33.70871
27.73065
21.16711
14.55124
8.364685
2.858765
-1.911072
-6.126099
-9.995422
-13.71054
-17.30365
-20.55731
-23.25806
-25.34579
-27.11267
-29.17853
-32.31915
-37.2175
-44.04129
-52.45599
-61.45975
-69.66843
-75.52274
-77.65598
-75.22354
-67.96906
-56.39603
-41.46811
-24.49194
-6.828705
10.32938
25.95721
39.24371
49.52609
56.3786
59.61136
59.39761
56.31696
51.23303
44.9747
38.23383
31.4238
24.64041
17.79855
10.8515
3.801117
-3.170074
-9.814819
-15.94431
-21.57376
-26.80914
-31.99652
-37.65399
-44.2077
-52.00165
-60.95004
-70.44662
-79.25247
-85.75055
-88.21463
-85.38348
-76.88174
-63.16101
-45.51105
-25.58362
-5.038452
14.7374
32.68842
47.94455
59.84906
67.92371
72.01108
72.37854
69.60498
64.53394
58.03891
50.93411
43.73257
36.73888
29.97839
23.4025
16.86285
10.36421
3.972519
-2.152176
-7.863327
-13.14218
-18.18364
-23.38571
-29.20546
-36.16794
-44.52496
-54.19514
-64.59248
-74.61963
-82.67299
-87.0435
-86.17448
-79.11029
-65.90594
-47.59003
-25.9391
-3.07547
18.96524
38.73894
55.34471
68.32994
77.55182
82.9274
84.53087
82.71565
78.0921
71.58505
64.17348
56.74115
49.7632
43.3746
37.394
31.57625
25.70442
19.62971
13.358
6.887527
0.2857056
-6.467987
-13.43797
-20.75157
-28.54817
-37.06421
-46.53606
-56.99984
-68.11852
-79.06604
-88.37688
-94.32171
-95.17483
-89.73973
-77.78423
-60.1282
-38.40215
-14.68747
9.019028
31.16232
50.66759
66.90266
79.54109
88.39412
93.51449
95.0614
93.51044
89.39948
83.39206
76.0538
67.89652
59.38039
50.94491
43.15674
36.43307
31.02398
26.84342
23.33723
19.63872
14.78474
8.246956
-0.04660034
-9.294502
-18.38433
-26.16843
-31.95584
-35.8597
-38.63484
-41.54639
-45.73055
-52.01735
-60.5046
-70.58394
-81.01408
-90.06577
-95.89018
-96.60484
-91.11182
-79.09247
-61.3635
-39.56929
-15.9255
7.321091
28.40233
46.07605
59.90202
69.8483
76.18358
79.29924
79.65208
77.72331
73.95897
68.94787
63.06067
56.66008
49.93091
43.07294
36.39128
30.20046
24.89287
20.49015
16.95494
13.9178
10.86423
7.251818
2.695503
-2.827311
-9.172678
-15.98748
-22.96807
-29.92325
-36.96499
-44.44519
-52.8306
-62.51644
-73.32786
-84.42242
-94.28233
-100.9918
-102.6846
-98.14864
-87.13446
-70.31824
-49.27684
-25.95568
-2.274512
20.09293
39.96637
56.54167
69.44234
78.47362
83.85005
85.85903
84.90972
81.54636
76.27416
69.77507
62.52766
55.03191
47.5854
40.35913
33.34903
26.47344
19.66593
12.87734
6.220005
-0.2758045
-6.57402
-12.7038
-18.70535
-24.70027
-30.81294
-37.22735
-44.24681
-52.05444
-60.52105
-68.98106
-76.14109
-80.29893
-79.80858
-73.5593
-61.45472
-44.42286
-24.17371
-2.708611
18.09622
36.84652
52.70739
65.42035
74.91893
81.26411
84.53294
84.80999
82.31419
77.40895
70.71445
62.94708
54.82648
46.76891
38.98594
31.449
24.10715
16.96249
10.11427
3.748745
-2.062843
-7.403767
-12.60056
-17.95765
-23.74363
-30.03326
-36.85996
-44.14478
-51.77873
-59.42038
-66.27898
-71.12094
-72.41473
-68.92439
-60.11716
-46.47115
-29.35823
-10.66682
7.753143
24.58856
39.09001
50.85733
59.64338
65.17136
67.31958
66.13188
62.04359
55.82124
48.57166
41.36413
34.87439
29.33868
24.54036
20.17028
15.8856
11.57297
7.157211
2.628407
-2.069889
-7.07206
-12.46783
-18.48798
-25.22999
-32.78213
-41.02568
-49.54312
-57.4908
-63.55544
-66.2567
-64.30385
-57.19539
-45.31148
-29.76628
-12.12233
6.081921
23.48692
39.08587
51.94915
61.35379
66.63219
67.47331
64.17086
57.58273
48.99039
39.6967
30.81948
22.93426
16.27716
10.67439
5.847271
1.47731
-2.769239
-7.123491
-11.89517
-17.34461
-23.78142
-31.46237
-40.56285
-51.06891
-62.67463
-74.6613
-85.81548
-94.56537
-99.18503
-98.22862
-91.04474
-77.92075
-60.17768
-39.67072
-18.45453
1.767004
19.81202
34.97269
46.88474
55.29897
60.16734
61.58311
60.07674
56.41284
51.51802
46.12499
40.61234
35.02681
29.16069
22.93447
16.43019
9.988874
3.97957
-1.394285
-6.27898
-11.09583
-16.46305
-23.04325
-31.27672
-41.28637
-52.68239
-64.33035
-74.60088
-81.54169
-83.27552
-78.63039
-67.53412
-50.95264
-30.72325
-8.937073
12.55972
32.37785
49.71237
64.00903
74.86009
81.8997
84.99202
84.32556
80.46145
74.32642
66.89516
59.04568
51.21221
43.54321
35.96008
28.36557
20.75769
13.23454
6.007946
-0.7311401
-6.882179
-12.53529
-17.9554
-23.46392
-29.40982
-36.17215
-43.92577
-52.43753
-60.89906
-67.97729
-72.02153
-71.43164
-65.2271
-53.4115
-36.90428
-17.40241
3.176975
23.14922
41.25558
56.69331
69.14772
78.45932
84.51482
87.3022
86.85287
83.42451
77.46031
69.66225
60.80289
51.75542
43.1441
35.32517
28.28571
21.83891
15.80779
10.09044
4.659754
-0.4204102
-5.14509
-9.795376
-14.67128
-20.10896
-26.43331
-33.80326
-42.19865
-51.65142
-61.99273
-72.75624
-83.06169
-91.492
-96.21323
-95.5993
-88.61758
-75.21853
-56.47375
-34.27238
-10.89597
11.56221
31.60446
48.42626
61.76599
71.70738
78.39899
82.06816
82.97685
81.37379
77.6405
72.30637
65.89883
58.88773
51.68349
44.56129
37.71835
31.33401
25.47362
19.99429
14.60322
8.89975
2.513424
-4.617908
-12.2541
-19.9827
-27.29642
-33.86431
-39.71621
-45.19086
-50.71784
-56.74429
-63.29564
-70.02641
-76.10478
-80.35054
-81.49786
-78.52513
-70.93903
-58.8964
-43.31631
-25.49737
-6.93335
10.97865
27.12906
40.72609
51.33817
58.86196
63.4545
65.33205
64.93789
62.74579
59.21551
54.8458
50.02617
45.08869
40.37103
36.04243
32.06183
28.39528
24.94921
21.48256
17.92258
14.02057
9.652435
4.742752
-0.6757507
-6.505692
-12.47615
-18.29974
-23.90623
-29.22806
-34.55307
-40.3141
-46.93819
-54.50266
-62.52261
-69.9082
-75.18521
-76.92104
-74.02931
-66.36812
-54.54353
-39.79597
-23.68654
-7.624664
7.311295
20.26038
30.77698
38.68642
43.85208
46.41716
46.73103
45.23351
42.49927
39.02824
35.22134
31.32365
27.5249
23.77307
20.02657
16.32043
12.59932
9.007339
5.760681
3.069977
0.9841766
-0.7137909
-2.382019
-4.475357
-7.257721
-10.87827
-15.30644
-20.50845
-26.4946
-33.1145
-39.9669
-46.07027
-50.07297
-50.65794
-47.01256
-39.08093
-27.75285
-14.4729
-0.7123413
12.25108
23.69618
33.31915
41.01268
46.65086
50.21649
51.65489
51.05386
48.78513
45.2886
41.06757
36.49442
31.78296
27.03409
22.23163
17.43839
12.70935
8.125519
3.671997
-0.7774963
-5.403473
-10.36172
-15.64948
-21.23035
-26.94711
-32.67114
-38.31042
-43.7644
-48.66769
-52.41135
-54.17841
-53.04343
-48.45294
-40.41415
-29.46436
-16.60898
-3.054474
10.1651
22.24139
32.64178
41.01712
47.06903
50.59482
51.4588
49.73154
45.72665
40.01041
33.27536
26.28604
19.61731
13.51437
7.97403
2.749542
-2.415375
-7.674316
-12.95563
-18.1286
-23.00482
-27.51727
-31.86627
-36.30164
-41.13806
-46.50848
-52.31458
-58.09103
-63.07651
-66.24646
-66.5802
-63.27985
-55.99698
-44.94699
-30.89487
-15.09952
1.04129
16.2067
29.3443
39.76718
47.17453
51.54004
52.99445
51.85864
48.4953
43.31247
36.91022
29.83859
22.7504
16.25079
10.80832
6.568298
3.44278
1.10907
-0.871521
-2.879242
-5.242859
-8.123169
-11.55612
-15.53488
-20.02591
-24.99905
-30.5307
-36.65558
-43.45206
-50.97742
-59.11194
-67.46356
-75.28949
-81.37518
-84.35413
-83.00809
-76.6192
-65.1644
-49.53287
-31.09677
-11.51962
7.551605
24.84189
39.52972
51.20627
59.74997
65.38867
68.37326
69.06262
67.82767
65.02719
61.12042
56.55841
51.71518
46.74359
41.67896
36.51645
31.41776
26.70761
22.74329
19.81989
17.9187
16.70532
15.61591
14.06934
11.6272
8.08255
3.46759
-2.154053
-8.519989
-15.35226
-22.37189
-29.3793
-36.19308
-42.70743
-48.96625
-54.95792
-60.87955
-66.92911
-73.41418
-80.57202
-88.28406
-95.91809
-102.1948
-105.5851
-104.5311
-98.22855
-86.72092
-70.96094
-52.5098
-33.00253
-13.90955
3.661072
18.92395
31.47238
41.04282
47.72079
51.76624
53.65817
53.96259
53.26797
52.02017
50.41928
48.5159
46.09274
42.90704
38.80576
33.87799
28.45078
22.9949
17.95935
13.5256
9.64328
5.996307
2.185455
-2.090179
-6.948212
-12.23755
-17.75009
-23.2175
-28.47406
-33.44574
-38.24402
-43.06534
-48.27853
-54.27222
-61.23984
-69.08588
-77.16156
-84.36105
-89.13138
-90.01016
-85.94113
-76.59479
-62.53931
-45.00177
-25.57541
-5.800476
12.93192
29.6987
43.96536
55.43915
64.04285
69.8349
73.0159
73.92398
73.0325
70.78323
67.61987
63.81915
59.52835
54.80634
49.70612
44.43756
39.2424
34.34644
29.7739
25.40085
20.87793
15.87537
10.24484
3.983368
-2.650543
-9.329651
-15.71753
-21.60669
-26.94662
-31.92938
-37.01999
-42.71741
-49.4574
-57.25031
-65.52808
-73.08264
-78.3584
-79.78912
-76.33252
-67.69144
-54.38557
-37.64076
-18.97722
0.07264709
18.20276
34.44685
48.11665
58.76698
66.28951
70.73958
72.30064
71.38751
68.42804
63.83376
58.05359
51.40601
44.23573
36.93245
29.9626
23.7308
18.50998
14.30827
10.81715
7.643723
4.308975
0.5720062
-3.640717
-8.255661
-13.25269
-18.75162
-24.9646
-32.14171
-40.44914
-49.85204
-60.11116
-70.6244
-80.43248
-88.18045
-92.37837
-91.67662
-85.21745
-73.01239
-55.9191
-35.50426
-13.61652
7.981659
27.95386
45.46043
60.00171
71.32031
79.35297
84.13097
85.83255
84.86188
81.64676
76.77165
70.68298
63.76394
56.3194
48.60632
40.90698
33.44643
26.40651
19.81898
13.62382
7.736481
2.128075
-3.1492
-8.053452
-12.54391
-16.82932
-21.27525
-26.39521
-32.741
-40.58701
-49.70005
-59.17994
-67.61032
-73.3068
-74.79124
-71.14906
-62.35581
-49.18712
-32.98947
-15.30354
2.522179
19.27538
34.14328
46.49846
55.99179
62.44116
65.97456
66.91442
65.66232
62.72786
58.53539
53.52224
48.01218
42.26423
36.4211
30.52967
24.61784
18.58703
12.42578
6.113651
-0.1541557
-6.189957
-11.79109
-16.87716
-21.64879
-26.45754
-31.8404
-38.30794
-46.21137
-55.36364
-65.04771
-73.96214
-80.42883
-82.84292
-79.94178
-71.31147
-57.37672
-39.51242
-19.46251
0.8911161
19.9991
36.78078
50.60878
61.2107
68.43526
72.27519
72.84338
70.48137
65.83758
59.6597
52.71161
45.48057
38.26377
31.06595
23.81935
16.52879
9.372137
2.503633
-3.892469
-9.700579
-15.05966
-20.17521
-25.30919
-30.60989
-36.07418
-41.63364
-47.36404
-53.55466
-60.69283
-69.24353
-79.14396
-89.58026
-98.84103
-104.7595
-105.3499
-99.42969
-86.91296
-68.89559
-47.13522
-23.6192
-0.1127777
22.06617
41.97496
58.91632
72.42612
82.28448
88.53673
91.4399
91.53977
89.40313
85.59959
80.5523
74.57554
67.93927
60.99068
54.11447
47.59826
41.70515
36.37804
31.477
26.62472
21.49866
15.82693
9.491325
2.55867
-4.805878
-12.40071
-20.22232
-28.28769
-36.7977
-46.06967
-56.31627
-67.48457
-79.04022
-89.83113
-98.24556
-102.5388
-101.2621
-93.63974
-79.84676
-60.89252
-38.43153
-14.45793
9.227386
31.13997
50.20406
65.83682
77.75891
85.98047
90.83493
92.69351
91.98282
89.14719
84.57149
78.64311
71.69608
63.93169
55.57414
47.02263
38.62901
30.73703
23.63896
17.24234
11.30707
5.468262
-0.5695343
-6.994507
-13.70891
-20.53372
-27.28015
-33.78069
-40.21344
-46.82317
-53.97446
-62.0493
-71.27341
-81.43333
-91.66478
-100.3687
-105.546
-105.3708
-98.6524
-85.30078
-66.3149
-43.48724
-18.87468
5.478821
28.00832
47.55536
63.38918
75.22379
83.15521
87.45183
88.7556
87.7094
84.93292
80.91557
75.99635
70.38094
64.31279
58.15071
52.13261
46.69318
41.95898
37.80846
33.80856
29.42595
24.17072
17.84291
10.58492
2.69812
-5.324188
-13.14339
-20.56775
-27.62608
-34.57109
-41.90114
-50.05109
-59.20465
-69.05841
-78.57098
-86.13812
-89.93694
-88.3681
-80.56857
-66.74313
-48.05103
-26.24948
-3.256165
19.19278
39.71893
57.34344
71.48608
81.7973
88.17738
90.9019
90.45496
87.54749
82.95049
77.2877
70.95341
64.1812
57.03653
49.60774
42.19
35.00537
28.34283
22.39085
16.9931
11.91676
6.774445
1.25592
-4.772034
-11.15523
-17.5963
-23.81848
-29.69675
-35.33841
-41.17072
-47.78569
-55.72289
-65.21066
-75.86772
-86.49655
-95.32115
-100.2611
-99.60681
-92.51521
-79.31065
-61.34276
-40.50836
-18.8031
2.153
21.14682
37.33443
50.10257
59.14497
64.43712
66.30499
65.48912
62.78032
59.0795
54.97363
50.76485
46.49529
42.07111
37.40933
32.47713
27.28781
21.85237
16.19727
10.30232
4.138046
-2.312424
-9.004562
-15.77972
-22.38475
-28.60756
-34.34315
-39.67757
-44.95345
-50.73643
-57.55733
-65.77222
-75.33328
-85.44815
-94.73634
-101.3436
-103.4773
-99.89941
-90.36638
-75.75117
-57.76143
-38.47655
-19.60207
-2.38208
12.69949
25.53734
36.2229
44.65501
50.63708
53.90977
54.26414
51.93411
47.46024
41.73898
35.74475
30.27438
25.66022
21.88837
18.69589
15.6781
12.70844
9.657867
6.583496
3.516174
0.4301147
-2.790527
-6.168823
-9.697235
-13.42471
-17.45352
-22.10687
-27.71014
-34.27661
-41.3616
-47.7355
-51.77942
-51.80234
-46.76291
-36.50748
-21.99472
-4.947693
12.73648
29.29819
43.57483
54.91879
63.1488
68.21823
70.31989
69.6853
66.69568
62.0488
56.48236
50.88474
45.9173
41.89529
38.69421
35.93686
32.98578
29.32956
24.78287
19.45712
13.79236
8.229675
2.952545
-2.12973
-7.404388
-13.32297
-20.21619
-28.10825
-36.75049
-45.53717
-53.50919
-59.40137
-61.72
-58.97766
-50.20453
-35.26974
-15.00769
8.696136
33.40338
56.60056
76.10867
90.42068
98.7009
100.7721
97.20508
89.18661
78.29266
66.31827
54.78967
44.59998
35.94305
28.41205
21.41586
14.60413
8.035645
2.089355
-2.746948
-6.230408
-8.542572
-10.28543
-12.24988
-15.172
-19.60934
-25.84369
-33.85342
-43.25323
-53.23694
-62.59995
-69.77466
-73.12256
-71.39648
-64.0849
-51.66623
-35.43539
-17.15128
1.312958
18.33281
32.78232
44.00496
51.59369
55.44815
55.68689
52.77574
47.44751
40.6843
33.41302
26.39435
20.04701
14.32626
9.054031
4.059372
-0.6611481
-4.908279
-8.43013
-11.15671
-13.38756
-15.63271
-18.67062
-23.11133
-29.26692
-37.03351
-45.69005
-53.9911
-60.21925
-62.62694
-59.78683
-51.12395
-37.02336
-18.83356
1.379669
21.5851
40.01811
55.57652
67.62207
75.88353
80.1403
80.45433
77.1358
70.83658
62.55309
53.32283
44.00555
35.08949
26.69392
18.65619
10.92027
3.494736
-3.485962
-9.913742
-15.79956
-21.48232
-27.49906
-34.56007
-43.21231
-53.53466
-64.94449
-76.04918
-84.91109
-89.47563
-88.25215
-80.63519
-67.24139
-49.58741
-29.73833
-9.740517
8.638512
24.20501
36.23238
44.4085
48.75281
49.55167
47.29355
42.71653
36.68048
29.86446
22.79993
15.62605
8.348801
0.8966141
-6.627365
-14.00043
-20.8148
-26.72077
-31.55998
-35.48428
-39.02468
-42.86274
-47.72697
-54.03303
-61.65992
-69.76161
-76.85045
-81.07703
-80.6577
-74.5642
-62.86016
-46.57414
-27.49609
-7.565994
11.4911
28.47329
42.65306
53.7661
61.65537
66.27553
67.79575
66.53752
63.00975
57.74904
51.29493
43.98168
35.92939
27.08881
17.34489
6.735905
-4.457516
-15.75133
-26.55714
-36.40105
-45.12954
-53.03158
-60.72602
-68.90614
-78.05257
-88.05271
-98.11259
-106.6957
-111.9227
-112.0449
-105.9682
-93.61203
-75.92114
-54.68719
-32.11607
-10.1766
9.638779
26.48822
39.99849
50.17334
57.04993
60.72704
61.39483
59.37362
55.22034
49.61002
43.23656
36.47517
29.51447
22.23345
14.46719
6.318726
-1.766228
-9.174736
-15.33865
-19.97769
-23.54356
-26.81915
-30.8777
-36.71416
-44.84715
-55.18121
-67.03305
-79.11398
-89.60852
-96.59413
-98.2554
-93.51784
-82.35765
-65.64963
-45.05713
-22.36571
0.7263794
22.96371
43.34445
61.13402
75.60638
86.15906
92.58147
94.92848
93.8046
90.05698
84.69522
78.56778
72.35472
66.23985
59.94852
53.13254
45.32512
36.43102
26.86703
17.36349
8.656158
1.226807
-5.094238
-11.08408
-17.6142
-25.58487
-35.31088
-46.35165
-57.59613
-67.35178
-73.67307
-74.75232
-69.59509
-57.94583
-40.8381
-19.96335
2.472198
24.40237
44.27472
61.23718
75.01031
85.46338
92.69498
96.59488
97.18976
94.61493
89.24719
81.79007
73.11664
64.00894
55.00177
46.30817
37.83694
29.40918
20.97159
12.54318
4.338898
-3.358063
-10.46112
-17.11975
-23.61221
-30.36591
-37.82016
-46.22296
-55.76807
-66.3252
-77.30301
-87.5271
-95.31647
-98.72278
-96.17068
-86.86911
-71.02921
-50.01193
-25.76794
-0.4786682
24.02121
46.29016
65.42432
80.91229
92.5451
100.3835
104.624
105.567
103.5639
99.12271
92.7558
85.01407
76.39139
67.39542
58.43854
49.80353
41.62372
33.87613
26.3887
18.96704
11.40253
3.526031
-4.600464
-12.83472
-20.92715
-28.6658
-35.97696
-43.0524
-50.31451
-58.40921
-67.84055
-78.6629
-90.11703
-100.5041
-107.555
-108.927
-102.938
-89.1532
-68.54779
-43.20605
-15.78467
11.15283
35.62836
56.46024
73.18622
85.91748
94.97186
100.6371
103.1721
102.8805
100.1017
95.41815
89.60007
83.31596
77.13512
71.34177
65.99966
61.03809
56.41563
52.17555
48.41547
45.19652
42.39931
39.75458
36.74159
32.85492
27.80112
21.52145
14.32057
6.613632
-1.186203
-8.896347
-16.46851
-24.00568
-31.66051
-39.49286
-47.54147
-55.68587
-63.64838
-71.09407
-77.65373
-83.05713
-87.17393
-90.21904
-92.60683
-94.98697
-98.06744
-102.5066
-108.7173
-116.5171
-124.8869
-131.7364
-134.3648
-130.2361
-117.8671
-97.41935
-70.77839
-40.97925
-11.25294
15.856
38.94282
57.45428
71.37975
80.76741
85.69428
86.35778
83.27436
77.29825
69.4511
60.79409
52.12743
43.87767
36.22504
29.08577
22.21419
15.29013
8.075851
0.3064423
-7.948181
-16.26547
-23.98982
-30.36198
-34.82275
-37.34865
-38.45137
-39.11475
-40.44533
-43.21576
-47.58676
-53.00961
-58.56105
-63.32852
-66.78633
-68.97874
-70.50914
-72.28145
-75.17159
-79.79155
-86.14804
-93.668
-101.2142
-107.1939
-109.7896
-107.3909
-99.01532
-84.4976
-64.82274
-41.74886
-17.46642
5.851242
26.56833
43.82162
57.49289
67.99728
76.2361
83.21068
89.73235
96.07739
101.7801
105.7992
106.991
104.7485
99.34329
92.01895
84.32898
77.56003
72.21402
68.06342
64.53949
61.1973
57.91504
54.67117
51.27893
47.2092
41.67584
34.14215
24.58893
13.75116
2.68808
-7.485107
-16.04337
-22.89862
-28.453
-33.5332
-38.98279
-45.41165
-52.87979
-60.70044
-67.51831
-71.64343
-71.54385
-66.27951
-55.94156
-41.38666
-24.07449
-5.549011
12.90472
30.34818
46.07892
59.582
70.48386
78.54636
83.81097
86.54761
87.19229
86.25381
84.1507
81.11636
77.24387
72.4552
66.57559
59.47467
51.12473
41.65952
31.50797
21.21494
11.31708
2.203827
-5.93573
-13.21823
-19.76465
-25.52832
-30.19235
-33.15503
-33.91785
-32.2818
-28.67352
-24.05823
-19.81088
-17.16537
-16.89453
-19.03036
-22.81644
-26.95636
-29.90945
-30.23157
-26.85333
-19.24243
-7.260529
8.678665
27.71977
48.51837
69.24986
87.95526
103.272
114.6917
122.3776
126.6568
127.2642
123.1787
113.3551
97.83113
78.77068
60.52782
48.09035
44.35161
48.78445
57.70209
66.04811
69.87875
67.74342
60.84886
52.03189
44.05554
37.63207
31.94305
25.69322
18.31024
10.10233
1.453598
-7.738152
-18.24418
-31.35372
-49.54854
-74.88005
-108.0299
-147.6068
-190.6511
-234.0064
-274.9716
-311.5063
-334.8211
-336.7208
-313.0002
-266.8994
-207.4571
-144.6916
-86.03021
-35.12989
7.591733
43.66512
73.96632
98.64524
117.1455
128.9917
135.5361
136.672
132.1729
122.2307
107.7347
89.57779
69.50042
50.39784
35.93224
29.72854
32.98981
42.12482
50.28783
50.91409
40.35304
19.37033
-7.65699
-35.35966
-61.4415
-85.21478
-106.6138
-124.854
-137.6476
-142.2796
-137.2273
-123.0123
-102.5584
-79.93784
-58.77525
-41.08092
-26.87659
-14.91948
-2.498192
10.90022
24.68924
37.76665
49.18093
58.59966
66.13369
72.13462
76.92592
80.55544
82.62374
82.76529
80.70692
76.45855
70.31
62.71346
54.12487
45.162
36.3621
27.97583
20.25499
13.2617
6.87661
0.9121246
-4.857887
-10.59298
-16.23703
-21.76434
-27.23233
-32.7333
-38.32845
-44.10532
-50.09249
-56.30965
-62.8378
-69.63971
-76.72427
-83.87922
-90.4698
-95.42645
-97.42229
-95.23645
-88.20412
-76.45024
-60.95388
-43.33067
-25.46537
-8.921524
5.223351
16.51659
25.02292
31.07701
34.98116
36.99541
37.29623
36.06092
33.59857
30.27013
26.52437
22.61795
18.64141
14.4134
9.772232
4.685066
-0.6153526
-5.783184
-10.55817
-14.85712
-18.79333
-22.64358
-26.63765
-30.78046
-34.98689
-39.14432
-43.42371
-48.09738
-53.45197
-59.43114
-65.53831
-70.78035
-73.83669
-73.52121
-69.1411
-60.61715
-48.50544
-33.77909
-17.56751
-0.9575729
15.15328
30.06049
43.20545
54.02153
62.04709
66.94061
68.52292
66.96519
62.85734
57.03799
50.54102
44.13411
38.28105
33.076
28.29556
23.4393
18.04274
11.83002
4.760521
-2.839737
-10.52407
-17.8456
-24.38624
-30.03162
-34.93626
-39.45513
-44.16385
-49.56793
-55.87871
-62.80545
-69.38696
-74.19043
-75.67943
-72.66989
-64.63422
-52.06767
-36.16191
-18.39336
-0.2581024
17.12552
32.90851
46.54051
57.74995
66.40439
72.50172
76.16806
77.76286
77.64711
76.23239
73.8273
70.60898
66.75105
62.37645
57.6373
52.55589
47.18304
41.38387
35.01193
27.87277
19.77734
10.73587
0.8503876
-9.564285
-20.366
-31.52599
-43.15369
-55.1843
-67.24954
-78.48495
-87.44669
-92.55884
-92.25583
-85.75992
-73.20819
-55.64145
-34.74417
-12.42703
9.489655
29.63104
47.09729
61.44373
72.43213
79.99625
84.18015
85.06619
83.05267
78.7572
72.99298
66.63263
60.30154
54.22089
48.16373
41.69034
34.32776
26.04932
17.22592
8.452545
0.2490234
-7.116333
-13.78564
-20.25119
-27.05423
-34.77869
-43.72015
-53.98505
-65.24307
-76.74377
-87.08362
-94.40671
-96.77008
-92.73605
-81.87888
-64.82776
-43.35147
-19.58603
4.226929
26.4118
45.74927
61.59756
73.60483
81.66504
85.8244
86.28058
83.51001
78.14508
71.04883
63.05551
54.90421
47.07898
39.75269
32.87613
26.23557
19.67447
13.09787
6.5737
0.1947632
-5.985687
-12.00198
-18.05676
-24.40869
-31.3613
-39.13791
-47.9252
-57.72531
-68.23578
-78.7504
-87.92075
-94.05792
-95.42096
-90.80206
-79.88852
-63.54605
-43.38681
-21.38129
0.618866
21.21631
39.48929
54.85837
66.8212
75.08463
79.38519
79.77982
76.6713
70.81137
63.28354
55.25269
47.74637
41.3508
36.19061
31.85501
27.81863
23.61148
19.1062
14.51959
10.13953
6.12793
2.228607
-1.975647
-6.955292
-12.86148
-19.42279
-26.10687
-32.30963
-37.50235
-41.12595
-42.58591
-40.98792
-35.50195
-25.74487
-12.12329
4.154572
21.35977
37.88211
52.7131
65.38123
75.86295
83.97217
89.33191
91.29282
89.39523
83.66034
74.72049
63.73907
51.90045
40.27771
29.42926
19.58405
10.65863
2.436401
-5.205719
-12.27921
-18.72296
-24.53336
-29.69821
-34.43002
-39.02875
-43.77737
-49.02835
-55.1763
-62.54376
-71.28925
-81.29828
-91.76086
-101.2651
-107.8773
-109.5584
-104.8743
-93.33719
-75.73486
-53.84003
-29.94806
-6.22702
15.51193
34.17844
49.26071
60.50363
67.91544
71.60373
71.91641
69.44879
65.04831
59.59232
53.87482
48.30548
42.90369
37.41992
31.53482
25.10648
18.25253
11.33444
4.779022
-1.146729
-6.442871
-11.44748
-16.61432
-22.48981
-29.53552
-37.96454
-47.65781
-58.07181
-68.11127
-76.26871
-80.90555
-80.47958
-74.1944
-62.24078
-45.69696
-26.3251
-6.088562
13.28348
30.55115
44.84549
55.76511
63.04871
66.75024
67.09387
64.68655
60.35785
55.08801
49.75232
44.82687
40.38495
36.05115
31.36984
26.05627
20.07187
13.61566
7.13623
0.9825745
-4.778625
-10.28021
-15.93607
-22.2879
-29.74896
-38.56503
-48.52026
-58.74744
-67.96448
-74.50055
-76.72781
-73.49774
-64.42239
-49.99887
-31.61154
-11.04547
9.785034
29.20737
45.95062
59.32162
68.95636
74.83353
77.13474
76.15219
72.39203
66.59396
59.57773
52.021
44.47446
36.98599
29.42148
21.61469
13.50882
5.301971
-2.515228
-9.462799
-15.37967
-20.42062
-25.24661
-30.52979
-37.01303
-45.03116
-54.22894
-63.55276
-71.32065
-75.60724
-74.86984
-68.32602
-56.12228
-39.2525
-19.37555
1.760437
22.50366
41.39319
57.28558
69.34018
77.06058
80.39511
79.85895
76.14661
70.319
63.3569
55.99939
48.62714
41.34192
33.85739
25.8558
17.2742
8.213226
-0.8118896
-9.35025
-17.05896
-23.96796
-30.62534
-37.76569
-46.06924
-55.79309
-66.52423
-77.10391
-85.86078
-90.98502
-90.84857
-84.64438
-72.39777
-55.07117
-34.25677
-11.85486
10.21973
30.30399
47.09778
59.94122
68.69083
73.66678
75.44202
74.75247
72.19003
68.30481
63.51373
58.18552
52.63724
46.9053
40.6434
33.15982
23.67001
11.7146
-2.507599
-17.95941
-33.1087
-46.36594
-56.67661
-63.79959
-68.1272
-70.34744
-70.79398
-69.35117
-65.32993
-57.86047
-46.23053
-30.21378
-10.19177
12.98419
38.22888
64.10696
88.90665
110.5736
126.6736
134.9427
133.8695
123.3716
105.2048
82.60376
59.38379
38.85718
22.99176
12.1095
5.451996
1.748535
-0.3076172
-1.714874
-3.40921
-6.255646
-10.99969
-17.93637
-26.7829
-36.64014
-46.39575
-55.13052
-62.53638
-69.08371
-75.70645
-83.37115
-92.47675
-102.6027
-112.2318
-119.2744
-121.4888
-117.1904
-105.8323
-88.0993
-65.7261
-41.0752
-16.46567
6.255157
25.93301
42.02591
54.50476
63.3568
68.65076
70.50291
69.21144
65.39742
59.88004
53.71227
47.58708
41.86958
36.45915
30.98566
25.09688
18.78699
12.38292
6.308655
0.9225616
-3.792633
-8.141205
-12.66496
-17.91957
-24.25284
-31.86671
-40.68466
-50.42381
-60.47243
-69.82156
-77.02188
-80.50934
-78.88129
-71.39078
-58.32248
-40.79602
-20.56174
0.56073
20.894
39.25938
54.96385
67.53165
76.7018
82.34972
84.52716
83.58214
80.10124
74.79871
68.41035
61.55237
54.6691
47.90202
41.22676
34.51591
27.83347
21.24788
14.94688
9.123657
3.848511
-0.9132843
-5.36586
-9.863159
-14.76018
-20.47829
-27.38242
-35.67619
-45.23924
-55.53668
-65.43082
-73.3356
-77.50127
-76.44768
-69.49455
-56.84991
-39.72517
-19.96271
0.4436188
19.78429
36.73849
50.46823
60.54076
66.74207
69.2211
68.41301
65.03053
59.91318
53.96934
47.87135
41.96806
36.36324
30.87116
25.24415
19.31969
13.07572
6.668442
0.4233551
-5.332436
-10.38285
-14.61845
-18.20461
-21.47553
-24.92477
-29.06527
-34.35423
-40.96158
-48.61822
-56.51202
-63.31682
-67.50533
-67.66093
-62.88177
-53.15638
-39.22105
-22.45714
-4.525398
13.00763
28.90873
42.21906
52.41693
59.17149
62.40977
62.44463
59.83915
55.39441
49.97418
44.36108
38.98993
34.11267
29.6478
25.37692
21.00907
16.25819
10.97502
5.085266
-1.223703
-7.673494
-13.86232
-19.55169
-24.70907
-29.47778
-34.13869
-39.02404
-44.35395
-50.25143
-56.54818
-62.63615
-67.50725
-69.94777
-68.70127
-62.97878
-52.67887
-38.54041
-22.01569
-4.772171
11.66989
26.08073
37.7175
46.20893
51.45336
53.66482
53.2193
50.63938
46.52357
41.41267
35.75652
29.95609
24.23572
18.7448
13.58791
8.794388
4.236359
-0.1467896
-4.389496
-8.410995
-12.01448
-15.13031
-17.89085
-20.5804
-23.57047
-27.28929
-32.09703
-38.10884
-45.09872
-52.38147
-58.86925
-63.29697
-64.38789
-61.25174
-53.66354
-42.24257
-28.15976
-12.85739
2.292145
16.18816
28.08946
37.64352
44.64178
49.06981
50.86742
50.21158
47.45161
43.22615
38.27171
33.35437
29.03395
25.40396
22.31288
19.33253
15.99426
11.94141
7.206528
2.056717
-3.086334
-7.87262
-12.26866
-16.51898
-20.96709
-25.92351
-31.66229
-38.10896
-44.88741
-51.4886
-57.05783
-60.68529
-61.40524
-58.42154
-51.48969
-41.07843
-28.18466
-14.18146
-0.4273682
12.08014
22.67419
30.95996
36.7056
39.75415
40.10721
38.17343
34.54605
30.04968
25.54376
21.53528
18.16104
15.16202
12.04361
8.431061
4.280914
-0.195343
-4.594727
-8.576721
-12.10577
-15.45419
-19.05682
-23.40588
-28.71844
-35.04193
-42.19943
-49.76627
-57.1279
-63.39108
-67.37833
-67.99017
-64.42795
-56.56091
-44.94324
-30.76324
-15.35962
-0.03039551
14.12134
26.24982
35.60309
41.58582
43.88416
42.60526
38.34326
32.16455
25.21481
18.42661
12.37738
7.081604
2.353241
-2.145874
-6.672119
-11.26114
-15.78668
-20.09888
-24.05228
-27.61261
-31.01035
-34.52142
-38.67438
-43.94818
-50.48947
-58.02127
-65.63309
-71.97635
-75.4169
-74.72433
-69.18109
-59.14087
-45.66992
-30.20432
-14.20047
1.176788
15.18347
27.36423
37.31976
44.76828
49.41589
51.16409
50.25674
47.20529
42.73392
37.53699
32.09064
26.46786
20.647
14.48938
8.010864
1.375916
-5.222015
-11.52408
-17.45241
-23.16647
-28.98145
-35.17271
-41.99489
-49.51126
-57.53706
-65.64967
-72.96812
-78.33409
-80.53937
-78.60703
-72.01212
-60.98312
-46.32445
-29.29875
-11.42413
5.971161
21.84859
35.53314
46.62315
54.89595
60.24936
62.72331
62.64969
60.47417
56.8855
52.49693
47.88229
43.24567
38.48233
33.19426
27.11734
20.1866
12.55669
4.699387
-2.994354
-10.20731
-16.83737
-23.02354
-29.16956
-35.71395
-43.01698
-51.18884
-59.82298
-68.02803
-74.61842
-78.11438
-77.26114
-71.27244
-60.11616
-44.47586
-25.63489
-5.166405
15.30548
34.23998
50.617
63.78708
73.52482
79.81079
82.8325
82.78956
80.10071
75.20616
68.69184
61.26147
53.58139
46.19582
39.41692
33.29636
27.67877
22.33506
16.99554
11.42355
5.424357
-1.113193
-8.27827
-15.90672
-23.81126
-31.78752
-39.80179
-47.97117
-56.72199
-66.3504
-76.75471
-87.07613
-95.52172
-99.92662
-98.28026
-89.41
-73.42809
-51.79323
-26.83144
-1.147236
23.00089
44.10741
61.43046
74.81169
84.47391
90.75056
93.85178
93.93507
91.31641
86.40585
79.86374
72.42397
64.67226
56.94964
49.30861
41.68516
34.02998
26.55271
19.45425
12.96667
7.034172
1.320488
-4.631813
-11.21547
-18.42307
-26.11002
-33.90948
-41.64876
-49.30803
-56.94804
-64.45576
-71.26455
-76.30002
-78.11873
-75.53825
-67.86082
-55.37537
-39.20212
-20.94348
-2.323471
15.36465
31.24219
44.83783
55.91357
64.34903
69.98222
72.76308
72.82198
70.52716
66.51256
61.47148
55.98662
50.4057
44.75569
38.87093
32.4529
25.46103
18.06613
10.621
3.476257
-3.216888
-9.580719
-15.9575
-22.8759
-30.81071
-39.94354
-50.23576
-61.22044
-71.86093
-80.66333
-85.75876
-85.46536
-78.73032
-65.43285
-46.66121
-24.35477
-0.859787
21.68059
41.61493
58.05049
70.5563
79.10048
83.84744
85.00885
83.05037
78.58264
72.42899
65.40865
58.23553
51.35442
44.88055
38.63519
32.28461
25.66943
18.8933
12.31339
6.312302
1.226059
-2.939072
-6.506516
-10.06789
-14.36723
-19.92937
-27.08282
-35.82724
-45.74573
-55.9256
-65.00056
-71.28934
-73.16855
-69.56293
-60.15048
-45.65497
-27.52605
-7.577377
12.3557
30.72299
46.38644
58.59711
66.95111
71.37917
72.15891
69.85316
65.25258
59.19208
52.44981
45.73442
39.54669
34.1671
29.66722
25.84613
22.42226
19.05519
15.53505
11.74829
7.721283
3.483521
-1.029587
-5.88765
-11.20256
-16.98572
-23.22289
-29.90623
-37.08873
-44.80974
-52.9416
-60.99664
-67.97554
-72.608
-73.57877
-69.99319
-61.5132
-48.62021
-32.19008
-13.3974
6.459366
26.24924
44.7766
61.13055
74.5132
84.44907
90.64938
93.19957
92.40532
88.65752
82.55338
74.69919
65.86862
56.73999
47.90393
39.69731
32.32362
25.9059
20.35285
15.56802
11.26119
7.065514
2.520485
-2.789276
-9.090744
-16.24423
-23.88435
-31.68125
-39.33405
-46.98243
-54.92724
-63.4967
-72.72378
-81.91006
-89.68708
-94.31345
-94.2951
-88.6552
-77.52242
-61.9397
-43.57326
-24.33121
-5.852974
10.63961
24.43185
35.18142
43.04939
48.38034
51.6417
53.47244
54.28925
54.32104
53.58736
51.97118
49.38884
45.8918
41.64877
36.85891
31.75889
26.49144
21.09385
15.56087
9.838411
3.97938
-1.97336
-8.026226
-14.22446
-20.60957
-27.22289
-34.13912
-41.35913
-48.9516
-56.75753
-64.34164
-70.81958
-74.98426
-75.53487
-71.43887
-62.38364
-48.82073
-32.00468
-13.46116
5.31237
23.09207
38.90432
52.01581
61.97576
68.49504
71.7025
72.05914
70.23219
67.00852
62.9516
58.34301
53.24943
47.6298
41.57783
35.36937
29.53003
24.42322
20.34055
17.20462
14.71051
12.29631
9.395226
5.577904
0.5917511
-5.464035
-12.40295
-19.72269
-26.9443
-33.58464
-39.44521
-44.59467
-49.2986
-54.00856
-59.04576
-64.44562
-69.64462
-73.58905
-74.85394
-72.17296
-64.90858
-53.26785
-38.32808
-21.69435
-5.041885
10.30618
23.65013
34.7178
43.56401
50.23012
54.76265
57.16113
57.6041
56.41522
54.043
51.04204
47.8152
44.57463
41.24249
37.6642
33.66959
29.27458
24.6722
20.10928
15.90283
12.25317
9.053574
6.050446
2.858734
-0.8035583
-5.04924
-9.785004
-14.81726
-19.84286
-24.67116
-29.2081
-33.40065
-37.27448
-40.91415
-44.49741
-48.18219
-52.18256
-56.37457
-60.29099
-63.06366
-63.58386
-61.01691
-55.00293
-45.7865
-34.09076
-21.09366
-7.920441
4.512085
15.53754
24.77548
32.01395
37.26633
40.71744
42.72168
43.6601
43.91974
43.80368
43.39035
42.60699
41.19229
38.90436
35.62579
31.44522
26.65619
21.65338
16.70825
11.867
7.031616
1.979889
-3.419495
-9.221466
-15.39758
-21.72034
-27.96301
-34.00208
-39.72018
-45.03711
-50.022
-54.91336
-60.16196
-66.20657
-73.15747
-80.63412
-87.53845
-92.33804
-93.44928
-89.93954
-81.77527
-69.87491
-55.72726
-40.9118
-26.71194
-13.85196
-2.618805
6.941345
14.81287
21.06802
25.79868
29.36731
32.31082
35.16672
38.46649
42.45325
47.01523
51.75443
56.13483
59.58908
61.78842
62.67816
62.31747
60.89291
58.45013
54.92291
50.11151
43.76788
35.74741
26.02859
14.77475
2.077026
-11.90414
-27.01291
-42.85889
-58.5723
-72.91608
-84.27847
-91.13657
-92.42609
-87.89795
-78.2627
-64.98792
-49.87366
-34.65289
-20.64346
-8.588104
1.139252
8.450562
13.37988
16.05188
16.63385
15.40543
12.77017
9.167938
5.0896
0.8547974
-3.304016
-7.223053
-10.8624
-14.19263
-17.25949
-20.05441
-22.62711
-24.97958
-27.10391
-29.11423
-31.01859
-32.97159
-35.19333
-38.01657
-41.78976
-46.78159
-52.97574
-60.05484
-67.13385
-72.91306
-75.93259
-74.92905
-69.15244
-58.6637
-44.37415
-27.79541
-10.72772
5.294281
19.23035
30.5751
39.20322
45.12415
48.30237
48.68262
46.26544
41.3067
34.38715
26.53802
18.892
12.39313
7.607727
4.579681
3.031769
2.432037
2.298859
2.121948
1.64093
0.6612549
-0.9337158
-3.166565
-6.016174
-9.553894
-13.93051
-19.39728
-26.26929
-34.44945
-43.18155
-51.02296
-55.95515
-55.92778
-49.62883
-36.94519
-19.23358
0.8370514
20.00519
35.29497
44.64137
47.43663
44.38518
37.07983
27.59735
18.17009
10.78876
7.041367
8.075623
14.09433
24.39752
37.27446
50.34633
61.36378
68.74695
71.95782
71.50436
68.65781
64.71709
60.63145
56.59811
52.04192
46.19643
38.38128
28.32349
16.47599
3.932053
-8.10231
-18.32356
-25.74477
-29.81879
-30.21228
-26.99351
-20.74168
-12.51875
-3.769859
3.743767
8.439224
9.256371
5.840851
-1.290703
-10.98013
-21.82278
-32.55518
-42.20487
-50.31332
-56.76315
-61.48676
-64.65179
-66.26382
-66.31346
-64.76074
-61.65379
-57.20884
-51.98584
-46.69456
-42.27618
-39.85371
-40.13642
-43.30921
-48.63719
-54.48429
-58.69464
-59.26384
-54.72105
-44.68087
-29.93234
-11.97494
7.319633
26.23866
43.40194
57.87047
69.01769
76.53171
80.51801
81.35722
79.78725
76.69699
72.76619
68.46925
63.89802
59.02655
53.77369
48.29527
42.82797
37.6621
32.9252
28.49529
24.03866
19.02046
12.9044
5.218567
-4.202774
-14.97565
-26.14885
-36.25481
-43.5976
-46.65103
-44.65187
-37.78812
-27.0417
-13.87714
0.349411
14.60822
28.14523
40.32994
50.39993
57.40425
60.51747
59.36649
54.28551
46.37135
37.00452
27.55034
18.88716
11.46616
5.329208
0.3555908
-3.591583
-6.698944
-9.247787
-11.78741
-14.99879
-19.73184
-26.67271
-36.07198
-47.65556
-60.37393
-72.61719
-82.32256
-87.44299
-86.45042
-78.66299
-64.57707
-45.60516
-23.73758
-1.126678
20.32507
39.22348
54.49881
65.56635
72.15335
74.37805
72.78903
68.24417
61.79257
54.31284
46.50159
38.61203
30.67175
22.61871
14.3876
6.141632
-1.883392
-9.318878
-16.00769
-22.02179
-27.79984
-34.05573
-41.51367
-50.59259
-60.97861
-71.44443
-80.00272
-84.25381
-82.20554
-72.86719
-56.58746
-34.95456
-10.4101
14.51315
37.65027
57.55206
73.42496
84.93045
92.03366
94.81662
93.71686
89.40118
82.90253
75.31213
67.58105
60.2262
53.21002
46.11606
38.30762
29.42584
19.41425
8.76767
-1.766144
-11.36078
-19.48672
-26.15585
-31.88617
-37.67285
-44.55133
-53.14981
-63.20279
-73.47827
-81.94833
-86.22125
-84.29092
-75.00522
-58.46045
-36.03433
-9.948364
17.25507
43.31189
66.43625
85.57028
100.0683
109.7951
114.8165
115.4811
112.4349
106.5897
99.06525
90.9791
83.2308
76.28189
70.28568
64.98059
60.06116
55.21069
50.22424
45.05365
39.7196
34.1944
28.21133
21.40546
13.21268
3.132172
-9.230743
-24.1376
-41.60049
-61.05734
-81.27875
-100.2674
-115.4506
-124.3035
-125.0352
-116.9485
-100.8276
-78.5585
-52.6571
-25.66315
0.2410278
23.53333
43.15814
58.51382
69.29623
75.43375
77.19589
75.11639
70.104
63.14877
55.31598
47.3707
39.6857
32.25061
24.79837
17.0983
9.029572
0.7430725
-7.554962
-15.55789
-23.11633
-30.10684
-36.50812
-42.41101
-48.03152
-53.7637
-60.22186
-68.08209
-77.77084
-88.96024
-100.3508
-109.6732
-114.3853
-112.3829
-102.6506
-85.61914
-62.99826
-37.23703
-10.83923
14.11176
36.28021
54.91016
69.64841
80.4075
87.28616
90.50876
90.4549
87.66122
82.76685
76.43967
69.29245
61.69501
53.77417
45.5112
36.77142
27.59265
18.20569
8.977356
0.3114014
-7.446655
-14.29068
-20.43533
-26.3606
-32.53519
-39.3179
-46.89227
-55.40582
-64.78378
-74.58252
-83.77359
-90.76218
-93.56427
-90.31766
-79.93121
-62.60376
-39.84375
-14.01639
12.34589
37.1546
59.00525
77.09546
90.98694
100.6461
106.1289
107.7816
106.3359
102.7803
98.13773
93.35922
89.05838
85.27902
81.80881
78.117
73.63019
67.99118
61.16919
53.29605
44.83829
36.28491
27.98483
20.08313
12.5639
5.122406
-2.606781
-10.86407
-19.68088
-28.80194
-37.70795
-45.99146
-53.41042
-60.10132
-66.46996
-73.04619
-80.40886
-88.92065
-98.5479
-108.7234
-118.329
-125.5657
-128.4505
-125.1842
-114.6764
-96.97841
-73.49214
-46.40376
-18.29573
8.425598
32.08795
51.72644
66.95557
77.88789
84.92744
88.5264
89.283
87.8148
84.71706
80.55788
75.88547
70.97411
66.14957
61.4998
57.04257
52.70175
48.32826
43.83424
39.15938
34.31996
29.14532
23.48241
16.94733
9.272537
0.3734283
-9.536209
-19.84651
-29.71355
-38.26624
-45.09471
-50.15906
-53.98031
-57.33853
-61.07853
-65.87425
-71.96448
-79.01113
-85.98019
-91.34536
-93.34272
-90.46217
-81.87183
-67.59244
-48.6642
-26.79147
-3.935966
18.15126
38.1317
55.13248
68.69483
78.53507
84.6414
87.03429
86.12827
82.55493
77.21776
71.08902
64.83003
58.8853
53.24161
47.9065
42.78055
38.05866
34.08596
31.34008
30.11235
30.33462
31.61942
33.25016
34.47622
34.59734
33.20996
30.10996
25.34399
19.11414
11.74345
3.519623
-5.419476
-15.30009
-26.50315
-39.36096
-53.83266
-69.09094
-83.38409
-94.47723
-100.1432
-98.90222
-90.59905
-76.32324
-58.09253
-38.23364
-18.79274
-1.045891
14.27771
26.903
36.67421
43.40695
46.95061
47.33521
44.87785
40.22
34.25874
27.84772
21.6192
15.87538
10.54277
5.394241
0.2949677
-4.764236
-9.402939
-13.1875
-15.93805
-17.8439
-19.53181
-21.82967
-25.41911
-30.49451
-36.77612
-43.47961
-49.80301
-55.18855
-59.51115
-63.00305
-66.22453
-69.74156
-74.05186
-79.34988
-85.31371
-91.12636
-95.45703
-96.7937
-93.68561
-85.40118
-71.96317
-54.35693
-34.17795
-13.14725
7.123444
25.49011
41.18207
53.81802
63.20569
69.40906
72.65283
73.35147
72.17291
69.85788
67.15936
64.51736
62.12344
59.82611
57.24683
54.04745
49.9848
45.15652
39.84579
34.52179
29.43451
24.68524
20.01846
15.00119
9.292267
2.687103
-4.635132
-12.36938
-20.03311
-27.37198
-34.24591
-40.88284
-47.59839
-54.63858
-62.2865
-70.52475
-79.05597
-87.09088
-93.42383
-96.53427
-95.07315
-88.18549
-75.82816
-58.97391
-39.16983
-18.09445
2.673218
21.9971
39.07144
53.36102
64.53656
72.50677
77.20938
78.9726
78.44534
76.54132
74.21432
72.19489
70.72015
69.47696
67.9158
65.31729
61.50616
56.71448
51.55521
46.72641
42.54755
38.90231
35.28815
31.22458
26.19543
20.06085
12.65549
3.90332
-6.245483
-17.73056
-30.43222
-43.95361
-57.88998
-71.96384
-86.00955
-99.95261
-113.4469
-125.5685
-134.8431
-139.7173
-138.9257
-131.9949
-119.4241
-102.493
-82.80127
-61.96454
-41.24442
-21.62134
-3.804169
11.57376
23.95227
33.03796
38.7197
41.37363
41.59329
40.17642
37.8374
35.10449
32.16666
29.06613
25.78094
22.28503
18.87839
15.85815
13.58636
12.19119
11.53677
11.16736
10.48196
8.904358
5.99057
1.696045
-3.706665
-9.762543
-16.03351
-22.22055
-28.33743
-34.5603
-41.15234
-48.40643
-56.40598
-64.92426
-73.36185
-80.59329
-85.12201
-85.51416
-80.67719
-70.25836
-54.89557
-35.94788
-15.20001
5.481476
24.60745
41.07425
54.21643
63.78543
69.89377
72.88214
73.37653
72.08633
69.73468
66.995
64.30795
