1570267160.2678
1570267160.28343
1570267160.29905
1570267160.31468
1570267160.3303
1570267160.34593
1570267160.36155
1570267160.37718
1570267160.39281
1570267160.40843
1570267160.42406
1570267160.43968
1570267160.45531
1570267160.47094
1570267160.48656
1570267160.50219
1570267160.51781
1570267160.53344
1570267160.54906
1570267160.56469
1570267160.58032
1570267160.59594
1570267160.61157
1570267160.62719
1570267160.64282
1570267160.65844
1570267160.67407
1570267160.6897
1570267160.70532
1570267160.72095
1570267160.73657
1570267160.7522
1570267160.76782
1570267160.78345
1570267160.79908
1570267160.8147
1570267160.83033
1570267160.84595
1570267160.86158
1570267160.8772
1570267160.89283
1570267160.90846
1570267160.92408
1570267160.93971
1570267160.95533
1570267160.97096
1570267160.98658
1570267161.00221
1570267161.01784
1570267161.03346
1570267161.04909
1570267161.06471
1570267161.08034
1570267161.09596
1570267161.11159
1570267161.12722
1570267161.14284
1570267161.15847
1570267161.17409
1570267161.18972
1570267161.20534
1570267161.22097
1570267161.2366
1570267161.25222
1570267161.26785
1570267161.28347
1570267161.2991
1570267161.31472
1570267161.33035
1570267161.34598
1570267161.3616
1570267161.37723
1570267161.39285
1570267161.40848
1570267161.4241
1570267161.43973
1570267161.45536
1570267161.47098
1570267161.48661
1570267161.50223
1570267161.51786
1570267161.53348
1570267161.54911
1570267161.56474
1570267161.58036
1570267161.59599
1570267161.61161
1570267161.62724
1570267161.64286
1570267161.65849
1570267161.67412
1570267161.68974
1570267161.70537
1570267161.72099
1570267161.73662
1570267161.75224
1570267161.76787
1570267161.7835
1570267161.79912
1570267161.81475
1570267161.83037
1570267161.846
1570267161.86162
1570267161.87725
1570267161.89288
1570267161.9085
1570267161.92413
1570267161.93975
1570267161.95538
1570267161.971
1570267161.98663
1570267162.00226
1570267162.01788
1570267162.03351
1570267162.04913
1570267162.06476
1570267162.08038
1570267162.09601
1570267162.11164
1570267162.12726
1570267162.14289
1570267162.15851
1570267162.17414
1570267162.18976
1570267162.20539
1570267162.22102
1570267162.23664
1570267162.25227
1570267162.26789
1570267162.28352
1570267162.29914
1570267162.31477
1570267162.3304
1570267162.34602
1570267162.36165
1570267162.37727
1570267162.3929
1570267162.40852
1570267162.42415
1570267162.43978
1570267162.4554
1570267162.47103
1570267162.48665
1570267162.50228
1570267162.5179
1570267162.53353
1570267162.54916
1570267162.56478
1570267162.58041
1570267162.59603
1570267162.61166
1570267162.62728
1570267162.64291
1570267162.65854
1570267162.67416
1570267162.68979
1570267162.70541
1570267162.72104
1570267162.73667
1570267162.75229
1570267162.76792
1570267162.78354
1570267162.79917
1570267162.81479
1570267162.83042
1570267162.84605
1570267162.86167
1570267162.8773
1570267162.89292
1570267162.90855
1570267162.92417
1570267162.9398
1570267162.95543
1570267162.97105
1570267162.98668
1570267163.0023
1570267163.01793
1570267163.03355
1570267163.04918
1570267163.06481
1570267163.08043
1570267163.09606
1570267163.11168
1570267163.12731
1570267163.14293
1570267163.15856
1570267163.17419
1570267163.18981
1570267163.20544
1570267163.22106
1570267163.23669
1570267163.25231
1570267163.26794
1570267163.28357
1570267163.29919
1570267163.31482
1570267163.33044
1570267163.34607
1570267163.36169
1570267163.37732
1570267163.39295
1570267163.40857
1570267163.4242
1570267163.43982
1570267163.45545
1570267163.47107
1570267163.4867
1570267163.50233
1570267163.51795
1570267163.53358
1570267163.5492
1570267163.56483
1570267163.58045
1570267163.59608
1570267163.61171
1570267163.62733
1570267163.64296
1570267163.65858
1570267163.67421
1570267163.68983
1570267163.70546
1570267163.72109
1570267163.73671
1570267163.75234
1570267163.76796
1570267163.78359
1570267163.79921
1570267163.81484
1570267163.83047
1570267163.84609
1570267163.86172
1570267163.87734
1570267163.89297
1570267163.90859
1570267163.92422
1570267163.93985
1570267163.95547
1570267163.9711
1570267163.98672
1570267164.00235
1570267164.01797
1570267164.0336
1570267164.04923
1570267164.06485
1570267164.08048
1570267164.0961
1570267164.11173
1570267164.12735
1570267164.14298
1570267164.15861
1570267164.17423
1570267164.18986
1570267164.20548
1570267164.22111
1570267164.23673
1570267164.25236
1570267164.26799
1570267164.28361
1570267164.29924
1570267164.31486
1570267164.33049
1570267164.34611
1570267164.36174
1570267164.37737
1570267164.39299
1570267164.40862
1570267164.42424
1570267164.43987
1570267164.45549
1570267164.47112
1570267164.48675
1570267164.50237
1570267164.518
1570267164.53362
1570267164.54925
1570267164.56487
1570267164.5805
1570267164.59613
1570267164.61175
1570267164.62738
1570267164.643
1570267164.65863
1570267164.67425
1570267164.68988
1570267164.70551
1570267164.72113
1570267164.73676
1570267164.75238
1570267164.76801
1570267164.78363
1570267164.79926
1570267164.81489
1570267164.83051
1570267164.84614
1570267164.86176
1570267164.87739
1570267164.89301
1570267164.90864
1570267164.92427
1570267164.93989
1570267164.95552
1570267164.97114
1570267164.98677
1570267165.00239
1570267165.01802
1570267165.03365
1570267165.04927
1570267165.0649
1570267165.08052
1570267165.09615
1570267165.11177
1570267165.1274
1570267165.14303
1570267165.15865
1570267165.17428
1570267165.1899
1570267165.20553
1570267165.22115
1570267165.23678
1570267165.25241
1570267165.26803
1570267165.28366
1570267165.29928
1570267165.31491
1570267165.33053
1570267165.34616
1570267165.36179
1570267165.37741
1570267165.39304
1570267165.40866
1570267165.42429
1570267165.43992
1570267165.45554
1570267165.47117
1570267165.48679
1570267165.50242
1570267165.51804
1570267165.53367
1570267165.5493
1570267165.56492
1570267165.58055
1570267165.59617
1570267165.6118
1570267165.62742
1570267165.64305
1570267165.65868
1570267165.6743
1570267165.68993
1570267165.70555
1570267165.72118
1570267165.7368
1570267165.75243
1570267165.76806
1570267165.78368
1570267165.79931
1570267165.81493
1570267165.83056
1570267165.84618
1570267165.86181
1570267165.87744
1570267165.89306
1570267165.90869
1570267165.92431
1570267165.93994
1570267165.95556
1570267165.97119
1570267165.98682
1570267166.00244
1570267166.01807
1570267166.03369
1570267166.04932
1570267166.06494
1570267166.08057
1570267166.0962
1570267166.11182
1570267166.12745
1570267166.14307
1570267166.1587
1570267166.17432
1570267166.18995
1570267166.20558
1570267166.2212
1570267166.23683
1570267166.25245
1570267166.26808
1570267166.2837
1570267166.29933
1570267166.31496
1570267166.33058
1570267166.34621
1570267166.36183
1570267166.37746
1570267166.39308
1570267166.40871
1570267166.42434
1570267166.43996
1570267166.45559
1570267166.47121
1570267166.48684
1570267166.50246
1570267166.51809
1570267166.53372
1570267166.54934
1570267166.56497
1570267166.58059
1570267166.59622
1570267166.61184
1570267166.62747
1570267166.6431
1570267166.65872
1570267166.67435
1570267166.68997
1570267166.7056
1570267166.72122
1570267166.73685
1570267166.75248
1570267166.7681
1570267166.78373
1570267166.79935
1570267166.81498
1570267166.8306
1570267166.84623
1570267166.86186
1570267166.87748
1570267166.89311
1570267166.90873
1570267166.92436
1570267166.93998
1570267166.95561
1570267166.97124
1570267166.98686
1570267167.00249
1570267167.01811
1570267167.03374
1570267167.04936
1570267167.06499
1570267167.08062
1570267167.09624
1570267167.11187
1570267167.12749
1570267167.14312
1570267167.15874
1570267167.17437
1570267167.19
1570267167.20562
1570267167.22125
1570267167.23687
1570267167.2525
1570267167.26812
1570267167.28375
1570267167.29938
1570267167.315
1570267167.33063
1570267167.34625
1570267167.36188
1570267167.3775
1570267167.39313
1570267167.40876
1570267167.42438
1570267167.44001
1570267167.45563
1570267167.47126
1570267167.48688
1570267167.50251
1570267167.51814
1570267167.53376
1570267167.54939
1570267167.56501
1570267167.58064
1570267167.59627
1570267167.61189
1570267167.62752
1570267167.64314
1570267167.65877
1570267167.67439
1570267167.69002
1570267167.70565
1570267167.72127
1570267167.7369
1570267167.75252
1570267167.76815
1570267167.78377
1570267167.7994
1570267167.81503
1570267167.83065
1570267167.84628
1570267167.8619
1570267167.87753
1570267167.89315
1570267167.90878
1570267167.92441
1570267167.94003
1570267167.95566
1570267167.97128
1570267167.98691
1570267168.00253
1570267168.01816
1570267168.03379
1570267168.04941
1570267168.06504
1570267168.08066
1570267168.09629
1570267168.11191
1570267168.12754
1570267168.14317
1570267168.15879
1570267168.17442
1570267168.19004
1570267168.20567
1570267168.22129
1570267168.23692
1570267168.25255
1570267168.26817
1570267168.2838
1570267168.29942
1570267168.31505
1570267168.33067
1570267168.3463
1570267168.36193
1570267168.37755
1570267168.39318
1570267168.4088
1570267168.42443
1570267168.44005
1570267168.45568
1570267168.47131
1570267168.48693
1570267168.50256
1570267168.51818
1570267168.53381
1570267168.54943
1570267168.56506
1570267168.58069
1570267168.59631
1570267168.61194
1570267168.62756
1570267168.64319
1570267168.65881
1570267168.67444
1570267168.69007
1570267168.70569
1570267168.72132
1570267168.73694
1570267168.75257
1570267168.76819
1570267168.78382
1570267168.79945
1570267168.81507
1570267168.8307
1570267168.84632
1570267168.86195
1570267168.87757
1570267168.8932
1570267168.90883
1570267168.92445
1570267168.94008
1570267168.9557
1570267168.97133
1570267168.98695
1570267169.00258
1570267169.01821
1570267169.03383
1570267169.04946
1570267169.06508
1570267169.08071
1570267169.09633
1570267169.11196
1570267169.12759
1570267169.14321
1570267169.15884
1570267169.17446
1570267169.19009
1570267169.20571
1570267169.22134
1570267169.23697
1570267169.25259
1570267169.26822
1570267169.28384
1570267169.29947
1570267169.31509
1570267169.33072
1570267169.34635
1570267169.36197
1570267169.3776
1570267169.39322
1570267169.40885
1570267169.42447
1570267169.4401
1570267169.45573
1570267169.47135
1570267169.48698
1570267169.5026
1570267169.51823
1570267169.53385
1570267169.54948
1570267169.56511
1570267169.58073
1570267169.59636
1570267169.61198
1570267169.62761
1570267169.64323
1570267169.65886
1570267169.67449
1570267169.69011
1570267169.70574
1570267169.72136
1570267169.73699
1570267169.75261
1570267169.76824
1570267169.78387
1570267169.79949
1570267169.81512
1570267169.83074
1570267169.84637
1570267169.86199
1570267169.87762
1570267169.89325
1570267169.90887
1570267169.9245
1570267169.94012
1570267169.95575
1570267169.97137
1570267169.987
1570267170.00263
1570267170.01825
1570267170.03388
1570267170.0495
1570267170.06513
1570267170.08076
1570267170.09638
1570267170.11201
1570267170.12763
1570267170.14326
1570267170.15888
1570267170.17451
1570267170.19014
1570267170.20576
1570267170.22139
1570267170.23701
1570267170.25264
1570267170.26826
1570267170.28389
1570267170.29952
1570267170.31514
1570267170.33077
1570267170.34639
1570267170.36202
1570267170.37764
1570267170.39327
1570267170.4089
1570267170.42452
1570267170.44015
1570267170.45577
1570267170.4714
1570267170.48702
1570267170.50265
1570267170.51828
1570267170.5339
1570267170.54953
1570267170.56515
1570267170.58078
1570267170.5964
1570267170.61203
1570267170.62766
1570267170.64328
1570267170.65891
1570267170.67453
1570267170.69016
1570267170.70578
1570267170.72141
1570267170.73704
1570267170.75266
1570267170.76829
1570267170.78391
1570267170.79954
1570267170.81516
1570267170.83079
1570267170.84642
1570267170.86204
1570267170.87767
1570267170.89329
1570267170.90892
1570267170.92454
1570267170.94017
1570267170.9558
1570267170.97142
1570267170.98705
1570267171.00267
1570267171.0183
1570267171.03392
1570267171.04955
1570267171.06518
1570267171.0808
1570267171.09643
1570267171.11205
1570267171.12768
1570267171.1433
1570267171.15893
1570267171.17456
1570267171.19018
1570267171.20581
1570267171.22143
1570267171.23706
1570267171.25268
1570267171.26831
1570267171.28394
1570267171.29956
1570267171.31519
1570267171.33081
1570267171.34644
1570267171.36206
1570267171.37769
1570267171.39332
1570267171.40894
1570267171.42457
1570267171.44019
1570267171.45582
1570267171.47144
1570267171.48707
1570267171.5027
1570267171.51832
1570267171.53395
1570267171.54957
1570267171.5652
1570267171.58082
1570267171.59645
1570267171.61208
1570267171.6277
1570267171.64333
1570267171.65895
1570267171.67458
1570267171.6902
1570267171.70583
1570267171.72146
1570267171.73708
1570267171.75271
1570267171.76833
1570267171.78396
1570267171.79958
1570267171.81521
1570267171.83084
1570267171.84646
1570267171.86209
1570267171.87771
1570267171.89334
1570267171.90896
1570267171.92459
1570267171.94022
1570267171.95584
1570267171.97147
1570267171.98709
1570267172.00272
1570267172.01834
1570267172.03397
1570267172.0496
1570267172.06522
1570267172.08085
1570267172.09647
1570267172.1121
1570267172.12772
1570267172.14335
1570267172.15898
1570267172.1746
1570267172.19023
1570267172.20585
1570267172.22148
1570267172.2371
1570267172.25273
1570267172.26836
1570267172.28398
1570267172.29961
1570267172.31523
1570267172.33086
1570267172.34648
1570267172.36211
1570267172.37774
1570267172.39336
1570267172.40899
1570267172.42461
1570267172.44024
1570267172.45587
1570267172.47149
1570267172.48712
1570267172.50274
1570267172.51837
1570267172.53399
1570267172.54962
1570267172.56525
1570267172.58087
1570267172.5965
1570267172.61212
1570267172.62775
1570267172.64337
1570267172.659
1570267172.67463
1570267172.69025
1570267172.70588
1570267172.7215
1570267172.73713
1570267172.75275
1570267172.76838
1570267172.78401
1570267172.79963
1570267172.81526
1570267172.83088
1570267172.84651
1570267172.86213
1570267172.87776
1570267172.89339
1570267172.90901
1570267172.92464
1570267172.94026
1570267172.95589
1570267172.97151
1570267172.98714
1570267173.00277
1570267173.01839
1570267173.03402
1570267173.04964
1570267173.06527
1570267173.08089
1570267173.09652
1570267173.11215
1570267173.12777
1570267173.1434
1570267173.15902
1570267173.17465
1570267173.19027
1570267173.2059
1570267173.22153
1570267173.23715
1570267173.25278
1570267173.2684
1570267173.28403
1570267173.29965
1570267173.31528
1570267173.33091
1570267173.34653
1570267173.36216
1570267173.37778
1570267173.39341
1570267173.40903
1570267173.42466
1570267173.44029
1570267173.45591
1570267173.47154
1570267173.48716
1570267173.50279
1570267173.51841
1570267173.53404
1570267173.54967
1570267173.56529
1570267173.58092
1570267173.59654
1570267173.61217
1570267173.62779
1570267173.64342
1570267173.65905
1570267173.67467
1570267173.6903
1570267173.70592
1570267173.72155
1570267173.73717
1570267173.7528
1570267173.76843
1570267173.78405
1570267173.79968
1570267173.8153
1570267173.83093
1570267173.84655
1570267173.86218
1570267173.87781
1570267173.89343
1570267173.90906
1570267173.92468
1570267173.94031
1570267173.95593
1570267173.97156
1570267173.98719
1570267174.00281
1570267174.01844
1570267174.03406
1570267174.04969
1570267174.06531
1570267174.08094
1570267174.09657
1570267174.11219
1570267174.12782
1570267174.14344
1570267174.15907
1570267174.17469
1570267174.19032
1570267174.20595
1570267174.22157
1570267174.2372
1570267174.25282
1570267174.26845
1570267174.28407
1570267174.2997
1570267174.31533
1570267174.33095
1570267174.34658
1570267174.3622
1570267174.37783
1570267174.39345
1570267174.40908
1570267174.42471
1570267174.44033
1570267174.45596
1570267174.47158
1570267174.48721
1570267174.50283
1570267174.51846
1570267174.53409
1570267174.54971
1570267174.56534
1570267174.58096
1570267174.59659
1570267174.61221
1570267174.62784
1570267174.64347
1570267174.65909
1570267174.67472
1570267174.69034
1570267174.70597
1570267174.7216
1570267174.73722
1570267174.75285
1570267174.76847
1570267174.7841
1570267174.79972
1570267174.81535
1570267174.83098
1570267174.8466
1570267174.86223
1570267174.87785
1570267174.89348
1570267174.9091
1570267174.92473
1570267174.94036
1570267174.95598
1570267174.97161
1570267174.98723
1570267175.00286
1570267175.01848
1570267175.03411
1570267175.04974
1570267175.06536
1570267175.08099
1570267175.09661
1570267175.11224
1570267175.12786
1570267175.14349
1570267175.15912
1570267175.17474
1570267175.19037
1570267175.20599
1570267175.22162
1570267175.23724
1570267175.25287
1570267175.2685
1570267175.28412
1570267175.29975
1570267175.31537
1570267175.331
1570267175.34662
1570267175.36225
1570267175.37788
1570267175.3935
1570267175.40913
1570267175.42475
1570267175.44038
1570267175.456
1570267175.47163
1570267175.48726
1570267175.50288
1570267175.51851
1570267175.53413
1570267175.54976
1570267175.56538
1570267175.58101
1570267175.59664
1570267175.61226
1570267175.62789
1570267175.64351
1570267175.65914
1570267175.67476
1570267175.69039
1570267175.70602
1570267175.72164
1570267175.73727
1570267175.75289
1570267175.76852
1570267175.78414
1570267175.79977
1570267175.8154
1570267175.83102
1570267175.84665
1570267175.86227
1570267175.8779
1570267175.89352
1570267175.90915
1570267175.92478
1570267175.9404
1570267175.95603
1570267175.97165
1570267175.98728
1570267176.0029
1570267176.01853
1570267176.03416
1570267176.04978
1570267176.06541
1570267176.08103
1570267176.09666
1570267176.11228
1570267176.12791
1570267176.14354
1570267176.15916
1570267176.17479
1570267176.19041
1570267176.20604
1570267176.22166
1570267176.23729
1570267176.25292
1570267176.26854
1570267176.28417
1570267176.29979
1570267176.31542
1570267176.33104
1570267176.34667
1570267176.3623
1570267176.37792
1570267176.39355
1570267176.40917
1570267176.4248
1570267176.44042
1570267176.45605
1570267176.47168
1570267176.4873
1570267176.50293
1570267176.51855
1570267176.53418
1570267176.5498
1570267176.56543
1570267176.58106
1570267176.59668
1570267176.61231
1570267176.62793
1570267176.64356
1570267176.65918
1570267176.67481
1570267176.69044
1570267176.70606
1570267176.72169
1570267176.73731
1570267176.75294
1570267176.76856
1570267176.78419
1570267176.79982
1570267176.81544
1570267176.83107
1570267176.84669
1570267176.86232
1570267176.87794
1570267176.89357
1570267176.9092
1570267176.92482
1570267176.94045
1570267176.95607
1570267176.9717
1570267176.98732
1570267177.00295
1570267177.01858
1570267177.0342
1570267177.04983
1570267177.06545
1570267177.08108
1570267177.0967
1570267177.11233
1570267177.12796
1570267177.14358
1570267177.15921
1570267177.17483
1570267177.19046
1570267177.20608
1570267177.22171
1570267177.23734
1570267177.25296
1570267177.26859
1570267177.28421
1570267177.29984
1570267177.31547
1570267177.33109
1570267177.34672
1570267177.36234
1570267177.37797
1570267177.39359
1570267177.40922
1570267177.42485
1570267177.44047
1570267177.4561
1570267177.47172
1570267177.48735
1570267177.50297
1570267177.5186
1570267177.53423
1570267177.54985
1570267177.56548
1570267177.5811
1570267177.59673
1570267177.61235
1570267177.62798
1570267177.64361
1570267177.65923
1570267177.67486
1570267177.69048
1570267177.70611
1570267177.72173
1570267177.73736
1570267177.75299
1570267177.76861
1570267177.78424
1570267177.79986
1570267177.81549
1570267177.83111
1570267177.84674
1570267177.86237
1570267177.87799
1570267177.89362
1570267177.90924
1570267177.92487
1570267177.94049
1570267177.95612
1570267177.97175
1570267177.98737
1570267178.003
1570267178.01862
1570267178.03425
1570267178.04987
1570267178.0655
1570267178.08113
1570267178.09675
1570267178.11238
1570267178.128
1570267178.14363
1570267178.15925
1570267178.17488
1570267178.19051
1570267178.20613
1570267178.22176
1570267178.23738
1570267178.25301
1570267178.26863
1570267178.28426
1570267178.29989
1570267178.31551
1570267178.33114
1570267178.34676
1570267178.36239
1570267178.37801
1570267178.39364
1570267178.40927
1570267178.42489
1570267178.44052
1570267178.45614
1570267178.47177
1570267178.48739
1570267178.50302
1570267178.51865
1570267178.53427
1570267178.5499
1570267178.56552
1570267178.58115
1570267178.59677
1570267178.6124
1570267178.62803
1570267178.64365
1570267178.65928
1570267178.6749
1570267178.69053
1570267178.70615
1570267178.72178
1570267178.73741
1570267178.75303
1570267178.76866
1570267178.78428
1570267178.79991
1570267178.81553
1570267178.83116
1570267178.84679
1570267178.86241
1570267178.87804
1570267178.89366
1570267178.90929
1570267178.92491
1570267178.94054
1570267178.95617
1570267178.97179
1570267178.98742
1570267179.00304
1570267179.01867
1570267179.03429
1570267179.04992
1570267179.06555
1570267179.08117
1570267179.0968
1570267179.11242
1570267179.12805
1570267179.14367
1570267179.1593
1570267179.17493
1570267179.19055
1570267179.20618
1570267179.2218
1570267179.23743
1570267179.25305
1570267179.26868
1570267179.28431
1570267179.29993
1570267179.31556
1570267179.33118
1570267179.34681
1570267179.36243
1570267179.37806
1570267179.39369
1570267179.40931
1570267179.42494
1570267179.44056
1570267179.45619
1570267179.47181
1570267179.48744
1570267179.50307
1570267179.51869
1570267179.53432
1570267179.54994
1570267179.56557
1570267179.5812
1570267179.59682
1570267179.61245
1570267179.62807
1570267179.6437
1570267179.65932
1570267179.67495
1570267179.69058
1570267179.7062
1570267179.72183
1570267179.73745
1570267179.75308
1570267179.7687
1570267179.78433
1570267179.79996
1570267179.81558
1570267179.83121
1570267179.84683
1570267179.86246
1570267179.87808
1570267179.89371
1570267179.90934
1570267179.92496
1570267179.94059
1570267179.95621
1570267179.97184
1570267179.98746
1570267180.00309
1570267180.01872
1570267180.03434
1570267180.04997
1570267180.06559
1570267180.08122
1570267180.09684
1570267180.11247
1570267180.1281
1570267180.14372
1570267180.15935
1570267180.17497
1570267180.1906
1570267180.20622
1570267180.22185
1570267180.23748
1570267180.2531
1570267180.26873
1570267180.28435
1570267180.29998
1570267180.3156
1570267180.33123
1570267180.34686
1570267180.36248
1570267180.37811
1570267180.39373
1570267180.40936
1570267180.42498
1570267180.44061
1570267180.45624
1570267180.47186
1570267180.48749
1570267180.50311
1570267180.51874
1570267180.53436
1570267180.54999
1570267180.56562
1570267180.58124
1570267180.59687
1570267180.61249
1570267180.62812
1570267180.64374
1570267180.65937
1570267180.675
1570267180.69062
1570267180.70625
1570267180.72187
1570267180.7375
1570267180.75312
1570267180.76875
1570267180.78438
1570267180.8
1570267180.81563
1570267180.83125
1570267180.84688
1570267180.8625
1570267180.87813
1570267180.89376
1570267180.90938
1570267180.92501
1570267180.94063
1570267180.95626
1570267180.97188
1570267180.98751
1570267181.00314
1570267181.01876
1570267181.03439
1570267181.05001
1570267181.06564
1570267181.08126
1570267181.09689
1570267181.11252
1570267181.12814
1570267181.14377
1570267181.15939
1570267181.17502
1570267181.19064
1570267181.20627
1570267181.2219
1570267181.23752
1570267181.25315
1570267181.26877
1570267181.2844
1570267181.30002
1570267181.31565
1570267181.33128
1570267181.3469
1570267181.36253
1570267181.37815
1570267181.39378
1570267181.4094
1570267181.42503
1570267181.44066
1570267181.45628
1570267181.47191
1570267181.48753
1570267181.50316
1570267181.51878
1570267181.53441
1570267181.55004
1570267181.56566
1570267181.58129
1570267181.59691
1570267181.61254
1570267181.62816
1570267181.64379
1570267181.65942
1570267181.67504
1570267181.69067
1570267181.70629
1570267181.72192
1570267181.73755
1570267181.75317
1570267181.7688
1570267181.78442
1570267181.80005
1570267181.81567
1570267181.8313
1570267181.84693
1570267181.86255
1570267181.87818
1570267181.8938
1570267181.90943
1570267181.92505
1570267181.94068
1570267181.95631
1570267181.97193
1570267181.98756
1570267182.00318
1570267182.01881
1570267182.03443
1570267182.05006
1570267182.06569
1570267182.08131
1570267182.09694
1570267182.11256
1570267182.12819
1570267182.14381
1570267182.15944
1570267182.17507
1570267182.19069
1570267182.20632
1570267182.22194
1570267182.23757
1570267182.25319
1570267182.26882
1570267182.28445
1570267182.30007
1570267182.3157
1570267182.33132
1570267182.34695
1570267182.36257
1570267182.3782
1570267182.39383
1570267182.40945
1570267182.42508
1570267182.4407
1570267182.45633
1570267182.47195
1570267182.48758
1570267182.50321
1570267182.51883
1570267182.53446
1570267182.55008
1570267182.56571
1570267182.58133
1570267182.59696
1570267182.61259
1570267182.62821
1570267182.64384
1570267182.65946
1570267182.67509
1570267182.69071
1570267182.70634
1570267182.72197
1570267182.73759
1570267182.75322
1570267182.76884
1570267182.78447
1570267182.80009
1570267182.81572
1570267182.83135
1570267182.84697
1570267182.8626
1570267182.87822
1570267182.89385
1570267182.90947
1570267182.9251
1570267182.94073
1570267182.95635
1570267182.97198
1570267182.9876
1570267183.00323
1570267183.01885
1570267183.03448
1570267183.05011
1570267183.06573
1570267183.08136
1570267183.09698
1570267183.11261
1570267183.12823
1570267183.14386
1570267183.15949
1570267183.17511
1570267183.19074
1570267183.20636
1570267183.22199
1570267183.23761
1570267183.25324
1570267183.26887
1570267183.28449
1570267183.30012
1570267183.31574
1570267183.33137
1570267183.34699
1570267183.36262
1570267183.37825
1570267183.39387
1570267183.4095
1570267183.42512
1570267183.44075
1570267183.45637
1570267183.472
1570267183.48763
1570267183.50325
1570267183.51888
1570267183.5345
1570267183.55013
1570267183.56575
1570267183.58138
1570267183.59701
1570267183.61263
1570267183.62826
1570267183.64388
1570267183.65951
1570267183.67513
1570267183.69076
1570267183.70639
1570267183.72201
1570267183.73764
1570267183.75326
1570267183.76889
1570267183.78451
1570267183.80014
1570267183.81577
1570267183.83139
1570267183.84702
1570267183.86264
1570267183.87827
1570267183.89389
1570267183.90952
1570267183.92515
1570267183.94077
1570267183.9564
1570267183.97202
1570267183.98765
1570267184.00327
1570267184.0189
1570267184.03453
1570267184.05015
1570267184.06578
1570267184.0814
1570267184.09703
1570267184.11265
1570267184.12828
1570267184.14391
1570267184.15953
1570267184.17516
1570267184.19078
1570267184.20641
1570267184.22203
1570267184.23766
1570267184.25329
1570267184.26891
1570267184.28454
1570267184.30016
1570267184.31579
1570267184.33141
1570267184.34704
1570267184.36267
1570267184.37829
1570267184.39392
1570267184.40954
1570267184.42517
1570267184.4408
1570267184.45642
1570267184.47205
1570267184.48767
1570267184.5033
1570267184.51892
1570267184.53455
1570267184.55018
1570267184.5658
1570267184.58143
1570267184.59705
1570267184.61268
1570267184.6283
1570267184.64393
1570267184.65956
1570267184.67518
1570267184.69081
1570267184.70643
1570267184.72206
1570267184.73768
1570267184.75331
1570267184.76894
1570267184.78456
1570267184.80019
1570267184.81581
1570267184.83144
1570267184.84706
1570267184.86269
1570267184.87832
1570267184.89394
1570267184.90957
1570267184.92519
1570267184.94082
1570267184.95644
1570267184.97207
1570267184.9877
1570267185.00332
1570267185.01895
1570267185.03457
1570267185.0502
1570267185.06582
1570267185.08145
1570267185.09708
1570267185.1127
1570267185.12833
1570267185.14395
1570267185.15958
1570267185.1752
1570267185.19083
1570267185.20646
1570267185.22208
1570267185.23771
1570267185.25333
1570267185.26896
1570267185.28458
1570267185.30021
1570267185.31584
1570267185.33146
1570267185.34709
1570267185.36271
1570267185.37834
1570267185.39396
1570267185.40959
1570267185.42522
1570267185.44084
1570267185.45647
1570267185.47209
1570267185.48772
1570267185.50334
1570267185.51897
1570267185.5346
1570267185.55022
1570267185.56585
1570267185.58147
1570267185.5971
1570267185.61272
1570267185.62835
1570267185.64398
1570267185.6596
1570267185.67523
1570267185.69085
1570267185.70648
1570267185.7221
1570267185.73773
1570267185.75336
1570267185.76898
1570267185.78461
1570267185.80023
1570267185.81586
1570267185.83148
1570267185.84711
1570267185.86274
1570267185.87836
1570267185.89399
1570267185.90961
1570267185.92524
1570267185.94086
1570267185.95649
1570267185.97212
1570267185.98774
1570267186.00337
1570267186.01899
1570267186.03462
1570267186.05024
1570267186.06587
1570267186.0815
1570267186.09712
1570267186.11275
1570267186.12837
1570267186.144
1570267186.15962
1570267186.17525
1570267186.19088
1570267186.2065
1570267186.22213
1570267186.23775
1570267186.25338
1570267186.269
1570267186.28463
1570267186.30026
1570267186.31588
1570267186.33151
1570267186.34713
1570267186.36276
1570267186.37838
1570267186.39401
1570267186.40964
1570267186.42526
1570267186.44089
1570267186.45651
1570267186.47214
1570267186.48776
1570267186.50339
1570267186.51902
1570267186.53464
1570267186.55027
1570267186.56589
1570267186.58152
1570267186.59715
1570267186.61277
1570267186.6284
1570267186.64402
1570267186.65965
1570267186.67527
1570267186.6909
1570267186.70653
1570267186.72215
1570267186.73778
1570267186.7534
1570267186.76903
1570267186.78465
1570267186.80028
1570267186.81591
1570267186.83153
1570267186.84716
1570267186.86278
1570267186.87841
1570267186.89403
1570267186.90966
1570267186.92529
1570267186.94091
1570267186.95654
1570267186.97216
1570267186.98779
1570267187.00341
1570267187.01904
1570267187.03467
1570267187.05029
1570267187.06592
1570267187.08154
1570267187.09717
1570267187.11279
1570267187.12842
1570267187.14405
1570267187.15967
1570267187.1753
1570267187.19092
1570267187.20655
1570267187.22217
1570267187.2378
1570267187.25343
1570267187.26905
1570267187.28468
1570267187.3003
1570267187.31593
1570267187.33155
1570267187.34718
1570267187.36281
1570267187.37843
1570267187.39406
1570267187.40968
1570267187.42531
1570267187.44093
1570267187.45656
1570267187.47219
1570267187.48781
1570267187.50344
1570267187.51906
1570267187.53469
1570267187.55031
1570267187.56594
1570267187.58157
1570267187.59719
1570267187.61282
1570267187.62844
1570267187.64407
1570267187.65969
1570267187.67532
1570267187.69095
1570267187.70657
1570267187.7222
1570267187.73782
1570267187.75345
1570267187.76907
1570267187.7847
1570267187.80033
1570267187.81595
1570267187.83158
1570267187.8472
1570267187.86283
1570267187.87845
1570267187.89408
1570267187.90971
1570267187.92533
1570267187.94096
1570267187.95658
1570267187.97221
1570267187.98783
1570267188.00346
1570267188.01909
1570267188.03471
1570267188.05034
1570267188.06596
1570267188.08159
1570267188.09721
1570267188.11284
1570267188.12847
1570267188.14409
1570267188.15972
1570267188.17534
1570267188.19097
1570267188.20659
1570267188.22222
1570267188.23785
1570267188.25347
1570267188.2691
1570267188.28472
1570267188.30035
1570267188.31597
1570267188.3316
1570267188.34723
1570267188.36285
1570267188.37848
1570267188.3941
1570267188.40973
1570267188.42535
1570267188.44098
1570267188.45661
1570267188.47223
1570267188.48786
1570267188.50348
1570267188.51911
1570267188.53473
1570267188.55036
1570267188.56599
1570267188.58161
1570267188.59724
1570267188.61286
1570267188.62849
1570267188.64411
1570267188.65974
1570267188.67537
1570267188.69099
1570267188.70662
1570267188.72224
1570267188.73787
1570267188.75349
1570267188.76912
1570267188.78475
1570267188.80037
1570267188.816
1570267188.83162
1570267188.84725
1570267188.86287
1570267188.8785
1570267188.89413
1570267188.90975
1570267188.92538
1570267188.941
1570267188.95663
1570267188.97225
1570267188.98788
1570267189.00351
1570267189.01913
1570267189.03476
1570267189.05038
1570267189.06601
1570267189.08164
1570267189.09726
1570267189.11289
1570267189.12851
1570267189.14414
1570267189.15976
1570267189.17539
1570267189.19102
1570267189.20664
1570267189.22227
1570267189.23789
1570267189.25352
1570267189.26914
1570267189.28477
1570267189.3004
1570267189.31602
1570267189.33165
1570267189.34727
1570267189.3629
1570267189.37852
1570267189.39415
1570267189.40978
1570267189.4254
1570267189.44103
1570267189.45665
1570267189.47228
1570267189.4879
1570267189.50353
1570267189.51916
1570267189.53478
1570267189.55041
1570267189.56603
1570267189.58166
1570267189.59728
1570267189.61291
1570267189.62854
1570267189.64416
1570267189.65979
1570267189.67541
1570267189.69104
1570267189.70666
1570267189.72229
1570267189.73792
1570267189.75354
1570267189.76917
1570267189.78479
1570267189.80042
1570267189.81604
1570267189.83167
1570267189.8473
1570267189.86292
1570267189.87855
1570267189.89417
1570267189.9098
1570267189.92542
1570267189.94105
1570267189.95668
1570267189.9723
1570267189.98793
1570267190.00355
1570267190.01918
1570267190.0348
1570267190.05043
1570267190.06606
1570267190.08168
1570267190.09731
1570267190.11293
1570267190.12856
1570267190.14418
1570267190.15981
1570267190.17544
1570267190.19106
1570267190.20669
1570267190.22231
1570267190.23794
1570267190.25356
1570267190.26919
1570267190.28482
1570267190.30044
1570267190.31607
1570267190.33169
1570267190.34732
1570267190.36294
1570267190.37857
1570267190.3942
1570267190.40982
1570267190.42545
1570267190.44107
1570267190.4567
1570267190.47232
1570267190.48795
1570267190.50358
1570267190.5192
1570267190.53483
1570267190.55045
1570267190.56608
1570267190.5817
1570267190.59733
1570267190.61296
1570267190.62858
1570267190.64421
1570267190.65983
1570267190.67546
1570267190.69108
1570267190.70671
1570267190.72234
1570267190.73796
1570267190.75359
1570267190.76921
1570267190.78484
1570267190.80046
1570267190.81609
1570267190.83172
1570267190.84734
1570267190.86297
1570267190.87859
1570267190.89422
1570267190.90984
1570267190.92547
1570267190.9411
1570267190.95672
1570267190.97235
1570267190.98797
1570267191.0036
1570267191.01922
1570267191.03485
1570267191.05048
1570267191.0661
1570267191.08173
1570267191.09735
1570267191.11298
1570267191.1286
1570267191.14423
1570267191.15986
1570267191.17548
1570267191.19111
1570267191.20673
1570267191.22236
1570267191.23798
1570267191.25361
1570267191.26924
1570267191.28486
1570267191.30049
1570267191.31611
1570267191.33174
1570267191.34736
1570267191.36299
1570267191.37862
1570267191.39424
1570267191.40987
1570267191.42549
1570267191.44112
1570267191.45675
1570267191.47237
1570267191.488
1570267191.50362
1570267191.51925
1570267191.53487
1570267191.5505
1570267191.56613
1570267191.58175
1570267191.59738
1570267191.613
1570267191.62863
1570267191.64425
1570267191.65988
1570267191.67551
1570267191.69113
1570267191.70676
1570267191.72238
1570267191.73801
1570267191.75363
1570267191.76926
1570267191.78489
1570267191.80051
1570267191.81614
1570267191.83176
1570267191.84739
1570267191.86301
1570267191.87864
1570267191.89427
1570267191.90989
1570267191.92552
1570267191.94114
1570267191.95677
1570267191.97239
1570267191.98802
1570267192.00365
1570267192.01927
1570267192.0349
1570267192.05052
1570267192.06615
1570267192.08177
1570267192.0974
1570267192.11303
1570267192.12865
1570267192.14428
1570267192.1599
1570267192.17553
1570267192.19115
1570267192.20678
1570267192.22241
1570267192.23803
1570267192.25366
1570267192.26928
1570267192.28491
1570267192.30053
1570267192.31616
1570267192.33179
1570267192.34741
1570267192.36304
1570267192.37866
1570267192.39429
1570267192.40991
1570267192.42554
1570267192.44117
1570267192.45679
1570267192.47242
1570267192.48804
1570267192.50367
1570267192.51929
1570267192.53492
1570267192.55055
1570267192.56617
1570267192.5818
1570267192.59742
1570267192.61305
1570267192.62867
1570267192.6443
1570267192.65993
1570267192.67555
1570267192.69118
1570267192.7068
1570267192.72243
1570267192.73805
1570267192.75368
1570267192.76931
1570267192.78493
1570267192.80056
1570267192.81618
1570267192.83181
1570267192.84743
1570267192.86306
1570267192.87869
1570267192.89431
1570267192.90994
1570267192.92556
1570267192.94119
1570267192.95681
1570267192.97244
1570267192.98807
1570267193.00369
1570267193.01932
1570267193.03494
1570267193.05057
1570267193.06619
1570267193.08182
1570267193.09745
1570267193.11307
1570267193.1287
1570267193.14432
1570267193.15995
1570267193.17557
1570267193.1912
1570267193.20683
1570267193.22245
1570267193.23808
1570267193.2537
1570267193.26933
1570267193.28495
1570267193.30058
1570267193.31621
1570267193.33183
1570267193.34746
1570267193.36308
1570267193.37871
1570267193.39433
1570267193.40996
1570267193.42559
1570267193.44121
1570267193.45684
1570267193.47246
1570267193.48809
1570267193.50371
1570267193.51934
1570267193.53497
1570267193.55059
1570267193.56622
1570267193.58184
1570267193.59747
1570267193.61309
1570267193.62872
1570267193.64435
1570267193.65997
1570267193.6756
1570267193.69122
1570267193.70685
1570267193.72248
1570267193.7381
1570267193.75373
1570267193.76935
1570267193.78498
1570267193.8006
1570267193.81623
1570267193.83186
1570267193.84748
1570267193.86311
1570267193.87873
1570267193.89436
1570267193.90998
1570267193.92561
1570267193.94124
1570267193.95686
1570267193.97249
1570267193.98811
1570267194.00374
1570267194.01936
1570267194.03499
1570267194.05062
1570267194.06624
1570267194.08187
1570267194.09749
1570267194.11312
1570267194.12874
1570267194.14437
1570267194.16
1570267194.17562
1570267194.19125
1570267194.20687
1570267194.2225
1570267194.23812
1570267194.25375
1570267194.26938
1570267194.285
1570267194.30063
1570267194.31625
1570267194.33188
1570267194.3475
1570267194.36313
1570267194.37876
1570267194.39438
1570267194.41001
1570267194.42563
1570267194.44126
1570267194.45688
1570267194.47251
1570267194.48814
1570267194.50376
1570267194.51939
1570267194.53501
1570267194.55064
1570267194.56626
1570267194.58189
1570267194.59752
1570267194.61314
1570267194.62877
1570267194.64439
1570267194.66002
1570267194.67564
1570267194.69127
1570267194.7069
1570267194.72252
1570267194.73815
1570267194.75377
1570267194.7694
1570267194.78502
1570267194.80065
1570267194.81628
1570267194.8319
1570267194.84753
1570267194.86315
1570267194.87878
1570267194.8944
1570267194.91003
1570267194.92566
1570267194.94128
1570267194.95691
1570267194.97253
1570267194.98816
1570267195.00378
1570267195.01941
1570267195.03504
1570267195.05066
1570267195.06629
1570267195.08191
1570267195.09754
1570267195.11316
1570267195.12879
1570267195.14442
1570267195.16004
1570267195.17567
1570267195.19129
1570267195.20692
1570267195.22254
1570267195.23817
1570267195.2538
1570267195.26942
1570267195.28505
1570267195.30067
1570267195.3163
1570267195.33192
1570267195.34755
1570267195.36318
1570267195.3788
1570267195.39443
1570267195.41005
1570267195.42568
1570267195.4413
1570267195.45693
1570267195.47256
1570267195.48818
1570267195.50381
1570267195.51943
1570267195.53506
1570267195.55068
1570267195.56631
1570267195.58194
1570267195.59756
1570267195.61319
1570267195.62881
1570267195.64444
1570267195.66006
1570267195.67569
1570267195.69132
1570267195.70694
1570267195.72257
1570267195.73819
1570267195.75382
1570267195.76944
1570267195.78507
1570267195.8007
1570267195.81632
1570267195.83195
1570267195.84757
1570267195.8632
1570267195.87882
1570267195.89445
1570267195.91008
1570267195.9257
1570267195.94133
1570267195.95695
1570267195.97258
1570267195.9882
1570267196.00383
1570267196.01946
1570267196.03508
1570267196.05071
1570267196.06633
1570267196.08196
1570267196.09758
1570267196.11321
1570267196.12884
1570267196.14446
1570267196.16009
1570267196.17571
1570267196.19134
1570267196.20696
1570267196.22259
1570267196.23822
1570267196.25384
1570267196.26947
1570267196.28509
1570267196.30072
1570267196.31634
1570267196.33197
1570267196.3476
1570267196.36322
1570267196.37885
1570267196.39447
1570267196.4101
1570267196.42573
1570267196.44135
1570267196.45698
1570267196.4726
1570267196.48823
1570267196.50385
1570267196.51948
1570267196.53511
1570267196.55073
1570267196.56636
1570267196.58198
1570267196.59761
1570267196.61323
1570267196.62886
1570267196.64449
1570267196.66011
1570267196.67574
1570267196.69136
1570267196.70699
1570267196.72261
1570267196.73824
1570267196.75387
1570267196.76949
1570267196.78512
1570267196.80074
1570267196.81637
1570267196.83199
1570267196.84762
1570267196.86325
1570267196.87887
1570267196.8945
1570267196.91012
1570267196.92575
1570267196.94137
1570267196.957
1570267196.97263
1570267196.98825
1570267197.00388
1570267197.0195
1570267197.03513
1570267197.05075
1570267197.06638
1570267197.08201
1570267197.09763
1570267197.11326
1570267197.12888
1570267197.14451
1570267197.16013
1570267197.17576
1570267197.19139
1570267197.20701
1570267197.22264
1570267197.23826
1570267197.25389
1570267197.26951
1570267197.28514
1570267197.30077
1570267197.31639
1570267197.33202
1570267197.34764
1570267197.36327
1570267197.37889
1570267197.39452
1570267197.41015
1570267197.42577
1570267197.4414
1570267197.45702
1570267197.47265
1570267197.48827
1570267197.5039
1570267197.51953
1570267197.53515
1570267197.55078
1570267197.5664
1570267197.58203
1570267197.59765
1570267197.61328
1570267197.62891
1570267197.64453
1570267197.66016
1570267197.67578
1570267197.69141
1570267197.70703
1570267197.72266
1570267197.73829
1570267197.75391
1570267197.76954
1570267197.78516
1570267197.80079
1570267197.81641
1570267197.83204
1570267197.84767
1570267197.86329
1570267197.87892
1570267197.89454
1570267197.91017
1570267197.92579
1570267197.94142
1570267197.95705
1570267197.97267
1570267197.9883
1570267198.00392
1570267198.01955
1570267198.03517
1570267198.0508
1570267198.06643
1570267198.08205
1570267198.09768
1570267198.1133
1570267198.12893
1570267198.14455
1570267198.16018
1570267198.17581
1570267198.19143
1570267198.20706
1570267198.22268
1570267198.23831
1570267198.25393
1570267198.26956
1570267198.28519
1570267198.30081
1570267198.31644
1570267198.33206
1570267198.34769
1570267198.36331
1570267198.37894
1570267198.39457
1570267198.41019
1570267198.42582
1570267198.44144
1570267198.45707
1570267198.47269
1570267198.48832
1570267198.50395
1570267198.51957
1570267198.5352
1570267198.55082
1570267198.56645
1570267198.58208
1570267198.5977
1570267198.61333
1570267198.62895
1570267198.64458
1570267198.6602
1570267198.67583
1570267198.69146
1570267198.70708
1570267198.72271
1570267198.73833
1570267198.75396
1570267198.76958
1570267198.78521
1570267198.80084
1570267198.81646
1570267198.83209
1570267198.84771
1570267198.86334
1570267198.87896
1570267198.89459
1570267198.91022
1570267198.92584
1570267198.94147
1570267198.95709
1570267198.97272
1570267198.98834
1570267199.00397
1570267199.0196
1570267199.03522
1570267199.05085
1570267199.06647
1570267199.0821
1570267199.09772
1570267199.11335
1570267199.12898
1570267199.1446
1570267199.16023
1570267199.17585
1570267199.19148
1570267199.2071
1570267199.22273
1570267199.23836
1570267199.25398
1570267199.26961
1570267199.28523
1570267199.30086
1570267199.31648
1570267199.33211
1570267199.34774
1570267199.36336
1570267199.37899
1570267199.39461
1570267199.41024
1570267199.42586
1570267199.44149
1570267199.45712
1570267199.47274
1570267199.48837
1570267199.50399
1570267199.51962
1570267199.53524
1570267199.55087
1570267199.5665
1570267199.58212
1570267199.59775
1570267199.61337
1570267199.629
1570267199.64462
1570267199.66025
1570267199.67588
1570267199.6915
1570267199.70713
1570267199.72275
1570267199.73838
1570267199.754
1570267199.76963
1570267199.78526
1570267199.80088
1570267199.81651
1570267199.83213
1570267199.84776
1570267199.86338
1570267199.87901
1570267199.89464
1570267199.91026
1570267199.92589
1570267199.94151
1570267199.95714
1570267199.97276
1570267199.98839
1570267200.00402
1570267200.01964
1570267200.03527
1570267200.05089
1570267200.06652
1570267200.08214
1570267200.09777
1570267200.1134
1570267200.12902
1570267200.14465
1570267200.16027
1570267200.1759
1570267200.19152
1570267200.20715
1570267200.22278
1570267200.2384
1570267200.25403
1570267200.26965
1570267200.28528
1570267200.3009
1570267200.31653
1570267200.33216
1570267200.34778
1570267200.36341
1570267200.37903
1570267200.39466
1570267200.41028
1570267200.42591
1570267200.44154
1570267200.45716
1570267200.47279
1570267200.48841
1570267200.50404
1570267200.51966
1570267200.53529
1570267200.55092
1570267200.56654
1570267200.58217
1570267200.59779
1570267200.61342
1570267200.62904
1570267200.64467
1570267200.6603
1570267200.67592
1570267200.69155
1570267200.70717
1570267200.7228
1570267200.73842
1570267200.75405
1570267200.76968
1570267200.7853
1570267200.80093
1570267200.81655
1570267200.83218
1570267200.84781
1570267200.86343
1570267200.87906
1570267200.89468
1570267200.91031
1570267200.92593
1570267200.94156
1570267200.95719
1570267200.97281
1570267200.98844
1570267201.00406
1570267201.01969
1570267201.03531
1570267201.05094
1570267201.06657
1570267201.08219
1570267201.09782
1570267201.11344
1570267201.12907
1570267201.14469
1570267201.16032
1570267201.17595
1570267201.19157
1570267201.2072
1570267201.22282
1570267201.23845
1570267201.25407
1570267201.2697
1570267201.28533
1570267201.30095
1570267201.31658
1570267201.3322
1570267201.34783
1570267201.36345
1570267201.37908
1570267201.39471
1570267201.41033
1570267201.42596
1570267201.44158
1570267201.45721
1570267201.47283
1570267201.48846
1570267201.50409
1570267201.51971
1570267201.53534
1570267201.55096
1570267201.56659
1570267201.58221
1570267201.59784
1570267201.61347
1570267201.62909
1570267201.64472
1570267201.66034
1570267201.67597
1570267201.69159
1570267201.70722
1570267201.72285
1570267201.73847
1570267201.7541
1570267201.76972
1570267201.78535
1570267201.80097
1570267201.8166
1570267201.83223
1570267201.84785
1570267201.86348
1570267201.8791
1570267201.89473
1570267201.91035
1570267201.92598
1570267201.94161
1570267201.95723
1570267201.97286
1570267201.98848
1570267202.00411
1570267202.01973
1570267202.03536
1570267202.05099
1570267202.06661
1570267202.08224
1570267202.09786
1570267202.11349
1570267202.12911
1570267202.14474
1570267202.16037
1570267202.17599
1570267202.19162
1570267202.20724
1570267202.22287
1570267202.23849
1570267202.25412
1570267202.26975
1570267202.28537
1570267202.301
1570267202.31662
1570267202.33225
1570267202.34787
1570267202.3635
1570267202.37913
1570267202.39475
1570267202.41038
1570267202.426
1570267202.44163
1570267202.45725
1570267202.47288
1570267202.48851
1570267202.50413
1570267202.51976
1570267202.53538
1570267202.55101
1570267202.56663
1570267202.58226
1570267202.59789
1570267202.61351
1570267202.62914
1570267202.64476
1570267202.66039
1570267202.67601
1570267202.69164
1570267202.70727
1570267202.72289
1570267202.73852
1570267202.75414
1570267202.76977
1570267202.78539
1570267202.80102
1570267202.81665
1570267202.83227
1570267202.8479
1570267202.86352
1570267202.87915
1570267202.89477
1570267202.9104
1570267202.92603
1570267202.94165
1570267202.95728
1570267202.9729
1570267202.98853
1570267203.00415
1570267203.01978
1570267203.03541
1570267203.05103
1570267203.06666
1570267203.08228
1570267203.09791
1570267203.11353
1570267203.12916
1570267203.14479
1570267203.16041
1570267203.17604
1570267203.19166
1570267203.20729
1570267203.22291
1570267203.23854
1570267203.25417
1570267203.26979
1570267203.28542
1570267203.30104
1570267203.31667
1570267203.33229
1570267203.34792
1570267203.36355
1570267203.37917
1570267203.3948
1570267203.41042
1570267203.42605
1570267203.44168
1570267203.4573
1570267203.47293
1570267203.48855
1570267203.50418
1570267203.5198
1570267203.53543
1570267203.55106
1570267203.56668
1570267203.58231
1570267203.59793
1570267203.61356
1570267203.62918
1570267203.64481
1570267203.66044
1570267203.67606
1570267203.69169
1570267203.70731
1570267203.72294
1570267203.73856
1570267203.75419
1570267203.76982
1570267203.78544
1570267203.80107
1570267203.81669
1570267203.83232
1570267203.84794
1570267203.86357
1570267203.8792
1570267203.89482
1570267203.91045
1570267203.92607
1570267203.9417
1570267203.95732
1570267203.97295
1570267203.98858
1570267204.0042
1570267204.01983
1570267204.03545
1570267204.05108
1570267204.0667
1570267204.08233
1570267204.09796
1570267204.11358
1570267204.12921
1570267204.14483
1570267204.16046
1570267204.17608
1570267204.19171
1570267204.20734
1570267204.22296
1570267204.23859
1570267204.25421
1570267204.26984
1570267204.28546
1570267204.30109
1570267204.31672
1570267204.33234
1570267204.34797
1570267204.36359
1570267204.37922
1570267204.39484
1570267204.41047
1570267204.4261
1570267204.44172
1570267204.45735
1570267204.47297
1570267204.4886
1570267204.50422
1570267204.51985
1570267204.53548
1570267204.5511
1570267204.56673
1570267204.58235
1570267204.59798
1570267204.6136
1570267204.62923
1570267204.64486
1570267204.66048
1570267204.67611
1570267204.69173
1570267204.70736
1570267204.72298
1570267204.73861
1570267204.75424
1570267204.76986
1570267204.78549
1570267204.80111
1570267204.81674
1570267204.83236
1570267204.84799
1570267204.86362
1570267204.87924
1570267204.89487
1570267204.91049
1570267204.92612
1570267204.94174
1570267204.95737
1570267204.973
1570267204.98862
1570267205.00425
1570267205.01987
1570267205.0355
1570267205.05112
1570267205.06675
1570267205.08238
1570267205.098
1570267205.11363
1570267205.12925
1570267205.14488
1570267205.1605
1570267205.17613
1570267205.19176
1570267205.20738
1570267205.22301
1570267205.23863
1570267205.25426
1570267205.26988
1570267205.28551
1570267205.30114
1570267205.31676
1570267205.33239
1570267205.34801
1570267205.36364
1570267205.37926
1570267205.39489
1570267205.41052
1570267205.42614
1570267205.44177
1570267205.45739
1570267205.47302
1570267205.48864
1570267205.50427
1570267205.5199
1570267205.53552
1570267205.55115
1570267205.56677
1570267205.5824
1570267205.59802
1570267205.61365
1570267205.62928
1570267205.6449
1570267205.66053
1570267205.67615
1570267205.69178
1570267205.70741
1570267205.72303
1570267205.73866
1570267205.75428
1570267205.76991
1570267205.78553
1570267205.80116
1570267205.81679
1570267205.83241
1570267205.84804
1570267205.86366
1570267205.87929
1570267205.89491
1570267205.91054
1570267205.92617
1570267205.94179
1570267205.95742
1570267205.97304
1570267205.98867
1570267206.00429
1570267206.01992
1570267206.03555
1570267206.05117
1570267206.0668
1570267206.08242
1570267206.09805
1570267206.11367
1570267206.1293
1570267206.14493
1570267206.16055
1570267206.17618
1570267206.1918
1570267206.20743
1570267206.22305
1570267206.23868
1570267206.25431
1570267206.26993
1570267206.28556
1570267206.30118
1570267206.31681
1570267206.33243
1570267206.34806
1570267206.36369
1570267206.37931
1570267206.39494
1570267206.41056
1570267206.42619
1570267206.44181
1570267206.45744
1570267206.47307
1570267206.48869
1570267206.50432
1570267206.51994
1570267206.53557
1570267206.55119
1570267206.56682
1570267206.58245
1570267206.59807
1570267206.6137
1570267206.62932
1570267206.64495
1570267206.66057
1570267206.6762
1570267206.69183
1570267206.70745
1570267206.72308
1570267206.7387
1570267206.75433
1570267206.76995
1570267206.78558
1570267206.80121
1570267206.81683
1570267206.83246
1570267206.84808
1570267206.86371
1570267206.87933
1570267206.89496
1570267206.91059
1570267206.92621
1570267206.94184
1570267206.95746
1570267206.97309
1570267206.98871
1570267207.00434
1570267207.01997
1570267207.03559
1570267207.05122
1570267207.06684
1570267207.08247
1570267207.09809
1570267207.11372
1570267207.12935
1570267207.14497
1570267207.1606
1570267207.17622
1570267207.19185
1570267207.20747
1570267207.2231
1570267207.23873
1570267207.25435
1570267207.26998
1570267207.2856
1570267207.30123
1570267207.31685
1570267207.33248
1570267207.34811
1570267207.36373
1570267207.37936
1570267207.39498
1570267207.41061
1570267207.42623
1570267207.44186
1570267207.45749
1570267207.47311
1570267207.48874
1570267207.50436
1570267207.51999
1570267207.53561
1570267207.55124
1570267207.56687
1570267207.58249
1570267207.59812
1570267207.61374
1570267207.62937
1570267207.64499
1570267207.66062
1570267207.67625
1570267207.69187
1570267207.7075
1570267207.72312
1570267207.73875
1570267207.75437
1570267207.77
1570267207.78563
1570267207.80125
1570267207.81688
1570267207.8325
1570267207.84813
1570267207.86375
1570267207.87938
1570267207.89501
1570267207.91063
1570267207.92626
1570267207.94188
1570267207.95751
1570267207.97313
1570267207.98876
1570267208.00439
1570267208.02001
1570267208.03564
1570267208.05126
1570267208.06689
1570267208.08252
1570267208.09814
1570267208.11377
1570267208.12939
1570267208.14502
1570267208.16064
1570267208.17627
1570267208.1919
1570267208.20752
1570267208.22315
1570267208.23877
1570267208.2544
1570267208.27002
1570267208.28565
1570267208.30128
1570267208.3169
1570267208.33253
1570267208.34815
1570267208.36378
1570267208.3794
1570267208.39503
1570267208.41066
1570267208.42628
1570267208.44191
1570267208.45753
1570267208.47316
1570267208.48878
1570267208.50441
1570267208.52004
1570267208.53566
1570267208.55129
1570267208.56691
1570267208.58254
1570267208.59816
1570267208.61379
1570267208.62942
1570267208.64504
1570267208.66067
1570267208.67629
1570267208.69192
1570267208.70754
1570267208.72317
1570267208.7388
1570267208.75442
1570267208.77005
1570267208.78567
1570267208.8013
1570267208.81692
1570267208.83255
1570267208.84818
1570267208.8638
1570267208.87943
1570267208.89505
1570267208.91068
1570267208.9263
1570267208.94193
1570267208.95756
1570267208.97318
1570267208.98881
1570267209.00443
1570267209.02006
1570267209.03568
1570267209.05131
1570267209.06694
1570267209.08256
1570267209.09819
1570267209.11381
1570267209.12944
1570267209.14506
1570267209.16069
1570267209.17632
1570267209.19194
1570267209.20757
1570267209.22319
1570267209.23882
1570267209.25444
1570267209.27007
1570267209.2857
1570267209.30132
1570267209.31695
1570267209.33257
1570267209.3482
1570267209.36382
1570267209.37945
1570267209.39508
1570267209.4107
1570267209.42633
1570267209.44195
1570267209.45758
1570267209.4732
1570267209.48883
1570267209.50446
1570267209.52008
1570267209.53571
1570267209.55133
1570267209.56696
1570267209.58258
1570267209.59821
1570267209.61384
1570267209.62946
1570267209.64509
1570267209.66071
1570267209.67634
1570267209.69196
1570267209.70759
1570267209.72322
1570267209.73884
1570267209.75447
1570267209.77009
1570267209.78572
1570267209.80134
1570267209.81697
1570267209.8326
1570267209.84822
1570267209.86385
1570267209.87947
1570267209.8951
1570267209.91072
1570267209.92635
1570267209.94198
1570267209.9576
1570267209.97323
1570267209.98885
1570267210.00448
1570267210.0201
1570267210.03573
1570267210.05136
1570267210.06698
1570267210.08261
1570267210.09823
1570267210.11386
1570267210.12948
1570267210.14511
1570267210.16074
1570267210.17636
1570267210.19199
1570267210.20761
1570267210.22324
1570267210.23886
1570267210.25449
1570267210.27012
1570267210.28574
1570267210.30137
1570267210.31699
1570267210.33262
1570267210.34824
1570267210.36387
1570267210.3795
1570267210.39512
1570267210.41075
1570267210.42637
1570267210.442
1570267210.45762
1570267210.47325
1570267210.48888
1570267210.5045
1570267210.52013
1570267210.53575
1570267210.55138
1570267210.56701
1570267210.58263
1570267210.59826
1570267210.61388
1570267210.62951
1570267210.64513
1570267210.66076
1570267210.67639
1570267210.69201
1570267210.70764
1570267210.72326
1570267210.73889
1570267210.75451
1570267210.77014
1570267210.78577
1570267210.80139
1570267210.81702
1570267210.83264
1570267210.84827
1570267210.86389
1570267210.87952
1570267210.89515
1570267210.91077
1570267210.9264
1570267210.94202
1570267210.95765
1570267210.97327
1570267210.9889
1570267211.00453
1570267211.02015
1570267211.03578
1570267211.0514
1570267211.06703
1570267211.08265
1570267211.09828
1570267211.11391
1570267211.12953
1570267211.14516
1570267211.16078
1570267211.17641
1570267211.19203
1570267211.20766
1570267211.22329
1570267211.23891
1570267211.25454
1570267211.27016
1570267211.28579
1570267211.30141
1570267211.31704
1570267211.33267
1570267211.34829
1570267211.36392
1570267211.37954
1570267211.39517
1570267211.41079
1570267211.42642
1570267211.44205
1570267211.45767
1570267211.4733
1570267211.48892
1570267211.50455
1570267211.52017
1570267211.5358
1570267211.55143
1570267211.56705
1570267211.58268
1570267211.5983
1570267211.61393
1570267211.62955
1570267211.64518
1570267211.66081
1570267211.67643
1570267211.69206
1570267211.70768
1570267211.72331
1570267211.73893
1570267211.75456
1570267211.77019
1570267211.78581
1570267211.80144
1570267211.81706
1570267211.83269
1570267211.84831
1570267211.86394
1570267211.87957
1570267211.89519
1570267211.91082
1570267211.92644
1570267211.94207
1570267211.95769
1570267211.97332
1570267211.98895
1570267212.00457
1570267212.0202
1570267212.03582
1570267212.05145
1570267212.06707
1570267212.0827
1570267212.09833
1570267212.11395
1570267212.12958
1570267212.1452
1570267212.16083
1570267212.17645
1570267212.19208
1570267212.20771
1570267212.22333
1570267212.23896
1570267212.25458
1570267212.27021
1570267212.28583
1570267212.30146
1570267212.31709
1570267212.33271
1570267212.34834
1570267212.36396
1570267212.37959
1570267212.39521
1570267212.41084
1570267212.42647
1570267212.44209
1570267212.45772
1570267212.47334
1570267212.48897
1570267212.50459
1570267212.52022
1570267212.53585
1570267212.55147
1570267212.5671
1570267212.58272
1570267212.59835
1570267212.61397
1570267212.6296
1570267212.64523
1570267212.66085
1570267212.67648
1570267212.6921
1570267212.70773
1570267212.72336
1570267212.73898
1570267212.75461
1570267212.77023
1570267212.78586
1570267212.80148
1570267212.81711
1570267212.83274
1570267212.84836
1570267212.86399
1570267212.87961
1570267212.89524
1570267212.91086
1570267212.92649
1570267212.94212
1570267212.95774
1570267212.97337
1570267212.98899
1570267213.00462
1570267213.02024
1570267213.03587
1570267213.0515
1570267213.06712
1570267213.08275
1570267213.09837
1570267213.114
1570267213.12962
1570267213.14525
1570267213.16088
1570267213.1765
1570267213.19213
1570267213.20775
1570267213.22338
1570267213.239
1570267213.25463
1570267213.27026
1570267213.28588
1570267213.30151
1570267213.31713
1570267213.33276
1570267213.34838
1570267213.36401
1570267213.37964
1570267213.39526
1570267213.41089
1570267213.42651
1570267213.44214
1570267213.45776
1570267213.47339
1570267213.48902
1570267213.50464
1570267213.52027
1570267213.53589
1570267213.55152
1570267213.56714
1570267213.58277
1570267213.5984
1570267213.61402
1570267213.62965
1570267213.64527
1570267213.6609
1570267213.67652
1570267213.69215
1570267213.70778
1570267213.7234
1570267213.73903
1570267213.75465
1570267213.77028
1570267213.7859
1570267213.80153
1570267213.81716
1570267213.83278
1570267213.84841
1570267213.86403
1570267213.87966
1570267213.89528
1570267213.91091
1570267213.92654
1570267213.94216
1570267213.95779
1570267213.97341
1570267213.98904
1570267214.00466
1570267214.02029
1570267214.03592
1570267214.05154
1570267214.06717
1570267214.08279
1570267214.09842
1570267214.11404
1570267214.12967
1570267214.1453
1570267214.16092
1570267214.17655
1570267214.19217
1570267214.2078
1570267214.22342
1570267214.23905
1570267214.25468
1570267214.2703
1570267214.28593
1570267214.30155
1570267214.31718
1570267214.3328
1570267214.34843
1570267214.36406
1570267214.37968
1570267214.39531
1570267214.41093
1570267214.42656
1570267214.44218
1570267214.45781
1570267214.47344
1570267214.48906
1570267214.50469
1570267214.52031
1570267214.53594
1570267214.55156
1570267214.56719
1570267214.58282
1570267214.59844
1570267214.61407
1570267214.62969
1570267214.64532
1570267214.66094
1570267214.67657
1570267214.6922
1570267214.70782
1570267214.72345
1570267214.73907
1570267214.7547
1570267214.77032
1570267214.78595
1570267214.80158
1570267214.8172
1570267214.83283
1570267214.84845
1570267214.86408
1570267214.8797
1570267214.89533
1570267214.91096
1570267214.92658
1570267214.94221
1570267214.95783
1570267214.97346
1570267214.98908
1570267215.00471
1570267215.02034
1570267215.03596
1570267215.05159
1570267215.06721
1570267215.08284
1570267215.09846
1570267215.11409
1570267215.12972
1570267215.14534
1570267215.16097
1570267215.17659
1570267215.19222
1570267215.20784
1570267215.22347
1570267215.2391
1570267215.25472
1570267215.27035
1570267215.28597
1570267215.3016
1570267215.31722
1570267215.33285
1570267215.34848
1570267215.3641
1570267215.37973
1570267215.39535
1570267215.41098
1570267215.42661
1570267215.44223
1570267215.45786
1570267215.47348
1570267215.48911
1570267215.50473
1570267215.52036
1570267215.53599
1570267215.55161
1570267215.56724
1570267215.58286
1570267215.59849
1570267215.61411
1570267215.62974
1570267215.64537
1570267215.66099
1570267215.67662
1570267215.69224
1570267215.70787
1570267215.72349
1570267215.73912
1570267215.75475
1570267215.77037
1570267215.786
1570267215.80162
1570267215.81725
1570267215.83287
1570267215.8485
1570267215.86413
1570267215.87975
1570267215.89538
1570267215.911
1570267215.92663
1570267215.94225
1570267215.95788
1570267215.97351
1570267215.98913
1570267216.00476
1570267216.02038
1570267216.03601
1570267216.05163
1570267216.06726
1570267216.08289
1570267216.09851
1570267216.11414
1570267216.12976
1570267216.14539
1570267216.16101
1570267216.17664
1570267216.19227
1570267216.20789
1570267216.22352
1570267216.23914
1570267216.25477
1570267216.27039
1570267216.28602
1570267216.30165
1570267216.31727
1570267216.3329
1570267216.34852
1570267216.36415
1570267216.37977
1570267216.3954
1570267216.41103
1570267216.42665
1570267216.44228
1570267216.4579
1570267216.47353
1570267216.48915
1570267216.50478
1570267216.52041
1570267216.53603
1570267216.55166
1570267216.56728
1570267216.58291
1570267216.59853
1570267216.61416
1570267216.62979
1570267216.64541
1570267216.66104
1570267216.67666
1570267216.69229
1570267216.70791
1570267216.72354
1570267216.73917
1570267216.75479
1570267216.77042
1570267216.78604
1570267216.80167
1570267216.81729
1570267216.83292
1570267216.84855
1570267216.86417
1570267216.8798
1570267216.89542
1570267216.91105
1570267216.92667
1570267216.9423
1570267216.95793
1570267216.97355
1570267216.98918
1570267217.0048
1570267217.02043
1570267217.03605
1570267217.05168
1570267217.06731
1570267217.08293
1570267217.09856
1570267217.11418
1570267217.12981
1570267217.14543
1570267217.16106
1570267217.17669
1570267217.19231
1570267217.20794
1570267217.22356
1570267217.23919
1570267217.25481
1570267217.27044
1570267217.28607
1570267217.30169
1570267217.31732
1570267217.33294
1570267217.34857
1570267217.36419
1570267217.37982
1570267217.39545
1570267217.41107
1570267217.4267
1570267217.44232
1570267217.45795
1570267217.47357
1570267217.4892
1570267217.50483
1570267217.52045
1570267217.53608
1570267217.5517
1570267217.56733
1570267217.58296
1570267217.59858
1570267217.61421
1570267217.62983
1570267217.64546
1570267217.66108
1570267217.67671
1570267217.69234
1570267217.70796
1570267217.72359
1570267217.73921
1570267217.75484
1570267217.77046
1570267217.78609
1570267217.80172
1570267217.81734
1570267217.83297
1570267217.84859
1570267217.86422
1570267217.87984
1570267217.89547
1570267217.9111
1570267217.92672
1570267217.94235
1570267217.95797
1570267217.9736
1570267217.98922
1570267218.00485
1570267218.02048
1570267218.0361
1570267218.05173
1570267218.06735
1570267218.08298
1570267218.0986
1570267218.11423
1570267218.12986
1570267218.14548
1570267218.16111
1570267218.17673
1570267218.19236
1570267218.20798
1570267218.22361
1570267218.23924
1570267218.25486
1570267218.27049
1570267218.28611
1570267218.30174
1570267218.31736
1570267218.33299
1570267218.34862
1570267218.36424
1570267218.37987
1570267218.39549
1570267218.41112
1570267218.42674
1570267218.44237
1570267218.458
1570267218.47362
1570267218.48925
1570267218.50487
1570267218.5205
1570267218.53612
1570267218.55175
1570267218.56738
1570267218.583
1570267218.59863
1570267218.61425
1570267218.62988
1570267218.6455
1570267218.66113
1570267218.67676
1570267218.69238
1570267218.70801
1570267218.72363
1570267218.73926
1570267218.75488
1570267218.77051
1570267218.78614
1570267218.80176
1570267218.81739
1570267218.83301
1570267218.84864
1570267218.86426
1570267218.87989
1570267218.89552
1570267218.91114
1570267218.92677
1570267218.94239
1570267218.95802
1570267218.97364
1570267218.98927
1570267219.0049
1570267219.02052
1570267219.03615
1570267219.05177
1570267219.0674
1570267219.08302
1570267219.09865
1570267219.11428
1570267219.1299
1570267219.14553
1570267219.16115
1570267219.17678
1570267219.1924
1570267219.20803
1570267219.22366
1570267219.23928
1570267219.25491
1570267219.27053
1570267219.28616
1570267219.30178
1570267219.31741
1570267219.33304
1570267219.34866
1570267219.36429
1570267219.37991
1570267219.39554
1570267219.41116
1570267219.42679
1570267219.44242
1570267219.45804
1570267219.47367
1570267219.48929
1570267219.50492
1570267219.52054
1570267219.53617
1570267219.5518
1570267219.56742
1570267219.58305
1570267219.59867
1570267219.6143
1570267219.62992
1570267219.64555
1570267219.66118
1570267219.6768
1570267219.69243
1570267219.70805
1570267219.72368
1570267219.7393
1570267219.75493
1570267219.77056
1570267219.78618
1570267219.80181
1570267219.81743
1570267219.83306
1570267219.84869
1570267219.86431
1570267219.87994
1570267219.89556
1570267219.91119
1570267219.92681
1570267219.94244
1570267219.95807
1570267219.97369
1570267219.98932
1570267220.00494
1570267220.02057
1570267220.03619
1570267220.05182
1570267220.06745
1570267220.08307
1570267220.0987
1570267220.11432
1570267220.12995
1570267220.14557
1570267220.1612
1570267220.17683
1570267220.19245
1570267220.20808
1570267220.2237
1570267220.23933
1570267220.25495
1570267220.27058
1570267220.28621
1570267220.30183
1570267220.31746
1570267220.33308
1570267220.34871
1570267220.36433
1570267220.37996
1570267220.39559
1570267220.41121
1570267220.42684
1570267220.44246
1570267220.45809
1570267220.47371
1570267220.48934
1570267220.50497
1570267220.52059
1570267220.53622
1570267220.55184
1570267220.56747
1570267220.58309
1570267220.59872
1570267220.61435
1570267220.62997
1570267220.6456
1570267220.66122
1570267220.67685
1570267220.69247
1570267220.7081
1570267220.72373
1570267220.73935
1570267220.75498
1570267220.7706
1570267220.78623
1570267220.80185
1570267220.81748
1570267220.83311
1570267220.84873
1570267220.86436
1570267220.87998
1570267220.89561
1570267220.91123
1570267220.92686
1570267220.94249
1570267220.95811
1570267220.97374
1570267220.98936
1570267221.00499
1570267221.02061
1570267221.03624
1570267221.05187
1570267221.06749
1570267221.08312
1570267221.09874
1570267221.11437
1570267221.12999
1570267221.14562
1570267221.16125
1570267221.17687
1570267221.1925
1570267221.20812
1570267221.22375
1570267221.23937
1570267221.255
1570267221.27063
1570267221.28625
1570267221.30188
1570267221.3175
1570267221.33313
1570267221.34875
1570267221.36438
1570267221.38001
1570267221.39563
1570267221.41126
1570267221.42688
1570267221.44251
1570267221.45813
1570267221.47376
1570267221.48939
1570267221.50501
1570267221.52064
1570267221.53626
1570267221.55189
1570267221.56751
1570267221.58314
1570267221.59877
1570267221.61439
1570267221.63002
1570267221.64564
1570267221.66127
1570267221.67689
1570267221.69252
1570267221.70815
1570267221.72377
1570267221.7394
1570267221.75502
1570267221.77065
1570267221.78627
1570267221.8019
1570267221.81753
1570267221.83315
1570267221.84878
1570267221.8644
1570267221.88003
1570267221.89565
1570267221.91128
1570267221.92691
1570267221.94253
1570267221.95816
1570267221.97378
1570267221.98941
1570267222.00503
1570267222.02066
1570267222.03629
1570267222.05191
1570267222.06754
1570267222.08316
1570267222.09879
1570267222.11441
1570267222.13004
1570267222.14567
1570267222.16129
1570267222.17692
1570267222.19254
1570267222.20817
1570267222.22379
1570267222.23942
1570267222.25505
1570267222.27067
1570267222.2863
1570267222.30192
1570267222.31755
1570267222.33317
1570267222.3488
1570267222.36443
1570267222.38005
1570267222.39568
1570267222.4113
1570267222.42693
1570267222.44256
1570267222.45818
1570267222.47381
1570267222.48943
1570267222.50506
1570267222.52068
1570267222.53631
1570267222.55194
1570267222.56756
1570267222.58319
1570267222.59881
1570267222.61444
1570267222.63006
1570267222.64569
1570267222.66132
1570267222.67694
1570267222.69257
1570267222.70819
1570267222.72382
1570267222.73944
1570267222.75507
1570267222.7707
1570267222.78632
1570267222.80195
1570267222.81757
1570267222.8332
1570267222.84882
1570267222.86445
1570267222.88008
1570267222.8957
1570267222.91133
1570267222.92695
1570267222.94258
1570267222.9582
1570267222.97383
1570267222.98946
1570267223.00508
1570267223.02071
1570267223.03633
1570267223.05196
1570267223.06758
1570267223.08321
1570267223.09884
1570267223.11446
1570267223.13009
1570267223.14571
1570267223.16134
1570267223.17696
1570267223.19259
1570267223.20822
1570267223.22384
1570267223.23947
1570267223.25509
1570267223.27072
1570267223.28634
1570267223.30197
1570267223.3176
1570267223.33322
1570267223.34885
1570267223.36447
1570267223.3801
1570267223.39572
1570267223.41135
1570267223.42698
1570267223.4426
1570267223.45823
1570267223.47385
1570267223.48948
1570267223.5051
1570267223.52073
1570267223.53636
1570267223.55198
1570267223.56761
1570267223.58323
1570267223.59886
1570267223.61448
1570267223.63011
1570267223.64574
1570267223.66136
1570267223.67699
1570267223.69261
1570267223.70824
1570267223.72386
1570267223.73949
1570267223.75512
1570267223.77074
1570267223.78637
1570267223.80199
1570267223.81762
1570267223.83324
1570267223.84887
1570267223.8645
1570267223.88012
1570267223.89575
1570267223.91137
1570267223.927
1570267223.94262
1570267223.95825
1570267223.97388
1570267223.9895
1570267224.00513
1570267224.02075
1570267224.03638
1570267224.052
1570267224.06763
1570267224.08326
1570267224.09888
1570267224.11451
1570267224.13013
1570267224.14576
1570267224.16138
1570267224.17701
1570267224.19264
1570267224.20826
1570267224.22389
1570267224.23951
1570267224.25514
1570267224.27076
1570267224.28639
1570267224.30202
1570267224.31764
1570267224.33327
1570267224.34889
1570267224.36452
1570267224.38014
1570267224.39577
1570267224.4114
1570267224.42702
1570267224.44265
1570267224.45827
1570267224.4739
1570267224.48952
1570267224.50515
1570267224.52078
1570267224.5364
1570267224.55203
1570267224.56765
1570267224.58328
1570267224.5989
1570267224.61453
1570267224.63016
1570267224.64578
1570267224.66141
1570267224.67703
1570267224.69266
1570267224.70829
1570267224.72391
1570267224.73954
1570267224.75516
1570267224.77079
1570267224.78641
1570267224.80204
1570267224.81767
1570267224.83329
1570267224.84892
1570267224.86454
1570267224.88017
1570267224.89579
1570267224.91142
1570267224.92705
1570267224.94267
1570267224.9583
1570267224.97392
1570267224.98955
1570267225.00517
1570267225.0208
1570267225.03643
1570267225.05205
1570267225.06768
1570267225.0833
1570267225.09893
1570267225.11455
1570267225.13018
1570267225.14581
1570267225.16143
1570267225.17706
1570267225.19268
1570267225.20831
1570267225.22393
1570267225.23956
1570267225.25519
1570267225.27081
1570267225.28644
1570267225.30206
1570267225.31769
1570267225.33331
1570267225.34894
1570267225.36457
1570267225.38019
1570267225.39582
1570267225.41144
1570267225.42707
1570267225.44269
1570267225.45832
1570267225.47395
1570267225.48957
1570267225.5052
1570267225.52082
1570267225.53645
1570267225.55207
1570267225.5677
1570267225.58333
1570267225.59895
1570267225.61458
1570267225.6302
1570267225.64583
1570267225.66145
1570267225.67708
1570267225.69271
1570267225.70833
1570267225.72396
1570267225.73958
1570267225.75521
1570267225.77083
1570267225.78646
1570267225.80209
1570267225.81771
1570267225.83334
1570267225.84896
1570267225.86459
1570267225.88021
1570267225.89584
1570267225.91147
1570267225.92709
1570267225.94272
1570267225.95834
1570267225.97397
1570267225.98959
1570267226.00522
1570267226.02085
1570267226.03647
1570267226.0521
1570267226.06772
1570267226.08335
1570267226.09897
1570267226.1146
1570267226.13023
1570267226.14585
1570267226.16148
1570267226.1771
1570267226.19273
1570267226.20835
1570267226.22398
1570267226.23961
1570267226.25523
1570267226.27086
1570267226.28648
1570267226.30211
1570267226.31773
1570267226.33336
1570267226.34899
1570267226.36461
1570267226.38024
1570267226.39586
1570267226.41149
1570267226.42711
1570267226.44274
1570267226.45837
1570267226.47399
1570267226.48962
1570267226.50524
1570267226.52087
1570267226.53649
1570267226.55212
1570267226.56775
1570267226.58337
1570267226.599
1570267226.61462
1570267226.63025
1570267226.64587
1570267226.6615
1570267226.67713
1570267226.69275
1570267226.70838
1570267226.724
1570267226.73963
1570267226.75525
1570267226.77088
1570267226.78651
1570267226.80213
1570267226.81776
1570267226.83338
1570267226.84901
1570267226.86463
1570267226.88026
1570267226.89589
1570267226.91151
1570267226.92714
1570267226.94276
1570267226.95839
1570267226.97402
1570267226.98964
1570267227.00527
1570267227.02089
1570267227.03652
1570267227.05214
1570267227.06777
1570267227.0834
1570267227.09902
1570267227.11465
1570267227.13027
1570267227.1459
1570267227.16152
1570267227.17715
1570267227.19278
1570267227.2084
1570267227.22403
1570267227.23965
1570267227.25528
1570267227.2709
1570267227.28653
1570267227.30216
1570267227.31778
1570267227.33341
1570267227.34903
1570267227.36466
1570267227.38028
1570267227.39591
1570267227.41154
1570267227.42716
1570267227.44279
1570267227.45841
1570267227.47404
1570267227.48966
1570267227.50529
1570267227.52092
1570267227.53654
1570267227.55217
1570267227.56779
1570267227.58342
1570267227.59904
1570267227.61467
1570267227.6303
1570267227.64592
1570267227.66155
1570267227.67717
1570267227.6928
1570267227.70842
1570267227.72405
1570267227.73968
1570267227.7553
1570267227.77093
1570267227.78655
1570267227.80218
1570267227.8178
1570267227.83343
1570267227.84906
1570267227.86468
1570267227.88031
1570267227.89593
1570267227.91156
1570267227.92718
1570267227.94281
1570267227.95844
1570267227.97406
1570267227.98969
1570267228.00531
1570267228.02094
1570267228.03656
1570267228.05219
1570267228.06782
1570267228.08344
1570267228.09907
1570267228.11469
1570267228.13032
1570267228.14594
1570267228.16157
1570267228.1772
1570267228.19282
1570267228.20845
1570267228.22407
1570267228.2397
1570267228.25532
1570267228.27095
1570267228.28658
1570267228.3022
1570267228.31783
1570267228.33345
1570267228.34908
1570267228.3647
1570267228.38033
1570267228.39596
1570267228.41158
1570267228.42721
1570267228.44283
1570267228.45846
1570267228.47408
1570267228.48971
1570267228.50534
1570267228.52096
1570267228.53659
1570267228.55221
1570267228.56784
1570267228.58346
1570267228.59909
1570267228.61472
1570267228.63034
1570267228.64597
1570267228.66159
1570267228.67722
1570267228.69284
1570267228.70847
1570267228.7241
1570267228.73972
1570267228.75535
1570267228.77097
1570267228.7866
1570267228.80222
1570267228.81785
1570267228.83348
1570267228.8491
1570267228.86473
1570267228.88035
1570267228.89598
1570267228.9116
1570267228.92723
1570267228.94286
1570267228.95848
1570267228.97411
1570267228.98973
1570267229.00536
1570267229.02098
1570267229.03661
1570267229.05224
1570267229.06786
1570267229.08349
1570267229.09911
1570267229.11474
1570267229.13036
1570267229.14599
1570267229.16162
1570267229.17724
1570267229.19287
1570267229.20849
1570267229.22412
1570267229.23974
1570267229.25537
1570267229.271
1570267229.28662
1570267229.30225
1570267229.31787
1570267229.3335
1570267229.34912
1570267229.36475
1570267229.38038
1570267229.396
1570267229.41163
1570267229.42725
1570267229.44288
1570267229.4585
1570267229.47413
1570267229.48976
1570267229.50538
1570267229.52101
1570267229.53663
1570267229.55226
1570267229.56789
1570267229.58351
1570267229.59914
1570267229.61476
1570267229.63039
1570267229.64601
1570267229.66164
1570267229.67727
1570267229.69289
1570267229.70852
1570267229.72414
1570267229.73977
1570267229.75539
1570267229.77102
1570267229.78665
1570267229.80227
1570267229.8179
1570267229.83352
1570267229.84915
1570267229.86477
1570267229.8804
1570267229.89603
1570267229.91165
1570267229.92728
1570267229.9429
1570267229.95853
1570267229.97415
1570267229.98978
1570267230.00541
1570267230.02103
1570267230.03666
1570267230.05228
1570267230.06791
1570267230.08353
1570267230.09916
1570267230.11479
1570267230.13041
1570267230.14604
1570267230.16166
1570267230.17729
1570267230.19291
1570267230.20854
1570267230.22417
1570267230.23979
1570267230.25542
1570267230.27104
1570267230.28667
1570267230.30229
1570267230.31792
1570267230.33355
1570267230.34917
1570267230.3648
1570267230.38042
1570267230.39605
1570267230.41167
1570267230.4273
1570267230.44293
1570267230.45855
1570267230.47418
1570267230.4898
1570267230.50543
1570267230.52105
1570267230.53668
1570267230.55231
1570267230.56793
1570267230.58356
1570267230.59918
1570267230.61481
1570267230.63043
1570267230.64606
1570267230.66169
1570267230.67731
1570267230.69294
1570267230.70856
1570267230.72419
1570267230.73981
1570267230.75544
1570267230.77107
1570267230.78669
1570267230.80232
1570267230.81794
1570267230.83357
1570267230.84919
1570267230.86482
1570267230.88045
1570267230.89607
1570267230.9117
1570267230.92732
1570267230.94295
1570267230.95857
1570267230.9742
1570267230.98983
1570267231.00545
1570267231.02108
1570267231.0367
1570267231.05233
1570267231.06795
1570267231.08358
1570267231.09921
1570267231.11483
1570267231.13046
1570267231.14608
1570267231.16171
1570267231.17733
1570267231.19296
1570267231.20859
1570267231.22421
1570267231.23984
1570267231.25546
1570267231.27109
1570267231.28671
1570267231.30234
1570267231.31797
1570267231.33359
1570267231.34922
1570267231.36484
1570267231.38047
1570267231.39609
1570267231.41172
1570267231.42735
1570267231.44297
1570267231.4586
1570267231.47422
1570267231.48985
1570267231.50547
1570267231.5211
1570267231.53673
1570267231.55235
1570267231.56798
1570267231.5836
1570267231.59923
1570267231.61485
1570267231.63048
1570267231.64611
1570267231.66173
1570267231.67736
1570267231.69298
1570267231.70861
1570267231.72423
1570267231.73986
1570267231.75549
1570267231.77111
1570267231.78674
1570267231.80236
1570267231.81799
1570267231.83362
1570267231.84924
1570267231.86487
1570267231.88049
1570267231.89612
1570267231.91174
1570267231.92737
1570267231.943
1570267231.95862
1570267231.97425
1570267231.98987
1570267232.0055
1570267232.02112
1570267232.03675
1570267232.05238
1570267232.068
1570267232.08363
1570267232.09925
1570267232.11488
1570267232.1305
1570267232.14613
1570267232.16176
1570267232.17738
1570267232.19301
1570267232.20863
1570267232.22426
1570267232.23988
1570267232.25551
1570267232.27114
1570267232.28676
1570267232.30239
1570267232.31801
1570267232.33364
1570267232.34926
1570267232.36489
1570267232.38052
1570267232.39614
1570267232.41177
1570267232.42739
1570267232.44302
1570267232.45864
1570267232.47427
1570267232.4899
1570267232.50552
1570267232.52115
1570267232.53677
1570267232.5524
1570267232.56802
1570267232.58365
1570267232.59928
1570267232.6149
1570267232.63053
1570267232.64615
1570267232.66178
1570267232.6774
1570267232.69303
1570267232.70866
1570267232.72428
1570267232.73991
1570267232.75553
1570267232.77116
1570267232.78678
1570267232.80241
1570267232.81804
1570267232.83366
1570267232.84929
1570267232.86491
1570267232.88054
1570267232.89616
1570267232.91179
1570267232.92742
1570267232.94304
1570267232.95867
1570267232.97429
1570267232.98992
1570267233.00554
1570267233.02117
1570267233.0368
1570267233.05242
1570267233.06805
1570267233.08367
1570267233.0993
1570267233.11492
1570267233.13055
1570267233.14618
1570267233.1618
1570267233.17743
1570267233.19305
1570267233.20868
1570267233.2243
1570267233.23993
1570267233.25556
1570267233.27118
1570267233.28681
1570267233.30243
1570267233.31806
1570267233.33368
1570267233.34931
1570267233.36494
1570267233.38056
1570267233.39619
1570267233.41181
1570267233.42744
1570267233.44306
1570267233.45869
1570267233.47432
1570267233.48994
1570267233.50557
1570267233.52119
1570267233.53682
1570267233.55244
1570267233.56807
1570267233.5837
1570267233.59932
1570267233.61495
1570267233.63057
1570267233.6462
1570267233.66182
1570267233.67745
1570267233.69308
1570267233.7087
1570267233.72433
1570267233.73995
1570267233.75558
1570267233.7712
1570267233.78683
1570267233.80246
1570267233.81808
1570267233.83371
1570267233.84933
1570267233.86496
1570267233.88058
1570267233.89621
1570267233.91184
1570267233.92746
1570267233.94309
1570267233.95871
1570267233.97434
1570267233.98996
1570267234.00559
1570267234.02122
1570267234.03684
1570267234.05247
1570267234.06809
1570267234.08372
1570267234.09934
1570267234.11497
1570267234.1306
1570267234.14622
1570267234.16185
1570267234.17747
1570267234.1931
1570267234.20872
1570267234.22435
1570267234.23998
1570267234.2556
1570267234.27123
1570267234.28685
1570267234.30248
1570267234.3181
1570267234.33373
1570267234.34936
1570267234.36498
1570267234.38061
1570267234.39623
1570267234.41186
1570267234.42749
1570267234.44311
1570267234.45874
1570267234.47436
1570267234.48999
1570267234.50561
1570267234.52124
1570267234.53687
1570267234.55249
1570267234.56812
1570267234.58374
1570267234.59937
1570267234.61499
1570267234.63062
1570267234.64625
1570267234.66187
1570267234.6775
1570267234.69312
1570267234.70875
1570267234.72437
1570267234.74
1570267234.75563
1570267234.77125
1570267234.78688
1570267234.8025
1570267234.81813
1570267234.83375
1570267234.84938
1570267234.86501
1570267234.88063
1570267234.89626
1570267234.91188
1570267234.92751
1570267234.94313
1570267234.95876
1570267234.97439
1570267234.99001
1570267235.00564
1570267235.02126
1570267235.03689
1570267235.05251
1570267235.06814
1570267235.08377
1570267235.09939
1570267235.11502
1570267235.13064
1570267235.14627
1570267235.16189
1570267235.17752
1570267235.19315
1570267235.20877
1570267235.2244
1570267235.24002
1570267235.25565
1570267235.27127
1570267235.2869
1570267235.30253
1570267235.31815
1570267235.33378
1570267235.3494
1570267235.36503
1570267235.38065
1570267235.39628
1570267235.41191
1570267235.42753
1570267235.44316
1570267235.45878
1570267235.47441
1570267235.49003
1570267235.50566
1570267235.52129
1570267235.53691
1570267235.55254
1570267235.56816
1570267235.58379
1570267235.59941
1570267235.61504
1570267235.63067
1570267235.64629
1570267235.66192
1570267235.67754
1570267235.69317
1570267235.70879
1570267235.72442
1570267235.74005
1570267235.75567
1570267235.7713
1570267235.78692
1570267235.80255
1570267235.81817
1570267235.8338
1570267235.84943
1570267235.86505
1570267235.88068
1570267235.8963
1570267235.91193
1570267235.92755
1570267235.94318
1570267235.95881
1570267235.97443
1570267235.99006
1570267236.00568
1570267236.02131
1570267236.03693
1570267236.05256
1570267236.06819
1570267236.08381
1570267236.09944
1570267236.11506
1570267236.13069
1570267236.14631
1570267236.16194
1570267236.17757
1570267236.19319
1570267236.20882
1570267236.22444
1570267236.24007
1570267236.25569
1570267236.27132
1570267236.28695
1570267236.30257
1570267236.3182
1570267236.33382
1570267236.34945
1570267236.36507
1570267236.3807
1570267236.39633
1570267236.41195
1570267236.42758
1570267236.4432
1570267236.45883
1570267236.47445
1570267236.49008
1570267236.50571
1570267236.52133
1570267236.53696
1570267236.55258
1570267236.56821
1570267236.58383
1570267236.59946
1570267236.61509
1570267236.63071
1570267236.64634
1570267236.66196
1570267236.67759
1570267236.69322
1570267236.70884
1570267236.72447
1570267236.74009
1570267236.75572
1570267236.77134
1570267236.78697
1570267236.8026
1570267236.81822
1570267236.83385
1570267236.84947
1570267236.8651
1570267236.88072
1570267236.89635
1570267236.91198
1570267236.9276
1570267236.94323
1570267236.95885
1570267236.97448
1570267236.9901
1570267237.00573
1570267237.02136
1570267237.03698
1570267237.05261
1570267237.06823
1570267237.08386
1570267237.09948
1570267237.11511
1570267237.13074
1570267237.14636
1570267237.16199
1570267237.17761
1570267237.19324
1570267237.20886
1570267237.22449
1570267237.24012
1570267237.25574
1570267237.27137
1570267237.28699
1570267237.30262
1570267237.31824
1570267237.33387
1570267237.3495
1570267237.36512
1570267237.38075
1570267237.39637
1570267237.412
1570267237.42762
1570267237.44325
1570267237.45888
1570267237.4745
1570267237.49013
1570267237.50575
1570267237.52138
1570267237.537
1570267237.55263
1570267237.56826
1570267237.58388
1570267237.59951
1570267237.61513
1570267237.63076
1570267237.64638
1570267237.66201
1570267237.67764
1570267237.69326
1570267237.70889
1570267237.72451
1570267237.74014
1570267237.75576
1570267237.77139
1570267237.78702
1570267237.80264
1570267237.81827
1570267237.83389
1570267237.84952
1570267237.86514
1570267237.88077
1570267237.8964
1570267237.91202
1570267237.92765
1570267237.94327
1570267237.9589
1570267237.97452
1570267237.99015
1570267238.00578
1570267238.0214
1570267238.03703
1570267238.05265
1570267238.06828
1570267238.0839
1570267238.09953
1570267238.11516
1570267238.13078
1570267238.14641
1570267238.16203
1570267238.17766
1570267238.19328
1570267238.20891
1570267238.22454
1570267238.24016
1570267238.25579
1570267238.27141
1570267238.28704
1570267238.30266
1570267238.31829
1570267238.33392
1570267238.34954
1570267238.36517
1570267238.38079
1570267238.39642
1570267238.41204
1570267238.42767
1570267238.4433
1570267238.45892
1570267238.47455
1570267238.49017
1570267238.5058
1570267238.52142
1570267238.53705
1570267238.55268
1570267238.5683
1570267238.58393
1570267238.59955
1570267238.61518
1570267238.6308
1570267238.64643
1570267238.66206
1570267238.67768
1570267238.69331
1570267238.70893
1570267238.72456
1570267238.74018
1570267238.75581
1570267238.77144
1570267238.78706
1570267238.80269
1570267238.81831
1570267238.83394
1570267238.84957
1570267238.86519
1570267238.88082
1570267238.89644
1570267238.91207
1570267238.92769
1570267238.94332
1570267238.95895
1570267238.97457
1570267238.9902
1570267239.00582
1570267239.02145
1570267239.03707
1570267239.0527
1570267239.06833
1570267239.08395
1570267239.09958
1570267239.1152
1570267239.13083
1570267239.14645
1570267239.16208
1570267239.17771
1570267239.19333
1570267239.20896
1570267239.22458
1570267239.24021
1570267239.25583
1570267239.27146
1570267239.28709
1570267239.30271
1570267239.31834
1570267239.33396
1570267239.34959
1570267239.36521
1570267239.38084
1570267239.39647
1570267239.41209
1570267239.42772
1570267239.44334
1570267239.45897
1570267239.47459
1570267239.49022
1570267239.50585
1570267239.52147
1570267239.5371
1570267239.55272
1570267239.56835
1570267239.58397
1570267239.5996
1570267239.61523
1570267239.63085
1570267239.64648
1570267239.6621
1570267239.67773
1570267239.69335
1570267239.70898
1570267239.72461
1570267239.74023
1570267239.75586
1570267239.77148
1570267239.78711
1570267239.80273
1570267239.81836
1570267239.83399
1570267239.84961
1570267239.86524
1570267239.88086
1570267239.89649
1570267239.91211
1570267239.92774
1570267239.94337
1570267239.95899
1570267239.97462
1570267239.99024
1570267240.00587
1570267240.02149
1570267240.03712
1570267240.05275
1570267240.06837
1570267240.084
1570267240.09962
1570267240.11525
1570267240.13087
1570267240.1465
1570267240.16213
1570267240.17775
1570267240.19338
1570267240.209
1570267240.22463
1570267240.24025
1570267240.25588
1570267240.27151
1570267240.28713
1570267240.30276
1570267240.31838
1570267240.33401
1570267240.34963
1570267240.36526
1570267240.38089
1570267240.39651
1570267240.41214
1570267240.42776
1570267240.44339
1570267240.45901
1570267240.47464
1570267240.49027
1570267240.50589
1570267240.52152
1570267240.53714
1570267240.55277
1570267240.56839
1570267240.58402
1570267240.59965
1570267240.61527
1570267240.6309
1570267240.64652
1570267240.66215
1570267240.67777
1570267240.6934
1570267240.70903
1570267240.72465
1570267240.74028
1570267240.7559
1570267240.77153
1570267240.78715
1570267240.80278
1570267240.81841
1570267240.83403
1570267240.84966
1570267240.86528
1570267240.88091
1570267240.89653
1570267240.91216
1570267240.92779
1570267240.94341
1570267240.95904
1570267240.97466
1570267240.99029
1570267241.00591
1570267241.02154
1570267241.03717
1570267241.05279
1570267241.06842
1570267241.08404
1570267241.09967
1570267241.11529
1570267241.13092
1570267241.14655
1570267241.16217
1570267241.1778
1570267241.19342
1570267241.20905
1570267241.22467
1570267241.2403
1570267241.25593
1570267241.27155
1570267241.28718
1570267241.3028
1570267241.31843
1570267241.33405
1570267241.34968
1570267241.36531
1570267241.38093
1570267241.39656
1570267241.41218
1570267241.42781
1570267241.44343
1570267241.45906
1570267241.47469
1570267241.49031
1570267241.50594
1570267241.52156
1570267241.53719
1570267241.55282
1570267241.56844
1570267241.58407
1570267241.59969
1570267241.61532
1570267241.63094
1570267241.64657
1570267241.6622
1570267241.67782
1570267241.69345
1570267241.70907
1570267241.7247
1570267241.74032
1570267241.75595
1570267241.77158
1570267241.7872
1570267241.80283
1570267241.81845
1570267241.83408
1570267241.8497
1570267241.86533
1570267241.88096
1570267241.89658
1570267241.91221
1570267241.92783
1570267241.94346
1570267241.95908
1570267241.97471
1570267241.99034
1570267242.00596
1570267242.02159
1570267242.03721
1570267242.05284
1570267242.06846
1570267242.08409
1570267242.09972
1570267242.11534
1570267242.13097
1570267242.14659
1570267242.16222
1570267242.17784
1570267242.19347
1570267242.2091
1570267242.22472
1570267242.24035
1570267242.25597
1570267242.2716
1570267242.28722
1570267242.30285
1570267242.31848
1570267242.3341
1570267242.34973
1570267242.36535
1570267242.38098
1570267242.3966
1570267242.41223
1570267242.42786
1570267242.44348
1570267242.45911
1570267242.47473
1570267242.49036
1570267242.50598
1570267242.52161
1570267242.53724
1570267242.55286
1570267242.56849
1570267242.58411
1570267242.59974
1570267242.61536
1570267242.63099
1570267242.64662
1570267242.66224
1570267242.67787
1570267242.69349
1570267242.70912
1570267242.72474
1570267242.74037
1570267242.756
1570267242.77162
1570267242.78725
1570267242.80287
1570267242.8185
1570267242.83412
1570267242.84975
1570267242.86538
1570267242.881
1570267242.89663
1570267242.91225
1570267242.92788
1570267242.9435
1570267242.95913
1570267242.97476
1570267242.99038
1570267243.00601
1570267243.02163
1570267243.03726
1570267243.05288
1570267243.06851
1570267243.08414
1570267243.09976
1570267243.11539
1570267243.13101
1570267243.14664
1570267243.16226
1570267243.17789
1570267243.19352
1570267243.20914
1570267243.22477
1570267243.24039
1570267243.25602
1570267243.27164
1570267243.28727
1570267243.3029
1570267243.31852
1570267243.33415
1570267243.34977
1570267243.3654
1570267243.38102
1570267243.39665
1570267243.41228
1570267243.4279
1570267243.44353
1570267243.45915
1570267243.47478
1570267243.4904
1570267243.50603
1570267243.52166
1570267243.53728
1570267243.55291
1570267243.56853
1570267243.58416
1570267243.59978
1570267243.61541
1570267243.63104
1570267243.64666
1570267243.66229
1570267243.67791
1570267243.69354
1570267243.70917
1570267243.72479
1570267243.74042
1570267243.75604
1570267243.77167
1570267243.78729
1570267243.80292
1570267243.81855
1570267243.83417
1570267243.8498
1570267243.86542
1570267243.88105
1570267243.89667
1570267243.9123
1570267243.92793
1570267243.94355
1570267243.95918
1570267243.9748
1570267243.99043
1570267244.00605
1570267244.02168
1570267244.03731
1570267244.05293
1570267244.06856
1570267244.08418
1570267244.09981
1570267244.11543
1570267244.13106
1570267244.14669
1570267244.16231
1570267244.17794
1570267244.19356
1570267244.20919
1570267244.22481
1570267244.24044
1570267244.25607
1570267244.27169
1570267244.28732
1570267244.30294
1570267244.31857
1570267244.33419
1570267244.34982
1570267244.36545
1570267244.38107
1570267244.3967
1570267244.41232
1570267244.42795
1570267244.44357
1570267244.4592
1570267244.47483
1570267244.49045
1570267244.50608
1570267244.5217
1570267244.53733
1570267244.55295
1570267244.56858
1570267244.58421
1570267244.59983
1570267244.61546
1570267244.63108
1570267244.64671
1570267244.66233
1570267244.67796
1570267244.69359
1570267244.70921
1570267244.72484
1570267244.74046
1570267244.75609
1570267244.77171
1570267244.78734
1570267244.80297
1570267244.81859
1570267244.83422
1570267244.84984
1570267244.86547
1570267244.88109
1570267244.89672
1570267244.91235
1570267244.92797
1570267244.9436
1570267244.95922
1570267244.97485
1570267244.99047
1570267245.0061
1570267245.02173
1570267245.03735
1570267245.05298
1570267245.0686
1570267245.08423
1570267245.09985
1570267245.11548
1570267245.13111
1570267245.14673
1570267245.16236
1570267245.17798
1570267245.19361
1570267245.20923
1570267245.22486
1570267245.24049
1570267245.25611
1570267245.27174
1570267245.28736
1570267245.30299
1570267245.31861
1570267245.33424
1570267245.34987
1570267245.36549
1570267245.38112
1570267245.39674
1570267245.41237
1570267245.42799
1570267245.44362
1570267245.45925
1570267245.47487
1570267245.4905
1570267245.50612
1570267245.52175
1570267245.53737
1570267245.553
1570267245.56863
1570267245.58425
1570267245.59988
1570267245.6155
1570267245.63113
1570267245.64675
1570267245.66238
1570267245.67801
1570267245.69363
1570267245.70926
1570267245.72488
1570267245.74051
1570267245.75613
1570267245.77176
1570267245.78739
1570267245.80301
1570267245.81864
1570267245.83426
1570267245.84989
1570267245.86551
1570267245.88114
1570267245.89677
1570267245.91239
1570267245.92802
1570267245.94364
1570267245.95927
1570267245.9749
1570267245.99052
1570267246.00615
1570267246.02177
1570267246.0374
1570267246.05302
1570267246.06865
1570267246.08428
1570267246.0999
1570267246.11553
1570267246.13115
1570267246.14678
1570267246.1624
1570267246.17803
1570267246.19366
1570267246.20928
1570267246.22491
1570267246.24053
1570267246.25616
1570267246.27178
1570267246.28741
1570267246.30304
1570267246.31866
1570267246.33429
1570267246.34991
1570267246.36554
1570267246.38116
1570267246.39679
1570267246.41242
1570267246.42804
1570267246.44367
1570267246.45929
1570267246.47492
1570267246.49054
1570267246.50617
1570267246.5218
1570267246.53742
1570267246.55305
1570267246.56867
1570267246.5843
1570267246.59992
1570267246.61555
1570267246.63118
1570267246.6468
1570267246.66243
1570267246.67805
1570267246.69368
1570267246.7093
1570267246.72493
1570267246.74056
1570267246.75618
1570267246.77181
1570267246.78743
1570267246.80306
1570267246.81868
1570267246.83431
1570267246.84994
1570267246.86556
1570267246.88119
1570267246.89681
1570267246.91244
1570267246.92806
1570267246.94369
1570267246.95932
1570267246.97494
1570267246.99057
1570267247.00619
1570267247.02182
1570267247.03744
1570267247.05307
1570267247.0687
1570267247.08432
1570267247.09995
1570267247.11557
1570267247.1312
1570267247.14682
1570267247.16245
1570267247.17808
1570267247.1937
1570267247.20933
1570267247.22495
1570267247.24058
1570267247.2562
1570267247.27183
1570267247.28746
1570267247.30308
1570267247.31871
1570267247.33433
1570267247.34996
1570267247.36558
1570267247.38121
1570267247.39684
1570267247.41246
1570267247.42809
1570267247.44371
1570267247.45934
1570267247.47496
1570267247.49059
1570267247.50622
1570267247.52184
1570267247.53747
1570267247.55309
1570267247.56872
1570267247.58434
1570267247.59997
1570267247.6156
1570267247.63122
1570267247.64685
1570267247.66247
1570267247.6781
1570267247.69372
1570267247.70935
1570267247.72498
1570267247.7406
1570267247.75623
1570267247.77185
1570267247.78748
1570267247.8031
1570267247.81873
1570267247.83436
1570267247.84998
1570267247.86561
1570267247.88123
1570267247.89686
1570267247.91248
1570267247.92811
1570267247.94374
1570267247.95936
1570267247.97499
1570267247.99061
1570267248.00624
1570267248.02186
1570267248.03749
1570267248.05312
1570267248.06874
1570267248.08437
1570267248.09999
1570267248.11562
1570267248.13124
1570267248.14687
1570267248.1625
1570267248.17812
1570267248.19375
1570267248.20937
1570267248.225
1570267248.24062
1570267248.25625
1570267248.27188
1570267248.2875
1570267248.30313
1570267248.31875
1570267248.33438
1570267248.35
1570267248.36563
1570267248.38126
1570267248.39688
1570267248.41251
1570267248.42813
1570267248.44376
1570267248.45938
1570267248.47501
1570267248.49064
1570267248.50626
1570267248.52189
1570267248.53751
1570267248.55314
1570267248.56877
1570267248.58439
1570267248.60002
1570267248.61564
1570267248.63127
1570267248.64689
1570267248.66252
1570267248.67815
1570267248.69377
1570267248.7094
1570267248.72502
1570267248.74065
1570267248.75627
1570267248.7719
1570267248.78753
1570267248.80315
1570267248.81878
1570267248.8344
1570267248.85003
1570267248.86565
1570267248.88128
1570267248.89691
1570267248.91253
1570267248.92816
1570267248.94378
1570267248.95941
1570267248.97503
1570267248.99066
1570267249.00629
1570267249.02191
1570267249.03754
1570267249.05316
1570267249.06879
1570267249.08441
1570267249.10004
1570267249.11567
1570267249.13129
1570267249.14692
1570267249.16254
1570267249.17817
1570267249.19379
1570267249.20942
1570267249.22505
1570267249.24067
1570267249.2563
1570267249.27192
1570267249.28755
1570267249.30317
1570267249.3188
1570267249.33443
1570267249.35005
1570267249.36568
1570267249.3813
1570267249.39693
1570267249.41255
1570267249.42818
1570267249.44381
1570267249.45943
1570267249.47506
1570267249.49068
1570267249.50631
1570267249.52193
1570267249.53756
1570267249.55319
1570267249.56881
1570267249.58444
1570267249.60006
1570267249.61569
1570267249.63131
1570267249.64694
1570267249.66257
1570267249.67819
1570267249.69382
1570267249.70944
1570267249.72507
1570267249.74069
1570267249.75632
1570267249.77195
1570267249.78757
1570267249.8032
1570267249.81882
1570267249.83445
1570267249.85007
1570267249.8657
1570267249.88133
1570267249.89695
1570267249.91258
1570267249.9282
1570267249.94383
1570267249.95945
1570267249.97508
1570267249.99071
1570267250.00633
1570267250.02196
1570267250.03758
1570267250.05321
1570267250.06883
1570267250.08446
1570267250.10009
1570267250.11571
1570267250.13134
1570267250.14696
1570267250.16259
1570267250.17821
1570267250.19384
1570267250.20947
1570267250.22509
1570267250.24072
1570267250.25634
1570267250.27197
1570267250.28759
1570267250.30322
1570267250.31885
1570267250.33447
1570267250.3501
1570267250.36572
1570267250.38135
1570267250.39697
1570267250.4126
1570267250.42823
1570267250.44385
1570267250.45948
1570267250.4751
1570267250.49073
1570267250.50635
1570267250.52198
1570267250.53761
1570267250.55323
1570267250.56886
1570267250.58448
1570267250.60011
1570267250.61573
1570267250.63136
1570267250.64699
1570267250.66261
1570267250.67824
1570267250.69386
1570267250.70949
1570267250.72511
1570267250.74074
1570267250.75637
1570267250.77199
1570267250.78762
1570267250.80324
1570267250.81887
1570267250.8345
1570267250.85012
1570267250.86575
1570267250.88137
1570267250.897
1570267250.91262
1570267250.92825
1570267250.94388
1570267250.9595
1570267250.97513
1570267250.99075
1570267251.00638
1570267251.022
1570267251.03763
1570267251.05326
1570267251.06888
1570267251.08451
1570267251.10013
1570267251.11576
1570267251.13138
1570267251.14701
1570267251.16264
1570267251.17826
1570267251.19389
1570267251.20951
1570267251.22514
1570267251.24076
1570267251.25639
1570267251.27202
1570267251.28764
1570267251.30327
1570267251.31889
1570267251.33452
1570267251.35014
1570267251.36577
1570267251.3814
1570267251.39702
1570267251.41265
1570267251.42827
1570267251.4439
1570267251.45952
1570267251.47515
1570267251.49078
1570267251.5064
1570267251.52203
1570267251.53765
1570267251.55328
1570267251.5689
1570267251.58453
1570267251.60016
1570267251.61578
1570267251.63141
1570267251.64703
1570267251.66266
1570267251.67828
1570267251.69391
1570267251.70954
1570267251.72516
1570267251.74079
1570267251.75641
1570267251.77204
1570267251.78766
1570267251.80329
1570267251.81892
1570267251.83454
1570267251.85017
1570267251.86579
1570267251.88142
1570267251.89704
1570267251.91267
1570267251.9283
1570267251.94392
1570267251.95955
1570267251.97517
1570267251.9908
1570267252.00642
1570267252.02205
1570267252.03768
1570267252.0533
1570267252.06893
1570267252.08455
1570267252.10018
1570267252.1158
1570267252.13143
1570267252.14706
1570267252.16268
1570267252.17831
1570267252.19393
1570267252.20956
1570267252.22518
1570267252.24081
1570267252.25644
1570267252.27206
1570267252.28769
1570267252.30331
1570267252.31894
1570267252.33456
1570267252.35019
1570267252.36582
1570267252.38144
1570267252.39707
1570267252.41269
1570267252.42832
1570267252.44394
1570267252.45957
1570267252.4752
1570267252.49082
1570267252.50645
1570267252.52207
1570267252.5377
1570267252.55332
1570267252.56895
1570267252.58458
1570267252.6002
1570267252.61583
1570267252.63145
1570267252.64708
1570267252.6627
1570267252.67833
1570267252.69396
1570267252.70958
1570267252.72521
1570267252.74083
1570267252.75646
1570267252.77208
1570267252.78771
1570267252.80334
1570267252.81896
1570267252.83459
1570267252.85021
1570267252.86584
1570267252.88146
1570267252.89709
1570267252.91272
1570267252.92834
1570267252.94397
1570267252.95959
1570267252.97522
1570267252.99084
1570267253.00647
1570267253.0221
1570267253.03772
1570267253.05335
1570267253.06897
1570267253.0846
1570267253.10022
1570267253.11585
1570267253.13148
1570267253.1471
1570267253.16273
1570267253.17835
1570267253.19398
1570267253.2096
1570267253.22523
1570267253.24086
1570267253.25648
1570267253.27211
1570267253.28773
1570267253.30336
1570267253.31898
1570267253.33461
1570267253.35024
1570267253.36586
1570267253.38149
1570267253.39711
1570267253.41274
1570267253.42837
1570267253.44399
1570267253.45962
1570267253.47524
1570267253.49087
1570267253.50649
1570267253.52212
1570267253.53775
1570267253.55337
1570267253.569
1570267253.58462
1570267253.60025
1570267253.61587
1570267253.6315
1570267253.64713
1570267253.66275
1570267253.67838
1570267253.694
1570267253.70963
1570267253.72525
1570267253.74088
1570267253.75651
1570267253.77213
1570267253.78776
1570267253.80338
1570267253.81901
1570267253.83463
1570267253.85026
1570267253.86589
1570267253.88151
1570267253.89714
1570267253.91276
1570267253.92839
1570267253.94401
1570267253.95964
1570267253.97527
1570267253.99089
1570267254.00652
1570267254.02214
1570267254.03777
1570267254.05339
1570267254.06902
1570267254.08465
1570267254.10027
1570267254.1159
1570267254.13152
1570267254.14715
1570267254.16277
1570267254.1784
1570267254.19403
1570267254.20965
1570267254.22528
1570267254.2409
1570267254.25653
1570267254.27215
1570267254.28778
1570267254.30341
1570267254.31903
1570267254.33466
1570267254.35028
1570267254.36591
1570267254.38153
1570267254.39716
1570267254.41279
1570267254.42841
1570267254.44404
1570267254.45966
1570267254.47529
1570267254.49091
1570267254.50654
1570267254.52217
1570267254.53779
1570267254.55342
1570267254.56904
1570267254.58467
1570267254.60029
1570267254.61592
1570267254.63155
1570267254.64717
1570267254.6628
1570267254.67842
1570267254.69405
1570267254.70967
1570267254.7253
1570267254.74093
1570267254.75655
1570267254.77218
1570267254.7878
1570267254.80343
1570267254.81905
1570267254.83468
1570267254.85031
1570267254.86593
1570267254.88156
1570267254.89718
1570267254.91281
1570267254.92843
1570267254.94406
1570267254.95969
1570267254.97531
1570267254.99094
1570267255.00656
1570267255.02219
1570267255.03781
1570267255.05344
1570267255.06907
1570267255.08469
1570267255.10032
1570267255.11594
1570267255.13157
1570267255.14719
1570267255.16282
1570267255.17845
1570267255.19407
1570267255.2097
1570267255.22532
1570267255.24095
1570267255.25657
1570267255.2722
1570267255.28783
1570267255.30345
1570267255.31908
1570267255.3347
1570267255.35033
1570267255.36595
1570267255.38158
1570267255.39721
1570267255.41283
1570267255.42846
1570267255.44408
1570267255.45971
1570267255.47533
1570267255.49096
1570267255.50659
1570267255.52221
1570267255.53784
1570267255.55346
1570267255.56909
1570267255.58471
1570267255.60034
1570267255.61597
1570267255.63159
1570267255.64722
1570267255.66284
1570267255.67847
1570267255.6941
1570267255.70972
1570267255.72535
1570267255.74097
1570267255.7566
1570267255.77222
1570267255.78785
1570267255.80348
1570267255.8191
1570267255.83473
1570267255.85035
1570267255.86598
1570267255.8816
1570267255.89723
1570267255.91286
1570267255.92848
1570267255.94411
1570267255.95973
1570267255.97536
1570267255.99098
1570267256.00661
1570267256.02224
1570267256.03786
1570267256.05349
1570267256.06911
1570267256.08474
1570267256.10036
1570267256.11599
1570267256.13162
1570267256.14724
1570267256.16287
1570267256.17849
1570267256.19412
1570267256.20974
1570267256.22537
1570267256.241
1570267256.25662
1570267256.27225
1570267256.28787
1570267256.3035
1570267256.31912
1570267256.33475
1570267256.35038
1570267256.366
1570267256.38163
1570267256.39725
1570267256.41288
1570267256.4285
1570267256.44413
1570267256.45976
1570267256.47538
1570267256.49101
1570267256.50663
1570267256.52226
1570267256.53788
1570267256.55351
1570267256.56914
1570267256.58476
1570267256.60039
1570267256.61601
1570267256.63164
1570267256.64726
1570267256.66289
1570267256.67852
1570267256.69414
1570267256.70977
1570267256.72539
1570267256.74102
1570267256.75664
1570267256.77227
1570267256.7879
1570267256.80352
1570267256.81915
1570267256.83477
1570267256.8504
1570267256.86602
1570267256.88165
1570267256.89728
1570267256.9129
1570267256.92853
1570267256.94415
1570267256.95978
1570267256.9754
1570267256.99103
1570267257.00666
1570267257.02228
1570267257.03791
1570267257.05353
1570267257.06916
1570267257.08478
1570267257.10041
1570267257.11604
1570267257.13166
1570267257.14729
1570267257.16291
1570267257.17854
1570267257.19416
1570267257.20979
1570267257.22542
1570267257.24104
1570267257.25667
1570267257.27229
1570267257.28792
1570267257.30354
1570267257.31917
1570267257.3348
1570267257.35042
1570267257.36605
1570267257.38167
1570267257.3973
1570267257.41292
1570267257.42855
1570267257.44418
1570267257.4598
1570267257.47543
1570267257.49105
1570267257.50668
1570267257.5223
1570267257.53793
1570267257.55356
1570267257.56918
1570267257.58481
1570267257.60043
1570267257.61606
1570267257.63168
1570267257.64731
1570267257.66294
1570267257.67856
1570267257.69419
1570267257.70981
1570267257.72544
1570267257.74106
1570267257.75669
1570267257.77232
1570267257.78794
1570267257.80357
1570267257.81919
1570267257.83482
1570267257.85044
1570267257.86607
1570267257.8817
1570267257.89732
1570267257.91295
1570267257.92857
1570267257.9442
1570267257.95983
1570267257.97545
1570267257.99108
1570267258.0067
1570267258.02233
1570267258.03795
1570267258.05358
1570267258.06921
1570267258.08483
1570267258.10046
1570267258.11608
1570267258.13171
1570267258.14733
1570267258.16296
1570267258.17859
1570267258.19421
1570267258.20984
1570267258.22546
1570267258.24109
1570267258.25671
1570267258.27234
1570267258.28797
1570267258.30359
1570267258.31922
1570267258.33484
1570267258.35047
1570267258.36609
1570267258.38172
1570267258.39735
1570267258.41297
1570267258.4286
1570267258.44422
1570267258.45985
1570267258.47547
1570267258.4911
1570267258.50673
1570267258.52235
1570267258.53798
1570267258.5536
1570267258.56923
1570267258.58485
1570267258.60048
1570267258.61611
1570267258.63173
1570267258.64736
1570267258.66298
1570267258.67861
1570267258.69423
1570267258.70986
1570267258.72549
1570267258.74111
1570267258.75674
1570267258.77236
1570267258.78799
1570267258.80361
1570267258.81924
1570267258.83487
1570267258.85049
1570267258.86612
1570267258.88174
1570267258.89737
1570267258.91299
1570267258.92862
1570267258.94425
1570267258.95987
1570267258.9755
1570267258.99112
1570267259.00675
1570267259.02237
1570267259.038
1570267259.05363
1570267259.06925
1570267259.08488
1570267259.1005
1570267259.11613
1570267259.13175
1570267259.14738
1570267259.16301
1570267259.17863
1570267259.19426
1570267259.20988
1570267259.22551
1570267259.24113
1570267259.25676
1570267259.27239
1570267259.28801
1570267259.30364
1570267259.31926
1570267259.33489
1570267259.35051
1570267259.36614
1570267259.38177
1570267259.39739
1570267259.41302
1570267259.42864
1570267259.44427
1570267259.45989
1570267259.47552
1570267259.49115
1570267259.50677
1570267259.5224
1570267259.53802
1570267259.55365
1570267259.56927
1570267259.5849
1570267259.60053
1570267259.61615
1570267259.63178
1570267259.6474
1570267259.66303
1570267259.67865
1570267259.69428
1570267259.70991
1570267259.72553
1570267259.74116
1570267259.75678
1570267259.77241
1570267259.78803
1570267259.80366
1570267259.81929
1570267259.83491
1570267259.85054
1570267259.86616
1570267259.88179
1570267259.89741
1570267259.91304
1570267259.92867
1570267259.94429
1570267259.95992
1570267259.97554
1570267259.99117
1570267260.00679
1570267260.02242
1570267260.03805
1570267260.05367
1570267260.0693
1570267260.08492
1570267260.10055
1570267260.11617
1570267260.1318
1570267260.14743
1570267260.16305
1570267260.17868
1570267260.1943
1570267260.20993
1570267260.22555
1570267260.24118
1570267260.25681
1570267260.27243
1570267260.28806
1570267260.30368
1570267260.31931
1570267260.33493
1570267260.35056
1570267260.36619
1570267260.38181
1570267260.39744
1570267260.41306
1570267260.42869
1570267260.44431
1570267260.45994
1570267260.47557
1570267260.49119
1570267260.50682
1570267260.52244
1570267260.53807
1570267260.5537
1570267260.56932
1570267260.58495
1570267260.60057
1570267260.6162
1570267260.63182
1570267260.64745
1570267260.66308
1570267260.6787
1570267260.69433
1570267260.70995
1570267260.72558
1570267260.7412
1570267260.75683
1570267260.77246
1570267260.78808
1570267260.80371
1570267260.81933
1570267260.83496
1570267260.85058
1570267260.86621
1570267260.88184
1570267260.89746
1570267260.91309
1570267260.92871
1570267260.94434
1570267260.95996
1570267260.97559
1570267260.99122
1570267261.00684
1570267261.02247
1570267261.03809
1570267261.05372
1570267261.06934
1570267261.08497
1570267261.1006
1570267261.11622
1570267261.13185
1570267261.14747
1570267261.1631
1570267261.17872
1570267261.19435
1570267261.20998
1570267261.2256
1570267261.24123
1570267261.25685
1570267261.27248
1570267261.2881
1570267261.30373
1570267261.31936
1570267261.33498
1570267261.35061
1570267261.36623
1570267261.38186
1570267261.39748
1570267261.41311
1570267261.42874
1570267261.44436
1570267261.45999
1570267261.47561
1570267261.49124
1570267261.50686
1570267261.52249
1570267261.53812
1570267261.55374
1570267261.56937
1570267261.58499
1570267261.60062
1570267261.61624
1570267261.63187
1570267261.6475
1570267261.66312
1570267261.67875
1570267261.69437
1570267261.71
1570267261.72562
1570267261.74125
1570267261.75688
1570267261.7725
1570267261.78813
1570267261.80375
1570267261.81938
1570267261.835
1570267261.85063
1570267261.86626
1570267261.88188
1570267261.89751
1570267261.91313
1570267261.92876
1570267261.94438
1570267261.96001
1570267261.97564
1570267261.99126
1570267262.00689
1570267262.02251
1570267262.03814
1570267262.05376
1570267262.06939
1570267262.08502
1570267262.10064
1570267262.11627
1570267262.13189
1570267262.14752
1570267262.16314
1570267262.17877
1570267262.1944
1570267262.21002
1570267262.22565
1570267262.24127
1570267262.2569
1570267262.27252
1570267262.28815
1570267262.30378
1570267262.3194
1570267262.33503
1570267262.35065
1570267262.36628
1570267262.3819
1570267262.39753
1570267262.41316
1570267262.42878
1570267262.44441
1570267262.46003
1570267262.47566
1570267262.49128
1570267262.50691
1570267262.52254
1570267262.53816
1570267262.55379
1570267262.56941
1570267262.58504
1570267262.60066
1570267262.61629
1570267262.63192
1570267262.64754
1570267262.66317
1570267262.67879
1570267262.69442
1570267262.71004
1570267262.72567
1570267262.7413
1570267262.75692
1570267262.77255
1570267262.78817
1570267262.8038
1570267262.81943
1570267262.83505
1570267262.85068
1570267262.8663
1570267262.88193
1570267262.89755
1570267262.91318
1570267262.92881
1570267262.94443
1570267262.96006
1570267262.97568
1570267262.99131
1570267263.00693
1570267263.02256
1570267263.03819
1570267263.05381
1570267263.06944
1570267263.08506
1570267263.10069
1570267263.11631
1570267263.13194
1570267263.14757
1570267263.16319
1570267263.17882
1570267263.19444
1570267263.21007
1570267263.22569
1570267263.24132
1570267263.25695
1570267263.27257
1570267263.2882
1570267263.30382
1570267263.31945
1570267263.33507
1570267263.3507
1570267263.36633
1570267263.38195
1570267263.39758
1570267263.4132
1570267263.42883
1570267263.44445
1570267263.46008
1570267263.47571
1570267263.49133
1570267263.50696
1570267263.52258
1570267263.53821
1570267263.55383
1570267263.56946
1570267263.58509
1570267263.60071
1570267263.61634
1570267263.63196
1570267263.64759
1570267263.66321
1570267263.67884
1570267263.69447
1570267263.71009
1570267263.72572
1570267263.74134
1570267263.75697
1570267263.77259
1570267263.78822
1570267263.80385
1570267263.81947
1570267263.8351
1570267263.85072
1570267263.86635
1570267263.88197
1570267263.8976
1570267263.91323
1570267263.92885
1570267263.94448
1570267263.9601
1570267263.97573
1570267263.99135
1570267264.00698
1570267264.02261
1570267264.03823
1570267264.05386
1570267264.06948
1570267264.08511
1570267264.10073
1570267264.11636
1570267264.13199
1570267264.14761
1570267264.16324
1570267264.17886
1570267264.19449
1570267264.21011
1570267264.22574
1570267264.24137
1570267264.25699
1570267264.27262
1570267264.28824
1570267264.30387
1570267264.31949
1570267264.33512
1570267264.35075
1570267264.36637
1570267264.382
1570267264.39762
1570267264.41325
1570267264.42887
1570267264.4445
1570267264.46013
1570267264.47575
1570267264.49138
1570267264.507
1570267264.52263
1570267264.53825
1570267264.55388
1570267264.56951
1570267264.58513
1570267264.60076
1570267264.61638
1570267264.63201
1570267264.64763
1570267264.66326
1570267264.67889
1570267264.69451
1570267264.71014
1570267264.72576
1570267264.74139
1570267264.75701
1570267264.77264
1570267264.78827
1570267264.80389
1570267264.81952
1570267264.83514
1570267264.85077
1570267264.86639
1570267264.88202
1570267264.89765
1570267264.91327
1570267264.9289
1570267264.94452
1570267264.96015
1570267264.97578
1570267264.9914
1570267265.00703
1570267265.02265
1570267265.03828
1570267265.0539
1570267265.06953
1570267265.08516
1570267265.10078
1570267265.11641
1570267265.13203
1570267265.14766
1570267265.16328
1570267265.17891
1570267265.19454
1570267265.21016
1570267265.22579
1570267265.24141
1570267265.25704
1570267265.27266
1570267265.28829
1570267265.30392
1570267265.31954
1570267265.33517
1570267265.35079
1570267265.36642
1570267265.38204
1570267265.39767
1570267265.4133
1570267265.42892
1570267265.44455
1570267265.46017
1570267265.4758
1570267265.49142
1570267265.50705
1570267265.52268
1570267265.5383
1570267265.55393
1570267265.56955
1570267265.58518
1570267265.6008
1570267265.61643
1570267265.63206
1570267265.64768
1570267265.66331
1570267265.67893
1570267265.69456
1570267265.71018
1570267265.72581
1570267265.74144
1570267265.75706
1570267265.77269
1570267265.78831
1570267265.80394
1570267265.81956
1570267265.83519
1570267265.85082
1570267265.86644
1570267265.88207
1570267265.89769
1570267265.91332
1570267265.92894
1570267265.94457
1570267265.9602
1570267265.97582
1570267265.99145
1570267266.00707
1570267266.0227
1570267266.03832
1570267266.05395
1570267266.06958
1570267266.0852
1570267266.10083
1570267266.11645
1570267266.13208
1570267266.1477
1570267266.16333
1570267266.17896
1570267266.19458
1570267266.21021
1570267266.22583
1570267266.24146
1570267266.25708
1570267266.27271
1570267266.28834
1570267266.30396
1570267266.31959
1570267266.33521
1570267266.35084
1570267266.36646
1570267266.38209
1570267266.39772
1570267266.41334
1570267266.42897
1570267266.44459
1570267266.46022
1570267266.47584
1570267266.49147
1570267266.5071
1570267266.52272
1570267266.53835
1570267266.55397
1570267266.5696
1570267266.58522
1570267266.60085
1570267266.61648
1570267266.6321
1570267266.64773
1570267266.66335
1570267266.67898
1570267266.6946
1570267266.71023
1570267266.72586
1570267266.74148
1570267266.75711
1570267266.77273
1570267266.78836
1570267266.80398
1570267266.81961
1570267266.83524
1570267266.85086
1570267266.86649
1570267266.88211
1570267266.89774
1570267266.91336
1570267266.92899
1570267266.94462
1570267266.96024
1570267266.97587
1570267266.99149
1570267267.00712
1570267267.02274
1570267267.03837
1570267267.054
1570267267.06962
1570267267.08525
1570267267.10087
1570267267.1165
1570267267.13212
1570267267.14775
1570267267.16338
1570267267.179
1570267267.19463
1570267267.21025
1570267267.22588
1570267267.2415
1570267267.25713
1570267267.27276
1570267267.28838
1570267267.30401
1570267267.31963
1570267267.33526
1570267267.35088
1570267267.36651
1570267267.38214
1570267267.39776
1570267267.41339
1570267267.42901
1570267267.44464
1570267267.46026
1570267267.47589
1570267267.49152
1570267267.50714
1570267267.52277
1570267267.53839
1570267267.55402
1570267267.56964
1570267267.58527
1570267267.6009
1570267267.61652
1570267267.63215
1570267267.64777
1570267267.6634
1570267267.67903
1570267267.69465
1570267267.71028
1570267267.7259
1570267267.74153
1570267267.75715
1570267267.77278
1570267267.78841
1570267267.80403
1570267267.81966
1570267267.83528
1570267267.85091
1570267267.86653
1570267267.88216
1570267267.89779
1570267267.91341
1570267267.92904
1570267267.94466
1570267267.96029
1570267267.97591
1570267267.99154
1570267268.00717
1570267268.02279
1570267268.03842
1570267268.05404
1570267268.06967
1570267268.08529
1570267268.10092
1570267268.11655
1570267268.13217
1570267268.1478
1570267268.16342
1570267268.17905
1570267268.19467
1570267268.2103
1570267268.22593
1570267268.24155
1570267268.25718
1570267268.2728
1570267268.28843
1570267268.30405
1570267268.31968
1570267268.33531
1570267268.35093
1570267268.36656
1570267268.38218
1570267268.39781
1570267268.41343
1570267268.42906
1570267268.44469
1570267268.46031
1570267268.47594
1570267268.49156
1570267268.50719
1570267268.52281
1570267268.53844
1570267268.55407
1570267268.56969
1570267268.58532
1570267268.60094
1570267268.61657
1570267268.63219
1570267268.64782
1570267268.66345
1570267268.67907
1570267268.6947
1570267268.71032
1570267268.72595
1570267268.74157
1570267268.7572
1570267268.77283
1570267268.78845
1570267268.80408
1570267268.8197
1570267268.83533
1570267268.85095
1570267268.86658
1570267268.88221
1570267268.89783
1570267268.91346
1570267268.92908
1570267268.94471
1570267268.96033
1570267268.97596
1570267268.99159
1570267269.00721
1570267269.02284
1570267269.03846
1570267269.05409
1570267269.06971
1570267269.08534
1570267269.10097
1570267269.11659
1570267269.13222
1570267269.14784
1570267269.16347
1570267269.17909
1570267269.19472
1570267269.21035
1570267269.22597
1570267269.2416
1570267269.25722
1570267269.27285
1570267269.28847
1570267269.3041
1570267269.31973
1570267269.33535
1570267269.35098
1570267269.3666
1570267269.38223
1570267269.39785
1570267269.41348
1570267269.42911
1570267269.44473
1570267269.46036
1570267269.47598
1570267269.49161
1570267269.50723
1570267269.52286
1570267269.53849
1570267269.55411
1570267269.56974
1570267269.58536
1570267269.60099
1570267269.61661
1570267269.63224
1570267269.64787
1570267269.66349
1570267269.67912
1570267269.69474
1570267269.71037
1570267269.72599
1570267269.74162
1570267269.75725
1570267269.77287
1570267269.7885
1570267269.80412
1570267269.81975
1570267269.83538
1570267269.851
1570267269.86663
1570267269.88225
1570267269.89788
1570267269.9135
1570267269.92913
1570267269.94476
1570267269.96038
1570267269.97601
1570267269.99163
1570267270.00726
1570267270.02288
1570267270.03851
1570267270.05414
1570267270.06976
1570267270.08539
1570267270.10101
1570267270.11664
1570267270.13226
1570267270.14789
1570267270.16352
1570267270.17914
1570267270.19477
1570267270.21039
1570267270.22602
1570267270.24164
1570267270.25727
1570267270.2729
1570267270.28852
1570267270.30415
1570267270.31977
1570267270.3354
1570267270.35102
1570267270.36665
1570267270.38228
1570267270.3979
1570267270.41353
1570267270.42915
1570267270.44478
1570267270.4604
1570267270.47603
1570267270.49166
1570267270.50728
1570267270.52291
1570267270.53853
1570267270.55416
1570267270.56978
1570267270.58541
1570267270.60104
1570267270.61666
1570267270.63229
1570267270.64791
1570267270.66354
1570267270.67916
1570267270.69479
1570267270.71042
1570267270.72604
1570267270.74167
1570267270.75729
1570267270.77292
1570267270.78854
1570267270.80417
1570267270.8198
1570267270.83542
1570267270.85105
1570267270.86667
1570267270.8823
1570267270.89792
1570267270.91355
1570267270.92918
1570267270.9448
1570267270.96043
1570267270.97605
1570267270.99168
1570267271.0073
1570267271.02293
1570267271.03856
1570267271.05418
1570267271.06981
1570267271.08543
1570267271.10106
1570267271.11668
1570267271.13231
1570267271.14794
1570267271.16356
1570267271.17919
1570267271.19481
1570267271.21044
1570267271.22606
1570267271.24169
1570267271.25732
1570267271.27294
