1567678527.46021
1567678527.47584
1567678527.49146
1567678527.50709
1567678527.52272
1567678527.53834
1567678527.55397
1567678527.56959
1567678527.58522
1567678527.60084
1567678527.61647
1567678527.6321
1567678527.64772
1567678527.66335
1567678527.67897
1567678527.6946
1567678527.71022
1567678527.72585
1567678527.74148
1567678527.7571
1567678527.77273
1567678527.78835
1567678527.80398
1567678527.8196
1567678527.83523
1567678527.85086
1567678527.86648
1567678527.88211
1567678527.89773
1567678527.91336
1567678527.92898
1567678527.94461
1567678527.96024
1567678527.97586
1567678527.99149
1567678528.00711
1567678528.02274
1567678528.03836
1567678528.05399
1567678528.06962
1567678528.08524
1567678528.10087
1567678528.11649
1567678528.13212
1567678528.14774
1567678528.16337
1567678528.179
1567678528.19462
1567678528.21025
1567678528.22587
1567678528.2415
1567678528.25712
1567678528.27275
1567678528.28838
1567678528.304
1567678528.31963
1567678528.33525
1567678528.35088
1567678528.3665
1567678528.38213
1567678528.39776
1567678528.41338
1567678528.42901
1567678528.44463
1567678528.46026
1567678528.47588
1567678528.49151
1567678528.50714
1567678528.52276
1567678528.53839
1567678528.55401
1567678528.56964
1567678528.58526
1567678528.60089
1567678528.61652
1567678528.63214
1567678528.64777
1567678528.66339
1567678528.67902
1567678528.69464
1567678528.71027
1567678528.7259
1567678528.74152
1567678528.75715
1567678528.77277
1567678528.7884
1567678528.80403
1567678528.81965
1567678528.83528
1567678528.8509
1567678528.86653
1567678528.88215
1567678528.89778
1567678528.91341
1567678528.92903
1567678528.94466
1567678528.96028
1567678528.97591
1567678528.99153
1567678529.00716
1567678529.02279
1567678529.03841
1567678529.05404
1567678529.06966
1567678529.08529
1567678529.10091
1567678529.11654
1567678529.13217
1567678529.14779
1567678529.16342
1567678529.17904
1567678529.19467
1567678529.21029
1567678529.22592
1567678529.24155
1567678529.25717
1567678529.2728
1567678529.28842
1567678529.30405
1567678529.31967
1567678529.3353
1567678529.35093
1567678529.36655
1567678529.38218
1567678529.3978
1567678529.41343
1567678529.42905
1567678529.44468
1567678529.46031
1567678529.47593
1567678529.49156
1567678529.50718
1567678529.52281
1567678529.53843
1567678529.55406
1567678529.56969
1567678529.58531
1567678529.60094
1567678529.61656
1567678529.63219
1567678529.64781
1567678529.66344
1567678529.67907
1567678529.69469
1567678529.71032
1567678529.72594
1567678529.74157
1567678529.75719
1567678529.77282
1567678529.78845
1567678529.80407
1567678529.8197
1567678529.83532
1567678529.85095
1567678529.86657
1567678529.8822
1567678529.89783
1567678529.91345
1567678529.92908
1567678529.9447
1567678529.96033
1567678529.97595
1567678529.99158
1567678530.00721
1567678530.02283
1567678530.03846
1567678530.05408
1567678530.06971
1567678530.08533
1567678530.10096
1567678530.11659
1567678530.13221
1567678530.14784
1567678530.16346
1567678530.17909
1567678530.19471
1567678530.21034
1567678530.22597
1567678530.24159
1567678530.25722
1567678530.27284
1567678530.28847
1567678530.30409
1567678530.31972
1567678530.33535
1567678530.35097
1567678530.3666
1567678530.38222
1567678530.39785
1567678530.41347
1567678530.4291
1567678530.44473
1567678530.46035
1567678530.47598
1567678530.4916
1567678530.50723
1567678530.52285
1567678530.53848
1567678530.55411
1567678530.56973
1567678530.58536
1567678530.60098
1567678530.61661
1567678530.63223
1567678530.64786
1567678530.66349
1567678530.67911
1567678530.69474
1567678530.71036
1567678530.72599
1567678530.74161
1567678530.75724
1567678530.77287
1567678530.78849
1567678530.80412
1567678530.81974
1567678530.83537
1567678530.85099
1567678530.86662
1567678530.88225
1567678530.89787
1567678530.9135
1567678530.92912
1567678530.94475
1567678530.96037
1567678530.976
1567678530.99163
1567678531.00725
1567678531.02288
1567678531.0385
1567678531.05413
1567678531.06976
1567678531.08538
1567678531.10101
1567678531.11663
1567678531.13226
1567678531.14788
1567678531.16351
1567678531.17914
1567678531.19476
1567678531.21039
1567678531.22601
1567678531.24164
1567678531.25726
1567678531.27289
1567678531.28852
1567678531.30414
1567678531.31977
1567678531.33539
1567678531.35102
1567678531.36664
1567678531.38227
1567678531.3979
1567678531.41352
1567678531.42915
1567678531.44477
1567678531.4604
1567678531.47602
1567678531.49165
1567678531.50728
1567678531.5229
1567678531.53853
1567678531.55415
1567678531.56978
1567678531.5854
1567678531.60103
1567678531.61666
1567678531.63228
1567678531.64791
1567678531.66353
1567678531.67916
1567678531.69478
1567678531.71041
1567678531.72604
1567678531.74166
1567678531.75729
1567678531.77291
1567678531.78854
1567678531.80416
1567678531.81979
1567678531.83542
1567678531.85104
1567678531.86667
1567678531.88229
1567678531.89792
1567678531.91354
1567678531.92917
1567678531.9448
1567678531.96042
1567678531.97605
1567678531.99167
1567678532.0073
1567678532.02292
1567678532.03855
1567678532.05418
1567678532.0698
1567678532.08543
1567678532.10105
1567678532.11668
1567678532.1323
1567678532.14793
1567678532.16356
1567678532.17918
1567678532.19481
1567678532.21043
1567678532.22606
1567678532.24168
1567678532.25731
1567678532.27294
1567678532.28856
1567678532.30419
1567678532.31981
1567678532.33544
1567678532.35106
1567678532.36669
1567678532.38232
1567678532.39794
1567678532.41357
1567678532.42919
1567678532.44482
1567678532.46044
1567678532.47607
1567678532.4917
1567678532.50732
1567678532.52295
1567678532.53857
1567678532.5542
1567678532.56982
1567678532.58545
1567678532.60108
1567678532.6167
1567678532.63233
1567678532.64795
1567678532.66358
1567678532.6792
1567678532.69483
1567678532.71046
1567678532.72608
1567678532.74171
1567678532.75733
1567678532.77296
1567678532.78858
1567678532.80421
1567678532.81984
1567678532.83546
1567678532.85109
1567678532.86671
1567678532.88234
1567678532.89796
1567678532.91359
1567678532.92922
1567678532.94484
1567678532.96047
1567678532.97609
1567678532.99172
1567678533.00734
1567678533.02297
1567678533.0386
1567678533.05422
1567678533.06985
1567678533.08547
1567678533.1011
1567678533.11672
1567678533.13235
1567678533.14798
1567678533.1636
1567678533.17923
1567678533.19485
1567678533.21048
1567678533.2261
1567678533.24173
1567678533.25736
1567678533.27298
1567678533.28861
1567678533.30423
1567678533.31986
1567678533.33548
1567678533.35111
1567678533.36674
1567678533.38236
1567678533.39799
1567678533.41361
1567678533.42924
1567678533.44486
1567678533.46049
1567678533.47612
1567678533.49174
1567678533.50737
1567678533.52299
1567678533.53862
1567678533.55425
1567678533.56987
1567678533.5855
1567678533.60112
1567678533.61675
1567678533.63237
1567678533.648
1567678533.66363
1567678533.67925
1567678533.69488
1567678533.7105
1567678533.72613
1567678533.74175
1567678533.75738
1567678533.77301
1567678533.78863
1567678533.80426
1567678533.81988
1567678533.83551
1567678533.85113
1567678533.86676
1567678533.88239
1567678533.89801
1567678533.91364
1567678533.92926
1567678533.94489
1567678533.96051
1567678533.97614
1567678533.99177
1567678534.00739
1567678534.02302
1567678534.03864
1567678534.05427
1567678534.06989
1567678534.08552
1567678534.10115
1567678534.11677
1567678534.1324
1567678534.14802
1567678534.16365
1567678534.17927
1567678534.1949
1567678534.21053
1567678534.22615
1567678534.24178
1567678534.2574
1567678534.27303
1567678534.28865
1567678534.30428
1567678534.31991
1567678534.33553
1567678534.35116
1567678534.36678
1567678534.38241
1567678534.39803
1567678534.41366
1567678534.42929
1567678534.44491
1567678534.46054
1567678534.47616
1567678534.49179
1567678534.50741
1567678534.52304
1567678534.53867
1567678534.55429
1567678534.56992
1567678534.58554
1567678534.60117
1567678534.61679
1567678534.63242
1567678534.64805
1567678534.66367
1567678534.6793
1567678534.69492
1567678534.71055
1567678534.72617
1567678534.7418
1567678534.75743
1567678534.77305
1567678534.78868
1567678534.8043
1567678534.81993
1567678534.83555
1567678534.85118
1567678534.86681
1567678534.88243
1567678534.89806
1567678534.91368
1567678534.92931
1567678534.94493
1567678534.96056
1567678534.97619
1567678534.99181
1567678535.00744
1567678535.02306
1567678535.03869
1567678535.05431
1567678535.06994
1567678535.08557
1567678535.10119
1567678535.11682
1567678535.13244
1567678535.14807
1567678535.16369
1567678535.17932
1567678535.19495
1567678535.21057
1567678535.2262
1567678535.24182
1567678535.25745
1567678535.27307
1567678535.2887
1567678535.30433
1567678535.31995
1567678535.33558
1567678535.3512
1567678535.36683
1567678535.38245
1567678535.39808
1567678535.41371
1567678535.42933
1567678535.44496
1567678535.46058
1567678535.47621
1567678535.49183
1567678535.50746
1567678535.52309
1567678535.53871
1567678535.55434
1567678535.56996
1567678535.58559
1567678535.60121
1567678535.61684
1567678535.63247
1567678535.64809
1567678535.66372
1567678535.67934
1567678535.69497
1567678535.71059
1567678535.72622
1567678535.74185
1567678535.75747
1567678535.7731
1567678535.78872
1567678535.80435
1567678535.81997
1567678535.8356
1567678535.85123
1567678535.86685
1567678535.88248
1567678535.8981
1567678535.91373
1567678535.92936
1567678535.94498
1567678535.96061
1567678535.97623
1567678535.99186
1567678536.00748
1567678536.02311
1567678536.03874
1567678536.05436
1567678536.06999
1567678536.08561
1567678536.10124
1567678536.11686
1567678536.13249
1567678536.14812
1567678536.16374
1567678536.17937
1567678536.19499
1567678536.21062
1567678536.22624
1567678536.24187
1567678536.2575
1567678536.27312
1567678536.28875
1567678536.30437
1567678536.32
1567678536.33562
1567678536.35125
1567678536.36688
1567678536.3825
1567678536.39813
1567678536.41375
1567678536.42938
1567678536.445
1567678536.46063
1567678536.47626
1567678536.49188
1567678536.50751
1567678536.52313
1567678536.53876
1567678536.55438
1567678536.57001
1567678536.58564
1567678536.60126
1567678536.61689
1567678536.63251
1567678536.64814
1567678536.66376
1567678536.67939
1567678536.69502
1567678536.71064
1567678536.72627
1567678536.74189
1567678536.75752
1567678536.77314
1567678536.78877
1567678536.8044
1567678536.82002
1567678536.83565
1567678536.85127
1567678536.8669
1567678536.88252
1567678536.89815
1567678536.91378
1567678536.9294
1567678536.94503
1567678536.96065
1567678536.97628
1567678536.9919
1567678537.00753
1567678537.02316
1567678537.03878
1567678537.05441
1567678537.07003
1567678537.08566
1567678537.10128
1567678537.11691
1567678537.13254
1567678537.14816
1567678537.16379
1567678537.17941
1567678537.19504
1567678537.21066
1567678537.22629
1567678537.24192
1567678537.25754
1567678537.27317
1567678537.28879
1567678537.30442
1567678537.32004
1567678537.33567
1567678537.3513
1567678537.36692
1567678537.38255
1567678537.39817
1567678537.4138
1567678537.42942
1567678537.44505
1567678537.46068
1567678537.4763
1567678537.49193
1567678537.50755
1567678537.52318
1567678537.5388
1567678537.55443
1567678537.57006
1567678537.58568
1567678537.60131
1567678537.61693
1567678537.63256
1567678537.64818
1567678537.66381
1567678537.67944
1567678537.69506
1567678537.71069
1567678537.72631
1567678537.74194
1567678537.75756
1567678537.77319
1567678537.78882
1567678537.80444
1567678537.82007
1567678537.83569
1567678537.85132
1567678537.86694
1567678537.88257
1567678537.8982
1567678537.91382
1567678537.92945
1567678537.94507
1567678537.9607
1567678537.97632
1567678537.99195
1567678538.00758
1567678538.0232
1567678538.03883
1567678538.05445
1567678538.07008
1567678538.0857
1567678538.10133
1567678538.11696
1567678538.13258
1567678538.14821
1567678538.16383
1567678538.17946
1567678538.19509
1567678538.21071
1567678538.22634
1567678538.24196
1567678538.25759
1567678538.27321
1567678538.28884
1567678538.30447
1567678538.32009
1567678538.33572
1567678538.35134
1567678538.36697
1567678538.38259
1567678538.39822
1567678538.41385
1567678538.42947
1567678538.4451
1567678538.46072
1567678538.47635
1567678538.49197
1567678538.5076
1567678538.52323
1567678538.53885
1567678538.55448
1567678538.5701
1567678538.58573
1567678538.60135
1567678538.61698
1567678538.63261
1567678538.64823
1567678538.66386
1567678538.67948
1567678538.69511
1567678538.71073
1567678538.72636
1567678538.74199
1567678538.75761
1567678538.77324
1567678538.78886
1567678538.80449
1567678538.82011
1567678538.83574
1567678538.85137
1567678538.86699
1567678538.88262
1567678538.89824
1567678538.91387
1567678538.92949
1567678538.94512
1567678538.96075
1567678538.97637
1567678538.992
1567678539.00762
1567678539.02325
1567678539.03887
1567678539.0545
1567678539.07013
1567678539.08575
1567678539.10138
1567678539.117
1567678539.13263
1567678539.14825
1567678539.16388
1567678539.17951
1567678539.19513
1567678539.21076
1567678539.22638
1567678539.24201
1567678539.25763
1567678539.27326
1567678539.28889
1567678539.30451
1567678539.32014
1567678539.33576
1567678539.35139
1567678539.36701
1567678539.38264
1567678539.39827
1567678539.41389
1567678539.42952
1567678539.44514
1567678539.46077
1567678539.47639
1567678539.49202
1567678539.50765
1567678539.52327
1567678539.5389
1567678539.55452
1567678539.57015
1567678539.58577
1567678539.6014
1567678539.61703
1567678539.63265
1567678539.64828
1567678539.6639
1567678539.67953
1567678539.69515
1567678539.71078
1567678539.72641
1567678539.74203
1567678539.75766
1567678539.77328
1567678539.78891
1567678539.80453
1567678539.82016
1567678539.83579
1567678539.85141
1567678539.86704
1567678539.88266
1567678539.89829
1567678539.91391
1567678539.92954
1567678539.94517
1567678539.96079
1567678539.97642
1567678539.99204
1567678540.00767
1567678540.02329
1567678540.03892
1567678540.05455
1567678540.07017
1567678540.0858
1567678540.10142
1567678540.11705
1567678540.13267
1567678540.1483
1567678540.16393
1567678540.17955
1567678540.19518
1567678540.2108
1567678540.22643
1567678540.24205
1567678540.25768
1567678540.27331
1567678540.28893
1567678540.30456
1567678540.32018
1567678540.33581
1567678540.35143
1567678540.36706
1567678540.38269
1567678540.39831
1567678540.41394
1567678540.42956
1567678540.44519
1567678540.46081
1567678540.47644
1567678540.49207
1567678540.50769
1567678540.52332
1567678540.53894
1567678540.55457
1567678540.57019
1567678540.58582
1567678540.60145
1567678540.61707
1567678540.6327
1567678540.64832
1567678540.66395
1567678540.67957
1567678540.6952
1567678540.71083
1567678540.72645
1567678540.74208
1567678540.7577
1567678540.77333
1567678540.78896
1567678540.80458
1567678540.82021
1567678540.83583
1567678540.85146
1567678540.86708
1567678540.88271
1567678540.89834
1567678540.91396
1567678540.92959
1567678540.94521
1567678540.96084
1567678540.97646
1567678540.99209
1567678541.00772
1567678541.02334
1567678541.03897
1567678541.05459
1567678541.07022
1567678541.08584
1567678541.10147
1567678541.1171
1567678541.13272
1567678541.14835
1567678541.16397
1567678541.1796
1567678541.19522
1567678541.21085
1567678541.22648
1567678541.2421
1567678541.25773
1567678541.27335
1567678541.28898
1567678541.3046
1567678541.32023
1567678541.33586
1567678541.35148
1567678541.36711
1567678541.38273
1567678541.39836
1567678541.41398
1567678541.42961
1567678541.44524
1567678541.46086
1567678541.47649
1567678541.49211
1567678541.50774
1567678541.52336
1567678541.53899
1567678541.55462
1567678541.57024
1567678541.58587
1567678541.60149
1567678541.61712
1567678541.63274
1567678541.64837
1567678541.664
1567678541.67962
1567678541.69525
1567678541.71087
1567678541.7265
1567678541.74212
1567678541.75775
1567678541.77338
1567678541.789
1567678541.80463
1567678541.82025
1567678541.83588
1567678541.8515
1567678541.86713
1567678541.88276
1567678541.89838
1567678541.91401
1567678541.92963
1567678541.94526
1567678541.96088
1567678541.97651
1567678541.99214
1567678542.00776
1567678542.02339
1567678542.03901
1567678542.05464
1567678542.07026
1567678542.08589
1567678542.10152
1567678542.11714
1567678542.13277
1567678542.14839
1567678542.16402
1567678542.17964
1567678542.19527
1567678542.2109
1567678542.22652
1567678542.24215
1567678542.25777
1567678542.2734
1567678542.28902
1567678542.30465
1567678542.32028
1567678542.3359
1567678542.35153
1567678542.36715
1567678542.38278
1567678542.3984
1567678542.41403
1567678542.42966
1567678542.44528
1567678542.46091
1567678542.47653
1567678542.49216
1567678542.50778
1567678542.52341
1567678542.53904
1567678542.55466
1567678542.57029
1567678542.58591
1567678542.60154
1567678542.61716
1567678542.63279
1567678542.64842
1567678542.66404
1567678542.67967
1567678542.69529
1567678542.71092
1567678542.72654
1567678542.74217
1567678542.7578
1567678542.77342
1567678542.78905
1567678542.80467
1567678542.8203
1567678542.83592
1567678542.85155
1567678542.86718
1567678542.8828
1567678542.89843
1567678542.91405
1567678542.92968
1567678542.9453
1567678542.96093
1567678542.97656
1567678542.99218
1567678543.00781
1567678543.02343
1567678543.03906
1567678543.05469
1567678543.07031
1567678543.08594
1567678543.10156
1567678543.11719
1567678543.13281
1567678543.14844
1567678543.16407
1567678543.17969
1567678543.19532
1567678543.21094
1567678543.22657
1567678543.24219
1567678543.25782
1567678543.27345
1567678543.28907
1567678543.3047
1567678543.32032
1567678543.33595
1567678543.35157
1567678543.3672
1567678543.38283
1567678543.39845
1567678543.41408
1567678543.4297
1567678543.44533
1567678543.46095
1567678543.47658
1567678543.49221
1567678543.50783
1567678543.52346
1567678543.53908
1567678543.55471
1567678543.57033
1567678543.58596
1567678543.60159
1567678543.61721
1567678543.63284
1567678543.64846
1567678543.66409
1567678543.67971
1567678543.69534
1567678543.71097
1567678543.72659
1567678543.74222
1567678543.75784
1567678543.77347
1567678543.78909
1567678543.80472
1567678543.82035
1567678543.83597
1567678543.8516
1567678543.86722
1567678543.88285
1567678543.89847
1567678543.9141
1567678543.92973
1567678543.94535
1567678543.96098
1567678543.9766
1567678543.99223
1567678544.00785
1567678544.02348
1567678544.03911
1567678544.05473
1567678544.07036
1567678544.08598
1567678544.10161
1567678544.11723
1567678544.13286
1567678544.14849
1567678544.16411
1567678544.17974
1567678544.19536
1567678544.21099
1567678544.22661
1567678544.24224
1567678544.25787
1567678544.27349
1567678544.28912
1567678544.30474
1567678544.32037
1567678544.33599
1567678544.35162
1567678544.36725
1567678544.38287
1567678544.3985
1567678544.41412
1567678544.42975
1567678544.44537
1567678544.461
1567678544.47663
1567678544.49225
1567678544.50788
1567678544.5235
1567678544.53913
1567678544.55475
1567678544.57038
1567678544.58601
1567678544.60163
1567678544.61726
1567678544.63288
1567678544.64851
1567678544.66413
1567678544.67976
1567678544.69539
1567678544.71101
1567678544.72664
1567678544.74226
1567678544.75789
1567678544.77351
1567678544.78914
1567678544.80477
1567678544.82039
1567678544.83602
1567678544.85164
1567678544.86727
1567678544.88289
1567678544.89852
1567678544.91415
1567678544.92977
1567678544.9454
1567678544.96102
1567678544.97665
1567678544.99227
1567678545.0079
1567678545.02353
1567678545.03915
1567678545.05478
1567678545.0704
1567678545.08603
1567678545.10165
1567678545.11728
1567678545.13291
1567678545.14853
1567678545.16416
1567678545.17978
1567678545.19541
1567678545.21104
1567678545.22666
1567678545.24229
1567678545.25791
1567678545.27354
1567678545.28916
1567678545.30479
1567678545.32042
1567678545.33604
1567678545.35167
1567678545.36729
1567678545.38292
1567678545.39854
1567678545.41417
1567678545.4298
1567678545.44542
1567678545.46105
1567678545.47667
1567678545.4923
1567678545.50792
1567678545.52355
1567678545.53918
1567678545.5548
1567678545.57043
1567678545.58605
1567678545.60168
1567678545.6173
1567678545.63293
1567678545.64856
1567678545.66418
1567678545.67981
1567678545.69543
1567678545.71106
1567678545.72668
1567678545.74231
1567678545.75794
1567678545.77356
1567678545.78919
1567678545.80481
1567678545.82044
1567678545.83606
1567678545.85169
1567678545.86732
1567678545.88294
1567678545.89857
1567678545.91419
1567678545.92982
1567678545.94544
1567678545.96107
1567678545.9767
1567678545.99232
1567678546.00795
1567678546.02357
1567678546.0392
1567678546.05482
1567678546.07045
1567678546.08608
1567678546.1017
1567678546.11733
1567678546.13295
1567678546.14858
1567678546.1642
1567678546.17983
1567678546.19546
1567678546.21108
1567678546.22671
1567678546.24233
1567678546.25796
1567678546.27358
1567678546.28921
1567678546.30484
1567678546.32046
1567678546.33609
1567678546.35171
1567678546.36734
1567678546.38296
1567678546.39859
1567678546.41422
1567678546.42984
1567678546.44547
1567678546.46109
1567678546.47672
1567678546.49234
1567678546.50797
1567678546.5236
1567678546.53922
1567678546.55485
1567678546.57047
1567678546.5861
1567678546.60172
1567678546.61735
1567678546.63298
1567678546.6486
1567678546.66423
1567678546.67985
1567678546.69548
1567678546.7111
1567678546.72673
1567678546.74236
1567678546.75798
1567678546.77361
1567678546.78923
1567678546.80486
1567678546.82048
1567678546.83611
1567678546.85174
1567678546.86736
1567678546.88299
1567678546.89861
1567678546.91424
1567678546.92986
1567678546.94549
1567678546.96112
1567678546.97674
1567678546.99237
1567678547.00799
1567678547.02362
1567678547.03924
1567678547.05487
1567678547.0705
1567678547.08612
1567678547.10175
1567678547.11737
1567678547.133
1567678547.14862
1567678547.16425
1567678547.17988
1567678547.1955
1567678547.21113
1567678547.22675
1567678547.24238
1567678547.258
1567678547.27363
1567678547.28926
1567678547.30488
1567678547.32051
1567678547.33613
1567678547.35176
1567678547.36738
1567678547.38301
1567678547.39864
1567678547.41426
1567678547.42989
1567678547.44551
1567678547.46114
1567678547.47676
1567678547.49239
1567678547.50802
1567678547.52364
1567678547.53927
1567678547.55489
1567678547.57052
1567678547.58614
1567678547.60177
1567678547.6174
1567678547.63302
1567678547.64865
1567678547.66427
1567678547.6799
1567678547.69552
1567678547.71115
1567678547.72678
1567678547.7424
1567678547.75803
1567678547.77365
1567678547.78928
1567678547.8049
1567678547.82053
1567678547.83616
1567678547.85178
1567678547.86741
1567678547.88303
1567678547.89866
1567678547.91429
1567678547.92991
1567678547.94554
1567678547.96116
1567678547.97679
1567678547.99241
1567678548.00804
1567678548.02367
1567678548.03929
1567678548.05492
1567678548.07054
1567678548.08617
1567678548.10179
1567678548.11742
1567678548.13305
1567678548.14867
1567678548.1643
1567678548.17992
1567678548.19555
1567678548.21117
1567678548.2268
1567678548.24243
1567678548.25805
1567678548.27368
1567678548.2893
1567678548.30493
1567678548.32055
1567678548.33618
1567678548.35181
1567678548.36743
1567678548.38306
1567678548.39868
1567678548.41431
1567678548.42993
1567678548.44556
1567678548.46119
1567678548.47681
1567678548.49244
1567678548.50806
1567678548.52369
1567678548.53931
1567678548.55494
1567678548.57057
1567678548.58619
1567678548.60182
1567678548.61744
1567678548.63307
1567678548.64869
1567678548.66432
1567678548.67995
1567678548.69557
1567678548.7112
1567678548.72682
1567678548.74245
1567678548.75807
1567678548.7737
1567678548.78933
1567678548.80495
1567678548.82058
1567678548.8362
1567678548.85183
1567678548.86745
1567678548.88308
1567678548.89871
1567678548.91433
1567678548.92996
1567678548.94558
1567678548.96121
1567678548.97683
1567678548.99246
1567678549.00809
1567678549.02371
1567678549.03934
1567678549.05496
1567678549.07059
1567678549.08621
1567678549.10184
1567678549.11747
1567678549.13309
1567678549.14872
1567678549.16434
1567678549.17997
1567678549.19559
1567678549.21122
1567678549.22685
1567678549.24247
1567678549.2581
1567678549.27372
1567678549.28935
1567678549.30497
1567678549.3206
1567678549.33623
1567678549.35185
1567678549.36748
1567678549.3831
1567678549.39873
1567678549.41435
1567678549.42998
1567678549.44561
1567678549.46123
1567678549.47686
1567678549.49248
1567678549.50811
1567678549.52373
1567678549.53936
1567678549.55499
1567678549.57061
1567678549.58624
1567678549.60186
1567678549.61749
1567678549.63311
1567678549.64874
1567678549.66437
1567678549.67999
1567678549.69562
1567678549.71124
1567678549.72687
1567678549.74249
1567678549.75812
1567678549.77375
1567678549.78937
1567678549.805
1567678549.82062
1567678549.83625
1567678549.85187
1567678549.8675
1567678549.88313
1567678549.89875
1567678549.91438
1567678549.93
1567678549.94563
1567678549.96125
1567678549.97688
1567678549.99251
1567678550.00813
1567678550.02376
1567678550.03938
1567678550.05501
1567678550.07064
1567678550.08626
1567678550.10189
1567678550.11751
1567678550.13314
1567678550.14876
1567678550.16439
1567678550.18002
1567678550.19564
1567678550.21127
1567678550.22689
1567678550.24252
1567678550.25814
1567678550.27377
1567678550.2894
1567678550.30502
1567678550.32065
1567678550.33627
1567678550.3519
1567678550.36752
1567678550.38315
1567678550.39878
1567678550.4144
1567678550.43003
1567678550.44565
1567678550.46128
1567678550.4769
1567678550.49253
1567678550.50816
1567678550.52378
1567678550.53941
1567678550.55503
1567678550.57066
1567678550.58628
1567678550.60191
1567678550.61754
1567678550.63316
1567678550.64879
1567678550.66441
1567678550.68004
1567678550.69566
1567678550.71129
1567678550.72692
1567678550.74254
1567678550.75817
1567678550.77379
1567678550.78942
1567678550.80504
1567678550.82067
1567678550.8363
1567678550.85192
1567678550.86755
1567678550.88317
1567678550.8988
1567678550.91442
1567678550.93005
1567678550.94568
1567678550.9613
1567678550.97693
1567678550.99255
1567678551.00818
1567678551.0238
1567678551.03943
1567678551.05506
1567678551.07068
1567678551.08631
1567678551.10193
1567678551.11756
1567678551.13318
1567678551.14881
1567678551.16444
1567678551.18006
1567678551.19569
1567678551.21131
1567678551.22694
1567678551.24256
1567678551.25819
1567678551.27382
1567678551.28944
1567678551.30507
1567678551.32069
1567678551.33632
1567678551.35194
1567678551.36757
1567678551.3832
1567678551.39882
1567678551.41445
1567678551.43007
1567678551.4457
1567678551.46132
1567678551.47695
1567678551.49258
1567678551.5082
1567678551.52383
1567678551.53945
1567678551.55508
1567678551.5707
1567678551.58633
1567678551.60196
1567678551.61758
1567678551.63321
1567678551.64883
1567678551.66446
1567678551.68008
1567678551.69571
1567678551.71134
1567678551.72696
1567678551.74259
1567678551.75821
1567678551.77384
1567678551.78946
1567678551.80509
1567678551.82072
1567678551.83634
1567678551.85197
1567678551.86759
1567678551.88322
1567678551.89884
1567678551.91447
1567678551.9301
1567678551.94572
1567678551.96135
1567678551.97697
1567678551.9926
1567678552.00822
1567678552.02385
1567678552.03948
1567678552.0551
1567678552.07073
1567678552.08635
1567678552.10198
1567678552.1176
1567678552.13323
1567678552.14886
1567678552.16448
1567678552.18011
1567678552.19573
1567678552.21136
1567678552.22698
1567678552.24261
1567678552.25824
1567678552.27386
1567678552.28949
1567678552.30511
1567678552.32074
1567678552.33636
1567678552.35199
1567678552.36762
1567678552.38324
1567678552.39887
1567678552.41449
1567678552.43012
1567678552.44574
1567678552.46137
1567678552.477
1567678552.49262
1567678552.50825
1567678552.52387
1567678552.5395
1567678552.55513
1567678552.57075
1567678552.58638
1567678552.602
1567678552.61763
1567678552.63325
1567678552.64888
1567678552.66451
1567678552.68013
1567678552.69576
1567678552.71138
1567678552.72701
1567678552.74263
1567678552.75826
1567678552.77389
1567678552.78951
1567678552.80514
1567678552.82076
1567678552.83639
1567678552.85201
1567678552.86764
1567678552.88327
1567678552.89889
1567678552.91452
1567678552.93014
1567678552.94577
1567678552.96139
1567678552.97702
1567678552.99265
1567678553.00827
1567678553.0239
1567678553.03952
1567678553.05515
1567678553.07077
1567678553.0864
1567678553.10203
1567678553.11765
1567678553.13328
1567678553.1489
1567678553.16453
1567678553.18015
1567678553.19578
1567678553.21141
1567678553.22703
1567678553.24266
1567678553.25828
1567678553.27391
1567678553.28953
1567678553.30516
1567678553.32079
1567678553.33641
1567678553.35204
1567678553.36766
1567678553.38329
1567678553.39891
1567678553.41454
1567678553.43017
1567678553.44579
1567678553.46142
1567678553.47704
1567678553.49267
1567678553.50829
1567678553.52392
1567678553.53955
1567678553.55517
1567678553.5708
1567678553.58642
1567678553.60205
1567678553.61767
1567678553.6333
1567678553.64893
1567678553.66455
1567678553.68018
1567678553.6958
1567678553.71143
1567678553.72705
1567678553.74268
1567678553.75831
1567678553.77393
1567678553.78956
1567678553.80518
1567678553.82081
1567678553.83643
1567678553.85206
1567678553.86769
1567678553.88331
1567678553.89894
1567678553.91456
1567678553.93019
1567678553.94581
1567678553.96144
1567678553.97707
1567678553.99269
1567678554.00832
1567678554.02394
1567678554.03957
1567678554.05519
1567678554.07082
1567678554.08645
1567678554.10207
1567678554.1177
1567678554.13332
1567678554.14895
1567678554.16457
1567678554.1802
1567678554.19583
1567678554.21145
1567678554.22708
1567678554.2427
1567678554.25833
1567678554.27395
1567678554.28958
1567678554.30521
1567678554.32083
1567678554.33646
1567678554.35208
1567678554.36771
1567678554.38333
1567678554.39896
1567678554.41459
1567678554.43021
1567678554.44584
1567678554.46146
1567678554.47709
1567678554.49271
1567678554.50834
1567678554.52397
1567678554.53959
1567678554.55522
1567678554.57084
1567678554.58647
1567678554.60209
1567678554.61772
1567678554.63335
1567678554.64897
1567678554.6646
1567678554.68022
1567678554.69585
1567678554.71147
1567678554.7271
1567678554.74273
1567678554.75835
1567678554.77398
1567678554.7896
1567678554.80523
1567678554.82085
1567678554.83648
1567678554.85211
1567678554.86773
1567678554.88336
1567678554.89898
1567678554.91461
1567678554.93024
1567678554.94586
1567678554.96149
1567678554.97711
1567678554.99274
1567678555.00836
1567678555.02399
1567678555.03962
1567678555.05524
1567678555.07087
1567678555.08649
1567678555.10212
1567678555.11774
1567678555.13337
1567678555.149
1567678555.16462
1567678555.18025
1567678555.19587
1567678555.2115
1567678555.22712
1567678555.24275
1567678555.25838
1567678555.274
1567678555.28963
1567678555.30525
1567678555.32088
1567678555.3365
1567678555.35213
1567678555.36776
1567678555.38338
1567678555.39901
1567678555.41463
1567678555.43026
1567678555.44588
1567678555.46151
1567678555.47714
1567678555.49276
1567678555.50839
1567678555.52401
1567678555.53964
1567678555.55526
1567678555.57089
1567678555.58652
1567678555.60214
1567678555.61777
1567678555.63339
1567678555.64902
1567678555.66464
1567678555.68027
1567678555.6959
1567678555.71152
1567678555.72715
1567678555.74277
1567678555.7584
1567678555.77402
1567678555.78965
1567678555.80528
1567678555.8209
1567678555.83653
1567678555.85215
1567678555.86778
1567678555.8834
1567678555.89903
1567678555.91466
1567678555.93028
1567678555.94591
1567678555.96153
1567678555.97716
1567678555.99278
1567678556.00841
1567678556.02404
1567678556.03966
1567678556.05529
1567678556.07091
1567678556.08654
1567678556.10216
1567678556.11779
1567678556.13342
1567678556.14904
1567678556.16467
1567678556.18029
1567678556.19592
1567678556.21154
1567678556.22717
1567678556.2428
1567678556.25842
1567678556.27405
1567678556.28967
1567678556.3053
1567678556.32092
1567678556.33655
1567678556.35218
1567678556.3678
1567678556.38343
1567678556.39905
1567678556.41468
1567678556.4303
1567678556.44593
1567678556.46156
1567678556.47718
1567678556.49281
1567678556.50843
1567678556.52406
1567678556.53968
1567678556.55531
1567678556.57094
1567678556.58656
1567678556.60219
1567678556.61781
1567678556.63344
1567678556.64906
1567678556.66469
1567678556.68032
1567678556.69594
1567678556.71157
1567678556.72719
1567678556.74282
1567678556.75844
1567678556.77407
1567678556.7897
1567678556.80532
1567678556.82095
1567678556.83657
1567678556.8522
1567678556.86782
1567678556.88345
1567678556.89908
1567678556.9147
1567678556.93033
1567678556.94595
1567678556.96158
1567678556.9772
1567678556.99283
1567678557.00846
1567678557.02408
1567678557.03971
1567678557.05533
1567678557.07096
1567678557.08658
1567678557.10221
1567678557.11784
1567678557.13346
1567678557.14909
1567678557.16471
1567678557.18034
1567678557.19597
1567678557.21159
1567678557.22722
1567678557.24284
1567678557.25847
1567678557.27409
1567678557.28972
1567678557.30535
1567678557.32097
1567678557.3366
1567678557.35222
1567678557.36785
1567678557.38347
1567678557.3991
1567678557.41473
1567678557.43035
1567678557.44598
1567678557.4616
1567678557.47723
1567678557.49285
1567678557.50848
1567678557.52411
1567678557.53973
1567678557.55536
1567678557.57098
1567678557.58661
1567678557.60223
1567678557.61786
1567678557.63349
1567678557.64911
1567678557.66474
1567678557.68036
1567678557.69599
1567678557.71161
1567678557.72724
1567678557.74287
1567678557.75849
1567678557.77412
1567678557.78974
1567678557.80537
1567678557.82099
1567678557.83662
1567678557.85225
1567678557.86787
1567678557.8835
1567678557.89912
1567678557.91475
1567678557.93037
1567678557.946
1567678557.96163
1567678557.97725
1567678557.99288
1567678558.0085
1567678558.02413
1567678558.03975
1567678558.05538
1567678558.07101
1567678558.08663
1567678558.10226
1567678558.11788
1567678558.13351
1567678558.14913
1567678558.16476
1567678558.18039
1567678558.19601
1567678558.21164
1567678558.22726
1567678558.24289
1567678558.25851
1567678558.27414
1567678558.28977
1567678558.30539
1567678558.32102
1567678558.33664
1567678558.35227
1567678558.36789
1567678558.38352
1567678558.39915
1567678558.41477
1567678558.4304
1567678558.44602
1567678558.46165
1567678558.47727
1567678558.4929
1567678558.50853
1567678558.52415
1567678558.53978
1567678558.5554
1567678558.57103
1567678558.58665
1567678558.60228
1567678558.61791
1567678558.63353
1567678558.64916
1567678558.66478
1567678558.68041
1567678558.69603
1567678558.71166
1567678558.72729
1567678558.74291
1567678558.75854
1567678558.77416
1567678558.78979
1567678558.80541
1567678558.82104
1567678558.83667
1567678558.85229
1567678558.86792
1567678558.88354
1567678558.89917
1567678558.91479
1567678558.93042
1567678558.94605
1567678558.96167
1567678558.9773
1567678558.99292
1567678559.00855
1567678559.02417
1567678559.0398
1567678559.05543
1567678559.07105
1567678559.08668
1567678559.1023
1567678559.11793
1567678559.13355
1567678559.14918
1567678559.16481
1567678559.18043
1567678559.19606
1567678559.21168
1567678559.22731
1567678559.24293
1567678559.25856
1567678559.27419
1567678559.28981
1567678559.30544
1567678559.32106
1567678559.33669
1567678559.35231
1567678559.36794
1567678559.38357
1567678559.39919
1567678559.41482
1567678559.43044
1567678559.44607
1567678559.46169
1567678559.47732
1567678559.49295
1567678559.50857
1567678559.5242
1567678559.53982
1567678559.55545
1567678559.57107
1567678559.5867
1567678559.60233
1567678559.61795
1567678559.63358
1567678559.6492
1567678559.66483
1567678559.68045
1567678559.69608
1567678559.71171
1567678559.72733
1567678559.74296
1567678559.75858
1567678559.77421
1567678559.78984
1567678559.80546
1567678559.82109
1567678559.83671
1567678559.85234
1567678559.86796
1567678559.88359
1567678559.89922
1567678559.91484
1567678559.93047
1567678559.94609
1567678559.96172
1567678559.97734
1567678559.99297
1567678560.0086
1567678560.02422
1567678560.03985
1567678560.05547
1567678560.0711
1567678560.08672
1567678560.10235
1567678560.11798
1567678560.1336
1567678560.14923
1567678560.16485
1567678560.18048
1567678560.1961
1567678560.21173
1567678560.22736
1567678560.24298
1567678560.25861
1567678560.27423
1567678560.28986
1567678560.30548
1567678560.32111
1567678560.33674
1567678560.35236
1567678560.36799
1567678560.38361
1567678560.39924
1567678560.41486
1567678560.43049
1567678560.44612
1567678560.46174
1567678560.47737
1567678560.49299
1567678560.50862
1567678560.52424
1567678560.53987
1567678560.5555
1567678560.57112
1567678560.58675
1567678560.60237
1567678560.618
1567678560.63362
1567678560.64925
1567678560.66488
1567678560.6805
1567678560.69613
1567678560.71175
1567678560.72738
1567678560.743
1567678560.75863
1567678560.77426
1567678560.78988
1567678560.80551
1567678560.82113
1567678560.83676
1567678560.85238
1567678560.86801
1567678560.88364
1567678560.89926
1567678560.91489
1567678560.93051
1567678560.94614
1567678560.96176
1567678560.97739
1567678560.99302
1567678561.00864
1567678561.02427
1567678561.03989
1567678561.05552
1567678561.07114
1567678561.08677
1567678561.1024
1567678561.11802
1567678561.13365
1567678561.14927
1567678561.1649
1567678561.18052
1567678561.19615
1567678561.21178
1567678561.2274
1567678561.24303
1567678561.25865
1567678561.27428
1567678561.2899
1567678561.30553
1567678561.32116
1567678561.33678
1567678561.35241
1567678561.36803
1567678561.38366
1567678561.39928
1567678561.41491
1567678561.43054
1567678561.44616
1567678561.46179
1567678561.47741
1567678561.49304
1567678561.50866
1567678561.52429
1567678561.53992
1567678561.55554
1567678561.57117
1567678561.58679
1567678561.60242
1567678561.61804
1567678561.63367
1567678561.6493
1567678561.66492
1567678561.68055
1567678561.69617
1567678561.7118
1567678561.72742
1567678561.74305
1567678561.75868
1567678561.7743
1567678561.78993
1567678561.80555
1567678561.82118
1567678561.8368
1567678561.85243
1567678561.86806
1567678561.88368
1567678561.89931
1567678561.91493
1567678561.93056
1567678561.94618
1567678561.96181
1567678561.97744
1567678561.99306
1567678562.00869
1567678562.02431
1567678562.03994
1567678562.05557
1567678562.07119
1567678562.08682
1567678562.10244
1567678562.11807
1567678562.13369
1567678562.14932
1567678562.16495
1567678562.18057
1567678562.1962
1567678562.21182
1567678562.22745
1567678562.24307
1567678562.2587
1567678562.27433
1567678562.28995
1567678562.30558
1567678562.3212
1567678562.33683
1567678562.35245
1567678562.36808
1567678562.38371
1567678562.39933
1567678562.41496
1567678562.43058
1567678562.44621
1567678562.46183
1567678562.47746
1567678562.49309
1567678562.50871
1567678562.52434
1567678562.53996
1567678562.55559
1567678562.57121
1567678562.58684
1567678562.60247
1567678562.61809
1567678562.63372
1567678562.64934
1567678562.66497
1567678562.68059
1567678562.69622
1567678562.71185
1567678562.72747
1567678562.7431
1567678562.75872
1567678562.77435
1567678562.78997
1567678562.8056
1567678562.82123
1567678562.83685
1567678562.85248
1567678562.8681
1567678562.88373
1567678562.89935
1567678562.91498
1567678562.93061
1567678562.94623
1567678562.96186
1567678562.97748
1567678562.99311
1567678563.00873
1567678563.02436
1567678563.03999
1567678563.05561
1567678563.07124
1567678563.08686
1567678563.10249
1567678563.11811
1567678563.13374
1567678563.14937
1567678563.16499
1567678563.18062
1567678563.19624
1567678563.21187
1567678563.22749
1567678563.24312
1567678563.25875
1567678563.27437
1567678563.29
1567678563.30562
1567678563.32125
1567678563.33687
1567678563.3525
1567678563.36813
1567678563.38375
1567678563.39938
1567678563.415
1567678563.43063
1567678563.44625
1567678563.46188
1567678563.47751
1567678563.49313
1567678563.50876
1567678563.52438
1567678563.54001
1567678563.55563
1567678563.57126
1567678563.58689
1567678563.60251
1567678563.61814
1567678563.63376
1567678563.64939
1567678563.66501
1567678563.68064
1567678563.69627
1567678563.71189
1567678563.72752
1567678563.74314
1567678563.75877
1567678563.77439
1567678563.79002
1567678563.80565
1567678563.82127
1567678563.8369
1567678563.85252
1567678563.86815
1567678563.88377
1567678563.8994
1567678563.91503
1567678563.93065
1567678563.94628
1567678563.9619
1567678563.97753
1567678563.99315
1567678564.00878
1567678564.02441
1567678564.04003
1567678564.05566
1567678564.07128
1567678564.08691
1567678564.10253
1567678564.11816
1567678564.13379
1567678564.14941
1567678564.16504
1567678564.18066
1567678564.19629
1567678564.21192
1567678564.22754
1567678564.24317
1567678564.25879
1567678564.27442
1567678564.29004
1567678564.30567
1567678564.3213
1567678564.33692
1567678564.35255
1567678564.36817
1567678564.3838
1567678564.39942
1567678564.41505
1567678564.43068
1567678564.4463
1567678564.46193
1567678564.47755
1567678564.49318
1567678564.5088
1567678564.52443
1567678564.54006
1567678564.55568
1567678564.57131
1567678564.58693
1567678564.60256
1567678564.61818
1567678564.63381
1567678564.64944
1567678564.66506
1567678564.68069
1567678564.69631
1567678564.71194
1567678564.72756
1567678564.74319
1567678564.75882
1567678564.77444
1567678564.79007
1567678564.80569
1567678564.82132
1567678564.83694
1567678564.85257
1567678564.8682
1567678564.88382
1567678564.89945
1567678564.91507
1567678564.9307
1567678564.94632
1567678564.96195
1567678564.97758
1567678564.9932
1567678565.00883
1567678565.02445
1567678565.04008
1567678565.0557
1567678565.07133
1567678565.08696
1567678565.10258
1567678565.11821
1567678565.13383
1567678565.14946
1567678565.16508
1567678565.18071
1567678565.19634
1567678565.21196
1567678565.22759
1567678565.24321
1567678565.25884
1567678565.27446
1567678565.29009
1567678565.30572
1567678565.32134
1567678565.33697
1567678565.35259
1567678565.36822
1567678565.38384
1567678565.39947
1567678565.4151
1567678565.43072
1567678565.44635
1567678565.46197
1567678565.4776
1567678565.49322
1567678565.50885
1567678565.52448
1567678565.5401
1567678565.55573
1567678565.57135
1567678565.58698
1567678565.6026
1567678565.61823
1567678565.63386
1567678565.64948
1567678565.66511
1567678565.68073
1567678565.69636
1567678565.71198
1567678565.72761
1567678565.74324
1567678565.75886
1567678565.77449
1567678565.79011
1567678565.80574
1567678565.82136
1567678565.83699
1567678565.85262
1567678565.86824
1567678565.88387
1567678565.89949
1567678565.91512
1567678565.93074
1567678565.94637
1567678565.962
1567678565.97762
1567678565.99325
1567678566.00887
1567678566.0245
1567678566.04012
1567678566.05575
1567678566.07138
1567678566.087
1567678566.10263
1567678566.11825
1567678566.13388
1567678566.1495
1567678566.16513
1567678566.18076
1567678566.19638
1567678566.21201
1567678566.22763
1567678566.24326
1567678566.25888
1567678566.27451
1567678566.29014
1567678566.30576
1567678566.32139
1567678566.33701
1567678566.35264
1567678566.36826
1567678566.38389
1567678566.39952
1567678566.41514
1567678566.43077
1567678566.44639
1567678566.46202
1567678566.47764
1567678566.49327
1567678566.5089
1567678566.52452
1567678566.54015
1567678566.55577
1567678566.5714
1567678566.58702
1567678566.60265
1567678566.61828
1567678566.6339
1567678566.64953
1567678566.66515
1567678566.68078
1567678566.6964
1567678566.71203
1567678566.72766
1567678566.74328
1567678566.75891
1567678566.77453
1567678566.79016
1567678566.80578
1567678566.82141
1567678566.83704
1567678566.85266
1567678566.86829
1567678566.88391
1567678566.89954
1567678566.91517
1567678566.93079
1567678566.94642
1567678566.96204
1567678566.97767
1567678566.99329
1567678567.00892
1567678567.02455
1567678567.04017
1567678567.0558
1567678567.07142
1567678567.08705
1567678567.10267
1567678567.1183
1567678567.13393
1567678567.14955
1567678567.16518
1567678567.1808
1567678567.19643
1567678567.21205
1567678567.22768
1567678567.24331
1567678567.25893
1567678567.27456
1567678567.29018
1567678567.30581
1567678567.32143
1567678567.33706
1567678567.35269
1567678567.36831
1567678567.38394
1567678567.39956
1567678567.41519
1567678567.43081
1567678567.44644
1567678567.46207
1567678567.47769
1567678567.49332
1567678567.50894
1567678567.52457
1567678567.54019
1567678567.55582
1567678567.57145
1567678567.58707
1567678567.6027
1567678567.61832
1567678567.63395
1567678567.64957
1567678567.6652
1567678567.68083
1567678567.69645
1567678567.71208
1567678567.7277
1567678567.74333
1567678567.75895
1567678567.77458
1567678567.79021
1567678567.80583
1567678567.82146
1567678567.83708
1567678567.85271
1567678567.86833
1567678567.88396
1567678567.89959
1567678567.91521
1567678567.93084
1567678567.94646
1567678567.96209
1567678567.97771
1567678567.99334
1567678568.00897
1567678568.02459
1567678568.04022
1567678568.05584
1567678568.07147
1567678568.08709
1567678568.10272
1567678568.11835
1567678568.13397
1567678568.1496
1567678568.16522
1567678568.18085
1567678568.19647
1567678568.2121
1567678568.22773
1567678568.24335
1567678568.25898
1567678568.2746
1567678568.29023
1567678568.30585
1567678568.32148
1567678568.33711
1567678568.35273
1567678568.36836
1567678568.38398
1567678568.39961
1567678568.41523
1567678568.43086
1567678568.44649
1567678568.46211
1567678568.47774
1567678568.49336
1567678568.50899
1567678568.52461
1567678568.54024
1567678568.55587
1567678568.57149
1567678568.58712
1567678568.60274
1567678568.61837
1567678568.63399
1567678568.64962
1567678568.66525
1567678568.68087
1567678568.6965
1567678568.71212
1567678568.72775
1567678568.74337
1567678568.759
1567678568.77463
1567678568.79025
1567678568.80588
1567678568.8215
1567678568.83713
1567678568.85275
1567678568.86838
1567678568.88401
1567678568.89963
1567678568.91526
1567678568.93088
1567678568.94651
1567678568.96213
1567678568.97776
1567678568.99339
1567678569.00901
1567678569.02464
1567678569.04026
1567678569.05589
1567678569.07151
1567678569.08714
1567678569.10277
1567678569.11839
1567678569.13402
1567678569.14964
1567678569.16527
1567678569.1809
1567678569.19652
1567678569.21215
1567678569.22777
1567678569.2434
1567678569.25902
1567678569.27465
1567678569.29028
1567678569.3059
1567678569.32153
1567678569.33715
1567678569.35278
1567678569.3684
1567678569.38403
1567678569.39966
1567678569.41528
1567678569.43091
1567678569.44653
1567678569.46216
1567678569.47778
1567678569.49341
1567678569.50904
1567678569.52466
1567678569.54029
1567678569.55591
1567678569.57154
1567678569.58716
1567678569.60279
1567678569.61842
1567678569.63404
1567678569.64967
1567678569.66529
1567678569.68092
1567678569.69654
1567678569.71217
1567678569.7278
1567678569.74342
1567678569.75905
1567678569.77467
1567678569.7903
1567678569.80592
1567678569.82155
1567678569.83718
1567678569.8528
1567678569.86843
1567678569.88405
1567678569.89968
1567678569.9153
1567678569.93093
1567678569.94656
1567678569.96218
1567678569.97781
1567678569.99343
1567678570.00906
1567678570.02468
1567678570.04031
1567678570.05594
1567678570.07156
1567678570.08719
1567678570.10281
1567678570.11844
1567678570.13406
1567678570.14969
1567678570.16532
1567678570.18094
1567678570.19657
1567678570.21219
1567678570.22782
1567678570.24344
1567678570.25907
1567678570.2747
1567678570.29032
1567678570.30595
1567678570.32157
1567678570.3372
1567678570.35282
1567678570.36845
1567678570.38408
1567678570.3997
1567678570.41533
1567678570.43095
1567678570.44658
1567678570.4622
1567678570.47783
1567678570.49346
1567678570.50908
1567678570.52471
1567678570.54033
1567678570.55596
1567678570.57158
1567678570.58721
1567678570.60284
1567678570.61846
1567678570.63409
1567678570.64971
1567678570.66534
1567678570.68096
1567678570.69659
1567678570.71222
1567678570.72784
1567678570.74347
1567678570.75909
1567678570.77472
1567678570.79034
1567678570.80597
1567678570.8216
1567678570.83722
1567678570.85285
1567678570.86847
1567678570.8841
1567678570.89972
1567678570.91535
1567678570.93098
1567678570.9466
1567678570.96223
1567678570.97785
1567678570.99348
1567678571.0091
1567678571.02473
1567678571.04036
1567678571.05598
1567678571.07161
1567678571.08723
1567678571.10286
1567678571.11848
1567678571.13411
1567678571.14974
1567678571.16536
1567678571.18099
1567678571.19661
1567678571.21224
1567678571.22786
1567678571.24349
1567678571.25912
1567678571.27474
1567678571.29037
1567678571.30599
1567678571.32162
1567678571.33724
1567678571.35287
1567678571.3685
1567678571.38412
1567678571.39975
1567678571.41537
1567678571.431
1567678571.44662
1567678571.46225
1567678571.47788
1567678571.4935
1567678571.50913
1567678571.52475
1567678571.54038
1567678571.55601
1567678571.57163
1567678571.58726
1567678571.60288
1567678571.61851
1567678571.63413
1567678571.64976
1567678571.66539
1567678571.68101
1567678571.69664
1567678571.71226
1567678571.72789
1567678571.74351
1567678571.75914
1567678571.77477
1567678571.79039
1567678571.80602
1567678571.82164
1567678571.83727
1567678571.85289
1567678571.86852
1567678571.88415
1567678571.89977
1567678571.9154
1567678571.93102
1567678571.94665
1567678571.96227
1567678571.9779
1567678571.99353
1567678572.00915
1567678572.02478
1567678572.0404
1567678572.05603
1567678572.07165
1567678572.08728
1567678572.10291
1567678572.11853
1567678572.13416
1567678572.14978
1567678572.16541
1567678572.18103
1567678572.19666
1567678572.21229
1567678572.22791
1567678572.24354
1567678572.25916
1567678572.27479
1567678572.29041
1567678572.30604
1567678572.32167
1567678572.33729
1567678572.35292
1567678572.36854
1567678572.38417
1567678572.39979
1567678572.41542
1567678572.43105
1567678572.44667
1567678572.4623
1567678572.47792
1567678572.49355
1567678572.50917
1567678572.5248
1567678572.54043
1567678572.55605
1567678572.57168
1567678572.5873
1567678572.60293
1567678572.61855
1567678572.63418
1567678572.64981
1567678572.66543
1567678572.68106
1567678572.69668
1567678572.71231
1567678572.72793
1567678572.74356
1567678572.75919
1567678572.77481
1567678572.79044
1567678572.80606
1567678572.82169
1567678572.83731
1567678572.85294
1567678572.86857
1567678572.88419
1567678572.89982
1567678572.91544
1567678572.93107
1567678572.94669
1567678572.96232
1567678572.97795
1567678572.99357
1567678573.0092
1567678573.02482
1567678573.04045
1567678573.05607
1567678573.0717
1567678573.08733
1567678573.10295
1567678573.11858
1567678573.1342
1567678573.14983
1567678573.16545
1567678573.18108
1567678573.19671
1567678573.21233
1567678573.22796
1567678573.24358
1567678573.25921
1567678573.27483
1567678573.29046
1567678573.30609
1567678573.32171
1567678573.33734
1567678573.35296
1567678573.36859
1567678573.38421
1567678573.39984
1567678573.41547
1567678573.43109
1567678573.44672
1567678573.46234
1567678573.47797
1567678573.49359
1567678573.50922
1567678573.52485
1567678573.54047
1567678573.5561
1567678573.57172
1567678573.58735
1567678573.60297
1567678573.6186
1567678573.63423
1567678573.64985
1567678573.66548
1567678573.6811
1567678573.69673
1567678573.71235
1567678573.72798
1567678573.74361
1567678573.75923
1567678573.77486
1567678573.79048
1567678573.80611
1567678573.82173
1567678573.83736
1567678573.85299
1567678573.86861
1567678573.88424
1567678573.89986
1567678573.91549
1567678573.93111
1567678573.94674
1567678573.96237
1567678573.97799
1567678573.99362
1567678574.00924
1567678574.02487
1567678574.0405
1567678574.05612
1567678574.07175
1567678574.08737
1567678574.103
1567678574.11862
1567678574.13425
1567678574.14988
1567678574.1655
1567678574.18113
1567678574.19675
1567678574.21238
1567678574.228
1567678574.24363
1567678574.25926
1567678574.27488
1567678574.29051
1567678574.30613
1567678574.32176
1567678574.33738
1567678574.35301
1567678574.36864
1567678574.38426
1567678574.39989
1567678574.41551
1567678574.43114
1567678574.44676
1567678574.46239
1567678574.47802
1567678574.49364
1567678574.50927
1567678574.52489
1567678574.54052
1567678574.55614
1567678574.57177
1567678574.5874
1567678574.60302
1567678574.61865
1567678574.63427
1567678574.6499
1567678574.66552
1567678574.68115
1567678574.69678
1567678574.7124
1567678574.72803
1567678574.74365
1567678574.75928
1567678574.7749
1567678574.79053
1567678574.80616
1567678574.82178
1567678574.83741
1567678574.85303
1567678574.86866
1567678574.88428
1567678574.89991
1567678574.91554
1567678574.93116
1567678574.94679
1567678574.96241
1567678574.97804
1567678574.99366
1567678575.00929
1567678575.02492
1567678575.04054
1567678575.05617
1567678575.07179
1567678575.08742
1567678575.10304
1567678575.11867
1567678575.1343
1567678575.14992
1567678575.16555
1567678575.18117
1567678575.1968
1567678575.21242
1567678575.22805
1567678575.24368
1567678575.2593
1567678575.27493
1567678575.29055
1567678575.30618
1567678575.3218
1567678575.33743
1567678575.35306
1567678575.36868
1567678575.38431
1567678575.39993
1567678575.41556
1567678575.43118
1567678575.44681
1567678575.46244
1567678575.47806
1567678575.49369
1567678575.50931
1567678575.52494
1567678575.54056
1567678575.55619
1567678575.57182
1567678575.58744
1567678575.60307
1567678575.61869
1567678575.63432
1567678575.64994
1567678575.66557
1567678575.6812
1567678575.69682
1567678575.71245
1567678575.72807
1567678575.7437
1567678575.75932
1567678575.77495
1567678575.79058
1567678575.8062
1567678575.82183
1567678575.83745
1567678575.85308
1567678575.8687
1567678575.88433
1567678575.89996
1567678575.91558
1567678575.93121
1567678575.94683
1567678575.96246
1567678575.97808
1567678575.99371
1567678576.00934
1567678576.02496
1567678576.04059
1567678576.05621
1567678576.07184
1567678576.08746
1567678576.10309
1567678576.11872
1567678576.13434
1567678576.14997
1567678576.16559
1567678576.18122
1567678576.19685
1567678576.21247
1567678576.2281
1567678576.24372
1567678576.25935
1567678576.27497
1567678576.2906
1567678576.30623
1567678576.32185
1567678576.33748
1567678576.3531
1567678576.36873
1567678576.38435
1567678576.39998
1567678576.41561
1567678576.43123
1567678576.44686
1567678576.46248
1567678576.47811
1567678576.49373
1567678576.50936
1567678576.52499
1567678576.54061
1567678576.55624
1567678576.57186
1567678576.58749
1567678576.60311
1567678576.61874
1567678576.63437
1567678576.64999
1567678576.66562
1567678576.68124
1567678576.69687
1567678576.71249
1567678576.72812
1567678576.74375
1567678576.75937
1567678576.775
1567678576.79062
1567678576.80625
1567678576.82187
1567678576.8375
1567678576.85313
1567678576.86875
1567678576.88438
1567678576.9
1567678576.91563
1567678576.93125
1567678576.94688
1567678576.96251
1567678576.97813
1567678576.99376
1567678577.00938
1567678577.02501
1567678577.04063
1567678577.05626
1567678577.07189
1567678577.08751
1567678577.10314
1567678577.11876
1567678577.13439
1567678577.15001
1567678577.16564
1567678577.18127
1567678577.19689
1567678577.21252
1567678577.22814
1567678577.24377
1567678577.25939
1567678577.27502
1567678577.29065
1567678577.30627
1567678577.3219
1567678577.33752
1567678577.35315
1567678577.36877
1567678577.3844
1567678577.40003
1567678577.41565
1567678577.43128
1567678577.4469
1567678577.46253
1567678577.47815
1567678577.49378
1567678577.50941
1567678577.52503
1567678577.54066
1567678577.55628
1567678577.57191
1567678577.58753
1567678577.60316
1567678577.61879
1567678577.63441
1567678577.65004
1567678577.66566
1567678577.68129
1567678577.69691
1567678577.71254
1567678577.72817
1567678577.74379
1567678577.75942
1567678577.77504
1567678577.79067
1567678577.80629
1567678577.82192
1567678577.83755
1567678577.85317
1567678577.8688
1567678577.88442
1567678577.90005
1567678577.91567
1567678577.9313
1567678577.94693
1567678577.96255
1567678577.97818
1567678577.9938
1567678578.00943
1567678578.02505
1567678578.04068
1567678578.05631
1567678578.07193
1567678578.08756
1567678578.10318
1567678578.11881
1567678578.13443
1567678578.15006
1567678578.16569
1567678578.18131
1567678578.19694
1567678578.21256
1567678578.22819
1567678578.24381
1567678578.25944
1567678578.27507
1567678578.29069
1567678578.30632
1567678578.32194
1567678578.33757
1567678578.35319
1567678578.36882
1567678578.38445
1567678578.40007
1567678578.4157
1567678578.43132
1567678578.44695
1567678578.46257
1567678578.4782
1567678578.49383
1567678578.50945
1567678578.52508
1567678578.5407
1567678578.55633
1567678578.57195
1567678578.58758
1567678578.60321
1567678578.61883
1567678578.63446
1567678578.65008
1567678578.66571
1567678578.68133
1567678578.69696
1567678578.71259
1567678578.72821
1567678578.74384
1567678578.75946
1567678578.77509
1567678578.79071
1567678578.80634
1567678578.82197
1567678578.83759
1567678578.85322
1567678578.86884
1567678578.88447
1567678578.9001
1567678578.91572
1567678578.93135
1567678578.94697
1567678578.9626
1567678578.97822
1567678578.99385
1567678579.00948
1567678579.0251
1567678579.04073
1567678579.05635
1567678579.07198
1567678579.0876
1567678579.10323
1567678579.11886
1567678579.13448
1567678579.15011
1567678579.16573
1567678579.18136
1567678579.19698
1567678579.21261
1567678579.22824
1567678579.24386
1567678579.25949
1567678579.27511
1567678579.29074
1567678579.30636
1567678579.32199
1567678579.33762
1567678579.35324
1567678579.36887
1567678579.38449
1567678579.40012
1567678579.41574
1567678579.43137
1567678579.447
1567678579.46262
1567678579.47825
1567678579.49387
1567678579.5095
1567678579.52512
1567678579.54075
1567678579.55638
1567678579.572
1567678579.58763
1567678579.60325
1567678579.61888
1567678579.6345
1567678579.65013
1567678579.66576
1567678579.68138
1567678579.69701
1567678579.71263
1567678579.72826
1567678579.74388
1567678579.75951
1567678579.77514
1567678579.79076
1567678579.80639
1567678579.82201
1567678579.83764
1567678579.85326
1567678579.86889
1567678579.88452
1567678579.90014
1567678579.91577
1567678579.93139
1567678579.94702
1567678579.96264
1567678579.97827
1567678579.9939
1567678580.00952
1567678580.02515
1567678580.04077
1567678580.0564
1567678580.07202
1567678580.08765
1567678580.10328
1567678580.1189
1567678580.13453
1567678580.15015
1567678580.16578
1567678580.1814
1567678580.19703
1567678580.21266
1567678580.22828
1567678580.24391
1567678580.25953
1567678580.27516
1567678580.29078
1567678580.30641
1567678580.32204
1567678580.33766
1567678580.35329
1567678580.36891
1567678580.38454
1567678580.40016
1567678580.41579
1567678580.43142
1567678580.44704
1567678580.46267
1567678580.47829
1567678580.49392
1567678580.50954
1567678580.52517
1567678580.5408
1567678580.55642
1567678580.57205
1567678580.58767
1567678580.6033
1567678580.61892
1567678580.63455
1567678580.65018
1567678580.6658
1567678580.68143
1567678580.69705
1567678580.71268
1567678580.7283
1567678580.74393
1567678580.75956
1567678580.77518
1567678580.79081
1567678580.80643
1567678580.82206
1567678580.83768
1567678580.85331
1567678580.86894
1567678580.88456
1567678580.90019
1567678580.91581
1567678580.93144
1567678580.94706
1567678580.96269
1567678580.97832
1567678580.99394
1567678581.00957
1567678581.02519
1567678581.04082
1567678581.05645
1567678581.07207
1567678581.0877
1567678581.10332
1567678581.11895
1567678581.13457
1567678581.1502
1567678581.16583
1567678581.18145
1567678581.19708
1567678581.2127
1567678581.22833
1567678581.24395
1567678581.25958
1567678581.27521
1567678581.29083
1567678581.30646
1567678581.32208
1567678581.33771
1567678581.35333
1567678581.36896
1567678581.38459
1567678581.40021
1567678581.41584
1567678581.43146
1567678581.44709
1567678581.46271
1567678581.47834
1567678581.49397
1567678581.50959
1567678581.52522
1567678581.54084
1567678581.55647
1567678581.57209
1567678581.58772
1567678581.60335
1567678581.61897
1567678581.6346
1567678581.65022
1567678581.66585
1567678581.68147
1567678581.6971
1567678581.71273
1567678581.72835
1567678581.74398
1567678581.7596
1567678581.77523
1567678581.79085
1567678581.80648
1567678581.82211
1567678581.83773
1567678581.85336
1567678581.86898
1567678581.88461
1567678581.90023
1567678581.91586
1567678581.93149
1567678581.94711
1567678581.96274
1567678581.97836
1567678581.99399
1567678582.00961
1567678582.02524
1567678582.04087
1567678582.05649
1567678582.07212
1567678582.08774
1567678582.10337
1567678582.11899
1567678582.13462
1567678582.15025
1567678582.16587
1567678582.1815
1567678582.19712
1567678582.21275
1567678582.22837
1567678582.244
1567678582.25963
1567678582.27525
1567678582.29088
1567678582.3065
1567678582.32213
1567678582.33775
1567678582.35338
1567678582.36901
1567678582.38463
1567678582.40026
1567678582.41588
1567678582.43151
1567678582.44713
1567678582.46276
1567678582.47839
1567678582.49401
1567678582.50964
1567678582.52526
1567678582.54089
1567678582.55651
1567678582.57214
1567678582.58777
1567678582.60339
1567678582.61902
1567678582.63464
1567678582.65027
1567678582.66589
1567678582.68152
1567678582.69715
1567678582.71277
1567678582.7284
1567678582.74402
1567678582.75965
1567678582.77527
1567678582.7909
1567678582.80653
1567678582.82215
1567678582.83778
1567678582.8534
1567678582.86903
1567678582.88465
1567678582.90028
1567678582.91591
1567678582.93153
1567678582.94716
1567678582.96278
1567678582.97841
1567678582.99403
1567678583.00966
1567678583.02529
1567678583.04091
1567678583.05654
1567678583.07216
1567678583.08779
1567678583.10341
1567678583.11904
1567678583.13467
1567678583.15029
1567678583.16592
1567678583.18154
1567678583.19717
1567678583.21279
1567678583.22842
1567678583.24405
1567678583.25967
1567678583.2753
1567678583.29092
1567678583.30655
1567678583.32218
1567678583.3378
1567678583.35343
1567678583.36905
1567678583.38468
1567678583.4003
1567678583.41593
1567678583.43156
1567678583.44718
1567678583.46281
1567678583.47843
1567678583.49406
1567678583.50968
1567678583.52531
1567678583.54094
1567678583.55656
1567678583.57219
1567678583.58781
1567678583.60344
1567678583.61906
1567678583.63469
1567678583.65032
1567678583.66594
1567678583.68157
1567678583.69719
1567678583.71282
1567678583.72844
1567678583.74407
1567678583.7597
1567678583.77532
1567678583.79095
1567678583.80657
1567678583.8222
1567678583.83782
1567678583.85345
1567678583.86908
1567678583.8847
1567678583.90033
1567678583.91595
1567678583.93158
1567678583.9472
1567678583.96283
1567678583.97846
1567678583.99408
1567678584.00971
1567678584.02533
1567678584.04096
1567678584.05658
1567678584.07221
1567678584.08784
1567678584.10346
1567678584.11909
1567678584.13471
1567678584.15034
1567678584.16596
1567678584.18159
1567678584.19722
1567678584.21284
1567678584.22847
1567678584.24409
1567678584.25972
1567678584.27534
1567678584.29097
1567678584.3066
1567678584.32222
1567678584.33785
1567678584.35347
1567678584.3691
1567678584.38472
1567678584.40035
1567678584.41598
1567678584.4316
1567678584.44723
1567678584.46285
1567678584.47848
1567678584.4941
1567678584.50973
1567678584.52536
1567678584.54098
1567678584.55661
1567678584.57223
1567678584.58786
1567678584.60348
1567678584.61911
1567678584.63474
1567678584.65036
1567678584.66599
1567678584.68161
1567678584.69724
1567678584.71286
1567678584.72849
1567678584.74412
1567678584.75974
1567678584.77537
1567678584.79099
1567678584.80662
1567678584.82224
1567678584.83787
1567678584.8535
1567678584.86912
1567678584.88475
1567678584.90037
1567678584.916
1567678584.93162
1567678584.94725
1567678584.96288
1567678584.9785
1567678584.99413
1567678585.00975
1567678585.02538
1567678585.041
1567678585.05663
1567678585.07226
1567678585.08788
1567678585.10351
1567678585.11913
1567678585.13476
1567678585.15038
1567678585.16601
1567678585.18164
1567678585.19726
1567678585.21289
1567678585.22851
1567678585.24414
1567678585.25976
1567678585.27539
1567678585.29102
1567678585.30664
1567678585.32227
1567678585.33789
1567678585.35352
1567678585.36914
1567678585.38477
1567678585.4004
1567678585.41602
1567678585.43165
1567678585.44727
1567678585.4629
1567678585.47852
1567678585.49415
1567678585.50978
1567678585.5254
1567678585.54103
1567678585.55665
1567678585.57228
1567678585.5879
1567678585.60353
1567678585.61916
1567678585.63478
1567678585.65041
1567678585.66603
1567678585.68166
1567678585.69728
1567678585.71291
1567678585.72854
1567678585.74416
1567678585.75979
1567678585.77541
1567678585.79104
1567678585.80666
1567678585.82229
1567678585.83792
1567678585.85354
1567678585.86917
1567678585.88479
1567678585.90042
1567678585.91605
1567678585.93167
1567678585.9473
1567678585.96292
1567678585.97855
1567678585.99417
1567678586.0098
1567678586.02543
1567678586.04105
1567678586.05668
1567678586.0723
1567678586.08793
1567678586.10355
1567678586.11918
1567678586.13481
1567678586.15043
1567678586.16606
1567678586.18168
1567678586.19731
1567678586.21293
1567678586.22856
1567678586.24419
1567678586.25981
1567678586.27544
1567678586.29106
1567678586.30669
1567678586.32231
1567678586.33794
1567678586.35357
1567678586.36919
1567678586.38482
1567678586.40044
1567678586.41607
1567678586.43169
1567678586.44732
1567678586.46295
1567678586.47857
1567678586.4942
1567678586.50982
1567678586.52545
1567678586.54107
1567678586.5567
1567678586.57233
1567678586.58795
1567678586.60358
1567678586.6192
1567678586.63483
1567678586.65045
1567678586.66608
1567678586.68171
1567678586.69733
1567678586.71296
1567678586.72858
1567678586.74421
1567678586.75983
1567678586.77546
1567678586.79109
1567678586.80671
1567678586.82234
1567678586.83796
1567678586.85359
1567678586.86921
1567678586.88484
1567678586.90047
1567678586.91609
1567678586.93172
1567678586.94734
1567678586.96297
1567678586.97859
1567678586.99422
1567678587.00985
1567678587.02547
1567678587.0411
1567678587.05672
1567678587.07235
1567678587.08797
1567678587.1036
1567678587.11923
1567678587.13485
1567678587.15048
1567678587.1661
1567678587.18173
1567678587.19735
1567678587.21298
1567678587.22861
1567678587.24423
1567678587.25986
1567678587.27548
1567678587.29111
1567678587.30673
1567678587.32236
1567678587.33799
1567678587.35361
1567678587.36924
1567678587.38486
1567678587.40049
1567678587.41611
1567678587.43174
1567678587.44737
1567678587.46299
1567678587.47862
1567678587.49424
1567678587.50987
1567678587.52549
1567678587.54112
1567678587.55675
1567678587.57237
1567678587.588
1567678587.60362
1567678587.61925
1567678587.63487
1567678587.6505
1567678587.66613
1567678587.68175
1567678587.69738
1567678587.713
1567678587.72863
1567678587.74425
1567678587.75988
1567678587.77551
1567678587.79113
1567678587.80676
1567678587.82238
1567678587.83801
1567678587.85363
1567678587.86926
1567678587.88489
1567678587.90051
1567678587.91614
1567678587.93176
1567678587.94739
1567678587.96301
1567678587.97864
1567678587.99427
1567678588.00989
1567678588.02552
1567678588.04114
1567678588.05677
1567678588.07239
1567678588.08802
1567678588.10365
1567678588.11927
1567678588.1349
1567678588.15052
1567678588.16615
1567678588.18178
1567678588.1974
1567678588.21303
1567678588.22865
1567678588.24428
1567678588.2599
1567678588.27553
1567678588.29116
1567678588.30678
1567678588.32241
1567678588.33803
1567678588.35366
1567678588.36928
1567678588.38491
1567678588.40054
1567678588.41616
1567678588.43179
1567678588.44741
1567678588.46304
1567678588.47866
1567678588.49429
1567678588.50992
1567678588.52554
1567678588.54117
1567678588.55679
1567678588.57242
1567678588.58804
1567678588.60367
1567678588.6193
1567678588.63492
1567678588.65055
1567678588.66617
1567678588.6818
1567678588.69742
1567678588.71305
1567678588.72868
1567678588.7443
1567678588.75993
1567678588.77555
1567678588.79118
1567678588.8068
1567678588.82243
1567678588.83806
1567678588.85368
1567678588.86931
1567678588.88493
1567678588.90056
1567678588.91618
1567678588.93181
1567678588.94744
1567678588.96306
1567678588.97869
1567678588.99431
1567678589.00994
1567678589.02556
1567678589.04119
1567678589.05682
1567678589.07244
1567678589.08807
1567678589.10369
1567678589.11932
1567678589.13494
1567678589.15057
1567678589.1662
1567678589.18182
1567678589.19745
1567678589.21307
1567678589.2287
1567678589.24432
1567678589.25995
1567678589.27558
1567678589.2912
1567678589.30683
1567678589.32245
1567678589.33808
1567678589.3537
1567678589.36933
1567678589.38496
1567678589.40058
1567678589.41621
1567678589.43183
1567678589.44746
1567678589.46308
1567678589.47871
1567678589.49434
1567678589.50996
1567678589.52559
1567678589.54121
1567678589.55684
1567678589.57246
1567678589.58809
1567678589.60372
1567678589.61934
1567678589.63497
1567678589.65059
1567678589.66622
1567678589.68184
1567678589.69747
1567678589.7131
1567678589.72872
1567678589.74435
1567678589.75997
1567678589.7756
1567678589.79122
1567678589.80685
1567678589.82248
1567678589.8381
1567678589.85373
1567678589.86935
1567678589.88498
1567678589.9006
1567678589.91623
1567678589.93186
1567678589.94748
1567678589.96311
1567678589.97873
1567678589.99436
1567678590.00998
1567678590.02561
1567678590.04124
1567678590.05686
1567678590.07249
1567678590.08811
1567678590.10374
1567678590.11936
1567678590.13499
1567678590.15062
1567678590.16624
1567678590.18187
1567678590.19749
1567678590.21312
1567678590.22874
1567678590.24437
1567678590.26
1567678590.27562
1567678590.29125
1567678590.30687
1567678590.3225
1567678590.33812
1567678590.35375
1567678590.36938
1567678590.385
1567678590.40063
1567678590.41625
1567678590.43188
1567678590.44751
1567678590.46313
1567678590.47876
1567678590.49438
1567678590.51001
1567678590.52563
1567678590.54126
1567678590.55689
1567678590.57251
1567678590.58814
1567678590.60376
1567678590.61939
1567678590.63501
1567678590.65064
1567678590.66627
1567678590.68189
1567678590.69752
1567678590.71314
1567678590.72877
1567678590.74439
1567678590.76002
1567678590.77565
1567678590.79127
1567678590.8069
1567678590.82252
1567678590.83815
1567678590.85377
1567678590.8694
1567678590.88503
1567678590.90065
1567678590.91628
1567678590.9319
1567678590.94753
1567678590.96315
1567678590.97878
1567678590.99441
1567678591.01003
1567678591.02566
1567678591.04128
1567678591.05691
1567678591.07253
1567678591.08816
1567678591.10379
1567678591.11941
1567678591.13504
1567678591.15066
1567678591.16629
1567678591.18191
1567678591.19754
1567678591.21317
1567678591.22879
1567678591.24442
1567678591.26004
1567678591.27567
1567678591.29129
1567678591.30692
1567678591.32255
1567678591.33817
1567678591.3538
1567678591.36942
1567678591.38505
1567678591.40067
1567678591.4163
1567678591.43193
1567678591.44755
1567678591.46318
1567678591.4788
1567678591.49443
1567678591.51005
1567678591.52568
1567678591.54131
1567678591.55693
1567678591.57256
1567678591.58818
1567678591.60381
1567678591.61943
1567678591.63506
1567678591.65069
1567678591.66631
1567678591.68194
1567678591.69756
1567678591.71319
1567678591.72881
1567678591.74444
1567678591.76007
1567678591.77569
1567678591.79132
1567678591.80694
1567678591.82257
1567678591.83819
1567678591.85382
1567678591.86945
1567678591.88507
1567678591.9007
1567678591.91632
1567678591.93195
1567678591.94757
1567678591.9632
1567678591.97883
1567678591.99445
1567678592.01008
1567678592.0257
1567678592.04133
1567678592.05695
1567678592.07258
1567678592.08821
1567678592.10383
1567678592.11946
1567678592.13508
1567678592.15071
1567678592.16633
1567678592.18196
1567678592.19759
1567678592.21321
1567678592.22884
1567678592.24446
1567678592.26009
1567678592.27571
1567678592.29134
1567678592.30697
1567678592.32259
1567678592.33822
1567678592.35384
1567678592.36947
1567678592.38509
1567678592.40072
1567678592.41635
1567678592.43197
1567678592.4476
1567678592.46322
1567678592.47885
1567678592.49447
1567678592.5101
1567678592.52573
1567678592.54135
1567678592.55698
1567678592.5726
1567678592.58823
1567678592.60385
1567678592.61948
1567678592.63511
1567678592.65073
1567678592.66636
1567678592.68198
1567678592.69761
1567678592.71323
1567678592.72886
1567678592.74449
1567678592.76011
1567678592.77574
1567678592.79136
1567678592.80699
1567678592.82261
1567678592.83824
1567678592.85387
1567678592.86949
1567678592.88512
1567678592.90074
1567678592.91637
1567678592.93199
1567678592.94762
1567678592.96325
1567678592.97887
1567678592.9945
1567678593.01012
1567678593.02575
1567678593.04138
1567678593.057
1567678593.07263
1567678593.08825
1567678593.10388
1567678593.1195
1567678593.13513
1567678593.15076
1567678593.16638
1567678593.18201
1567678593.19763
1567678593.21326
1567678593.22888
1567678593.24451
1567678593.26014
1567678593.27576
1567678593.29139
1567678593.30701
1567678593.32264
1567678593.33826
1567678593.35389
1567678593.36952
1567678593.38514
1567678593.40077
1567678593.41639
1567678593.43202
1567678593.44764
1567678593.46327
1567678593.4789
1567678593.49452
1567678593.51015
1567678593.52577
1567678593.5414
1567678593.55702
1567678593.57265
1567678593.58828
1567678593.6039
1567678593.61953
1567678593.63515
1567678593.65078
1567678593.6664
1567678593.68203
1567678593.69766
1567678593.71328
1567678593.72891
1567678593.74453
1567678593.76016
1567678593.77578
1567678593.79141
1567678593.80704
1567678593.82266
1567678593.83829
1567678593.85391
1567678593.86954
1567678593.88516
1567678593.90079
1567678593.91642
1567678593.93204
1567678593.94767
1567678593.96329
1567678593.97892
1567678593.99454
1567678594.01017
1567678594.0258
1567678594.04142
1567678594.05705
1567678594.07267
1567678594.0883
1567678594.10392
1567678594.11955
1567678594.13518
1567678594.1508
1567678594.16643
1567678594.18205
1567678594.19768
1567678594.2133
1567678594.22893
1567678594.24456
1567678594.26018
1567678594.27581
1567678594.29143
1567678594.30706
1567678594.32268
1567678594.33831
1567678594.35394
1567678594.36956
1567678594.38519
1567678594.40081
1567678594.41644
1567678594.43206
1567678594.44769
1567678594.46332
1567678594.47894
1567678594.49457
1567678594.51019
1567678594.52582
1567678594.54144
1567678594.55707
1567678594.5727
1567678594.58832
1567678594.60395
1567678594.61957
1567678594.6352
1567678594.65082
1567678594.66645
1567678594.68208
1567678594.6977
1567678594.71333
1567678594.72895
1567678594.74458
1567678594.7602
1567678594.77583
1567678594.79146
1567678594.80708
1567678594.82271
1567678594.83833
1567678594.85396
1567678594.86958
1567678594.88521
1567678594.90084
1567678594.91646
1567678594.93209
1567678594.94771
1567678594.96334
1567678594.97896
1567678594.99459
1567678595.01022
1567678595.02584
1567678595.04147
1567678595.05709
1567678595.07272
1567678595.08834
1567678595.10397
1567678595.1196
1567678595.13522
1567678595.15085
1567678595.16647
1567678595.1821
1567678595.19773
1567678595.21335
1567678595.22898
1567678595.2446
1567678595.26023
1567678595.27585
1567678595.29148
1567678595.30711
1567678595.32273
1567678595.33836
1567678595.35398
1567678595.36961
1567678595.38523
1567678595.40086
1567678595.41649
1567678595.43211
1567678595.44774
1567678595.46336
1567678595.47899
1567678595.49461
1567678595.51024
1567678595.52587
1567678595.54149
1567678595.55712
1567678595.57274
1567678595.58837
1567678595.60399
1567678595.61962
1567678595.63525
1567678595.65087
1567678595.6665
1567678595.68212
1567678595.69775
1567678595.71337
1567678595.729
1567678595.74463
1567678595.76025
1567678595.77588
1567678595.7915
1567678595.80713
1567678595.82275
1567678595.83838
1567678595.85401
1567678595.86963
1567678595.88526
1567678595.90088
1567678595.91651
1567678595.93213
1567678595.94776
1567678595.96339
1567678595.97901
1567678595.99464
1567678596.01026
1567678596.02589
1567678596.04151
1567678596.05714
1567678596.07277
1567678596.08839
1567678596.10402
1567678596.11964
1567678596.13527
1567678596.15089
1567678596.16652
1567678596.18215
1567678596.19777
1567678596.2134
1567678596.22902
1567678596.24465
1567678596.26027
1567678596.2759
1567678596.29153
1567678596.30715
1567678596.32278
1567678596.3384
1567678596.35403
1567678596.36965
1567678596.38528
1567678596.40091
1567678596.41653
1567678596.43216
1567678596.44778
1567678596.46341
1567678596.47903
1567678596.49466
1567678596.51029
1567678596.52591
1567678596.54154
1567678596.55716
1567678596.57279
1567678596.58841
1567678596.60404
1567678596.61967
1567678596.63529
1567678596.65092
1567678596.66654
1567678596.68217
1567678596.69779
1567678596.71342
1567678596.72905
1567678596.74467
1567678596.7603
1567678596.77592
1567678596.79155
1567678596.80717
1567678596.8228
1567678596.83843
1567678596.85405
1567678596.86968
1567678596.8853
1567678596.90093
1567678596.91655
1567678596.93218
1567678596.94781
1567678596.96343
1567678596.97906
1567678596.99468
1567678597.01031
1567678597.02593
1567678597.04156
1567678597.05719
1567678597.07281
1567678597.08844
1567678597.10406
1567678597.11969
1567678597.13531
1567678597.15094
1567678597.16657
1567678597.18219
1567678597.19782
1567678597.21344
1567678597.22907
1567678597.24469
1567678597.26032
1567678597.27595
1567678597.29157
1567678597.3072
1567678597.32282
1567678597.33845
1567678597.35407
1567678597.3697
1567678597.38533
1567678597.40095
1567678597.41658
1567678597.4322
1567678597.44783
1567678597.46345
1567678597.47908
1567678597.49471
1567678597.51033
1567678597.52596
1567678597.54158
1567678597.55721
1567678597.57283
1567678597.58846
1567678597.60409
1567678597.61971
1567678597.63534
1567678597.65096
1567678597.66659
1567678597.68221
1567678597.69784
1567678597.71347
1567678597.72909
1567678597.74472
1567678597.76034
1567678597.77597
1567678597.79159
1567678597.80722
1567678597.82285
1567678597.83847
1567678597.8541
1567678597.86972
1567678597.88535
1567678597.90098
1567678597.9166
1567678597.93223
1567678597.94785
1567678597.96348
1567678597.9791
1567678597.99473
1567678598.01036
1567678598.02598
1567678598.04161
1567678598.05723
1567678598.07286
1567678598.08848
1567678598.10411
1567678598.11974
1567678598.13536
1567678598.15099
1567678598.16661
1567678598.18224
1567678598.19786
1567678598.21349
1567678598.22912
1567678598.24474
1567678598.26037
1567678598.27599
1567678598.29162
1567678598.30724
1567678598.32287
1567678598.3385
1567678598.35412
1567678598.36975
1567678598.38537
1567678598.401
1567678598.41662
1567678598.43225
1567678598.44788
1567678598.4635
1567678598.47913
1567678598.49475
1567678598.51038
1567678598.526
1567678598.54163
1567678598.55726
1567678598.57288
1567678598.58851
1567678598.60413
1567678598.61976
1567678598.63538
1567678598.65101
1567678598.66664
1567678598.68226
1567678598.69789
1567678598.71351
1567678598.72914
1567678598.74476
1567678598.76039
1567678598.77602
1567678598.79164
1567678598.80727
1567678598.82289
1567678598.83852
1567678598.85414
1567678598.86977
1567678598.8854
1567678598.90102
1567678598.91665
1567678598.93227
1567678598.9479
1567678598.96352
1567678598.97915
1567678598.99478
1567678599.0104
1567678599.02603
1567678599.04165
1567678599.05728
1567678599.0729
1567678599.08853
1567678599.10416
1567678599.11978
1567678599.13541
1567678599.15103
1567678599.16666
1567678599.18228
1567678599.19791
1567678599.21354
1567678599.22916
1567678599.24479
1567678599.26041
1567678599.27604
1567678599.29166
1567678599.30729
1567678599.32292
1567678599.33854
1567678599.35417
1567678599.36979
1567678599.38542
1567678599.40104
1567678599.41667
1567678599.4323
1567678599.44792
1567678599.46355
1567678599.47917
1567678599.4948
1567678599.51042
1567678599.52605
1567678599.54168
1567678599.5573
1567678599.57293
1567678599.58855
1567678599.60418
1567678599.6198
1567678599.63543
1567678599.65106
1567678599.66668
1567678599.68231
1567678599.69793
1567678599.71356
1567678599.72918
1567678599.74481
1567678599.76044
1567678599.77606
1567678599.79169
1567678599.80731
1567678599.82294
1567678599.83856
1567678599.85419
1567678599.86982
1567678599.88544
1567678599.90107
1567678599.91669
1567678599.93232
1567678599.94794
1567678599.96357
1567678599.9792
1567678599.99482
1567678600.01045
1567678600.02607
1567678600.0417
1567678600.05732
1567678600.07295
1567678600.08858
1567678600.1042
1567678600.11983
1567678600.13545
1567678600.15108
1567678600.16671
1567678600.18233
1567678600.19796
1567678600.21358
1567678600.22921
1567678600.24483
1567678600.26046
1567678600.27609
1567678600.29171
1567678600.30734
1567678600.32296
1567678600.33859
1567678600.35421
1567678600.36984
1567678600.38547
1567678600.40109
1567678600.41672
1567678600.43234
1567678600.44797
1567678600.46359
1567678600.47922
1567678600.49485
1567678600.51047
1567678600.5261
1567678600.54172
1567678600.55735
1567678600.57297
1567678600.5886
1567678600.60423
1567678600.61985
1567678600.63548
1567678600.6511
1567678600.66673
1567678600.68235
1567678600.69798
1567678600.71361
1567678600.72923
1567678600.74486
1567678600.76048
1567678600.77611
1567678600.79173
1567678600.80736
1567678600.82299
1567678600.83861
1567678600.85424
1567678600.86986
1567678600.88549
1567678600.90111
1567678600.91674
1567678600.93237
1567678600.94799
1567678600.96362
1567678600.97924
1567678600.99487
1567678601.01049
1567678601.02612
1567678601.04175
1567678601.05737
1567678601.073
1567678601.08862
1567678601.10425
1567678601.11987
1567678601.1355
1567678601.15113
1567678601.16675
1567678601.18238
1567678601.198
1567678601.21363
1567678601.22925
1567678601.24488
1567678601.26051
1567678601.27613
1567678601.29176
1567678601.30738
1567678601.32301
1567678601.33863
1567678601.35426
1567678601.36989
1567678601.38551
1567678601.40114
1567678601.41676
1567678601.43239
1567678601.44801
1567678601.46364
1567678601.47927
1567678601.49489
1567678601.51052
1567678601.52614
1567678601.54177
1567678601.55739
1567678601.57302
1567678601.58865
1567678601.60427
1567678601.6199
1567678601.63552
1567678601.65115
1567678601.66677
1567678601.6824
1567678601.69803
1567678601.71365
1567678601.72928
1567678601.7449
1567678601.76053
1567678601.77615
1567678601.79178
1567678601.80741
1567678601.82303
1567678601.83866
1567678601.85428
1567678601.86991
1567678601.88553
1567678601.90116
1567678601.91679
1567678601.93241
1567678601.94804
1567678601.96366
1567678601.97929
1567678601.99491
1567678602.01054
1567678602.02617
1567678602.04179
1567678602.05742
1567678602.07304
1567678602.08867
1567678602.10429
1567678602.11992
1567678602.13555
1567678602.15117
1567678602.1668
1567678602.18242
1567678602.19805
1567678602.21367
1567678602.2293
1567678602.24493
1567678602.26055
1567678602.27618
1567678602.2918
1567678602.30743
1567678602.32306
1567678602.33868
1567678602.35431
1567678602.36993
1567678602.38556
1567678602.40118
1567678602.41681
1567678602.43244
1567678602.44806
1567678602.46369
1567678602.47931
1567678602.49494
1567678602.51056
1567678602.52619
1567678602.54182
1567678602.55744
1567678602.57307
1567678602.58869
1567678602.60432
1567678602.61994
1567678602.63557
1567678602.6512
1567678602.66682
1567678602.68245
1567678602.69807
1567678602.7137
1567678602.72932
1567678602.74495
1567678602.76058
1567678602.7762
1567678602.79183
1567678602.80745
1567678602.82308
1567678602.8387
1567678602.85433
1567678602.86996
1567678602.88558
1567678602.90121
1567678602.91683
1567678602.93246
1567678602.94808
1567678602.96371
1567678602.97934
1567678602.99496
1567678603.01059
1567678603.02621
1567678603.04184
1567678603.05746
1567678603.07309
1567678603.08872
1567678603.10434
1567678603.11997
1567678603.13559
1567678603.15122
1567678603.16684
1567678603.18247
1567678603.1981
1567678603.21372
1567678603.22935
1567678603.24497
1567678603.2606
1567678603.27622
1567678603.29185
1567678603.30748
1567678603.3231
1567678603.33873
1567678603.35435
1567678603.36998
1567678603.3856
1567678603.40123
1567678603.41686
1567678603.43248
1567678603.44811
1567678603.46373
1567678603.47936
1567678603.49498
1567678603.51061
1567678603.52624
1567678603.54186
1567678603.55749
1567678603.57311
1567678603.58874
1567678603.60436
1567678603.61999
1567678603.63562
1567678603.65124
1567678603.66687
1567678603.68249
1567678603.69812
1567678603.71374
1567678603.72937
1567678603.745
1567678603.76062
1567678603.77625
1567678603.79187
1567678603.8075
1567678603.82312
1567678603.83875
1567678603.85438
1567678603.87
1567678603.88563
1567678603.90125
1567678603.91688
1567678603.9325
1567678603.94813
1567678603.96376
1567678603.97938
1567678603.99501
1567678604.01063
1567678604.02626
1567678604.04188
1567678604.05751
1567678604.07314
1567678604.08876
1567678604.10439
1567678604.12001
1567678604.13564
1567678604.15126
1567678604.16689
1567678604.18252
1567678604.19814
1567678604.21377
1567678604.22939
1567678604.24502
1567678604.26064
1567678604.27627
1567678604.2919
1567678604.30752
1567678604.32315
1567678604.33877
1567678604.3544
1567678604.37002
1567678604.38565
1567678604.40128
1567678604.4169
1567678604.43253
1567678604.44815
1567678604.46378
1567678604.4794
1567678604.49503
1567678604.51066
1567678604.52628
1567678604.54191
1567678604.55753
1567678604.57316
1567678604.58878
1567678604.60441
1567678604.62004
1567678604.63566
1567678604.65129
1567678604.66691
1567678604.68254
1567678604.69816
1567678604.71379
1567678604.72942
1567678604.74504
1567678604.76067
1567678604.77629
1567678604.79192
1567678604.80754
1567678604.82317
1567678604.8388
1567678604.85442
1567678604.87005
1567678604.88567
1567678604.9013
1567678604.91692
1567678604.93255
1567678604.94818
1567678604.9638
1567678604.97943
1567678604.99505
1567678605.01068
1567678605.02631
1567678605.04193
1567678605.05756
1567678605.07318
1567678605.08881
1567678605.10443
1567678605.12006
1567678605.13569
1567678605.15131
1567678605.16694
1567678605.18256
1567678605.19819
1567678605.21381
1567678605.22944
1567678605.24507
1567678605.26069
1567678605.27632
1567678605.29194
1567678605.30757
1567678605.32319
1567678605.33882
1567678605.35445
1567678605.37007
1567678605.3857
1567678605.40132
1567678605.41695
1567678605.43257
1567678605.4482
1567678605.46383
1567678605.47945
1567678605.49508
1567678605.5107
1567678605.52633
1567678605.54195
1567678605.55758
1567678605.57321
1567678605.58883
1567678605.60446
1567678605.62008
1567678605.63571
1567678605.65133
1567678605.66696
1567678605.68259
1567678605.69821
1567678605.71384
1567678605.72946
1567678605.74509
1567678605.76071
1567678605.77634
1567678605.79197
1567678605.80759
1567678605.82322
1567678605.83884
1567678605.85447
1567678605.87009
1567678605.88572
1567678605.90135
1567678605.91697
1567678605.9326
1567678605.94822
1567678605.96385
1567678605.97947
1567678605.9951
1567678606.01073
1567678606.02635
1567678606.04198
1567678606.0576
1567678606.07323
1567678606.08885
1567678606.10448
1567678606.12011
1567678606.13573
1567678606.15136
1567678606.16698
1567678606.18261
1567678606.19823
1567678606.21386
1567678606.22949
1567678606.24511
1567678606.26074
1567678606.27636
1567678606.29199
1567678606.30761
1567678606.32324
1567678606.33887
1567678606.35449
1567678606.37012
1567678606.38574
1567678606.40137
1567678606.41699
1567678606.43262
1567678606.44825
1567678606.46387
1567678606.4795
1567678606.49512
1567678606.51075
1567678606.52637
1567678606.542
1567678606.55763
1567678606.57325
1567678606.58888
1567678606.6045
1567678606.62013
1567678606.63575
1567678606.65138
1567678606.66701
1567678606.68263
1567678606.69826
1567678606.71388
1567678606.72951
1567678606.74513
1567678606.76076
1567678606.77639
1567678606.79201
1567678606.80764
1567678606.82326
1567678606.83889
1567678606.85451
1567678606.87014
1567678606.88577
1567678606.90139
1567678606.91702
1567678606.93264
1567678606.94827
1567678606.96389
1567678606.97952
1567678606.99515
1567678607.01077
1567678607.0264
1567678607.04202
1567678607.05765
1567678607.07327
1567678607.0889
1567678607.10453
1567678607.12015
1567678607.13578
1567678607.1514
1567678607.16703
1567678607.18266
1567678607.19828
1567678607.21391
1567678607.22953
1567678607.24516
1567678607.26078
1567678607.27641
1567678607.29204
1567678607.30766
1567678607.32329
1567678607.33891
1567678607.35454
1567678607.37016
1567678607.38579
1567678607.40142
1567678607.41704
1567678607.43267
1567678607.44829
1567678607.46392
1567678607.47954
1567678607.49517
1567678607.5108
1567678607.52642
1567678607.54205
1567678607.55767
1567678607.5733
1567678607.58892
1567678607.60455
1567678607.62018
1567678607.6358
1567678607.65143
1567678607.66705
1567678607.68268
1567678607.6983
1567678607.71393
1567678607.72956
1567678607.74518
1567678607.76081
1567678607.77643
1567678607.79206
1567678607.80768
1567678607.82331
1567678607.83894
1567678607.85456
1567678607.87019
1567678607.88581
1567678607.90144
1567678607.91706
1567678607.93269
1567678607.94832
1567678607.96394
1567678607.97957
1567678607.99519
1567678608.01082
1567678608.02644
1567678608.04207
1567678608.0577
1567678608.07332
1567678608.08895
1567678608.10457
1567678608.1202
1567678608.13582
1567678608.15145
1567678608.16708
1567678608.1827
1567678608.19833
1567678608.21395
1567678608.22958
1567678608.2452
1567678608.26083
1567678608.27646
1567678608.29208
1567678608.30771
1567678608.32333
1567678608.33896
1567678608.35458
1567678608.37021
1567678608.38584
1567678608.40146
1567678608.41709
1567678608.43271
1567678608.44834
1567678608.46396
1567678608.47959
1567678608.49522
1567678608.51084
1567678608.52647
1567678608.54209
1567678608.55772
1567678608.57334
1567678608.58897
1567678608.6046
1567678608.62022
1567678608.63585
1567678608.65147
1567678608.6671
1567678608.68272
1567678608.69835
1567678608.71398
1567678608.7296
1567678608.74523
1567678608.76085
1567678608.77648
1567678608.7921
1567678608.80773
1567678608.82336
1567678608.83898
1567678608.85461
1567678608.87023
1567678608.88586
1567678608.90148
1567678608.91711
1567678608.93274
1567678608.94836
1567678608.96399
1567678608.97961
1567678608.99524
1567678609.01086
1567678609.02649
1567678609.04212
1567678609.05774
1567678609.07337
1567678609.08899
1567678609.10462
1567678609.12024
1567678609.13587
1567678609.1515
1567678609.16712
1567678609.18275
1567678609.19837
1567678609.214
1567678609.22962
1567678609.24525
1567678609.26088
1567678609.2765
1567678609.29213
1567678609.30775
1567678609.32338
1567678609.339
1567678609.35463
1567678609.37026
1567678609.38588
1567678609.40151
1567678609.41713
1567678609.43276
1567678609.44839
1567678609.46401
1567678609.47964
1567678609.49526
1567678609.51089
1567678609.52651
1567678609.54214
1567678609.55777
1567678609.57339
1567678609.58902
1567678609.60464
1567678609.62027
1567678609.63589
1567678609.65152
1567678609.66715
1567678609.68277
1567678609.6984
1567678609.71402
1567678609.72965
1567678609.74527
1567678609.7609
1567678609.77653
1567678609.79215
1567678609.80778
1567678609.8234
1567678609.83903
1567678609.85465
1567678609.87028
1567678609.88591
1567678609.90153
1567678609.91716
1567678609.93278
1567678609.94841
1567678609.96403
1567678609.97966
1567678609.99529
1567678610.01091
1567678610.02654
1567678610.04216
1567678610.05779
1567678610.07341
1567678610.08904
1567678610.10467
1567678610.12029
1567678610.13592
1567678610.15154
1567678610.16717
1567678610.18279
1567678610.19842
1567678610.21405
1567678610.22967
1567678610.2453
1567678610.26092
1567678610.27655
1567678610.29217
1567678610.3078
1567678610.32343
1567678610.33905
1567678610.35468
1567678610.3703
1567678610.38593
1567678610.40155
1567678610.41718
1567678610.43281
1567678610.44843
1567678610.46406
1567678610.47968
1567678610.49531
1567678610.51093
1567678610.52656
1567678610.54219
1567678610.55781
1567678610.57344
1567678610.58906
1567678610.60469
1567678610.62031
1567678610.63594
1567678610.65157
1567678610.66719
1567678610.68282
1567678610.69844
1567678610.71407
1567678610.72969
1567678610.74532
1567678610.76095
1567678610.77657
1567678610.7922
1567678610.80782
1567678610.82345
1567678610.83907
1567678610.8547
1567678610.87033
1567678610.88595
1567678610.90158
1567678610.9172
1567678610.93283
1567678610.94845
1567678610.96408
1567678610.97971
1567678610.99533
1567678611.01096
1567678611.02658
1567678611.04221
1567678611.05783
1567678611.07346
1567678611.08909
1567678611.10471
1567678611.12034
1567678611.13596
1567678611.15159
1567678611.16721
1567678611.18284
1567678611.19847
1567678611.21409
1567678611.22972
1567678611.24534
1567678611.26097
1567678611.27659
1567678611.29222
1567678611.30785
1567678611.32347
1567678611.3391
1567678611.35472
1567678611.37035
1567678611.38597
1567678611.4016
1567678611.41723
1567678611.43285
1567678611.44848
1567678611.4641
1567678611.47973
1567678611.49535
1567678611.51098
1567678611.52661
1567678611.54223
1567678611.55786
1567678611.57348
1567678611.58911
1567678611.60473
1567678611.62036
1567678611.63599
1567678611.65161
1567678611.66724
1567678611.68286
1567678611.69849
1567678611.71411
1567678611.72974
1567678611.74537
1567678611.76099
1567678611.77662
1567678611.79224
1567678611.80787
1567678611.82349
1567678611.83912
1567678611.85475
1567678611.87037
1567678611.886
1567678611.90162
1567678611.91725
1567678611.93287
1567678611.9485
1567678611.96413
1567678611.97975
1567678611.99538
1567678612.011
1567678612.02663
1567678612.04226
1567678612.05788
1567678612.07351
1567678612.08913
1567678612.10476
1567678612.12038
1567678612.13601
1567678612.15164
1567678612.16726
1567678612.18289
1567678612.19851
1567678612.21414
1567678612.22976
1567678612.24539
1567678612.26102
1567678612.27664
1567678612.29227
1567678612.30789
1567678612.32352
1567678612.33914
1567678612.35477
1567678612.3704
1567678612.38602
1567678612.40165
1567678612.41727
1567678612.4329
1567678612.44852
1567678612.46415
1567678612.47978
1567678612.4954
1567678612.51103
1567678612.52665
1567678612.54228
1567678612.5579
1567678612.57353
1567678612.58916
1567678612.60478
1567678612.62041
1567678612.63603
1567678612.65166
1567678612.66728
1567678612.68291
1567678612.69854
1567678612.71416
1567678612.72979
1567678612.74541
1567678612.76104
1567678612.77666
1567678612.79229
1567678612.80792
1567678612.82354
1567678612.83917
1567678612.85479
1567678612.87042
1567678612.88604
1567678612.90167
1567678612.9173
1567678612.93292
1567678612.94855
1567678612.96417
1567678612.9798
1567678612.99542
1567678613.01105
1567678613.02668
1567678613.0423
1567678613.05793
1567678613.07355
1567678613.08918
1567678613.1048
1567678613.12043
1567678613.13606
1567678613.15168
1567678613.16731
1567678613.18293
1567678613.19856
1567678613.21418
1567678613.22981
1567678613.24544
1567678613.26106
1567678613.27669
1567678613.29231
1567678613.30794
1567678613.32356
1567678613.33919
1567678613.35482
1567678613.37044
1567678613.38607
1567678613.40169
1567678613.41732
1567678613.43294
1567678613.44857
1567678613.4642
1567678613.47982
1567678613.49545
1567678613.51107
1567678613.5267
1567678613.54232
1567678613.55795
1567678613.57358
1567678613.5892
1567678613.60483
1567678613.62045
1567678613.63608
1567678613.6517
1567678613.66733
1567678613.68296
1567678613.69858
1567678613.71421
1567678613.72983
1567678613.74546
1567678613.76108
1567678613.77671
1567678613.79234
1567678613.80796
1567678613.82359
1567678613.83921
1567678613.85484
1567678613.87046
1567678613.88609
1567678613.90172
1567678613.91734
1567678613.93297
1567678613.94859
1567678613.96422
1567678613.97984
1567678613.99547
1567678614.0111
1567678614.02672
1567678614.04235
1567678614.05797
1567678614.0736
1567678614.08922
1567678614.10485
1567678614.12048
1567678614.1361
1567678614.15173
1567678614.16735
1567678614.18298
1567678614.1986
1567678614.21423
1567678614.22986
1567678614.24548
1567678614.26111
1567678614.27673
1567678614.29236
1567678614.30799
1567678614.32361
1567678614.33924
1567678614.35486
1567678614.37049
1567678614.38611
1567678614.40174
1567678614.41737
1567678614.43299
1567678614.44862
1567678614.46424
1567678614.47987
1567678614.49549
1567678614.51112
1567678614.52675
1567678614.54237
1567678614.558
1567678614.57362
1567678614.58925
1567678614.60487
1567678614.6205
1567678614.63613
1567678614.65175
1567678614.66738
1567678614.683
1567678614.69863
1567678614.71425
1567678614.72988
1567678614.74551
1567678614.76113
1567678614.77676
1567678614.79238
1567678614.80801
1567678614.82363
1567678614.83926
1567678614.85489
1567678614.87051
1567678614.88614
1567678614.90176
1567678614.91739
1567678614.93301
1567678614.94864
1567678614.96427
1567678614.97989
1567678614.99552
1567678615.01114
1567678615.02677
1567678615.04239
1567678615.05802
1567678615.07365
1567678615.08927
1567678615.1049
1567678615.12052
1567678615.13615
1567678615.15177
1567678615.1674
1567678615.18303
1567678615.19865
1567678615.21428
1567678615.2299
1567678615.24553
1567678615.26115
1567678615.27678
1567678615.29241
1567678615.30803
1567678615.32366
1567678615.33928
1567678615.35491
1567678615.37053
1567678615.38616
1567678615.40179
1567678615.41741
1567678615.43304
1567678615.44866
1567678615.46429
1567678615.47991
1567678615.49554
1567678615.51117
1567678615.52679
1567678615.54242
1567678615.55804
1567678615.57367
1567678615.58929
1567678615.60492
1567678615.62055
1567678615.63617
1567678615.6518
1567678615.66742
1567678615.68305
1567678615.69867
1567678615.7143
1567678615.72993
1567678615.74555
1567678615.76118
1567678615.7768
1567678615.79243
1567678615.80805
1567678615.82368
1567678615.83931
1567678615.85493
1567678615.87056
1567678615.88618
1567678615.90181
1567678615.91743
1567678615.93306
1567678615.94869
1567678615.96431
1567678615.97994
1567678615.99556
1567678616.01119
1567678616.02681
1567678616.04244
1567678616.05807
1567678616.07369
1567678616.08932
1567678616.10494
1567678616.12057
1567678616.13619
1567678616.15182
1567678616.16745
1567678616.18307
1567678616.1987
1567678616.21432
1567678616.22995
1567678616.24557
1567678616.2612
1567678616.27683
1567678616.29245
1567678616.30808
1567678616.3237
1567678616.33933
1567678616.35495
1567678616.37058
1567678616.38621
1567678616.40183
1567678616.41746
1567678616.43308
1567678616.44871
1567678616.46433
1567678616.47996
1567678616.49559
1567678616.51121
1567678616.52684
1567678616.54246
1567678616.55809
1567678616.57371
1567678616.58934
1567678616.60497
1567678616.62059
1567678616.63622
1567678616.65184
1567678616.66747
1567678616.68309
1567678616.69872
1567678616.71435
1567678616.72997
1567678616.7456
1567678616.76122
1567678616.77685
1567678616.79247
1567678616.8081
1567678616.82373
1567678616.83935
1567678616.85498
1567678616.8706
1567678616.88623
1567678616.90186
1567678616.91748
1567678616.93311
1567678616.94873
1567678616.96436
1567678616.97998
1567678616.99561
1567678617.01124
1567678617.02686
1567678617.04249
1567678617.05811
1567678617.07374
1567678617.08936
1567678617.10499
1567678617.12062
1567678617.13624
1567678617.15187
1567678617.16749
1567678617.18312
1567678617.19874
1567678617.21437
1567678617.23
1567678617.24562
1567678617.26125
1567678617.27687
1567678617.2925
1567678617.30812
1567678617.32375
1567678617.33938
1567678617.355
1567678617.37063
1567678617.38625
1567678617.40188
1567678617.4175
1567678617.43313
1567678617.44876
1567678617.46438
1567678617.48001
1567678617.49563
1567678617.51126
1567678617.52688
1567678617.54251
1567678617.55814
1567678617.57376
1567678617.58939
1567678617.60501
1567678617.62064
1567678617.63626
1567678617.65189
1567678617.66752
1567678617.68314
1567678617.69877
1567678617.71439
1567678617.73002
1567678617.74564
1567678617.76127
1567678617.7769
1567678617.79252
1567678617.80815
1567678617.82377
1567678617.8394
1567678617.85502
1567678617.87065
1567678617.88628
1567678617.9019
1567678617.91753
1567678617.93315
1567678617.94878
1567678617.9644
1567678617.98003
1567678617.99566
1567678618.01128
1567678618.02691
1567678618.04253
1567678618.05816
1567678618.07378
1567678618.08941
1567678618.10504
1567678618.12066
1567678618.13629
1567678618.15191
1567678618.16754
1567678618.18316
1567678618.19879
1567678618.21442
1567678618.23004
1567678618.24567
1567678618.26129
1567678618.27692
1567678618.29254
1567678618.30817
1567678618.3238
1567678618.33942
1567678618.35505
1567678618.37067
1567678618.3863
1567678618.40192
1567678618.41755
1567678618.43318
1567678618.4488
1567678618.46443
1567678618.48005
1567678618.49568
1567678618.5113
1567678618.52693
1567678618.54256
1567678618.55818
1567678618.57381
1567678618.58943
1567678618.60506
1567678618.62068
1567678618.63631
1567678618.65194
1567678618.66756
1567678618.68319
1567678618.69881
1567678618.71444
1567678618.73006
1567678618.74569
1567678618.76132
1567678618.77694
1567678618.79257
1567678618.80819
1567678618.82382
1567678618.83944
1567678618.85507
1567678618.8707
1567678618.88632
1567678618.90195
1567678618.91757
1567678618.9332
1567678618.94882
1567678618.96445
1567678618.98008
1567678618.9957
1567678619.01133
1567678619.02695
1567678619.04258
1567678619.0582
1567678619.07383
1567678619.08946
1567678619.10508
1567678619.12071
1567678619.13633
1567678619.15196
1567678619.16759
1567678619.18321
1567678619.19884
1567678619.21446
1567678619.23009
1567678619.24571
1567678619.26134
1567678619.27697
1567678619.29259
1567678619.30822
1567678619.32384
1567678619.33947
1567678619.35509
1567678619.37072
1567678619.38635
1567678619.40197
1567678619.4176
1567678619.43322
1567678619.44885
1567678619.46447
1567678619.4801
1567678619.49573
1567678619.51135
1567678619.52698
1567678619.5426
1567678619.55823
1567678619.57385
1567678619.58948
1567678619.60511
1567678619.62073
1567678619.63636
1567678619.65198
1567678619.66761
1567678619.68323
1567678619.69886
1567678619.71449
1567678619.73011
1567678619.74574
1567678619.76136
1567678619.77699
1567678619.79261
1567678619.80824
1567678619.82387
1567678619.83949
1567678619.85512
1567678619.87074
1567678619.88637
1567678619.90199
1567678619.91762
1567678619.93325
1567678619.94887
1567678619.9645
1567678619.98012
1567678619.99575
1567678620.01137
1567678620.027
1567678620.04263
1567678620.05825
1567678620.07388
1567678620.0895
1567678620.10513
1567678620.12075
1567678620.13638
1567678620.15201
1567678620.16763
1567678620.18326
1567678620.19888
1567678620.21451
1567678620.23013
1567678620.24576
1567678620.26139
1567678620.27701
1567678620.29264
1567678620.30826
1567678620.32389
1567678620.33951
1567678620.35514
1567678620.37077
1567678620.38639
1567678620.40202
1567678620.41764
1567678620.43327
1567678620.44889
1567678620.46452
1567678620.48015
1567678620.49577
1567678620.5114
1567678620.52702
1567678620.54265
1567678620.55827
1567678620.5739
1567678620.58953
1567678620.60515
1567678620.62078
1567678620.6364
1567678620.65203
1567678620.66765
1567678620.68328
1567678620.69891
1567678620.71453
1567678620.73016
1567678620.74578
1567678620.76141
1567678620.77703
1567678620.79266
1567678620.80829
1567678620.82391
1567678620.83954
1567678620.85516
1567678620.87079
1567678620.88641
1567678620.90204
1567678620.91767
1567678620.93329
1567678620.94892
1567678620.96454
1567678620.98017
1567678620.99579
1567678621.01142
1567678621.02705
1567678621.04267
1567678621.0583
1567678621.07392
1567678621.08955
1567678621.10517
1567678621.1208
1567678621.13643
1567678621.15205
1567678621.16768
1567678621.1833
1567678621.19893
1567678621.21455
1567678621.23018
1567678621.24581
1567678621.26143
1567678621.27706
1567678621.29268
1567678621.30831
1567678621.32394
1567678621.33956
1567678621.35519
1567678621.37081
1567678621.38644
1567678621.40206
1567678621.41769
1567678621.43332
1567678621.44894
1567678621.46457
1567678621.48019
1567678621.49582
1567678621.51144
1567678621.52707
1567678621.5427
1567678621.55832
1567678621.57395
1567678621.58957
1567678621.6052
1567678621.62082
1567678621.63645
1567678621.65208
1567678621.6677
1567678621.68333
1567678621.69895
1567678621.71458
1567678621.7302
1567678621.74583
1567678621.76146
1567678621.77708
1567678621.79271
1567678621.80833
1567678621.82396
1567678621.83958
1567678621.85521
1567678621.87084
1567678621.88646
1567678621.90209
1567678621.91771
1567678621.93334
1567678621.94896
1567678621.96459
1567678621.98022
1567678621.99584
1567678622.01147
1567678622.02709
1567678622.04272
1567678622.05834
1567678622.07397
1567678622.0896
1567678622.10522
1567678622.12085
1567678622.13647
1567678622.1521
1567678622.16772
1567678622.18335
1567678622.19898
1567678622.2146
1567678622.23023
1567678622.24585
1567678622.26148
1567678622.2771
1567678622.29273
1567678622.30836
1567678622.32398
1567678622.33961
1567678622.35523
1567678622.37086
1567678622.38648
1567678622.40211
1567678622.41774
1567678622.43336
1567678622.44899
1567678622.46461
1567678622.48024
1567678622.49586
1567678622.51149
1567678622.52712
1567678622.54274
1567678622.55837
1567678622.57399
1567678622.58962
1567678622.60524
1567678622.62087
1567678622.6365
1567678622.65212
1567678622.66775
1567678622.68337
1567678622.699
1567678622.71462
1567678622.73025
1567678622.74588
1567678622.7615
1567678622.77713
1567678622.79275
1567678622.80838
1567678622.824
1567678622.83963
1567678622.85526
1567678622.87088
1567678622.88651
1567678622.90213
1567678622.91776
1567678622.93338
1567678622.94901
1567678622.96464
1567678622.98026
1567678622.99589
1567678623.01151
1567678623.02714
1567678623.04276
1567678623.05839
1567678623.07402
1567678623.08964
1567678623.10527
1567678623.12089
1567678623.13652
1567678623.15214
1567678623.16777
1567678623.1834
1567678623.19902
1567678623.21465
1567678623.23027
1567678623.2459
1567678623.26152
1567678623.27715
1567678623.29278
1567678623.3084
1567678623.32403
1567678623.33965
1567678623.35528
1567678623.3709
1567678623.38653
1567678623.40216
1567678623.41778
1567678623.43341
1567678623.44903
1567678623.46466
1567678623.48028
1567678623.49591
1567678623.51154
1567678623.52716
1567678623.54279
1567678623.55841
1567678623.57404
1567678623.58966
1567678623.60529
1567678623.62092
1567678623.63654
1567678623.65217
1567678623.66779
1567678623.68342
1567678623.69904
1567678623.71467
1567678623.7303
1567678623.74592
1567678623.76155
1567678623.77717
1567678623.7928
1567678623.80842
1567678623.82405
1567678623.83968
1567678623.8553
1567678623.87093
1567678623.88655
1567678623.90218
1567678623.9178
1567678623.93343
1567678623.94906
1567678623.96468
1567678623.98031
1567678623.99593
1567678624.01156
1567678624.02719
1567678624.04281
1567678624.05844
1567678624.07406
1567678624.08969
1567678624.10531
1567678624.12094
1567678624.13657
1567678624.15219
1567678624.16782
1567678624.18344
1567678624.19907
1567678624.21469
1567678624.23032
1567678624.24595
1567678624.26157
1567678624.2772
1567678624.29282
1567678624.30845
1567678624.32407
1567678624.3397
1567678624.35533
1567678624.37095
1567678624.38658
1567678624.4022
1567678624.41783
1567678624.43345
1567678624.44908
1567678624.46471
1567678624.48033
1567678624.49596
1567678624.51158
1567678624.52721
1567678624.54283
1567678624.55846
1567678624.57409
1567678624.58971
1567678624.60534
1567678624.62096
1567678624.63659
1567678624.65221
1567678624.66784
1567678624.68347
1567678624.69909
1567678624.71472
1567678624.73034
1567678624.74597
1567678624.76159
1567678624.77722
1567678624.79285
1567678624.80847
1567678624.8241
1567678624.83972
1567678624.85535
1567678624.87097
1567678624.8866
1567678624.90223
1567678624.91785
1567678624.93348
1567678624.9491
1567678624.96473
1567678624.98035
1567678624.99598
1567678625.01161
1567678625.02723
1567678625.04286
1567678625.05848
1567678625.07411
1567678625.08973
1567678625.10536
1567678625.12099
1567678625.13661
1567678625.15224
1567678625.16786
1567678625.18349
1567678625.19911
1567678625.21474
1567678625.23037
1567678625.24599
1567678625.26162
1567678625.27724
1567678625.29287
1567678625.30849
1567678625.32412
1567678625.33975
1567678625.35537
1567678625.371
1567678625.38662
1567678625.40225
1567678625.41787
1567678625.4335
1567678625.44913
1567678625.46475
1567678625.48038
1567678625.496
1567678625.51163
1567678625.52725
1567678625.54288
1567678625.55851
1567678625.57413
1567678625.58976
1567678625.60538
1567678625.62101
1567678625.63663
1567678625.65226
1567678625.66789
1567678625.68351
1567678625.69914
1567678625.71476
1567678625.73039
1567678625.74601
1567678625.76164
1567678625.77727
1567678625.79289
1567678625.80852
1567678625.82414
1567678625.83977
1567678625.85539
1567678625.87102
1567678625.88665
1567678625.90227
1567678625.9179
1567678625.93352
1567678625.94915
1567678625.96477
1567678625.9804
1567678625.99603
1567678626.01165
1567678626.02728
1567678626.0429
1567678626.05853
1567678626.07415
1567678626.08978
1567678626.10541
1567678626.12103
1567678626.13666
1567678626.15228
1567678626.16791
1567678626.18353
1567678626.19916
1567678626.21479
1567678626.23041
1567678626.24604
1567678626.26166
1567678626.27729
1567678626.29292
1567678626.30854
1567678626.32417
1567678626.33979
1567678626.35542
1567678626.37104
1567678626.38667
1567678626.4023
1567678626.41792
1567678626.43355
1567678626.44917
1567678626.4648
1567678626.48042
1567678626.49605
1567678626.51168
1567678626.5273
1567678626.54293
1567678626.55855
1567678626.57418
1567678626.5898
1567678626.60543
1567678626.62106
1567678626.63668
1567678626.65231
1567678626.66793
1567678626.68356
1567678626.69918
1567678626.71481
1567678626.73044
1567678626.74606
1567678626.76169
1567678626.77731
1567678626.79294
1567678626.80856
1567678626.82419
1567678626.83982
1567678626.85544
1567678626.87107
1567678626.88669
1567678626.90232
1567678626.91794
1567678626.93357
1567678626.9492
1567678626.96482
1567678626.98045
1567678626.99607
1567678627.0117
1567678627.02732
1567678627.04295
1567678627.05858
1567678627.0742
1567678627.08983
1567678627.10545
1567678627.12108
1567678627.1367
1567678627.15233
1567678627.16796
1567678627.18358
1567678627.19921
1567678627.21483
1567678627.23046
1567678627.24608
1567678627.26171
1567678627.27734
1567678627.29296
1567678627.30859
1567678627.32421
1567678627.33984
1567678627.35546
1567678627.37109
1567678627.38672
1567678627.40234
1567678627.41797
1567678627.43359
1567678627.44922
1567678627.46484
1567678627.48047
1567678627.4961
1567678627.51172
1567678627.52735
1567678627.54297
1567678627.5586
1567678627.57422
1567678627.58985
1567678627.60548
1567678627.6211
1567678627.63673
1567678627.65235
1567678627.66798
1567678627.6836
1567678627.69923
1567678627.71486
1567678627.73048
1567678627.74611
1567678627.76173
1567678627.77736
1567678627.79298
1567678627.80861
1567678627.82424
1567678627.83986
1567678627.85549
1567678627.87111
1567678627.88674
1567678627.90236
1567678627.91799
1567678627.93362
1567678627.94924
1567678627.96487
1567678627.98049
1567678627.99612
1567678628.01174
1567678628.02737
1567678628.043
1567678628.05862
1567678628.07425
1567678628.08987
1567678628.1055
1567678628.12112
1567678628.13675
1567678628.15238
1567678628.168
1567678628.18363
1567678628.19925
1567678628.21488
1567678628.2305
1567678628.24613
1567678628.26176
1567678628.27738
1567678628.29301
1567678628.30863
1567678628.32426
1567678628.33988
1567678628.35551
1567678628.37114
1567678628.38676
1567678628.40239
1567678628.41801
1567678628.43364
1567678628.44927
1567678628.46489
1567678628.48052
1567678628.49614
1567678628.51177
1567678628.52739
1567678628.54302
1567678628.55865
1567678628.57427
1567678628.5899
1567678628.60552
1567678628.62115
1567678628.63677
1567678628.6524
1567678628.66803
1567678628.68365
1567678628.69928
1567678628.7149
1567678628.73053
1567678628.74615
1567678628.76178
1567678628.77741
1567678628.79303
1567678628.80866
1567678628.82428
1567678628.83991
1567678628.85553
1567678628.87116
1567678628.88679
1567678628.90241
1567678628.91804
1567678628.93366
1567678628.94929
1567678628.96491
1567678628.98054
1567678628.99617
1567678629.01179
1567678629.02742
1567678629.04304
1567678629.05867
1567678629.07429
1567678629.08992
1567678629.10555
1567678629.12117
1567678629.1368
1567678629.15242
1567678629.16805
1567678629.18367
1567678629.1993
1567678629.21493
1567678629.23055
1567678629.24618
1567678629.2618
1567678629.27743
1567678629.29305
1567678629.30868
1567678629.32431
1567678629.33993
1567678629.35556
1567678629.37118
1567678629.38681
1567678629.40243
1567678629.41806
1567678629.43369
1567678629.44931
1567678629.46494
1567678629.48056
1567678629.49619
1567678629.51181
1567678629.52744
1567678629.54307
1567678629.55869
1567678629.57432
1567678629.58994
1567678629.60557
1567678629.62119
1567678629.63682
1567678629.65245
1567678629.66807
1567678629.6837
1567678629.69932
1567678629.71495
1567678629.73057
1567678629.7462
1567678629.76183
1567678629.77745
1567678629.79308
1567678629.8087
1567678629.82433
1567678629.83995
1567678629.85558
1567678629.87121
1567678629.88683
1567678629.90246
1567678629.91808
1567678629.93371
1567678629.94933
1567678629.96496
1567678629.98059
1567678629.99621
1567678630.01184
1567678630.02746
1567678630.04309
1567678630.05871
1567678630.07434
1567678630.08997
1567678630.10559
1567678630.12122
1567678630.13684
1567678630.15247
1567678630.16809
1567678630.18372
1567678630.19935
1567678630.21497
1567678630.2306
1567678630.24622
1567678630.26185
1567678630.27747
1567678630.2931
1567678630.30873
1567678630.32435
1567678630.33998
1567678630.3556
1567678630.37123
1567678630.38685
1567678630.40248
1567678630.41811
1567678630.43373
1567678630.44936
1567678630.46498
1567678630.48061
1567678630.49623
1567678630.51186
1567678630.52749
1567678630.54311
1567678630.55874
1567678630.57436
1567678630.58999
1567678630.60561
1567678630.62124
1567678630.63687
1567678630.65249
1567678630.66812
1567678630.68374
1567678630.69937
1567678630.71499
1567678630.73062
1567678630.74625
1567678630.76187
1567678630.7775
1567678630.79312
1567678630.80875
1567678630.82437
1567678630.84
1567678630.85563
1567678630.87125
1567678630.88688
1567678630.9025
1567678630.91813
1567678630.93375
1567678630.94938
1567678630.96501
1567678630.98063
1567678630.99626
1567678631.01188
1567678631.02751
1567678631.04313
1567678631.05876
1567678631.07439
1567678631.09001
1567678631.10564
1567678631.12126
1567678631.13689
1567678631.15252
1567678631.16814
1567678631.18377
1567678631.19939
1567678631.21502
1567678631.23064
1567678631.24627
1567678631.2619
1567678631.27752
1567678631.29315
1567678631.30877
1567678631.3244
1567678631.34002
1567678631.35565
1567678631.37128
1567678631.3869
1567678631.40253
1567678631.41815
1567678631.43378
1567678631.4494
1567678631.46503
1567678631.48066
1567678631.49628
1567678631.51191
1567678631.52753
1567678631.54316
1567678631.55878
1567678631.57441
1567678631.59004
1567678631.60566
1567678631.62129
1567678631.63691
1567678631.65254
1567678631.66816
1567678631.68379
1567678631.69942
1567678631.71504
1567678631.73067
1567678631.74629
1567678631.76192
1567678631.77754
1567678631.79317
1567678631.8088
1567678631.82442
1567678631.84005
1567678631.85567
1567678631.8713
1567678631.88692
1567678631.90255
1567678631.91818
1567678631.9338
1567678631.94943
1567678631.96505
1567678631.98068
1567678631.9963
1567678632.01193
1567678632.02756
1567678632.04318
1567678632.05881
1567678632.07443
1567678632.09006
1567678632.10568
1567678632.12131
1567678632.13694
1567678632.15256
1567678632.16819
1567678632.18381
1567678632.19944
1567678632.21506
1567678632.23069
1567678632.24632
1567678632.26194
1567678632.27757
1567678632.29319
1567678632.30882
1567678632.32444
1567678632.34007
1567678632.3557
1567678632.37132
1567678632.38695
1567678632.40257
1567678632.4182
1567678632.43382
1567678632.44945
1567678632.46508
1567678632.4807
1567678632.49633
1567678632.51195
1567678632.52758
1567678632.5432
1567678632.55883
1567678632.57446
1567678632.59008
1567678632.60571
1567678632.62133
1567678632.63696
1567678632.65258
1567678632.66821
1567678632.68384
1567678632.69946
1567678632.71509
1567678632.73071
1567678632.74634
1567678632.76196
1567678632.77759
1567678632.79322
1567678632.80884
1567678632.82447
1567678632.84009
1567678632.85572
1567678632.87134
1567678632.88697
1567678632.9026
1567678632.91822
1567678632.93385
1567678632.94947
1567678632.9651
1567678632.98072
1567678632.99635
1567678633.01198
1567678633.0276
1567678633.04323
1567678633.05885
1567678633.07448
1567678633.0901
1567678633.10573
1567678633.12136
1567678633.13698
1567678633.15261
1567678633.16823
1567678633.18386
1567678633.19948
1567678633.21511
1567678633.23074
1567678633.24636
1567678633.26199
1567678633.27761
1567678633.29324
1567678633.30887
1567678633.32449
1567678633.34012
1567678633.35574
1567678633.37137
1567678633.38699
1567678633.40262
1567678633.41825
1567678633.43387
1567678633.4495
1567678633.46512
1567678633.48075
1567678633.49637
1567678633.512
1567678633.52763
1567678633.54325
1567678633.55888
1567678633.5745
1567678633.59013
1567678633.60575
1567678633.62138
1567678633.63701
1567678633.65263
1567678633.66826
1567678633.68388
1567678633.69951
1567678633.71513
1567678633.73076
1567678633.74639
1567678633.76201
1567678633.77764
1567678633.79326
1567678633.80889
1567678633.82451
1567678633.84014
1567678633.85577
1567678633.87139
1567678633.88702
1567678633.90264
1567678633.91827
1567678633.93389
1567678633.94952
1567678633.96515
1567678633.98077
1567678633.9964
1567678634.01202
1567678634.02765
1567678634.04327
1567678634.0589
1567678634.07453
1567678634.09015
1567678634.10578
1567678634.1214
1567678634.13703
1567678634.15265
1567678634.16828
1567678634.18391
1567678634.19953
1567678634.21516
1567678634.23078
1567678634.24641
1567678634.26203
1567678634.27766
1567678634.29329
1567678634.30891
1567678634.32454
1567678634.34016
1567678634.35579
1567678634.37141
1567678634.38704
1567678634.40267
1567678634.41829
1567678634.43392
1567678634.44954
1567678634.46517
1567678634.48079
1567678634.49642
1567678634.51205
1567678634.52767
1567678634.5433
1567678634.55892
1567678634.57455
1567678634.59017
1567678634.6058
1567678634.62143
1567678634.63705
1567678634.65268
1567678634.6683
1567678634.68393
1567678634.69955
1567678634.71518
1567678634.73081
1567678634.74643
1567678634.76206
1567678634.77768
1567678634.79331
1567678634.80893
1567678634.82456
1567678634.84019
1567678634.85581
1567678634.87144
1567678634.88706
1567678634.90269
1567678634.91831
1567678634.93394
1567678634.94957
1567678634.96519
1567678634.98082
1567678634.99644
1567678635.01207
1567678635.02769
1567678635.04332
1567678635.05895
1567678635.07457
1567678635.0902
1567678635.10582
1567678635.12145
1567678635.13707
1567678635.1527
1567678635.16833
1567678635.18395
1567678635.19958
1567678635.2152
1567678635.23083
1567678635.24645
1567678635.26208
1567678635.27771
1567678635.29333
1567678635.30896
1567678635.32458
1567678635.34021
1567678635.35583
1567678635.37146
1567678635.38709
1567678635.40271
1567678635.41834
1567678635.43396
1567678635.44959
1567678635.46521
1567678635.48084
1567678635.49647
1567678635.51209
1567678635.52772
1567678635.54334
1567678635.55897
1567678635.57459
1567678635.59022
1567678635.60585
1567678635.62147
1567678635.6371
1567678635.65272
1567678635.66835
1567678635.68397
1567678635.6996
1567678635.71523
1567678635.73085
1567678635.74648
1567678635.7621
1567678635.77773
1567678635.79335
1567678635.80898
1567678635.82461
1567678635.84023
1567678635.85586
1567678635.87148
1567678635.88711
1567678635.90273
1567678635.91836
1567678635.93399
1567678635.94961
1567678635.96524
1567678635.98086
1567678635.99649
1567678636.01212
1567678636.02774
1567678636.04337
1567678636.05899
1567678636.07462
1567678636.09024
1567678636.10587
1567678636.1215
1567678636.13712
1567678636.15275
1567678636.16837
1567678636.184
1567678636.19962
1567678636.21525
1567678636.23088
1567678636.2465
1567678636.26213
1567678636.27775
1567678636.29338
1567678636.309
1567678636.32463
1567678636.34026
1567678636.35588
1567678636.37151
1567678636.38713
1567678636.40276
1567678636.41838
1567678636.43401
1567678636.44964
1567678636.46526
1567678636.48089
1567678636.49651
1567678636.51214
1567678636.52776
1567678636.54339
1567678636.55902
1567678636.57464
1567678636.59027
1567678636.60589
1567678636.62152
1567678636.63714
1567678636.65277
1567678636.6684
1567678636.68402
1567678636.69965
1567678636.71527
1567678636.7309
1567678636.74652
1567678636.76215
1567678636.77778
1567678636.7934
1567678636.80903
1567678636.82465
1567678636.84028
1567678636.8559
1567678636.87153
1567678636.88716
1567678636.90278
1567678636.91841
1567678636.93403
1567678636.94966
1567678636.96528
1567678636.98091
1567678636.99654
1567678637.01216
1567678637.02779
1567678637.04341
1567678637.05904
1567678637.07466
1567678637.09029
1567678637.10592
1567678637.12154
1567678637.13717
1567678637.15279
1567678637.16842
1567678637.18404
1567678637.19967
1567678637.2153
1567678637.23092
1567678637.24655
1567678637.26217
1567678637.2778
1567678637.29342
1567678637.30905
1567678637.32468
1567678637.3403
1567678637.35593
1567678637.37155
1567678637.38718
1567678637.4028
1567678637.41843
1567678637.43406
1567678637.44968
1567678637.46531
1567678637.48093
1567678637.49656
1567678637.51218
1567678637.52781
1567678637.54344
1567678637.55906
1567678637.57469
1567678637.59031
1567678637.60594
1567678637.62156
1567678637.63719
1567678637.65282
1567678637.66844
1567678637.68407
1567678637.69969
1567678637.71532
1567678637.73094
1567678637.74657
1567678637.7622
1567678637.77782
1567678637.79345
1567678637.80907
1567678637.8247
1567678637.84032
1567678637.85595
1567678637.87158
1567678637.8872
1567678637.90283
1567678637.91845
1567678637.93408
1567678637.9497
1567678637.96533
1567678637.98096
1567678637.99658
1567678638.01221
1567678638.02783
1567678638.04346
1567678638.05908
1567678638.07471
1567678638.09034
1567678638.10596
1567678638.12159
1567678638.13721
1567678638.15284
1567678638.16847
1567678638.18409
1567678638.19972
1567678638.21534
1567678638.23097
1567678638.24659
1567678638.26222
1567678638.27785
1567678638.29347
1567678638.3091
1567678638.32472
1567678638.34035
1567678638.35597
1567678638.3716
1567678638.38723
1567678638.40285
1567678638.41848
1567678638.4341
1567678638.44973
1567678638.46535
