-6.165859
-6.3018
-6.493702
-6.697529
-6.868439
-6.89473
-6.75415
-6.491745
-6.245495
-6.157413
-6.2355
-6.262703
-5.895554
-4.845566
-3.082619
-0.9713249
0.8827591
1.89925
1.839634
0.9929543
0.02509308
-0.3966103
0.09261322
1.39782
3.021584
4.382423
5.060833
4.979649
4.367817
3.563633
2.858246
2.370853
2.095028
2.002941
2.083931
2.325127
2.736843
3.271137
3.815937
4.231873
4.522579
4.692627
4.820831
4.966923
5.08934
5.094685
4.894531
4.461487
3.820366
3.091446
2.34507
1.577435
0.6968002
-0.3961563
-1.692318
-3.022186
-4.123085
-4.800415
-4.971645
-4.70961
-4.212303
-3.675194
-3.206818
-2.819546
-2.496181
-2.197731
-1.98204
-1.9347
-2.160149
-2.773457
-3.722153
-4.947445
-6.252296
-7.429047
-8.174618
-8.292484
-7.636414
-6.162235
-4.085342
-1.717911
0.4251785
1.783684
1.927891
0.8198318
-1.137966
-3.171871
-4.44212
-4.524452
-3.484955
-1.842403
-0.2877083
0.7609329
1.250893
1.460686
1.704182
2.182465
2.819088
3.445469
3.909492
4.204048
4.449574
4.655979
4.75864
4.561932
3.963928
2.991863
1.890507
0.9391327
0.3146286
0.1535034
0.4047699
0.9692955
1.701206
2.441147
3.044537
3.340778
3.302898
2.975704
2.57262
2.316441
2.267673
2.322201
2.271175
1.975071
1.474319
1.050327
0.9561577
1.284538
1.859215
2.286701
2.235058
1.589508
0.5615654
-0.5025711
-1.293518
-1.800751
-2.243561
-2.937252
-4.07618
-5.603851
-7.250439
-8.660721
-9.548904
-9.736832
-9.19989
-8.050117
-6.461319
-4.761784
-3.420364
-2.829437
-3.142628
-4.130325
-5.212265
-5.761086
-5.350285
-3.963284
-1.981583
0.02321243
1.586472
2.502789
2.835239
2.803181
2.590832
2.315037
2.046768
1.84301
1.783619
1.939133
2.34502
2.923939
3.577637
4.130585
4.499615
4.709961
4.902676
5.228249
5.82412
6.650238
7.492126
8.098431
8.227703
7.771187
6.794376
5.488171
4.019173
2.547684
1.1488
-0.1437721
-1.223225
-1.939255
-2.162392
-1.790062
-0.8920059
0.2737732
1.359356
2.011597
2.019009
1.383503
0.331337
-0.8732948
-1.925026
-2.759476
-3.434284
-4.132607
-5.029289
-6.177586
-7.468822
-8.746471
-9.828583
-10.53822
-10.73246
-10.22435
-8.856197
-6.662697
-3.928822
-1.20583
0.8036156
1.567642
1.007221
-0.4084244
-1.949371
-2.831669
-2.735847
-1.808968
-0.5148888
0.6567345
1.390244
1.630589
1.559139
1.347446
1.21809
1.249798
1.563915
2.185696
3.082001
4.068478
4.838684
5.148193
4.851097
4.082817
3.144375
2.405369
2.157341
2.536678
3.527172
4.883499
6.338032
7.575722
8.386875
8.693867
8.519375
8.004536
7.248341
6.409824
5.547535
4.732224
3.988991
3.347878
2.833038
2.431179
2.132629
1.879482
1.705299
1.607136
1.632843
1.740189
1.778439
1.619633
1.157799
0.4401054
-0.3990631
-1.186951
-1.822025
-2.383049
-3.070404
-4.106907
-5.517708
-7.166012
-8.719521
-9.751884
-10.01631
-9.439938
-8.200567
-6.717699
-5.513988
-5.033192
-5.523548
-6.891155
-8.60054
-9.995426
-10.42066
-9.474598
-7.208738
-4.038744
-0.5795383
2.591433
5.046474
6.70435
7.595942
7.85536
7.724922
7.393909
7.092257
6.956453
7.02002
7.119375
7.051395
6.608612
5.749393
4.684879
3.642143
2.902657
2.563099
2.57229
2.864506
3.366642
4.114882
5.151293
6.439871
7.705379
8.662418
9.022095
8.664587
7.707922
6.384037
4.998896
3.790836
2.881691
2.169556
1.496868
0.7298679
-0.1934032
-1.19198
-2.06793
-2.667969
-2.864227
-2.626684
-2.111753
-1.564144
-1.245278
-1.391355
-2.137003
-3.472201
-5.274607
-7.256688
-9.005282
-10.07189
-10.12049
-9.064069
-7.145825
-4.92162
-3.057073
-2.071256
-2.149713
-2.976564
-3.946526
-4.33
-3.678714
-1.945971
0.5327888
3.219346
5.566244
7.142203
7.726877
7.237129
5.874266
3.968861
1.998653
0.4485512
-0.3918496
-0.5179714
-0.2622674
-0.05654764
-0.2388644
-0.8642431
-1.751961
-2.627027
-3.293367
-3.697444
-3.864199
-3.827748
-3.455901
-2.580412
-1.107698
0.8278797
2.881148
4.706903
6.015717
6.788229
7.150459
7.331372
7.450468
7.515766
7.407952
6.985472
6.165336
4.944488
3.405659
1.671907
-0.1151466
-1.851507
-3.47909
-4.968884
-6.326872
-7.605583
-8.871273
-10.21436
-11.79407
-13.70563
-15.91782
-18.2399
-20.16452
-21.06024
-20.40146
-18.08993
-14.46394
-10.27622
-6.313332
-3.041764
-0.535737
1.512499
3.420554
5.320721
7.053637
8.357167
9.054451
9.213639
9.003826
8.575661
7.917439
6.896873
5.433232
3.632909
1.836652
0.4057169
-0.4840698
-0.9082155
-1.18978
-1.635285
-2.392056
-3.33732
-4.117214
-4.41853
-4.022483
-2.988256
-1.46304
0.3229637
2.201615
3.960971
5.410572
6.307877
6.431972
5.748663
4.448198
2.966148
1.738895
1.118956
1.071269
1.420508
1.825049
2.030331
1.896378
1.46554
0.7630653
-0.2106857
-1.44115
-2.905019
-4.41492
-5.732748
-6.618898
-7.062759
-7.282093
-7.660028
-8.470167
-9.684752
-10.89946
-11.49961
-10.93442
-9.019384
-6.005768
-2.496689
0.8373013
3.516705
5.361925
6.495641
7.124296
7.448022
7.524731
7.386387
7.012028
6.43121
5.669348
4.801023
3.83952
2.833203
1.794116
0.7362089
-0.2408953
-0.9611759
-1.194232
-0.8101931
0.1984911
1.584784
2.999216
4.075437
4.592507
4.590395
4.311499
4.014296
3.804943
3.676043
3.446323
2.97962
2.255844
1.43911
0.6905785
0.1713276
-0.1079235
-0.2449932
-0.3843517
-0.6280003
-0.9567261
-1.402496
-1.878782
-2.26721
-2.469648
-2.34186
-1.802561
-0.8765011
0.2890625
1.42206
2.216722
2.486465
2.22975
1.555429
0.6870823
-0.2447338
-1.259926
-2.477125
-4.041939
-5.890219
-7.840704
-9.546143
-10.73279
-11.17942
-10.8965
-9.974022
-8.671808
-7.247713
-5.983152
-5.119102
-4.814543
-5.091833
-5.590347
-5.862
-5.370102
-3.786518
-1.12001
2.166046
5.370182
7.748137
8.818508
8.523455
7.15152
5.25844
3.398106
1.990801
1.226809
1.081608
1.388311
1.99029
2.674395
3.291002
3.738916
4.015368
4.13439
4.156214
4.064219
3.88899
3.623821
3.286737
2.872993
2.420822
1.970465
1.565193
1.263794
1.103252
1.151918
1.403894
1.860409
2.420904
2.981113
3.43697
3.698439
3.746714
3.556198
3.16202
2.594593
1.837084
0.9191837
-0.06627083
-1.089346
-2.032866
-2.771219
-3.223927
-3.372581
-3.281403
-3.13512
-3.085999
-3.270819
-3.803471
-4.59836
-5.393988
-5.857166
-5.694784
-4.83313
-3.482306
-2.131376
-1.290709
-1.265512
-2.010702
-3.121359
-4.066011
-4.377625
-3.863783
-2.688049
-1.246712
0.0005321503
0.7449894
0.8970432
0.625206
0.156599
-0.1925259
-0.2125969
0.201025
1.048817
2.204748
3.528696
4.843109
6.010881
6.870991
7.37837
7.489662
7.182465
6.532072
5.666965
4.841787
4.332983
4.442595
5.274839
6.700928
8.353945
9.757629
10.57388
10.66477
10.17164
9.36467
8.487198
7.608027
6.58008
5.220732
3.405071
1.293434
-0.7868271
-2.432423
-3.334
-3.42259
-2.893692
-2.19112
-1.752403
-1.88909
-2.638151
-3.877289
-5.35446
-6.770472
-7.855162
-8.325218
-7.984322
-6.715996
-4.64344
-2.21162
-0.08716583
1.072086
0.9460258
-0.2837524
-1.938934
-3.195927
-3.343807
-2.123837
0.2042236
2.985897
5.507534
7.183601
7.739403
7.268024
6.111095
4.75185
3.616188
2.904694
2.610233
2.564217
2.508942
2.278755
1.856289
1.283245
0.6677589
0.06153107
-0.5861893
-1.29517
-2.056263
-2.777153
-3.274879
-3.439922
-3.303761
-3.011215
-2.792797
-2.814316
-3.065903
-3.494617
-3.964588
-4.385628
-4.723511
-5.07756
-5.536045
-6.118298
-6.77729
-7.363934
-7.870579
-8.365299
-8.98196
-9.86813
-11.00755
-12.17141
-12.96308
-13.00898
-12.03689
-10.10129
-7.524723
-4.780659
-2.374203
-0.6318245
0.3296013
0.5692482
0.3586578
0.07030106
0.0605278
0.5426369
1.482468
2.605198
3.575451
4.036861
3.809769
2.979866
1.874096
0.9141426
0.4075241
0.5354271
1.165524
2.046661
2.832405
3.235233
3.144844
2.607132
1.7108
0.5864372
-0.5637169
-1.589455
-2.34359
-2.659351
-2.48156
-1.824696
-0.9013367
-0.001461029
0.5808334
0.6551933
0.1869583
-0.7327805
-1.889908
-3.045662
-3.985378
-4.610798
-4.916473
-4.965298
-4.865166
-4.705826
-4.52655
-4.354034
-4.293518
-4.4454
-4.996262
-6.098976
-7.760361
-9.787251
-11.86412
-13.5512
-14.46239
-14.43853
-13.4277
-11.57717
-9.239754
-6.866611
-4.89439
-3.56847
-2.835716
-2.273769
-1.330151
0.4911156
3.307339
6.80032
10.36547
13.34219
15.33107
16.25303
16.33234
15.87736
15.15851
14.33265
13.54731
12.92275
12.52174
12.32818
12.16722
11.82451
11.08199
9.911514
8.481741
7.04953
5.88518
5.069426
4.579967
4.335875
4.288879
4.339441
4.399395
4.317085
3.915304
3.114384
1.963646
0.6731129
-0.5148335
-1.421583
-2.109671
-2.7868
-3.626492
-4.713297
-5.91991
-6.971941
-7.622662
-7.780155
-7.506948
-7.022255
-6.560217
-6.26757
-6.193737
-6.22378
-6.260601
-6.296724
-6.403059
-6.713144
-7.288956
-8.14448
-9.241945
-10.5045
-11.80218
-13.02052
-13.94015
-14.25031
-13.6143
-11.7503
-8.697098
-4.854528
-1.001747
2.047302
3.692201
3.853612
3.03337
2.035218
1.655153
2.265362
3.763474
5.664165
7.441701
8.7305
9.454809
9.75618
9.820007
9.79425
9.773475
9.847816
10.08294
10.50866
11.03998
11.45315
11.48921
10.93031
9.777847
8.21283
6.564176
5.078595
3.895136
3.043902
2.502891
2.277961
2.310725
2.499675
2.589672
2.317823
1.536475
0.2941656
-1.100586
-2.238054
-2.788976
-2.673337
-2.058224
-1.228673
-0.4272547
0.1524254
0.5178915
0.6895429
0.7053287
0.5826513
0.2977923
-0.2135652
-0.9445584
-1.884442
-3.011512
-4.216518
-5.382334
-6.389502
-7.162713
-7.780609
-8.391074
-9.061438
-9.83637
-10.60996
-11.22641
-11.54935
-11.48049
-10.95173
-9.880251
-8.237055
-6.044037
-3.61135
-1.436742
-0.02102017
0.2830181
-0.3713131
-1.375389
-1.998204
-1.660687
-0.2344723
1.90302
4.124541
5.982445
7.261097
8.096022
8.733332
9.32659
9.828135
10.09836
10.00619
9.554547
8.995471
8.509922
8.25001
8.181342
8.116262
7.850455
7.227985
6.246645
5.057423
3.983572
3.277532
3.124727
3.526235
4.283406
5.096715
5.623391
5.660305
5.218426
4.48913
3.732868
3.185817
3.001587
3.162104
3.590029
4.162033
4.768187
5.308929
5.697621
5.846128
5.75181
5.472322
5.025169
4.457479
3.79084
2.999453
2.028872
0.8458695
-0.5396771
-2.01165
-3.396245
-4.530116
-5.324227
-5.824245
-6.279787
-7.017598
-8.253445
-9.913377
-11.58947
-12.68503
-12.7254
-11.60524
-9.627885
-7.41963
-5.608296
-4.591577
-4.431813
-4.846108
-5.369607
-5.554799
-5.134784
-4.052534
-2.440221
-0.5257857
1.376506
2.955155
3.999508
4.439205
4.341813
3.953053
3.595478
3.539383
3.97221
4.849249
5.948986
6.993964
7.770814
8.149882
8.228086
8.146974
8.001697
7.885152
7.774031
7.619288
7.400911
7.154648
6.923332
6.713156
6.456385
6.07775
5.570119
5.039901
4.644278
4.504029
4.627518
4.885402
5.041285
4.85103
4.24254
3.302633
2.202114
1.140894
0.2414284
-0.5296841
-1.287998
-2.120993
-3.053257
-4.015463
-4.844542
-5.435299
-5.7626
-5.917145
-6.130766
-6.596304
-7.40473
-8.442539
-9.508341
-10.29666
-10.49025
-9.868826
-8.3776
-6.187057
-3.663029
-1.338551
0.3361912
1.055635
0.8887367
0.1951141
-0.4739685
-0.717411
-0.3999863
0.2594986
0.8308907
0.9562073
0.4870567
-0.3592529
-1.262527
-1.890472
-2.045132
-1.70015
-1.010193
-0.171978
0.6344757
1.284328
1.709164
1.848537
1.687023
1.31707
0.8856468
0.5952225
0.5940437
0.9369431
1.588581
2.442471
3.316353
3.993729
4.329262
4.220261
3.757248
3.057323
2.240803
1.410225
0.6442604
-0.02426147
-0.5632973
-0.9011116
-1.011692
-0.8743401
-0.6264572
-0.5098534
-0.7372704
-1.396412
-2.350609
-3.323246
-4.017681
-4.336876
-4.346058
-4.301208
-4.455452
-5.006134
-6.004593
-7.397392
-8.973583
-10.47478
-11.61685
-12.04377
-11.52451
-10.05849
-7.957771
-5.796276
-4.209774
-3.541992
-3.7327
-4.389839
-4.948994
-4.935715
-4.184464
-2.833088
-1.241909
0.2260895
1.273567
1.808086
1.903835
1.777252
1.682144
1.83823
2.371979
3.264027
4.3512
5.373569
6.11808
6.429817
6.354626
5.968994
5.377258
4.696045
4.000919
3.367004
2.855648
2.504654
2.239967
1.993595
1.667915
1.187801
0.6161728
0.04769897
-0.3978539
-0.6737366
-0.8123894
-0.9257736
-1.083435
-1.320263
-1.626968
-2.011852
-2.638481
-3.630505
-5.00494
-6.595268
-8.07077
-9.025883
-9.253242
-8.782291
-7.887695
-7.067543
-6.692516
-6.882095
-7.535603
-8.368713
-9.043629
-9.265339
-8.851727
-7.717663
-6.046696
-4.085617
-2.22966
-0.8769951
-0.2229843
-0.1770554
-0.3865929
-0.3287468
0.4070396
1.922897
4.106392
6.519073
8.680599
10.27366
11.10954
11.11012
10.34429
9.011452
7.381035
5.817844
4.553776
3.720257
3.292145
3.125908
3.008919
2.861141
2.71627
2.658497
2.794312
3.105091
3.555283
4.102684
4.70639
5.294472
5.790134
6.102642
6.088089
5.676571
4.821369
3.603016
2.159573
0.6401978
-0.7882652
-1.962833
-2.756237
-3.10405
-3.010796
-2.625584
-2.176178
-1.967781
-2.169102
-2.794674
-3.689335
-4.591919
-5.326202
-5.894054
-6.496979
-7.377235
-8.709084
-10.48471
-12.44067
-14.29619
-15.7262
-16.43928
-16.18856
-14.8008
-12.22623
-8.683258
-4.726143
-1.046764
1.663754
3.101376
3.488808
3.407585
3.528664
4.248108
5.494816
6.893242
8.002773
8.509655
8.426811
7.892929
7.16457
6.409309
5.788826
5.393623
5.35532
5.785736
6.59177
7.578402
8.349026
8.559343
8.046165
6.962313
5.584721
4.313387
3.433218
2.967758
2.806746
2.77158
2.71792
2.579021
2.37644
2.004335
1.402544
0.4465809
-0.8758965
-2.375839
-3.731159
-4.58466
-4.712536
-4.178276
-3.309547
-2.497658
-2.053871
-2.125309
-2.558447
-3.107714
-3.622551
-4.064522
-4.61429
-5.425463
-6.615437
-8.107109
-9.796692
-11.53081
-13.2179
-14.79305
-16.04251
-16.58553
-15.97844
-13.89754
-10.42991
-6.166178
-1.919159
1.511053
3.757759
4.982584
5.795301
6.724792
8.071226
9.649412
10.92562
11.46946
11.10564
9.996147
8.577766
7.297131
6.390896
5.984838
6.003578
6.348454
6.897228
7.549901
8.117854
8.419087
8.327284
7.788172
6.975828
6.07727
5.240764
4.545518
3.860237
3.092006
2.19427
1.254759
0.4244871
-0.1024714
-0.2763891
-0.2707577
-0.2355299
-0.3814955
-0.7133226
-1.040334
-1.169118
-1.003026
-0.5590458
-0.04182148
0.3285656
0.3973236
0.04388809
-0.6990347
-1.726747
-2.919107
-4.121259
-5.193821
-6.020259
-6.614855
-7.019446
-7.447589
-8.050853
-8.923189
-10.06695
-11.23542
-12.12361
-12.31287
-11.5055
-9.613759
-6.913259
-3.956069
-1.439564
0.03392935
0.3383451
-0.2663112
-1.07503
-1.396997
-0.8310485
0.5437222
2.304466
3.897302
4.982323
5.594575
5.935308
6.255626
6.619315
6.929168
7.07655
7.014627
6.898315
6.878585
7.080517
7.424944
7.724807
7.794936
7.556397
7.132304
6.731443
6.530752
6.542198
6.695972
6.836389
6.859529
6.761063
6.594647
6.429771
6.26757
6.054931
5.672668
5.069413
4.306365
3.523901
2.916227
2.586323
2.538914
2.665316
2.808462
2.809111
2.585802
2.134573
1.508651
0.812706
0.1601386
-0.4103518
-0.8873
-1.391811
-2.121641
-3.290595
-5.034972
-7.253075
-9.621906
-11.66932
-12.98711
-13.33975
-12.73763
-11.38552
-9.543159
-7.59102
-5.816426
-4.474204
-3.618504
-3.140481
-2.735049
-2.026767
-0.7363529
1.183597
3.46683
5.658167
7.249884
7.935156
7.646783
6.53469
4.939725
3.232215
1.807978
0.871582
0.4837351
0.5021486
0.7585115
1.086826
1.410937
1.79891
2.262494
2.871544
3.553302
4.245453
4.860147
5.392481
5.925546
6.479408
7.113392
7.664532
7.988338
7.899111
7.316551
6.29151
5.011433
3.742968
2.74192
2.212923
2.124897
2.312111
2.438599
2.18128
1.373569
0.01058388
-1.70705
-3.478153
-5.036186
-6.276981
-7.27445
-8.213673
-9.330091
-10.69237
-12.24458
-13.73488
-14.86351
-15.33717
-14.92802
-13.57987
-11.3558
-8.593668
-5.700022
-3.228848
-1.629622
-1.136963
-1.652508
-2.692686
-3.589708
-3.764668
-2.958031
-1.290651
0.7978058
2.790297
4.362835
5.368101
5.873398
6.062248
6.077654
6.043001
6.014748
6.0853
6.241322
6.49074
6.732338
6.77478
6.483145
5.850954
5.022738
4.174477
3.535498
3.138968
2.962442
2.912056
2.852123
2.736443
2.598515
2.559357
2.711491
3.069038
3.500813
3.794514
3.764801
3.256569
2.369205
1.253006
0.1600571
-0.7239914
-1.338108
-1.755535
-2.101009
-2.463322
-2.945465
-3.507759
-4.201336
-5.042442
-6.059757
-7.188747
-8.282036
-9.131653
-9.487499
-9.304878
-8.673889
-7.971676
-7.68306
-8.133736
-9.298336
-10.78527
-11.98188
-12.37217
-11.77536
-10.37731
-8.643574
-7.111782
-6.026276
-5.33065
-4.679676
-3.616871
-1.913403
0.380661
2.966492
5.373165
7.16824
8.143475
8.296333
7.841869
7.067528
6.243641
5.461601
4.75988
4.15868
3.694931
3.469791
3.517269
3.848808
4.381886
5.034908
5.729473
6.450363
7.169437
7.809944
8.25111
8.323635
7.935345
7.136036
6.092766
5.017765
4.066116
3.251328
2.512707
1.863319
1.329712
1.050007
1.13335
1.594158
2.311237
3.042641
3.578892
3.747517
3.559628
3.082664
2.369884
1.499252
0.4666214
-0.696228
-1.995201
-3.342548
-4.681335
-5.932911
-6.999825
-7.807034
-8.253937
-8.368816
-8.205193
-7.996632
-7.955109
-8.255699
-8.960526
-10.04358
-11.32579
-12.48354
-13.15248
-12.92274
-11.59965
-9.271793
-6.426449
-3.822746
-2.200912
-1.897961
-2.628922
-3.602085
-3.887955
-2.86298
-0.599617
2.242699
4.748665
6.234016
6.513348
5.878139
4.831284
3.782742
2.977047
2.386307
2.013779
1.893265
2.186871
3.018269
4.317394
5.752247
6.895058
7.392284
7.150074
6.372448
5.407745
4.635727
4.253666
4.26564
4.568951
5.014816
5.473457
5.89064
6.16581
6.280811
6.21637
6.02911
5.793167
5.653236
5.686932
5.867233
6.085625
6.150284
5.960205
5.441425
4.686626
3.725449
2.622814
1.419281
0.07903671
-1.376801
-2.898956
-4.284996
-5.37801
-6.05761
-6.383545
-6.526394
-6.714417
-7.143738
-7.870163
-8.895096
-9.980618
-10.81586
-11.03852
-10.28483
-8.481182
-5.885101
-3.111286
-0.8772354
0.1755905
-0.1458664
-1.551189
-3.38884
-4.88533
-5.545742
-5.265068
-4.314545
-3.091358
-1.940235
-1.045013
-0.3910217
0.1540794
0.7468338
1.495754
2.411911
3.47897
4.628201
5.748512
6.679813
7.282314
7.432491
7.13765
6.4944
5.641338
4.792892
4.065128
3.513279
3.172695
3.105209
3.312466
3.737972
4.239407
4.510914
4.376823
3.787022
2.801224
1.6619
0.6113014
-0.204258
-0.7694397
-1.083755
-1.213757
-1.17231
-0.9445076
-0.6427383
-0.4124374
-0.4521484
-0.8717575
-1.639725
-2.598907
-3.546497
-4.349045
-4.987629
-5.539371
-6.07576
-6.731289
-7.513702
-8.320145
-8.971512
-9.219242
-8.81221
-7.644165
-5.866585
-3.787533
-1.931549
-0.7909698
-0.5489616
-1.112576
-2.064785
-2.873627
-3.062458
-2.469181
-1.151463
0.6172981
2.502243
4.251862
5.676304
6.664108
7.135586
7.103298
6.681988
6.058311
5.484455
5.112499
4.920837
4.727745
4.314621
3.578846
2.613968
1.688068
1.088718
0.9304047
1.137081
1.507694
1.846085
2.074299
2.216942
2.334484
2.375137
2.243626
1.817532
1.075298
0.1099319
-0.8111343
-1.446381
-1.670742
-1.527885
-1.232632
-1.047249
-1.138409
-1.54147
-2.171329
-2.858864
-3.510696
-4.099293
-4.721619
-5.457668
-6.365673
-7.358875
-8.252647
-8.842987
-9.053772
-8.902958
-8.580231
-8.286125
-8.179325
-8.28701
-8.493599
-8.606678
-8.377274
-7.691296
-6.505051
-4.919537
-3.091476
-1.339836
-0.03360748
0.4555626
-0.02137375
-1.291489
-2.872658
-4.072739
-4.362774
-3.529636
-1.772385
0.4149551
2.513103
4.213726
5.410118
6.222359
6.818756
7.299843
7.738644
8.257114
8.874866
9.542332
10.09972
10.30416
9.99527
9.153755
7.920204
6.523735
5.224609
4.182125
3.461685
3.057644
2.959202
3.106262
3.412228
3.72102
3.863434
3.767014
3.41518
2.96188
2.601147
2.452198
2.514137
2.63868
2.626419
2.331631
1.73893
0.8552818
-0.2174911
-1.407238
-2.679356
-4.006683
-5.353405
-6.601387
-7.616009
-8.268028
-8.471676
-8.245441
-7.657536
-6.875114
-6.112305
-5.564934
-5.359447
-5.590858
-6.243095
-7.254478
-8.542774
-9.867836
-10.88514
-11.18166
-10.44874
-8.640396
-6.19075
-3.770859
-2.038383
-1.307152
-1.362909
-1.539885
-1.118954
0.3224373
2.7118
5.451958
7.877474
9.53245
10.29786
10.3518
10.00705
9.463549
8.815363
8.075724
7.262878
6.528849
6.08016
6.023287
6.303173
6.710884
6.973642
6.955795
6.633549
6.138287
5.683573
5.463207
5.496363
5.727303
5.952181
5.980228
5.641907
4.872181
3.685961
2.261574
0.8445988
-0.349577
-1.120903
-1.474934
-1.529398
-1.504309
-1.526112
-1.699953
-1.97875
-2.30275
-2.615564
-2.808004
-2.792879
-2.59115
-2.2805
-1.963564
-1.800783
-1.909061
-2.322388
-3.009661
-3.830006
-4.636414
-5.409006
-6.177597
-7.011934
-7.94768
-9.007175
-10.05138
-10.90946
-11.29778
-10.96047
-9.74493
-7.757986
-5.383102
-3.228958
-1.931358
-1.805128
-2.764166
-4.207668
-5.322277
-5.396515
-4.166162
-1.873205
0.7918415
3.187859
4.863573
5.7218
5.901743
5.638386
5.130373
4.491915
3.890676
3.496521
3.515631
4.015526
4.872036
5.75481
6.411552
6.632492
6.453217
6.057716
5.648457
5.350805
5.173777
5.055229
4.930351
4.841387
4.744827
4.596291
4.343924
3.954655
3.526049
3.257391
3.329264
3.830151
4.691664
5.70331
6.571493
7.080263
7.074623
6.478378
5.415674
4.04357
2.596088
1.37207
0.5970879
0.3255196
0.4871292
0.7803364
0.9286308
0.7882252
0.3675232
-0.2152462
-0.8056431
-1.373705
-2.023811
-2.894341
-4.165997
-5.854792
-7.805019
-9.755667
-11.42883
-12.51455
-12.79296
-12.17169
-10.7071
-8.71734
-6.679108
-5.131533
-4.451624
-4.671356
-5.378845
-5.938934
-5.727438
-4.439772
-2.25407
0.3445129
2.740728
4.514071
5.515898
5.870781
5.781776
5.442129
5.061949
4.744371
4.655592
4.850273
5.273123
5.709312
5.932007
5.781668
5.271219
4.621325
4.073137
3.887316
4.131351
4.779388
5.686634
6.68465
7.644659
8.462406
9.052822
9.339403
9.271351
8.791992
7.978899
6.93856
5.81031
4.801329
4.030046
3.483776
3.059601
2.629311
2.114229
1.567907
1.103781
0.7876549
0.6250954
0.4776955
0.1471367
-0.4670658
-1.374872
-2.454231
-3.542358
-4.524605
-5.39373
-6.180824
-7.012676
-7.974464
-9.078266
-10.29343
-11.49657
-12.42018
-12.74674
-12.16549
-10.51316
-8.03352
-5.242802
-2.850761
-1.542812
-1.663441
-2.966438
-4.778404
-6.215153
-6.555305
-5.592064
-3.606792
-1.21476
0.9259071
2.355965
3.047066
3.150749
2.954662
2.750206
2.693966
2.865154
3.271381
3.867001
4.551529
5.165733
5.53537
5.549725
5.223606
4.64616
3.969681
3.344704
2.836277
2.451431
2.19001
2.041584
2.004578
2.060741
2.090836
2.004173
1.741367
1.299511
0.8182411
0.4808083
0.4138222
0.6234093
1.005863
1.298309
1.37532
1.140091
0.6009865
-0.1580696
-1.051327
-2.044781
-3.17487
-4.447178
-5.899261
-7.419987
-8.895954
-10.1347
-10.93402
-11.1394
-10.79076
-10.1008
-9.285503
-8.609367
-8.213146
-8.066982
-8.066246
-7.966072
-7.502449
-6.430889
-4.723251
-2.525455
-0.3016701
1.368134
1.990406
1.45105
0.09380722
-1.498577
-2.590023
-2.842865
-2.280968
-1.305592
-0.3317719
0.363945
0.7820778
1.101482
1.358086
1.63303
1.909191
2.25399
2.79092
3.651608
4.90543
6.396786
7.784996
8.653259
8.728523
8.070011
6.988476
5.904465
5.095074
4.718201
4.686909
4.829853
4.952751
4.914024
4.653931
4.192181
3.60939
2.961914
2.357056
1.7841
1.225685
0.5971107
-0.13937
-0.9589539
-1.725212
-2.234768
-2.407204
-2.200447
-1.799721
-1.428612
-1.255329
-1.37389
-1.82217
-2.547379
-3.480682
-4.569237
-5.685314
-6.713383
-7.613842
-8.293083
-8.781872
-9.245872
-9.869564
-10.78614
-12.01197
-13.27349
-14.13723
-14.12843
-12.91724
-10.56087
-7.488068
-4.444664
-2.190155
-1.111691
-1.089916
-1.564934
-1.783863
-1.200821
0.2403679
2.230141
4.243835
5.812939
6.75647
7.204586
7.407585
7.5982
7.885744
8.246754
8.567358
8.847025
9.075661
9.275923
9.40074
9.262403
8.614981
7.347059
5.599888
3.783335
2.460558
2.089298
2.813017
4.359213
6.207544
7.746458
8.516216
8.384001
7.452896
6.017105
4.46641
3.108032
2.105148
1.426292
0.9119511
0.3754864
-0.2989674
-1.087921
-1.816452
-2.277935
-2.414543
-2.27478
-2.031715
-1.821856
-1.678431
-1.57967
-1.476145
-1.357685
-1.291952
-1.426371
-1.843893
-2.508644
-3.299883
-4.113937
-4.980202
-6.079374
-7.636351
-9.803057
-12.5003
-15.29526
-17.50573
-18.41758
-17.56857
-15.01076
-11.3303
-7.434319
-4.234089
-2.234915
-1.400925
-1.245333
-1.129639
-0.556118
0.5570736
1.989206
3.358494
4.36846
4.991451
5.322565
5.533138
5.695234
5.801071
5.820475
5.803434
5.842728
6.048706
6.504448
7.046644
7.503674
7.649345
7.3794
6.746727
5.963064
5.31905
5.07573
5.407123
6.315037
7.686193
9.288828
10.80374
11.91887
12.37489
12.0961
11.15449
9.804976
8.333236
7.025184
6.026819
5.307032
4.745859
4.185963
3.566536
2.879395
2.21792
1.623665
1.137501
0.7366161
0.2749596
-0.292757
-1.017595
-1.816101
-2.584085
-3.240755
-3.840109
-4.503761
-5.406216
-6.70068
-8.32423
-10.13816
-11.91248
-13.43016
-14.50445
-14.98487
-14.67416
-13.42346
-11.2649
-8.453753
-5.594954
-3.380301
-2.303988
-2.361088
-3.077646
-3.680704
-3.551874
-2.553234
-1.072052
0.1122398
0.3100452
-0.7690048
-2.826975
-5.197842
-7.108189
-8.014315
-7.765282
-6.525343
-4.674643
-2.553226
-0.4126587
1.599989
3.406836
4.967245
6.307566
7.555395
8.962776
10.78883
13.16025
15.90902
18.57155
20.52219
21.22789
20.51882
18.62458
16.0372
13.25299
10.64199
8.244589
5.944628
3.629065
1.25214
-1.045685
-3.151546
-4.955769
-6.46327
-7.683918
-8.630554
-9.230511
-9.384985
-9.055149
-8.178362
-6.828358
-5.063704
-3.092636
-1.213278
0.1196766
0.4670811
-0.5280266
-2.923159
-6.288702
-9.928085
-12.91133
-14.48895
-14.31661
-12.60852
-10.00061
-7.392204
-5.63868
-5.085508
-5.643543
-6.743816
-7.604641
-7.543541
-6.251352
-3.888147
-0.9795456
1.839417
4.061993
5.419901
5.923286
5.781334
5.351334
5.00106
4.960642
5.321981
5.994095
6.729298
7.217735
7.264688
6.823458
6.002277
4.953505
3.819864
2.737408
1.794521
1.109674
0.8154068
1.032846
1.760603
2.78801
3.784981
4.386343
4.349443
3.538828
2.053432
0.1832829
-1.718861
-3.33732
-4.451904
-5.001511
-5.127825
-5.000317
-4.875805
-4.858809
-4.94166
-5.074156
-5.211235
-5.358719
-5.616444
-6.148565
-6.9718
-8.048508
-9.123795
-9.987927
-10.53255
-10.80408
-10.96169
-11.17708
-11.4692
-11.55557
-11.01657
-9.525514
-7.086659
-4.111392
-1.297955
0.7031393
1.528338
1.329106
0.738348
0.4827828
1.034953
2.468007
4.398457
6.289122
7.68819
8.374271
8.459394
8.204092
7.90028
7.728395
7.785738
8.049997
8.507679
9.128769
9.83186
10.50501
10.94869
10.94101
10.3396
9.221716
7.828606
6.526358
5.726253
5.603946
5.990865
6.490094
6.619173
6.07713
4.914203
3.395949
1.878279
0.6630144
-0.2213374
-0.8904088
-1.587954
-2.464328
-3.455555
-4.346354
-4.875177
-4.897879
-4.456151
-3.864801
-3.514824
-3.790833
-4.860017
-6.541768
-8.432209
-10.07608
-11.13277
-11.5771
-11.60359
-11.49936
-11.46575
-11.53351
-11.60031
-11.53861
-11.2953
-10.85147
-10.21952
-9.310773
-8.012826
-6.252695
-4.191381
-2.237017
-0.9365082
-0.6986332
-1.556433
-3.045285
-4.345188
-4.682461
-3.595862
-1.215048
1.888001
4.935089
7.342434
8.845421
9.598892
9.912418
10.11113
10.38539
10.79589
11.31891
11.87989
12.38356
12.62757
12.39902
11.49022
9.895344
7.851053
5.762701
4.066545
3.045139
2.743931
2.979885
3.48798
3.965322
4.206936
4.110357
3.628971
2.797619
1.777828
0.801693
0.153862
0.04885101
0.4983006
1.331692
2.240179
2.858538
2.98609
2.594313
1.772331
0.7487354
-0.3200798
-1.38106
-2.407534
-3.410128
-4.392879
-5.2169
-5.708767
-5.81242
-5.438755
-4.690098
-3.767063
-2.934086
-2.471245
-2.643833
-3.611355
-5.34103
-7.676754
-10.14915
-12.18567
-13.18169
-12.77713
-11.05248
-8.54694
-6.041489
-4.246399
-3.480923
-3.485443
-3.631531
-3.211441
-1.756588
0.6621552
3.585209
6.409439
8.625931
9.959705
10.44383
10.25425
9.618866
8.856216
8.14843
7.645985
7.412056
7.386181
7.414093
7.309021
6.935719
6.274899
5.500111
4.855072
4.621746
4.940334
5.80761
7.050842
8.421135
9.660149
10.62309
11.24588
11.55423
11.62033
11.43363
10.95641
10.18126
9.144733
7.976734
6.807728
5.761951
4.852997
4.016838
3.125282
2.070438
0.8520775
-0.4517517
-1.634182
-2.567127
-3.2542
-3.821404
-4.463074
-5.318977
-6.324047
-7.275188
-7.936703
-8.135567
-7.940868
-7.695217
-7.834957
-8.650425
-10.21294
-12.16161
-13.91343
-14.84016
-14.48838
-12.85866
-10.3912
-7.831291
-5.866684
-4.905289
-4.838463
-5.19397
-5.36475
-4.92136
-3.806038
-2.220009
-0.4814186
1.10059
2.403744
3.431541
4.246834
4.884636
5.396626
5.811371
6.183409
6.629847
7.131504
7.583988
7.847717
7.807968
7.389977
6.696777
5.894524
5.082827
4.393118
3.85257
3.467604
3.259357
3.24725
3.383698
3.618311
3.895767
4.073456
4.154087
4.173729
4.22327
4.344582
4.475393
4.568853
4.496391
4.295031
3.95409
3.541063
3.034893
2.322491
1.354475
0.08400917
-1.317003
-2.60597
-3.495121
-3.917789
-3.992867
-4.05057
-4.520599
-5.561354
-7.208736
-9.206446
-11.15063
-12.57945
-13.16446
-12.73771
-11.42084
-9.647865
-7.82457
-6.438406
-5.715588
-5.592382
-5.727255
-5.695005
-5.214314
-4.15287
-2.747936
-1.243898
0.07686996
1.066282
1.731894
2.145224
2.421385
2.662237
3.019457
3.539803
4.25511
5.082859
5.822807
6.258215
6.183409
5.624655
4.723579
3.740433
2.858263
2.222776
1.868177
1.834558
2.148596
2.766157
3.656437
4.63784
5.486248
5.924902
5.871969
5.363132
4.528936
3.61083
2.698225
1.812777
0.84231
-0.3204384
-1.734659
-3.318926
-4.887537
-6.286528
-7.316826
-7.95797
-8.252504
-8.340017
-8.325279
-8.349932
-8.56711
-9.057838
-9.859053
-10.83588
-11.77321
-12.33028
-12.2324
-11.25783
-9.453682
-7.189089
-4.933231
-3.213379
-2.26338
-2.070559
-2.219824
-2.191732
-1.554922
-0.1495991
1.765001
3.729254
5.227491
5.974657
5.973677
5.520885
5.074419
4.992933
5.529345
6.704802
8.330917
10.08424
11.58012
12.48783
12.6365
12.07652
10.9267
9.469151
7.941406
6.548452
5.432133
4.706367
4.43004
4.580576
5.064121
5.601757
5.970682
5.956945
5.524805
4.742804
3.746836
2.668745
1.611769
0.6568279
-0.1238556
-0.6769428
-1.033192
-1.292282
-1.601879
-2.094706
-2.813492
-3.688461
-4.61587
-5.5109
-6.384453
-7.363295
-8.590954
-10.12671
-11.90855
-13.78685
-15.5215
-16.84866
-17.53991
-17.32675
-16.10067
-13.91114
-11.04364
-8.027199
-5.418982
-3.670261
-2.862535
-2.73955
-2.733217
-2.337854
-1.22982
0.572813
2.764322
4.902441
6.585964
7.612576
7.987024
7.883137
7.51671
7.186214
7.127844
7.524311
8.360935
9.43861
10.40135
10.8218
10.45781
9.298935
7.681767
6.152393
5.179619
4.987263
5.446892
6.191254
6.830494
7.102455
6.960335
6.423485
5.557976
4.369793
2.899704
1.21534
-0.5170479
-2.022686
-3.021187
-3.318047
-2.917919
-1.978329
-0.7720299
0.4675713
1.495211
2.212738
2.591227
2.670372
2.463148
1.957304
1.04763
-0.333971
-2.142982
-4.250423
-6.411856
-8.395069
-10.06781
-11.43488
-12.57882
-13.59428
-14.33186
-14.51018
-13.87029
-12.29804
-10.05172
-7.70809
-5.891304
-5.016045
-5.038349
-5.471642
-5.638683
-4.989548
-3.360647
-1.026243
1.465834
3.598633
5.070324
5.843464
6.090958
6.108788
6.075333
6.156441
6.403179
6.830551
7.406921
8.014282
8.466331
8.586391
8.293266
7.598705
6.74498
6.018387
5.668388
5.818172
6.378868
7.053806
7.503849
7.401516
6.634079
5.300724
3.692726
2.149479
0.9706993
0.3465767
0.2503929
0.5923424
1.203159
1.936405
2.726742
3.491283
4.057341
4.250912
3.872366
2.855192
1.336147
-0.3856773
-1.962439
-3.143414
-3.904276
-4.447096
-5.001669
-5.777
-6.884827
-8.26762
-9.821735
-11.45518
-13.0421
-14.38329
-15.16639
-15.05369
-13.8298
-11.58148
-8.722757
-5.918652
-3.835642
-2.827656
-2.785616
-3.14912
-3.236782
-2.573505
-1.087215
0.8621044
2.709391
4.026146
4.632401
4.707455
4.584097
4.555098
4.775179
5.233898
5.863054
6.574015
7.339443
8.06477
8.688555
9.132643
9.360909
9.442429
9.415424
9.347641
9.13258
8.743902
8.174055
7.549778
7.041838
6.756155
6.740589
6.841391
6.904989
6.726795
6.323385
5.77166
5.177757
4.58987
3.97048
3.359982
2.816336
2.52734
2.543968
2.775736
2.899843
2.535143
1.514776
-0.07419014
-1.74507
-3.074553
-3.830292
-4.16658
-4.547104
-5.354063
-6.782974
-8.498133
-10.09975
-11.14376
-11.44056
-11.0253
-9.993305
-8.496834
-6.650036
-4.709798
-2.93381
-1.743333
-1.377347
-1.790947
-2.620753
-3.278832
-3.334439
-2.670415
-1.656442
-0.7588606
-0.442955
-0.7812662
-1.455718
-1.952162
-1.787663
-0.8024726
0.9287648
3.05515
5.246988
7.167842
8.542414
9.19713
8.952898
7.816237
5.909063
3.580822
1.250629
-0.6372697
-1.78486
-2.060293
-1.496317
-0.2988086
1.249227
2.796882
3.96112
4.464764
4.220384
3.40294
2.342115
1.479303
1.051538
1.116275
1.548611
2.066641
2.452703
2.668075
2.768682
2.864878
2.992601
3.036089
2.887101
2.43893
1.594764
0.3720741
-1.251102
-3.29411
-5.739248
-8.429568
-11.04496
-13.06953
-13.9746
-13.52971
-11.87143
-9.566217
-7.449353
-6.131436
-5.837139
-6.32265
-6.965666
-7.093668
-6.33639
-4.6783
-2.429632
-0.1437674
1.788445
3.167063
3.962593
4.289921
4.254923
3.966009
3.547777
3.143579
2.875488
2.848682
2.991705
3.11097
2.937691
2.286762
1.154659
-0.2935772
-1.70693
-2.842886
-3.513958
-3.705755
-3.497816
-2.990578
-2.283131
-1.483109
-0.6827869
0.01428413
0.5115509
0.7886581
0.8979092
0.9420033
1.072624
1.37335
1.809029
2.244438
2.45591
2.21553
1.350149
-0.1655617
-2.12216
-4.126051
-5.758041
-6.775549
-7.203638
-7.261463
-7.330137
-7.715063
-8.442249
-9.31646
-9.97006
-10.00443
-9.240646
-7.700275
-5.654814
-3.619572
-2.149555
-1.61504
-2.047993
-3.10957
-4.137993
-4.478464
-3.741589
-1.940357
0.5505352
3.164677
5.378912
6.867787
7.499907
7.350769
6.657173
5.698713
4.816559
4.319341
4.348981
4.847397
5.527676
6.036177
6.083776
5.61342
4.776546
3.93657
3.391119
3.339408
3.702548
4.255443
4.781348
5.160495
5.381986
5.472565
5.42396
5.121792
4.466019
3.426686
2.139651
0.8671389
-0.07437038
-0.4999886
-0.4190159
-0.06356716
0.2845802
0.4079876
0.2566433
-0.08196068
-0.5185394
-0.9530058
-1.377981
-1.859982
-2.503147
-3.362299
-4.487587
-5.858676
-7.432167
-9.160627
-10.93068
-12.56948
-13.91205
-14.71319
-14.77054
-13.94454
-12.24791
-9.899199
-7.356424
-5.144365
-3.703399
-3.167506
-3.247524
-3.369378
-2.88233
-1.446137
0.8850937
3.59375
6.083313
7.871741
8.785983
8.984661
8.793435
8.480747
8.200716
7.999784
7.773338
7.556371
7.299417
6.927545
6.390142
5.59859
4.527463
3.311907
2.149978
1.181423
0.5403695
0.1586518
-0.04016113
-0.07404041
0.05455065
0.4425526
1.144634
2.094809
3.07134
3.827936
4.184416
4.13499
3.878383
3.59814
3.465553
3.506839
3.63356
3.690262
3.607121
3.366066
2.94213
2.325152
1.414741
0.182303
-1.299689
-2.841821
-4.227949
-5.276393
-5.964964
-6.496868
-7.08092
-7.919185
-8.969893
-10.00973
-10.66557
-10.58969
-9.616367
-7.828943
-5.661364
-3.690089
-2.486751
-2.411996
-3.434907
-5.099748
-6.71962
-7.624939
-7.421077
-6.152899
-4.192121
-2.014577
-0.08777046
1.344197
2.265981
2.762278
2.983936
3.147256
3.482166
4.178244
5.373131
6.955769
8.655777
10.08093
10.83706
10.72405
9.7963
8.303204
6.594856
4.980712
3.643203
2.688823
2.125433
1.873893
1.825527
1.880287
1.917078
1.826936
1.544618
1.005431
0.2735291
-0.5085262
-1.164884
-1.530988
-1.456401
-0.9757783
-0.2682396
0.4429821
0.9650032
1.308631
1.662505
2.204793
2.964372
3.757838
4.205887
3.988972
2.997941
1.378133
-0.5187199
-2.353284
-3.961972
-5.381946
-6.783456
-8.20511
-9.475127
-10.19568
-10.01445
-8.801859
-6.776778
-4.537732
-2.75059
-1.968301
-2.315234
-3.491985
-4.82249
-5.69036
-5.665565
-4.684049
-3.03986
-1.138743
0.6200734
2.030747
3.045605
3.727411
4.125655
4.317512
4.417513
4.607622
5.141014
6.112602
7.519998
9.114489
10.61041
11.80972
12.60269
13.01388
13.12131
12.97234
12.53683
11.86872
11.06355
10.29996
9.744258
9.414135
9.157647
8.793886
8.166036
7.209581
6.069603
4.998444
4.264519
4.034095
4.277803
4.760311
5.145819
5.0741
4.295298
2.76753
0.670702
-1.749986
-4.163927
-6.368081
-8.262177
-9.895251
-11.35366
-12.65805
-13.80966
-14.76625
-15.39459
-15.50031
-14.93555
-13.58139
-11.61167
-9.360838
-7.230156
-5.591221
-4.628452
-4.193491
-3.871313
-3.283077
-2.127083
-0.3798256
1.737856
3.853018
5.502413
6.325935
6.16464
5.153294
3.634083
2.106255
1.063778
0.8314323
1.356749
2.33238
3.305311
3.93508
4.11322
4.012829
3.925701
4.028032
4.33548
4.633659
4.672525
4.390114
3.936712
3.549046
3.464092
3.759586
4.26774
4.700506
4.864481
4.646069
4.14056
3.548107
2.945824
2.360157
1.722786
0.9364281
-0.02586365
-1.095947
-2.202602
-3.316006
-4.516899
-5.903641
-7.537971
-9.310226
-10.98535
-12.22574
-12.66509
-12.0595
-10.31226
-7.601719
-4.326435
-1.135971
1.327583
2.549217
2.40329
1.225666
-0.376503
-1.753357
-2.573383
-2.859604
-3.01149
-3.459026
-4.547451
-6.218449
-8.111263
-9.749866
-10.67975
-10.70943
-9.856419
-8.358971
-6.47327
-4.42487
-2.34766
-0.3057556
1.612057
3.281158
4.589066
5.455238
5.932804
6.184486
6.433315
6.833858
7.425896
8.031738
8.374592
8.209415
7.359497
5.829758
3.738861
1.339329
-1.113541
-3.310452
-5.033695
-6.118256
-6.600441
-6.673203
-6.60902
-6.724014
-7.218296
-8.110088
-9.200394
-10.18179
-10.6944
-10.46812
-9.413425
-7.593472
-5.290207
-2.931606
-0.9741592
0.2339478
0.6104622
0.3632965
-0.07773972
-0.233757
0.2653313
1.476585
3.156971
4.845406
6.039146
6.45005
6.048393
5.075588
3.953598
3.118473
2.851517
3.260872
4.182213
5.25655
6.117607
6.474968
6.228973
5.450062
4.306622
2.902363
1.363205
-0.217762
-1.6675
-2.721928
-3.116505
-2.753315
-1.787193
-0.6069794
0.3219681
0.7235069
0.5881653
0.1384735
-0.3360901
-0.7087364
-1.08065
-1.70435
-2.824947
-4.445908
-6.321053
-8.026699
-9.194553
-9.659752
-9.554665
-9.23481
-9.11758
-9.521
-10.44828
-11.63953
-12.58931
-12.82257
-11.97195
-10.01553
-7.293777
-4.347424
-1.767891
0.05106926
1.015646
1.393274
1.577198
1.992643
2.854034
4.122679
5.568295
6.921862
7.968102
8.624172
8.92347
8.971619
8.890137
8.820715
8.909178
9.256214
9.835253
10.50846
11.016
11.06867
10.49056
9.269283
7.609943
5.846272
4.382046
3.419743
2.992397
2.983612
3.144247
3.241982
3.076414
2.577972
1.731867
0.6989212
-0.3506432
-1.216888
-1.7059
-1.727222
-1.355757
-0.8202953
-0.4001389
-0.3560886
-0.7405872
-1.463381
-2.307692
-3.023146
-3.415169
-3.418592
-3.156204
-2.837984
-2.698051
-2.914259
-3.574661
-4.603125
-5.846411
-7.108513
-8.250946
-9.235588
-10.15911
-11.16548
-12.3277
-13.61832
-14.79076
-15.50879
-15.43749
-14.37321
-12.40084
-9.833586
-7.178819
-4.879025
-3.201922
-2.089293
-1.209394
-0.1866474
1.247801
3.08992
5.102087
6.936738
8.375047
9.421112
10.25932
11.0829
11.91814
12.67455
13.17083
13.30081
13.06257
12.5496
11.81879
10.84645
9.574089
7.957649
6.18314
4.532482
3.308834
2.64879
2.478627
2.583994
2.741528
2.881411
3.041177
3.340489
3.773554
4.184435
4.390364
4.276398
3.89742
3.432347
3.070617
2.856083
2.677327
2.285689
1.465178
0.2081061
-1.384925
-3.091095
-4.716453
-6.086989
-7.15978
-7.86935
-8.149658
-7.989768
-7.373304
-6.448327
-5.433666
-4.599439
-4.185944
-4.372478
-5.182455
-6.549044
-8.316919
-10.28443
-12.17775
-13.65348
-14.33882
-13.92395
-12.31193
-9.706335
-6.65255
-3.799623
-1.74599
-0.7644577
-0.6311517
-0.8230886
-0.7282014
0.07225752
1.630922
3.680873
5.762693
7.510653
8.718677
9.394816
9.664369
9.658207
9.516123
9.332889
9.228418
9.310979
9.585348
9.928821
10.12833
9.933841
9.210486
8.049663
6.739861
5.620657
4.95548
4.850938
5.133942
5.60646
5.984981
6.11685
5.941819
5.421539
4.618701
3.620728
2.620482
1.784184
1.269308
1.099281
1.188786
1.351784
1.403182
1.23896
0.8664026
0.4205389
0.03888226
-0.1764879
-0.263279
-0.3181276
-0.5094547
-0.9834557
-1.762791
-2.749371
-3.778118
-4.688136
-5.392475
-6.018221
-6.792884
-7.865278
-9.304311
-11.02833
-12.81073
-14.38416
-15.43351
-15.6335
-14.82527
-13.03349
-10.55055
-7.915642
-5.757645
-4.492352
-4.150599
-4.308619
-4.290041
-3.477109
-1.647672
0.9470673
3.758426
6.193975
7.888472
8.799934
9.08285
8.966961
8.644365
8.209719
7.74411
7.344238
7.147467
7.227947
7.516666
7.832712
7.965561
7.780165
7.242758
6.450047
5.539282
4.703688
4.092848
3.826473
4.035007
4.76874
5.975109
7.434973
8.897991
10.08081
10.84216
11.17448
11.19578
11.02927
10.73083
10.24295
9.397973
8.149688
6.489225
4.614474
2.758254
1.139827
-0.09616947
-0.9323969
-1.417781
-1.660082
-1.7427
-1.708552
-1.601199
-1.451239
-1.377229
-1.523088
-2.067527
-3.155933
-4.778131
-6.861052
-9.167717
-11.42646
-13.24515
-14.27862
-14.25147
-13.12767
-11.1518
-8.866614
-6.960502
-5.96848
-6.092581
-7.002532
-8.067556
-8.598137
-8.216414
-6.951211
-5.213771
-3.499055
-2.114256
-1.175581
-0.5113454
0.1433041
0.9561168
2.026482
3.345831
4.841333
6.341147
7.676229
8.639628
9.02371
8.819235
8.043404
6.899135
5.623658
4.405941
3.46301
2.997871
3.175568
4.051361
5.577466
7.463923
9.384977
10.91797
11.67307
11.45697
10.26422
8.341376
6.102635
4.020992
2.413569
1.473311
1.083389
0.9053679
0.6137581
-0.03709793
-1.105021
-2.448009
-3.795601
-4.96346
-5.844054
-6.412977
-6.816137
-7.115274
-7.373779
-7.696045
-8.127689
-8.66947
-9.331097
-9.931038
-10.1389
-9.636189
-8.199625
-5.972132
-3.469685
-1.438671
-0.4969063
-0.9346066
-2.460644
-4.343948
-5.806372
-6.270674
-5.711535
-4.479744
-3.16238
-2.213448
-1.841095
-1.901735
-2.094849
-2.145975
-1.815729
-1.056465
0.06579781
1.430756
2.854572
4.148203
5.216806
6.003283
6.468979
6.658148
6.588095
6.281374
5.847467
5.396778
5.073874
4.985556
5.138132
5.368065
5.496519
5.355364
4.9084
4.296547
3.628296
3.026148
2.48357
1.907057
1.159338
0.1764259
-1.050976
-2.473715
-3.972645
-5.459934
-6.808653
-7.913168
-8.712122
-9.212107
-9.522362
-9.813137
-10.26861
-10.97122
-11.90524
-12.90208
-13.69563
-14.04673
-13.68827
-12.51216
-10.60011
-8.239552
-5.857224
-3.918062
-2.72843
-2.313665
-2.375847
-2.382435
-1.854591
-0.6388435
1.047655
2.676975
3.69784
3.893444
3.397751
2.695467
2.304605
2.522425
3.326817
4.412252
5.473515
6.268492
6.803724
7.137508
7.240856
7.025948
6.35556
5.192036
3.67226
2.11235
0.8211346
0.02768135
-0.2457542
-0.1875725
-0.006473541
0.1622105
0.2667103
0.2705231
0.2418289
0.2110023
0.266777
0.5002155
1.007233
1.817617
2.864782
3.922157
4.619547
4.675966
3.942402
2.506548
0.6842117
-1.236565
-2.969364
-4.43622
-5.722223
-6.963356
-8.317953
-9.813061
-11.40802
-12.94038
-14.22919
-14.96027
-14.84139
-13.67877
-11.4674
-8.57119
-5.594343
-3.167526
-1.667168
-1.186569
-1.386135
-1.791496
-1.957302
-1.612843
-0.7798204
0.3160906
1.456511
2.466359
3.21074
3.723072
4.089563
4.506771
5.177184
6.20177
7.478759
8.776077
9.803002
10.38013
10.47133
10.16959
9.616302
8.868599
7.869887
6.531343
4.929814
3.303965
2.079031
1.582569
1.896349
2.823011
3.971585
4.947824
5.517763
5.695273
5.588379
5.416491
5.247093
4.95841
4.40553
3.421841
1.967989
0.1553987
-1.789263
-3.623173
-5.099959
-6.170326
-6.892837
-7.416274
-7.962496
-8.714007
-9.772905
-11.1884
-12.92009
-14.78365
-16.4892
-17.62078
-17.73199
-16.55351
-14.09253
-10.71919
-7.118815
-4.04513
-2.016353
-1.112867
-0.9842963
-0.9962902
-0.6091452
0.4120941
1.956697
3.634593
5.062828
6.014608
6.516283
6.726007
6.906281
7.202456
7.762414
8.605132
9.620442
10.6456
11.44118
11.81014
11.66219
11.07448
10.17663
9.119402
7.94487
6.620794
5.18869
3.725994
2.473576
1.60548
1.18277
1.048664
0.9401894
0.6292191
0.1278553
-0.3730946
-0.5942879
-0.3257618
0.4379253
1.556553
2.776556
3.839634
4.522423
4.654085
4.124662
2.926203
1.191849
-0.8131676
-2.782972
-4.457428
-5.725126
-6.616945
-7.310532
-8.00749
-8.860117
-9.921907
-11.05944
-12.06708
-12.56153
-12.27613
-11.05959
-9.094206
-6.861946
-5.053869
-4.233467
-4.611626
-5.91217
-7.368286
-8.111115
-7.491257
-5.391806
-2.236687
1.279724
4.447708
6.820305
8.280891
8.998137
9.208855
9.114462
8.788738
8.255474
7.559622
6.74395
5.894463
5.154434
4.740433
4.79604
5.391865
6.454693
7.782917
9.207451
10.61973
12.01055
13.3616
14.66931
15.76685
16.36233
16.23885
15.28005
13.64157
11.66974
9.781597
8.27264
7.255772
6.688892
6.413391
6.294466
6.138554
5.788889
5.13789
4.175676
2.961386
1.622084
0.254179
-1.100534
-2.483021
-4.073175
-6.030519
-8.437065
-11.20221
-14.06037
-16.59555
-18.39553
-19.12092
-18.57544
-16.85989
-14.3413
-11.55142
-9.061844
-7.277905
-6.265406
-5.861824
-5.719069
-5.423162
-4.721788
-3.579134
-2.127558
-0.6413097
0.5740662
1.37434
1.710829
1.724058
1.657375
1.722647
2.080559
2.78088
3.662447
4.539732
5.320578
5.977221
6.609795
7.279306
7.920822
8.357809
8.425024
8.067909
7.443308
6.88648
6.649797
6.779697
7.068983
7.12604
6.64702
5.53768
3.960606
2.229055
0.6543427
-0.6342545
-1.679487
-2.596113
-3.534954
-4.517881
-5.459322
-6.194475
-6.582491
-6.575171
-6.272488
-5.864824
-5.640455
-5.945516
-6.974862
-8.750814
-11.03817
-13.42896
-15.27865
-16.01959
-15.27544
-13.03931
-9.829548
-6.480968
-3.838957
-2.455206
-2.403088
-3.199013
-4.126575
-4.530685
-4.058199
-2.765651
-0.9844723
0.9112873
2.675032
4.217987
5.510828
6.551561
7.319407
7.800087
8.005209
8.006948
7.919157
7.783195
7.594942
7.221064
6.554031
5.579185
4.435801
3.293304
2.395765
1.92622
1.849802
2.098831
2.575193
3.166876
3.797092
4.355089
4.674273
4.648211
4.284164
3.628817
2.844931
2.103714
1.433645
0.7525101
-0.1542854
-1.395184
-2.951422
-4.623283
-6.192192
-7.467678
-8.456554
-9.354342
-10.35246
-11.60164
-13.10365
-14.81469
-16.63715
-18.48005
-20.09326
-21.15481
-21.28402
-20.12911
-17.67865
-14.28958
-10.64538
-7.479927
-5.194307
-3.709167
-2.58065
-1.236803
0.7675858
3.430988
6.401497
9.195179
11.37645
12.81042
13.61446
13.97353
14.05095
13.9782
13.79286
13.52965
13.29975
13.10726
12.9127
12.60317
11.93604
10.78728
9.219891
7.462463
5.858555
4.742924
4.185814
4.116364
4.341049
4.585026
4.713871
4.638336
4.33218
3.835121
3.198299
2.452625
1.641895
0.8466301
0.1263351
-0.4138985
-0.7468109
-0.9186363
-1.027214
-1.201065
-1.60463
-2.376217
-3.468533
-4.722607
-5.785866
-6.352699
-6.274372
-5.636391
-4.749371
-4.036594
-3.906452
-4.504856
-5.812584
-7.550121
-9.431149
-11.21684
-12.71943
-13.7994
-14.24004
-13.92437
-12.78918
-11.04446
-9.119495
-7.507751
-6.513569
-6.125271
-5.919342
-5.273861
-3.767323
-1.332588
1.657383
4.607571
7.038956
8.742214
9.782299
10.35743
10.64294
10.66549
10.43017
9.961147
9.396492
8.955566
8.747871
8.774746
8.869732
8.823277
8.48896
7.945549
7.344734
6.897968
6.760269
6.854557
6.968746
6.87772
6.431656
5.609058
4.633789
3.689796
2.973854
2.535641
2.285805
2.051769
1.764225
1.475784
1.349697
1.579918
2.151752
2.903351
3.534508
3.691631
3.16634
2.01709
0.4994316
-1.070736
-2.492317
-3.784119
-5.095284
-6.541943
-8.145638
-9.76498
-11.18724
-12.25116
-13.00841
-13.56113
-14.03495
-14.29584
-14.00938
-12.84762
-10.69341
-7.871952
-5.066265
-3.067299
-2.331135
-2.787426
-3.797523
-4.490414
-4.242508
-2.917427
-0.9141846
1.058243
2.442059
2.990402
2.867317
2.433697
2.074543
1.998478
2.257214
2.877884
3.897118
5.338303
7.144257
9.083302
10.75166
11.84286
12.19114
11.90273
11.24304
10.544
10.00482
9.76046
9.795071
10.04355
10.38403
10.64129
10.53027
9.842304
8.512276
6.713219
4.857113
3.339996
2.438614
2.140846
2.324421
2.655712
2.82988
2.595798
1.758068
0.2907486
-1.745449
-4.095329
-6.460037
-8.472458
-9.935745
-10.80924
-11.26397
-11.61359
-12.121
-12.99455
-14.20671
-15.61393
-16.92865
-17.8696
-18.16046
-17.57609
-16.02378
-13.53289
-10.39702
-7.068188
-4.031078
-1.630627
0.1189461
1.517841
3.096138
5.172356
7.787941
10.55686
12.84224
14.14357
14.27285
13.52844
12.37234
11.30614
10.56508
10.20414
10.08732
10.06023
10.0679
10.02591
9.892307
9.497234
8.742744
7.550648
6.09351
4.578339
3.233879
2.238739
1.63015
1.422035
1.62162
2.227509
3.20961
4.480061
5.8405
7.013657
7.838955
8.210243
8.140873
7.771286
7.247913
6.693531
6.143707
5.541981
4.835354
3.946312
2.808887
1.439415
-0.09502029
-1.712421
-3.307232
-4.812355
-6.228848
-7.572498
-8.952309
-10.5247
-12.3594
-14.41522
-16.54178
-18.39891
-19.61253
-19.83798
-18.83557
-16.62585
-13.51994
-10.06304
-6.912693
-4.658424
-3.538063
-3.358261
-3.601048
-3.621609
-2.99625
-1.732628
-0.1823349
1.113625
1.772163
1.75272
1.325649
0.911499
0.8481445
1.311413
2.272709
3.59026
5.044743
6.462688
7.669685
8.552494
9.049377
9.203415
9.04837
8.666225
8.111332
7.452312
6.834633
6.425797
6.416489
6.799297
7.459324
8.094574
8.375332
8.079025
7.204159
5.959026
4.682064
3.650841
2.955715
2.496235
2.05541
1.373016
0.3512726
-0.9657993
-2.406368
-3.717798
-4.796288
-5.659567
-6.372185
-6.956137
-7.404943
-7.66165
-7.794617
-7.967939
-8.34667
-8.946938
-9.532612
-9.711439
-9.168903
-7.96286
-6.48192
-5.363493
-5.041828
-5.492371
-6.19479
-6.408735
-5.56612
-3.615606
-1.060514
1.351959
2.966413
3.537344
3.248129
2.564672
1.976116
1.829628
2.154335
2.821642
3.635172
4.396114
5.02129
5.52235
5.928839
6.193094
6.282568
6.119131
5.685177
5.032623
4.287178
3.604818
3.093756
2.829426
2.774725
2.85652
2.978101
3.056095
3.062823
3.007265
2.88341
2.690173
2.384028
1.924198
1.206485
0.1761675
-1.135051
-2.614494
-4.155193
-5.634798
-6.971819
-8.170729
-9.268356
-10.40657
-11.74741
-13.35685
-15.11956
-16.78134
-17.91709
-18.08996
-17.05002
-14.92625
-12.17939
-9.453074
-7.241056
-5.748738
-4.789842
-3.966845
-2.898208
-1.422266
0.3030605
2.014217
3.468931
4.604697
5.439781
6.082013
6.627296
7.082662
7.431635
7.705784
7.978723
8.336612
8.801723
9.231112
9.41596
9.140123
8.308528
7.000813
5.486904
4.07802
3.022958
2.422308
2.250375
2.39539
2.744693
3.124255
3.442766
3.538206
3.344203
2.772033
1.880451
0.7922258
-0.3450413
-1.416936
-2.376195
-3.18336
-3.854919
-4.343912
-4.711804
-4.94198
-5.020254
-4.914789
-4.636795
-4.240681
-3.872098
-3.776305
-4.22515
-5.464603
-7.500337
-10.12399
-12.86489
-15.16023
-16.43416
-16.31814
-14.7393
-11.97038
-8.617255
-5.393651
-2.854668
-1.263885
-0.3884087
0.2135181
1.0541
2.413263
4.220062
6.084976
7.592512
8.518068
8.785357
8.590069
8.116264
7.493454
6.802401
6.171875
5.745382
5.695518
6.100735
6.785425
7.462772
7.81069
7.694427
7.170063
6.543638
6.102747
5.993671
6.169184
6.403112
6.518133
6.427876
6.223959
6.049816
5.992031
6.048109
6.07675
5.916527
5.461466
4.797541
4.041981
3.328745
2.724724
2.172623
1.53685
0.6587696
-0.5653381
-2.181049
-4.124828
-6.261742
-8.404202
-10.32124
-11.85712
-12.9112
-13.45595
-13.47138
-13.02348
-12.16324
-11.01649
-9.740891
-8.4608
-7.228706
-6.026875
-4.827528
-3.671246
-2.763203
-2.390305
-2.79524
-3.939617
-5.389021
-6.451616
-6.43092
-5.025625
-2.427896
0.734127
3.670492
5.763901
6.766354
6.83777
6.355251
5.719517
5.1182
4.681339
4.400845
4.270718
4.276058
4.441065
4.745708
5.105848
5.446724
5.616722
5.576643
5.333347
5.002285
4.715437
4.64362
4.851257
5.294312
5.849802
6.290762
6.458216
6.244963
5.667728
4.832235
3.892879
2.987423
2.22448
1.667994
1.282179
0.9694366
0.5978222
0.01486397
-0.8134041
-1.847065
-2.974108
-4.055403
-4.945761
-5.686401
-6.364031
-7.131409
-8.115211
-9.349276
-10.80511
-12.33888
-13.78494
-14.89915
-15.47682
-15.26648
-14.07975
-11.92393
-9.034195
-5.989607
-3.41609
-1.823231
-1.227171
-1.235151
-1.129484
-0.3485794
1.166176
2.995411
4.410929
4.89591
4.393978
3.343039
2.355532
1.950508
2.303558
3.256134
4.591566
6.126242
7.783377
9.50775
11.21485
12.71451
13.74443
14.14935
13.89893
13.16428
12.17295
11.08995
10.00861
8.972473
8.04801
7.343042
7.033688
7.199751
7.856361
8.777798
9.621834
10.04669
9.883032
9.226917
8.326771
7.460695
6.741308
6.096928
5.289528
4.085562
2.405388
0.3305798
-1.888254
-3.998085
-5.826128
-7.265535
-8.349708
-9.157864
-9.828622
-10.51259
-11.37651
-12.44806
-13.54182
-14.35502
-14.5003
-13.72433
-12.03016
-9.722632
-7.305342
-5.334145
-4.180367
-3.95074
-4.486169
-5.400342
-6.203378
-6.421773
-5.698476
-3.932838
-1.308532
1.743485
4.653358
6.894443
8.234367
8.703314
8.615442
8.41134
8.326173
8.458755
8.682659
8.84024
8.83134
8.77529
8.774846
8.836599
8.893307
8.668514
7.941494
6.696609
5.101028
3.533346
2.441516
2.075931
2.415021
3.266766
4.294711
5.192554
5.825579
6.128193
6.165051
5.971057
5.489314
4.641548
3.398824
1.740088
-0.1389036
-1.920936
-3.272597
-3.900809
-3.772287
-3.086618
-2.314642
-1.947035
-2.458147
-4.022665
-6.536737
-9.676809
-12.9222
-15.72417
-17.62517
-18.28918
-17.59129
-15.75541
-13.2991
-10.86199
-9.015106
-7.97337
-7.498121
-7.115108
-6.270126
-4.697411
-2.553526
-0.3097038
1.526976
2.58473
2.811922
2.401316
1.647888
0.8428745
0.225153
-0.05986595
0.004261017
0.4008045
0.9777813
1.55113
2.026173
2.415129
2.783426
3.210258
3.702682
4.215664
4.686199
5.079498
5.427231
5.821278
6.289036
6.768105
7.107849
7.106701
6.625305
5.631027
4.197651
2.495438
0.7578545
-0.8742752
-2.266701
-3.312485
-4.024685
-4.376842
-4.353275
-3.970615
-3.279926
-2.439224
-1.745453
-1.513515
-2.035816
-3.487301
-5.770149
-8.53046
-11.20872
-13.14893
-13.88602
-13.20491
-11.25628
-8.58514
-5.9081
-3.877922
-2.857208
-2.840218
-3.440781
-4.188614
-4.691929
-4.70837
-4.249092
-3.387199
-2.193939
-0.7727547
0.7777977
2.445374
4.201572
6.003963
7.844028
9.601521
11.15005
12.27102
12.71729
12.3381
11.13099
9.250217
6.983742
4.705002
2.695244
1.23637
0.4091911
0.1551323
0.272213
0.4572563
0.4109383
-0.04714203
-0.9219475
-2.082771
-3.254765
-4.21236
-4.830353
-5.096264
-5.167515
-5.212757
-5.370342
-5.71463
-6.235027
-6.808079
-7.29372
-7.60408
-7.69698
-7.643093
-7.491142
-7.321796
-7.183117
-7.182903
-7.393318
-7.828888
-8.383392
-8.758621
-8.608021
-7.627449
-5.869541
-3.702248
-1.770668
-0.6605301
-0.6499977
-1.535831
-2.727825
-3.50148
-3.293045
-1.906445
0.4492455
3.33839
6.232449
8.709229
10.55876
11.69769
12.14456
12.00393
11.44459
10.67793
9.910938
9.208263
8.507118
7.651779
6.519119
5.10096
3.618267
2.373081
1.623154
1.435146
1.566479
1.747814
1.817642
1.848337
2.018629
2.490162
3.191593
3.763763
3.790859
2.993343
1.421066
-0.480484
-2.119701
-3.037079
-3.082342
-2.498825
-1.738663
-1.226482
-1.158958
-1.481998
-1.963079
-2.39414
-2.705597
-2.94002
-3.21718
-3.602179
-4.131096
-4.825176
-5.688986
-6.769787
-8.04423
-9.403158
-10.6118
-11.37188
-11.40746
-10.56031
-8.997307
-7.182404
-5.706043
-5.068991
-5.394663
-6.349674
-7.242052
-7.288916
-5.951464
-3.255671
0.2362232
3.696545
6.374746
7.905096
8.344088
8.015385
7.356489
6.771832
6.487717
6.549273
6.877562
7.32346
7.780579
8.113529
8.258036
8.15579
7.862177
7.481472
7.139828
6.971842
7.021172
7.282633
7.625385
7.819868
7.623583
6.878706
5.596939
3.999266
2.420715
1.169415
0.4221001
0.2103863
0.4452305
0.9705105
1.630976
2.345625
3.119291
3.970612
4.776094
5.336468
5.399187
4.780813
3.427044
1.45706
-0.8084679
-3.033852
-4.933525
-6.475397
-7.769707
-9.029161
-10.44706
-12.10504
-13.89894
-15.57214
-16.84139
-17.41795
-17.13868
-15.90153
-13.76953
-10.98716
-7.975069
-5.235739
-3.200449
-2.123087
-1.867161
-2.017672
-2.021944
-1.496634
-0.3867416
1.069557
2.415001
3.285213
3.50102
3.216858
2.735409
2.380554
2.442598
3.023071
4.141729
5.587721
7.084799
8.326376
9.120104
9.38039
9.177525
8.72826
8.194834
7.734928
7.358898
7.110899
7.035324
7.20838
7.650902
8.284651
8.982265
9.559744
9.905453
9.97743
9.857622
9.616943
9.307886
8.956682
8.561317
8.139357
7.654375
6.992693
5.978586
4.453377
2.321072
-0.3390484
-3.215473
-5.913994
-8.134037
-9.737896
-10.80324
-11.59012
-12.33366
-13.16094
-14.03524
-14.76265
-15.11652
-14.89221
-13.91186
-12.0815
-9.497663
-6.43877
-3.400761
-0.9583054
0.4399853
0.636198
-0.156168
-1.423006
-2.533142
-2.970215
-2.521843
-1.355766
0.1154728
1.417229
2.200384
2.368902
2.120026
1.720215
1.440472
1.393805
1.584921
1.917635
2.369848
3.003429
3.938316
5.227262
6.725319
8.123255
9.054064
9.310989
8.971094
8.422123
8.097288
8.330811
9.112801
10.08401
10.71518
10.56403
9.555069
7.931829
6.155615
4.693382
3.810799
3.549862
3.735897
4.095589
4.327633
4.160324
3.437595
2.121109
0.3313484
-1.824604
-4.194874
-6.685226
-9.232265
-11.70164
-13.88049
-15.44458
-16.05956
-15.43439
-13.5412
-10.61996
-7.202034
-3.929214
-1.477306
-0.3063698
-0.5139389
-1.761868
-3.329758
-4.446587
-4.603649
-3.768623
-2.404972
-1.197536
-0.7423744
-1.253239
-2.43322
-3.645309
-4.217648
-3.726452
-2.192417
-0.04269791
2.111496
3.722607
4.456089
4.388439
3.803299
3.055523
2.392223
1.865211
1.364178
0.8321724
0.3335609
0.08291626
0.3484573
1.266258
2.703045
4.316135
5.573135
6.005005
5.347794
3.677696
1.30838
-1.305737
-3.732479
-5.731426
-7.156204
-8.167503
-8.926533
-9.610321
-10.24385
-10.78607
-11.12936
-11.14893
-10.78613
-9.891315
-8.445194
-6.429287
-4.060734
-1.678688
0.1896973
1.117367
0.9658127
-0.04060745
-1.269653
-2.062851
-1.91404
-0.821949
0.8780289
2.595009
3.801041
4.216797
3.848461
2.98679
2.003773
1.275013
0.9964714
1.146439
1.580032
2.028545
2.31842
2.348881
2.203327
2.065292
2.094788
2.399574
2.914242
3.507622
3.944077
4.083
3.807796
3.152412
2.249233
1.265594
0.3807678
-0.4029083
-1.179405
-2.190502
-3.550255
-5.279758
-7.090298
-8.598568
-9.49913
-9.651085
-9.223625
-8.54858
-8.035496
-7.921532
-8.330746
-9.165001
-10.24217
-11.33766
-12.17989
-12.53696
-12.23137
-11.17002
-9.471748
-7.439934
-5.459093
-3.875235
-2.836788
-2.196199
-1.584496
-0.541687
1.220329
3.665922
6.434101
8.973312
10.8211
11.77317
11.94715
11.63241
11.13663
10.64653
10.20708
9.834038
9.460472
9.04035
8.526401
7.878641
7.076572
6.187399
5.378273
4.816096
4.659367
4.917081
5.432609
6.04583
6.595882
6.966416
7.086503
6.894966
6.281614
5.186815
3.677268
1.962775
0.3795004
-0.8193636
-1.514215
-1.796332
-1.832407
-1.891892
-2.142739
-2.689983
-3.567803
-4.726179
-6.126368
-7.569953
-8.860674
-9.741461
-10.19569
-10.31525
-10.38194
-10.72334
-11.53439
-12.77343
-14.08054
-14.94459
-14.87935
-13.66628
-11.41442
-8.577229
-5.78221
-3.556093
-2.195923
-1.630888
-1.464752
-1.171379
-0.3238678
1.244562
3.412769
5.785
7.968393
9.656401
10.66353
11.05317
10.98219
10.63846
10.16627
9.683859
9.205091
8.809537
8.510396
8.20926
7.794119
7.143298
6.251663
5.226719
4.266136
3.603209
3.422213
3.705584
4.303486
4.95093
5.395624
5.522638
5.302893
4.836786
4.26936
3.795868
3.50667
3.401192
3.420752
3.493364
3.574022
3.671755
3.823059
3.965208
4.05024
3.928436
3.440834
2.508614
1.165604
-0.5075169
-2.303696
-4.039215
-5.565851
-6.830818
-7.872684
-8.80035
-9.752171
-10.78913
-11.94187
-13.1561
-14.34207
-15.33938
-16.00975
-16.09524
-15.36184
-13.74201
-11.42037
-8.837212
-6.526495
-4.916626
-4.056932
-3.662409
-3.160219
-2.092255
-0.284071
2.029856
4.382704
6.300453
7.502254
7.993092
7.991447
7.751469
7.505394
7.401443
7.509567
7.84404
8.434883
9.1912
9.918331
10.43753
10.55355
10.17372
9.363026
8.32869
7.293198
6.465439
5.961082
5.80489
5.941219
6.322094
6.824169
7.299267
7.621353
7.637173
7.320816
6.736279
6.004337
5.290306
4.766262
4.511086
4.530907
4.778561
5.167595
5.585995
5.898964
6.002686
5.799152
5.218143
4.218723
2.830616
1.11779
-0.8301506
-2.901314
-5.037548
-7.225475
-9.495003
-11.91724
-14.52336
-17.23643
-19.77759
-21.75166
-22.6334
-22.05634
-20.02279
-16.90784
-13.45023
-10.44114
-8.383739
-7.321789
-6.895931
-6.495102
-5.578098
-3.951263
-1.73822
0.6963196
2.97728
4.871037
6.377354
7.567833
8.641743
9.749344
10.94272
12.17329
13.31898
14.22205
14.74001
14.83763
14.51609
13.83085
12.85392
11.57019
10.00119
8.238312
6.434334
4.884449
3.87529
3.614117
4.110012
5.252522
6.699131
8.150143
9.360012
10.14518
10.46088
10.35966
9.967651
9.387188
8.703686
7.830761
6.705448
5.219822
3.320007
1.066895
-1.326862
-3.607697
-5.618797
-7.317558
-8.86869
-10.44146
-12.17015
-14.02138
-15.77995
-17.17709
-17.95778
-17.98848
-17.25812
-15.82461
-13.75466
-11.20471
-8.530405
-6.166182
-4.605103
-4.106594
-4.559509
-5.418203
-6.00104
-5.747631
-4.484556
-2.519491
-0.4090023
1.306309
2.346546
2.778419
2.97205
3.296618
3.919397
4.859257
5.91003
6.850561
7.538385
7.997503
8.382793
8.884041
9.637281
10.57351
11.57161
12.4342
13.00323
13.21704
13.15124
12.94595
12.71408
12.48449
12.15379
11.59322
10.68792
9.421036
7.877213
6.228079
4.627785
3.11059
1.61544
0.05095291
-1.630577
-3.37396
-5.098627
-6.676142
-8.136286
-9.573495
-11.11512
-12.7872
-14.50457
-16.0751
-17.21297
-17.62596
-17.05497
-15.45749
-12.99913
-10.12004
-7.424135
-5.483096
-4.658401
-4.836703
-5.515836
-6.003159
-5.74755
-4.506025
-2.447598
-0.05064678
2.135461
3.640106
4.312902
4.255339
3.766511
3.178856
2.734044
2.510014
2.374646
2.164299
1.760628
1.256269
0.8453488
0.7187099
0.9671249
1.491389
2.070272
2.507738
2.76098
2.879388
2.972233
3.074264
3.075771
2.88687
2.403493
1.641805
0.698874
-0.2791052
-1.266751
-2.301743
-3.409125
-4.617349
-5.798051
-6.816941
-7.540093
-7.900857
-7.979186
-7.987917
-8.22993
-8.912438
-10.11426
-11.6553
-13.16849
-14.16918
-14.21639
-13.10932
-11.03072
-8.443451
-5.986368
-4.186043
-3.225025
-2.864987
-2.602765
-1.879094
-0.3900843
1.825038
4.369692
6.716189
8.425118
9.303772
9.462221
9.132098
8.623313
8.126459
7.759096
7.545344
7.461762
7.497464
7.590334
7.69808
7.76073
7.719135
7.570036
7.368651
7.166367
7.024426
6.941011
6.873777
6.700096
6.310261
5.594679
4.50938
3.110767
1.533649
0.0171833
-1.260787
-2.17181
-2.676367
-2.845306
-2.804028
-2.686317
-2.623289
-2.711336
-3.01552
-3.52387
-4.219168
-5.020077
-5.856441
-6.710932
-7.614706
-8.633162
-9.859797
-11.31278
-12.96028
-14.69379
-16.29376
-17.44208
-17.81496
-17.1196
-15.24118
-12.3879
-9.05106
-5.91758
-3.648201
-2.523088
-2.371912
-2.562164
-2.334721
-1.141327
1.109486
4.031878
6.977695
9.316303
10.7552
11.34254
11.39585
11.25423
11.18417
11.236
11.40718
11.62633
11.76243
11.72223
11.3798
10.66273
9.570194
8.310862
7.069817
6.074953
5.458334
5.146845
5.012638
4.941814
4.841393
4.64188
4.326637
3.852478
3.221966
2.562592
2.082726
1.970039
2.337433
3.066109
3.901646
4.521992
4.711433
4.434593
3.90847
3.342796
2.945473
2.735943
2.545233
2.208302
1.558842
0.4936695
-0.959343
-2.662464
-4.557961
-6.51877
-8.453651
-10.34439
-12.12559
-13.77657
-15.32532
-16.819
-18.14549
-19.14
-19.51598
-18.92578
-17.1883
-14.43849
-11.13235
-8.002205
-5.708622
-4.550095
-4.326359
-4.370853
-3.936195
-2.55788
-0.2689629
2.47208
5.015038
6.935452
8.130589
8.763474
9.141315
9.420544
9.582088
9.50172
9.139133
8.572254
8.047104
7.772964
7.796864
8.046143
8.36771
8.567993
8.569103
8.397144
8.133499
7.889732
7.735241
7.616707
7.469299
7.172989
6.669186
5.960518
5.110474
4.279606
3.646748
3.34914
3.389458
3.686283
4.063381
4.345821
4.419292
4.225163
3.766937
3.095947
2.263416
1.358631
0.4328957
-0.5275383
-1.55619
-2.713589
-4.043629
-5.511639
-6.983936
-8.301701
-9.267166
-9.827831
-10.11975
-10.36413
-10.77438
-11.55972
-12.78718
-14.33115
-15.87366
-16.94591
-17.11657
-16.19117
-14.28035
-11.79572
-9.367416
-7.512341
-6.375042
-5.713501
-5.007977
-3.782303
-1.892761
0.4695663
2.843372
4.785622
6.115826
6.905373
7.392895
7.820343
8.271893
8.71981
9.173092
9.628521
10.16819
10.83241
11.53574
11.99178
11.90904
11.15725
9.839081
8.273937
6.858364
5.891701
5.48864
5.59116
5.95668
6.38068
6.702908
6.758358
6.48933
5.86652
4.954391
3.891273
2.890396
2.104813
1.622597
1.420383
1.377392
1.415363
1.466324
1.585255
1.832844
2.243202
2.765503
3.237789
3.428036
3.122452
2.200645
0.736248
-1.101406
-3.059536
-4.882919
-6.411755
-7.606224
-8.636993
-9.76379
-11.25811
-13.21765
-15.53535
-17.77986
-19.41174
-19.92604
-19.05888
-16.98944
-14.28891
-11.72104
-9.905453
-9.041695
-8.837452
-8.71489
-8.06229
-6.545822
-4.186447
-1.341995
1.517681
3.980431
5.830219
7.020977
7.635197
7.781559
7.636471
7.338264
6.99873
6.716908
6.477798
6.281311
6.17926
6.272724
6.636841
7.306309
8.175343
9.088169
9.875473
10.41706
10.6981
10.77003
10.73944
10.61847
10.38894
10.03004
9.526016
8.956467
8.413052
7.927742
7.558922
7.273029
7.020515
6.703388
6.250824
5.632782
4.942375
4.285107
3.736618
3.321404
2.878204
2.225597
1.219532
-0.147007
-1.792229
-3.499573
-5.133785
-6.648319
-8.1073
-9.640751
-11.34527
-13.20641
-15.0697
-16.71732
-17.81419
-18.11208
-17.48011
-15.89184
-13.57918
-10.91096
-8.285242
-6.142609
-4.70787
-3.976723
-3.654324
-3.281904
-2.351582
-0.599659
1.866066
4.630358
7.024883
8.490217
8.758045
7.943497
6.402941
4.647541
3.130396
2.13331
1.845558
2.191517
3.021944
4.1605
5.411554
6.654299
7.854803
9.007931
10.06714
10.98611
11.57644
11.75312
11.54411
11.09529
10.64142
10.30841
10.09306
9.820938
9.318104
8.414288
7.118513
5.629278
4.179171
3.024363
2.284048
1.886597
1.614437
1.243677
0.5179405
-0.5827255
-1.86652
-3.172939
-4.263279
-5.11439
-5.886069
-6.775558
-7.94646
-9.442731
-11.17357
-12.94139
-14.60826
-15.9028
-16.60695
-16.49586
-15.40461
-13.38502
-10.78926
-8.199009
-6.230281
-5.27428
-5.217892
-5.566018
-5.659202
-4.902472
-3.158658
-0.6965756
1.885406
3.949107
5.066171
5.228835
4.687417
3.911379
3.399986
3.421201
4.030575
5.020662
6.065649
6.82911
7.152552
6.992795
6.435627
5.633443
4.705095
3.851201
3.244126
3.029188
3.271194
3.908163
4.755721
5.560365
6.101136
6.252263
6.015422
5.496734
4.769214
3.901244
2.874419
1.714941
0.4913559
-0.6794434
-1.719894
-2.57468
-3.366604
-4.255699
-5.388071
-6.813115
-8.451629
-10.17051
-11.83748
-13.41067
-14.83532
-16.01211
-16.63803
-16.29428
-14.70323
-11.90381
-8.441925
-5.166195
-2.903965
-2.041316
-2.311896
-2.948859
-3.082896
-2.169878
-0.2526035
2.053824
3.989231
5.000154
4.963243
4.196137
3.194333
2.468821
2.243207
2.613706
3.452214
4.626517
5.947153
7.239996
8.289293
8.842595
8.753331
7.931013
6.540302
4.85969
3.225856
1.896376
0.9388676
0.3183737
-0.09862518
-0.3975697
-0.6288023
-0.7247992
-0.6426735
-0.4173927
-0.1380949
0.06459236
0.07371902
-0.2076216
-0.8250027
-1.827692
-3.131074
-4.644898
-6.269559
-7.894992
-9.431099
-10.87294
-12.22727
-13.53418
-14.81071
-15.9846
-16.93066
-17.43935
-17.26554
-16.15583
-14.0254
-10.96576
-7.405499
-3.95753
-1.267352
0.2422185
0.6604471
0.4775343
0.446146
1.153549
2.83496
5.172255
7.534929
9.354149
10.30671
10.423
10.04867
9.560698
9.241255
9.232677
9.581129
10.15365
10.81772
11.30074
11.30221
10.58308
9.107391
7.06838
4.830427
2.880254
1.458952
0.7161398
0.5081267
0.6270082
0.8332965
0.9384086
0.797282
0.2654679
-0.644484
-1.881632
-3.150281
-4.159881
-4.667336
-4.635733
-4.249163
-3.861636
-3.789661
-4.189467
-5.065921
-6.233801
-7.500012
-8.665803
-9.593786
-10.15111
-10.3613
-10.31429
-10.15016
-10.12938
-10.36418
-10.88655
-11.55085
-12.12386
-12.30851
-11.90549
-10.78572
-8.924225
-6.519939
-3.900637
-1.539536
0.1222954
0.9212179
1.12237
1.230555
1.910984
3.578665
6.117352
9.003506
11.49297
12.9412
13.12322
12.31583
11.02317
9.782864
8.901588
8.349785
8.021425
7.775414
7.592026
7.559931
7.767609
8.160986
8.567226
8.747692
8.488852
7.780123
6.76709
5.668089
4.684628
3.899458
3.325802
2.893101
2.550802
2.271568
2.157143
2.341875
2.927677
3.95746
5.36083
6.988842
8.542904
9.693556
10.17609
9.864695
8.806204
7.249516
5.533596
3.932573
2.63475
1.608881
0.7157192
-0.2339725
-1.38814
-2.805511
-4.378014
-5.957535
-7.423582
-8.679859
-9.785248
-10.82359
-11.91216
-13.20831
-14.73289
-16.37523
-17.87551
-18.87455
-19.00178
-18.02654
-15.96707
-13.21436
-10.44261
-8.28614
-7.055334
-6.612062
-6.382105
-5.653067
-3.950714
-1.277115
1.878252
4.811081
6.933022
8.034704
8.260044
7.961613
7.473999
7.001648
6.613052
6.381962
6.400404
6.747437
7.390854
8.1511
8.710339
8.82896
8.441292
7.701855
6.968559
6.595371
6.786797
7.433437
8.281994
9.023922
9.463287
9.527325
9.216244
8.657986
7.93819
7.136787
6.348034
5.641216
5.062675
4.606159
4.19767
3.737942
3.236259
2.758694
2.37603
2.195694
2.257092
2.495232
2.868015
3.326084
3.779549
4.098749
4.085869
3.467197
2.100403
0.0266571
-2.544384
-5.310638
-7.903019
-10.13268
-12.05409
-13.83887
-15.6807
-17.61895
-19.52351
-21.04463
-21.73653
-21.23142
-19.38336
-16.4778
-13.09646
-10.02807
-7.881701
-6.85207
-6.612404
-6.44342
-5.634285
-3.767233
-0.9210911
2.414051
5.514042
7.807848
9.085567
9.377743
8.951847
8.010618
6.746124
5.353128
4.112358
3.263889
3.002619
3.402985
4.319134
5.480419
6.583838
7.449656
8.091608
8.594446
9.061071
9.510202
9.899948
10.1663
10.26791
10.17694
9.868116
9.377045
8.756226
8.217396
7.962467
8.139452
8.761354
9.654753
10.51724
10.98832
10.91984
10.25592
9.150848
7.762697
6.185875
4.523159
2.852947
1.293732
-0.07912827
-1.199909
-2.106428
-2.855833
-3.520756
-4.135298
-4.673813
-5.192108
-5.781948
-6.618977
-7.889727
-9.707882
-12.02152
-14.6171
-17.21498
-19.40147
-20.87685
-21.36362
-20.73186
-19.07845
-16.74799
-14.21164
-11.8776
-9.975271
-8.431016
-6.97605
-5.301089
-3.223445
-0.8807268
1.376978
3.170343
4.326627
4.887177
5.143446
5.396043
5.866057
6.601474
7.460161
8.328694
9.119182
9.868133
10.50507
11.01382
11.28181
11.20797
10.74999
9.909389
8.832771
7.640138
6.503028
5.475052
4.695478
4.238256
4.140918
4.383267
4.877542
5.529882
6.191799
6.727705
7.060411
7.203081
7.180106
7.094683
7.022272
6.966764
6.890478
6.665945
6.164424
5.380311
4.356205
3.178813
1.907135
0.5720305
-0.8452808
-2.390208
-4.039557
-5.740287
-7.419733
-9.066378
-10.64819
-12.1217
-13.31348
-13.99451
-13.95758
-13.06068
-11.35156
-9.090553
-6.772786
-4.942183
-4.097476
-4.518847
-6.042932
-8.085505
-9.813719
-10.45553
-9.709256
-7.859386
-5.57817
-3.620245
-2.424109
-1.836316
-1.377623
-0.5327463
0.9694576
2.957283
5.032087
6.745857
7.830051
8.350899
8.623079
8.982325
9.588161
10.42134
11.20707
11.67388
11.52217
10.61672
9.073582
7.218599
5.465187
4.200056
3.714254
3.988352
4.8554
5.98905
7.029892
7.684521
7.773169
7.230686
6.071646
4.450207
2.431288
0.1600304
-2.154192
-4.259609
-5.924137
-7.045565
-7.688135
-8.076015
-8.518616
-9.334274
-10.68324
-12.48602
-14.52979
-16.50221
-18.08484
-18.98855
-18.9344
-17.7244
-15.38651
-12.20222
-8.744644
-5.715755
-3.657883
-2.737988
-2.759502
-3.227879
-3.57531
-3.468716
-2.815567
-1.690186
-0.3182564
1.094818
2.405956
3.476315
4.220959
4.615974
4.7514
4.764629
4.872898
5.134468
5.503849
5.832867
5.932514
5.633583
4.886398
3.80423
2.599545
1.55117
0.8666801
0.6480713
0.866066
1.350197
1.851856
2.143997
2.034698
1.502865
0.6290321
-0.4581337
-1.593555
-2.596519
-3.389507
-3.932293
-4.245228
-4.479458
-4.772701
-5.215824
-5.780506
-6.32679
-6.630669
-6.554256
-6.083435
-5.409599
-4.824013
-4.65218
-5.059029
-6.010044
-7.349888
-8.737469
-9.826359
-10.30061
-9.965164
-8.858421
-7.278343
-5.649555
-4.422672
-3.886028
-4.034378
-4.524483
-4.872353
-4.591595
-3.503445
-1.732906
0.3244705
2.240295
3.684437
4.507561
4.805515
4.812267
4.817959
5.072002
5.772633
6.903881
8.390144
9.94585
11.18399
11.72693
11.31002
10.01248
8.108454
6.101425
4.40873
3.331106
2.955938
3.196234
3.900192
4.881611
6.010592
7.107769
7.967676
8.326031
7.975529
6.895159
5.254171
3.417534
1.711254
0.3625526
-0.5406342
-1.096182
-1.494627
-1.86821
-2.293663
-2.829103
-3.346684
-3.766872
-4.024105
-4.087534
-4.07328
-4.130764
-4.455854
-5.198151
-6.434614
-8.096432
-10.0362
-12.01262
-13.68417
-14.71255
-14.77934
-13.7112
-11.66787
-9.175211
-6.915335
-5.485434
-5.10664
-5.403845
-5.692001
-5.270021
-3.715733
-1.246965
1.487421
3.776892
5.140289
5.566544
5.46847
5.319986
5.436419
5.932432
6.642073
7.371756
7.972979
8.369617
8.608141
8.732586
8.786657
8.745893
8.630695
8.443386
8.178133
7.846302
7.457292
7.018985
6.565811
6.108902
5.62176
5.052421
4.334026
3.430337
2.402618
1.383039
0.5676756
0.1011801
0.07789421
0.4429626
1.009162
1.518171
1.646324
1.190224
0.09258556
-1.470349
-3.194399
-4.747085
-5.927765
-6.751053
-7.314983
-7.777708
-8.207359
-8.617477
-9.042916
-9.582886
-10.37482
-11.54599
-12.9574
-14.17214
-14.61629
-13.88306
-11.98537
-9.465974
-7.129773
-5.664486
-5.32467
-5.752665
-6.158959
-5.780501
-4.259007
-1.779637
1.002328
3.43089
5.082396
5.985118
6.478485
6.963456
7.679937
8.611378
9.623123
10.55073
11.31017
11.89539
12.27067
12.4108
12.20889
11.58057
10.49662
9.055266
7.42674
5.785787
4.340949
3.206497
2.470841
2.151482
2.171712
2.398366
2.686358
2.953683
3.121419
3.182713
3.108532
2.868696
2.465769
1.954066
1.378728
0.7683771
0.1191871
-0.6724231
-1.661542
-2.843963
-4.126696
-5.354461
-6.399005
-7.179443
-7.77169
-8.260942
-8.808406
-9.53639
-10.52754
-11.8127
-13.3033
-14.77148
-15.80482
-15.99556
-15.06327
-13.09554
-10.53444
-8.013807
-6.138108
-5.165993
-4.912385
-4.83524
-4.315108
-2.908976
-0.609992
2.247642
5.126655
7.555762
9.353835
10.60032
11.48072
12.1257
12.56559
12.74876
12.65059
12.30418
11.88857
11.58819
11.52898
11.67013
11.86554
12.0202
12.08413
12.12144
12.2567
12.5907
13.16457
13.98735
14.9729
15.94168
16.7114
17.04011
16.74218
15.77865
14.21263
12.29307
10.35153
8.703277
7.503357
6.685043
5.912843
4.837513
3.17775
0.923275
-1.64126
-4.071939
-5.945552
-7.13401
-7.738602
-8.074247
-8.420341
-8.929407
-9.602732
-10.36934
-11.17807
-12.03406
-12.94949
-13.8086
-14.3595
-14.2667
-13.32582
-11.63372
-9.609247
-7.850295
-6.813708
-6.575942
-6.749445
-6.698878
-5.866296
-4.057802
-1.584992
0.9980621
3.052874
4.276905
4.726293
4.675572
4.436531
4.271761
4.28677
4.459226
4.80976
5.282199
5.876804
6.596859
7.430042
8.273514
8.998967
9.463634
9.535999
9.224749
8.615419
7.893654
7.206219
6.547129
5.826189
4.873026
3.652878
2.277191
1.006119
0.1074009
-0.2862015
-0.1585617
0.2710819
0.7796497
1.100378
1.075258
0.7037945
0.08825493
-0.6043568
-1.229475
-1.641111
-1.9305
-2.264721
-2.900579
-4.143883
-6.13484
-8.841623
-12.01122
-15.25612
-17.98862
-19.72042
-20.05879
-18.90391
-16.5681
-13.55255
-10.56727
-8.122105
-6.514801
-5.589821
-4.899315
-3.857994
-2.045536
0.5626373
3.613037
6.460533
8.460442
9.194355
8.630543
7.122181
5.266594
3.684841
2.777092
2.652683
3.15556
3.898045
4.56596
4.936455
4.907684
4.495998
3.761795
2.743958
1.537609
0.2629166
-0.8613396
-1.601139
-1.792019
-1.44025
-0.7233734
0.09170151
0.7307587
1.069271
1.143436
1.104839
1.024296
0.8713722
0.5131187
-0.09703445
-0.9171944
-1.772842
-2.479847
-2.980171
-3.415997
-4.071327
-5.203026
-6.921665
-9.116825
-11.54468
-13.86382
-15.73628
-16.83194
-16.8354
-15.56742
-13.09871
-9.803734
-6.373344
-3.468719
-1.562851
-0.6679039
-0.3987274
-0.1598663
0.482914
1.60733
2.970863
4.106682
4.66391
4.530888
3.830624
2.932259
2.239555
2.065048
2.434338
3.259071
4.310539
5.388714
6.379845
7.19183
7.88002
8.430542
8.780361
8.878197
8.720371
8.344322
7.921253
7.627666
7.549431
7.667137
7.730503
7.445538
6.605156
5.140949
3.145847
0.9429054
-1.124481
-2.76973
-3.808052
-4.272285
-4.326786
-4.229618
-4.301243
-4.78941
-5.824558
-7.316139
-9.068966
-10.79838
-12.35958
-13.6764
-14.81833
-15.93447
-17.15173
-18.41098
-19.48177
-20.04608
-19.66766
-18.08215
-15.20394
-11.26086
-6.83989
-2.663307
0.6627502
2.830399
3.942142
4.483707
5.008728
6.008728
7.620693
9.626759
11.60344
13.11366
13.87701
13.80179
13.04492
11.82806
10.47779
9.25951
8.371372
7.920364
7.873524
8.055931
8.158371
7.959476
7.276199
6.092587
4.610851
3.097511
1.838314
1.065353
0.7844353
0.9015465
1.240673
1.615452
1.815479
1.773674
1.472279
0.9820786
0.4083519
-0.1071739
-0.4212608
-0.4511986
-0.1816826
0.2914963
0.8228645
1.147644
1.076145
0.5303917
-0.372097
-1.418854
-2.377419
-3.191822
-3.929668
-4.730474
-5.757402
-7.031044
-8.440788
-9.823481
-11.0549
-12.11161
-13.12313
-14.17888
-15.29614
-16.3731
-17.1892
-17.47076
-16.97038
-15.5661
-13.29079
-10.37672
-7.231737
-4.299267
-1.973848
-0.3914757
0.6427498
1.479959
2.533451
4.086582
6.146118
8.382111
10.37384
11.75538
12.36062
12.23674
11.57847
10.6865
9.794439
9.135031
8.766159
8.731588
9.0187
9.525873
10.02209
10.27159
10.12429
9.45955
8.417714
7.212921
6.115026
5.308863
4.808291
4.389495
3.83161
3.053248
2.037648
0.9792356
0.1134586
-0.3628559
-0.4472666
-0.293869
-0.117857
-0.08930302
-0.2605257
-0.6132565
-1.002535
-1.347029
-1.672526
-2.127718
-2.88434
-4.039036
-5.502611
-7.057178
-8.442928
-9.368038
-9.711966
-9.507347
-8.85513
-7.922963
-6.918431
-5.995649
-5.36195
-5.248819
-5.703968
-6.700514
-7.988879
-9.09371
-9.52377
-8.992399
-7.544908
-5.572841
-3.726188
-2.500487
-2.087233
-2.226609
-2.33161
-1.844731
-0.5117598
1.528588
3.860912
5.892721
7.295767
7.940437
7.918287
7.470747
6.878449
6.385667
6.250247
6.565884
7.237277
8.036114
8.614808
8.717747
8.283718
7.467678
6.530112
5.795146
5.434635
5.459581
5.784707
6.300195
6.814978
7.19175
7.317992
7.128309
6.646519
5.991982
5.262759
4.574345
4.011824
3.549689
3.17888
2.862067
2.51799
2.067035
1.472692
0.7123842
-0.1631737
-1.093826
-2.019016
-2.871839
-3.613865
-4.265516
-4.914357
-5.663265
-6.617979
-7.822119
-9.25779
-10.79784
-12.27259
-13.52966
-14.55133
-15.28395
-15.62992
-15.39678
-14.27982
-12.12298
-9.124123
-5.829901
-3.000335
-1.335527
-1.019895
-1.627212
-2.349553
-2.318666
-1.061057
1.286092
4.116459
6.651003
8.238992
8.630191
8.000702
6.735646
5.205639
3.773884
2.692079
2.092627
2.045757
2.506678
3.356533
4.418425
5.551382
6.619392
7.530568
8.272072
8.806535
9.094747
9.126767
8.96114
8.714228
8.530262
8.507225
8.580065
8.651075
8.593273
8.392433
8.148256
7.960144
7.928318
8.091446
8.428061
8.898685
9.419387
9.837368
9.959748
9.547394
8.419381
6.544439
4.144383
1.573107
-0.8033543
-2.756738
-4.301862
-5.60526
-6.884598
-8.348625
-10.12691
-12.22607
-14.46566
-16.55248
-18.02215
-18.43462
-17.48886
-15.19672
-12.01126
-8.629076
-5.785038
-3.882178
-2.883996
-2.408114
-2.028409
-1.476703
-0.7796397
-0.2312551
-0.0894289
-0.4303875
-1.004842
-1.435288
-1.356191
-0.5842676
0.8479619
2.786259
4.978218
7.116527
8.979769
10.40494
11.24474
11.50823
11.28751
10.65452
9.768099
8.746027
7.67577
6.659287
5.881379
5.469545
5.516143
5.982576
6.677979
7.354542
7.794712
7.9544
7.884489
7.76225
7.683955
7.614801
7.404302
6.7984
5.643318
3.983731
2.031446
0.1216302
-1.473942
-2.665266
-3.451712
-4.060332
-4.735302
-5.676812
-7.013815
-8.777899
-10.89011
-13.15241
-15.24783
-16.68549
-17.04272
-16.04376
-13.7753
-10.68479
-7.494825
-4.983516
-3.623117
-3.461172
-4.04868
-4.685762
-4.741058
-3.889893
-2.271591
-0.3913345
1.136538
1.886913
1.758141
1.099915
0.4012623
0.1563625
0.6188641
1.683226
3.009275
4.221388
5.09252
5.609999
5.940559
6.187439
6.361464
6.391336
6.159805
5.694246
5.084749
4.514301
4.043976
3.66325
3.256378
2.701077
2.038469
1.349369
0.7717857
0.3422489
0.03136444
-0.3024578
-0.7763805
-1.422415
-2.216599
-2.99987
-3.730532
-4.336662
-4.924131
-5.584867
-6.448242
-7.578722
-9.014362
-10.66115
-12.29088
-13.63128
-14.26293
-13.86655
-12.32997
-9.832916
-6.811802
-3.810076
-1.391153
0.1433773
0.7443237
0.6668415
0.2773361
-0.08620644
-0.1842117
0.0009250641
0.347702
0.5468769
0.4052639
-0.1522541
-0.9508572
-1.690365
-2.047766
-1.80529
-0.9658241
0.3286648
1.757425
3.087267
4.218948
5.198359
6.094915
6.961704
7.740402
8.322924
8.595924
8.477577
8.014305
7.305706
6.397837
5.316753
4.075895
2.676296
1.151461
-0.3955727
-1.849058
-3.135302
-4.172251
-4.96685
-5.483858
-5.76885
-5.831379
-5.725193
-5.48774
-5.238407
-5.161392
-5.51759
-6.544664
-8.344629
-10.85679
-13.71343
-16.33356
-18.07198
-18.40715
-17.13735
-14.51842
-11.10116
-7.557165
-4.447281
-2.021816
-0.1902237
1.324148
2.770849
4.228157
5.577627
6.60676
7.206919
7.410183
7.3363
7.162933
6.931227
6.680044
6.381975
6.096785
5.90729
5.902361
6.088556
6.349735
6.539717
6.497301
6.268456
5.940509
5.630562
5.424064
5.311643
5.233788
5.122168
4.969772
4.780334
4.539932
4.197085
3.641884
2.776261
1.588266
0.2066317
-1.149928
-2.24332
-2.910397
-3.235819
-3.398383
-3.645085
-4.099617
-4.748316
-5.440873
-6.045335
-6.468076
-6.735165
-6.931119
-7.114538
-7.369901
-7.71496
-8.225925
-8.993874
-9.993177
-11.09596
-11.97137
-12.2556
-11.60831
-10.08268
-8.046389
-6.058975
-4.677701
-4.086181
-4.001319
-3.83305
-2.947242
-0.9745698
1.995227
5.425156
8.698601
11.29828
12.92565
13.6019
13.48086
12.82271
11.84994
10.77503
9.816357
9.134448
8.790172
8.69911
8.685482
8.502411
8.021664
7.175179
6.064666
4.842174
3.757884
2.953949
2.608559
2.797565
3.475637
4.47296
5.553527
6.462997
7.020804
7.145996
6.861414
6.253535
5.457561
4.575171
3.644347
2.731443
1.862138
1.064536
0.2759199
-0.566143
-1.55672
-2.700035
-3.938814
-5.182653
-6.369608
-7.493983
-8.61056
-9.801887
-11.05651
-12.35978
-13.64322
-14.85639
-15.97255
-17.02159
-17.93505
-18.56887
-18.59689
-17.68534
-15.63639
-12.60613
-9.100626
-5.852457
-3.573102
-2.543524
-2.538591
-2.791698
-2.480225
-1.036158
1.58194
4.903351
8.219814
10.9289
12.67892
13.4821
13.55989
13.14314
12.43077
11.54467
10.63741
9.821007
9.175194
8.715822
8.375921
8.107548
7.887535
7.722187
7.656281
7.684507
7.745543
7.731203
7.611567
7.37076
7.019444
6.564732
5.919443
5.069504
4.002466
2.86368
1.839544
1.089111
0.6736679
0.479044
0.4011612
0.392849
0.5110493
0.7900734
1.259113
1.764538
2.05504
1.864372
1.000141
-0.4599819
-2.274776
-4.145391
-5.876337
-7.307499
-8.42527
-9.285664
-10.01619
-10.81572
-11.79649
-13.01721
-14.34261
-15.54388
-16.20234
-15.99523
-14.78158
-12.67855
-10.09685
-7.552244
-5.583134
-4.477554
-4.197079
-4.333876
-4.335474
-3.682632
-2.105677
0.1875
2.724754
4.939991
6.428474
7.129807
7.281536
7.228493
7.270432
7.650326
8.348816
9.286011
10.23888
10.96266
11.30777
11.18342
10.62417
9.748184
8.785583
7.840084
7.022297
6.338528
5.807037
5.511242
5.557632
5.97847
6.658894
7.443977
8.001122
8.153526
7.808277
7.060238
6.17939
5.403934
4.837242
4.444881
4.132084
3.724037
3.134739
2.33852
1.32468
0.166832
-1.085663
-2.33556
-3.443256
-4.30719
-4.900177
-5.272915
-5.650051
-6.347183
-7.581711
-9.418297
-11.72267
-14.16902
-16.32668
-17.84444
-18.3265
-17.59206
-15.77618
-13.21785
-10.49226
-8.237728
-6.807034
-6.176369
-5.954014
-5.445625
-4.126205
-1.888813
0.9634361
3.836742
6.120533
7.510117
8.02507
7.895691
7.470371
6.976566
6.501514
6.120331
5.896011
5.97797
6.50462
7.548016
8.930828
10.38663
11.55847
12.15832
12.15076
11.69551
11.07355
10.53258
10.16918
9.913364
9.726997
9.546566
9.39296
9.257645
9.083073
8.755718
8.177647
7.351021
6.354176
5.403118
4.681992
4.295225
4.150063
4.006889
3.596262
2.705755
1.24185
-0.7411385
-3.010502
-5.287773
-7.407373
-9.313774
-11.18135
-13.19603
-15.46571
-17.90867
-20.20307
-21.92852
-22.58867
-21.8509
-19.63475
-16.22319
-12.20362
-8.339098
-5.318836
-3.514622
-2.922396
-3.067886
-3.258335
-2.846451
-1.545238
0.4562397
2.588085
4.17495
4.830332
4.548851
3.746376
3.033487
2.963482
3.758823
5.273701
7.165049
9.000027
10.5472
11.6945
12.47682
12.98469
13.24833
13.334
13.24162
13.00353
12.64097
12.20282
11.7095
11.12443
10.46107
9.618711
8.573024
7.340667
5.988713
4.682082
3.581592
2.771729
2.16425
1.585567
0.7038326
-0.724556
-2.691851
-4.961015
-7.065318
-8.558002
-9.104288
-8.768333
-7.916427
-7.129884
-6.955343
-7.619349
-8.983974
-10.5749
-11.79996
-12.15936
-11.45081
-9.759236
-7.461822
-5.13206
-3.31855
-2.434509
-2.57502
-3.454901
-4.501427
-5.014413
-4.496764
-2.825112
-0.398644
2.069717
3.846803
4.513916
4.075694
2.88755
1.585872
0.6322861
0.363966
0.7532654
1.570763
2.492912
3.24889
3.749325
4.002586
4.142665
4.226232
4.29305
4.301813
4.234016
4.073595
3.859135
3.718295
3.698456
3.757631
3.736322
3.426776
2.714237
1.620647
0.3328428
-0.9384422
-1.978579
-2.746996
-3.303724
-3.834177
-4.526367
-5.462206
-6.640488
-7.91798
-9.250698
-10.58043
-11.94497
-13.33572
-14.68975
-15.82055
-16.38711
-15.99708
-14.41564
-11.73853
-8.404079
-5.124428
-2.509621
-0.9135933
-0.2099094
0.09137535
0.5781841
1.577404
3.091801
4.807123
6.290203
7.221159
7.510143
7.242136
6.618916
5.820057
4.990717
4.25149
3.6915
3.321602
3.055014
2.773024
2.345945
1.765745
1.151901
0.697855
0.5360718
0.7035446
1.008812
1.299335
1.422604
1.392801
1.35494
1.429852
1.680244
1.975529
2.091478
1.727629
0.7821198
-0.734272
-2.627098
-4.616076
-6.499184
-8.194241
-9.764421
-11.30348
-12.96686
-14.74326
-16.55719
-18.21278
-19.46827
-20.11704
-19.99704
-18.97922
-17.04715
-14.34173
-11.08737
-7.659351
-4.426922
-1.66933
0.4390516
2.000565
3.305171
4.700285
6.459983
8.614915
10.89285
12.84118
14.04907
14.28105
13.63953
12.42527
11.05006
9.827519
8.9401
8.38835
8.041022
7.769499
7.355719
6.719825
5.81649
4.724536
3.633399
2.789988
2.288675
2.091059
2.065022
1.932965
1.582138
0.9369769
0.05467367
-0.9757552
-2.091417
-3.260721
-4.499892
-5.81504
-7.211658
-8.62656
-9.95792
-11.09242
-11.9799
-12.63509
-13.15295
-13.73358
-14.49967
-15.46863
-16.44986
-17.10491
-17.03666
-15.96033
-13.79609
-10.70568
-7.080732
-3.392792
-0.1665268
2.242296
3.685179
4.309935
4.491392
4.703691
5.359213
6.612204
8.376055
10.33977
12.10841
13.41349
14.10246
14.15752
13.73516
13.05012
12.32939
11.81534
11.56738
11.49211
11.38628
10.95751
10.00095
8.533058
6.819042
5.186268
3.978344
3.290176
3.031181
3.075775
3.206371
3.369442
3.585548
3.816486
3.928059
3.745708
3.114151
2.070667
0.9094772
-0.004859924
-0.3222656
0.04824066
0.8238754
1.551437
1.824265
1.396152
0.341713
-1.023838
-2.363239
-3.416187
-4.207108
-4.973457
-5.987747
-7.417015
-9.294048
-11.48951
-13.70093
-15.61411
-16.87413
-17.17995
-16.41125
-14.58276
-12.02794
-9.34864
-7.131504
-5.75214
-5.18832
-4.962559
-4.436634
-3.123425
-0.8005791
2.197407
5.264851
7.809486
9.437084
10.07991
9.936893
9.290878
8.410954
7.559074
6.896801
6.55106
6.591862
6.951027
7.438133
7.822243
7.895279
7.591637
7.019871
6.445465
6.111706
6.208153
6.743038
7.589691
8.557323
9.393394
9.848461
9.763302
9.061565
7.813602
6.306988
4.856056
3.787098
3.257286
3.204124
3.367928
3.51088
3.509621
3.359138
3.212948
3.12738
3.076714
2.943352
2.573605
1.905285
1.025364
0.05457687
-0.9244232
-1.944275
-3.18993
-4.908302
-7.219299
-10.05106
-13.10921
-15.99878
-18.33344
-19.8393
-20.35397
-19.78264
-18.18507
-15.62959
-12.44216
-9.092018
-6.140186
-4.003651
-2.810371
-2.238625
-1.729084
-0.7701378
0.958992
3.299957
5.804779
7.935081
9.359158
10.01766
10.14447
9.972748
9.791103
9.73848
9.899292
10.27237
10.86319
11.58756
12.30373
12.82038
12.95157
12.66648
12.06652
11.39553
10.83448
10.56265
10.5942
10.90551
11.40327
11.9703
12.49525
12.91092
13.22962
13.4833
13.71103
13.84035
13.72894
13.23859
12.29887
10.97382
9.423874
7.751156
5.975655
3.927006
1.452991
-1.468548
-4.550137
-7.338718
-9.359451
-10.41637
-10.65825
-10.51832
-10.51113
-10.99131
-12.0757
-13.58949
-15.26276
-16.79313
-17.96576
-18.55631
-18.33209
-17.04585
-14.62017
-11.27612
-7.563992
-4.235834
-1.945713
-1.012289
-1.309515
-2.289762
-3.255205
-3.701117
-3.424583
-2.639496
-1.704805
-0.9592113
-0.5417194
-0.3392467
-0.1231194
0.3834324
1.323755
2.663271
4.208237
5.656176
6.751793
7.372007
7.566864
7.535864
7.535479
7.667948
7.900806
8.072493
7.993759
7.63168
7.149179
6.833171
6.929804
7.48317
8.190269
8.624033
8.364756
7.237053
5.425737
3.390027
1.687481
0.6854582
0.469635
0.7637324
1.175363
1.332728
1.018311
0.2699065
-0.7916279
-1.997284
-3.228865
-4.419216
-5.584909
-6.742299
-7.940724
-9.245991
-10.59347
-11.88051
-12.95021
-13.62854
-13.72423
-13.15353
-11.89149
-10.04185
-7.924504
-5.929125
-4.543806
-4.090184
-4.59795
-5.69323
-6.785722
-7.21974
-6.595157
-5.040344
-2.964858
-1.016817
0.3523884
0.9933844
1.077325
0.9238806
0.8928518
1.233006
1.957251
3.025732
4.224847
5.328844
6.114515
6.478559
6.404121
6.003036
5.441978
4.786751
4.102215
3.409615
2.749559
2.249754
2.060301
2.276667
2.787308
3.346485
3.550108
3.123127
2.025642
0.4525356
-1.119658
-2.308418
-2.8246
-2.756409
-2.372883
-2.129986
-2.347094
-3.123552
-4.349617
-5.66448
-6.838886
-7.662178
-8.159399
-8.405632
-8.630867
-8.973007
-9.531181
-10.34195
-11.28204
-12.12201
-12.52435
-12.17099
-10.86052
-8.695629
-6.129303
-3.784058
-2.307289
-2.04735
-2.886887
-4.326847
-5.597448
-6.076363
-5.403696
-3.774239
-1.612947
0.5444088
2.312561
3.576872
4.428844
5.074041
5.648348
6.263372
6.864813
7.420744
7.845915
8.115076
8.16309
7.949389
7.414454
6.561316
5.45805
4.273195
3.266058
2.736361
2.78006
3.441568
4.469778
5.530748
6.281563
6.460773
6.052011
5.172491
4.120398
3.091938
2.337313
1.92561
1.820513
1.922646
2.072987
2.102211
1.823925
1.127289
-0.06591415
-1.720139
-3.701967
-5.802549
-7.798424
-9.515553
-10.94842
-12.26525
-13.60852
-15.0615
-16.46524
-17.48035
-17.66836
-16.62398
-14.25484
-10.82234
-6.986134
-3.515705
-1.145063
-0.2210217
-0.5859299
-1.686454
-2.657079
-2.760666
-1.647678
0.5302391
3.243158
5.811786
7.752399
8.902621
9.358693
9.364162
9.149821
8.813093
8.416214
7.962864
7.492426
6.991352
6.429391
5.705376
4.714055
3.46591
2.147895
1.006192
0.2593069
-0.01170063
0.1544828
0.6091881
1.188358
1.823288
2.46063
3.068082
3.563831
3.815815
3.761943
3.489268
3.145055
2.876721
2.751956
2.632073
2.254163
1.378132
-0.1420012
-2.148932
-4.266865
-6.071688
-7.236376
-7.710286
-7.697966
-7.53407
-7.584316
-8.096264
-9.094091
-10.43228
-11.84773
-12.97803
-13.53957
-13.34592
-12.36617
-10.81054
-9.118592
-7.77538
-7.082257
-7.003843
-7.104385
-6.762762
-5.486119
-3.118726
0.04918879
3.388524
6.23886
8.21769
9.295055
9.834147
10.21682
10.71743
11.38046
12.06636
12.55725
12.6684
12.29592
11.43476
10.24432
8.832994
7.338175
5.898232
4.590839
3.533179
2.804007
2.469009
2.599311
3.278483
4.478427
6.03063
7.639969
8.992445
9.786444
9.907407
9.423078
8.520231
7.410507
6.248055
5.081814
3.899964
2.62847
1.259912
-0.1780396
-1.599956
-2.957729
-4.2569
-5.598645
-7.132821
-9.034488
-11.47611
-14.42592
-17.66451
-20.74456
-23.12724
-24.2729
-23.82137
-21.69916
-18.23951
-14.0678
-9.976718
-6.67408
-4.501393
-3.370155
-2.750512
-2.00176
-0.5967798
1.560159
4.185791
6.751516
8.74564
9.906502
10.25581
9.992481
9.333239
8.472471
7.567856
6.780672
6.306488
6.274399
6.65877
7.299971
7.956953
8.400461
8.552359
8.533615
8.512981
8.617218
8.860573
9.179682
9.466089
9.641138
9.670456
9.458895
8.917513
7.949579
6.568565
4.952847
3.416042
2.311457
1.802572
1.843925
2.083307
2.132689
1.625313
0.4842873
-1.207912
-3.184864
-5.156275
-6.964294
-8.579748
-10.07303
-11.54263
-13.09466
-14.71167
-16.36732
-17.91965
-19.07594
-19.54063
-19.0076
-17.31591
-14.61864
-11.38568
-8.266136
-5.819122
-4.301371
-3.493675
-2.871555
-1.863491
-0.1223679
2.270727
4.945448
7.353426
9.067026
9.835135
9.69659
8.89159
7.782938
6.766676
6.147905
6.140223
6.775047
7.922115
9.354153
10.90918
12.38248
13.67631
14.66257
15.1805
15.20759
14.83118
14.27457
13.79809
13.65795
13.86677
14.2691
14.58559
14.56788
14.12383
13.33344
12.3627
11.41004
10.60064
9.969652
9.428038
8.828384
7.962374
6.615641
4.73661
2.382746
-0.1641159
-2.591667
-4.646596
-6.252258
-7.510575
-8.701526
-10.05267
-11.66766
-13.54187
-15.48185
-17.18394
-18.31293
-18.56214
-17.73185
-15.97473
-13.67451
-11.41249
-9.691127
-8.704929
-8.253385
-7.82552
-6.870118
-5.125648
-2.741824
-0.2248833
1.830176
2.981507
3.141399
2.476371
1.318925
0.06717014
-1.051819
-1.872403
-2.310603
-2.363363
-1.975431
-1.120234
0.2078557
1.935878
3.978905
6.159651
8.294196
10.26394
11.9914
13.46774
14.66266
15.44856
15.66896
15.22625
14.12483
12.61028
11.00611
9.611182
8.609715
7.913712
7.301383
6.478226
5.320009
3.804741
2.100866
0.3831844
-1.292477
-2.923685
-4.599627
-6.412773
-8.379396
-10.40334
-12.37842
-14.16905
-15.64624
-16.75321
-17.32917
-17.1462
-16.03325
-13.96338
-11.20918
-8.390209
-6.177135
-5.078798
-5.208405
-6.09901
-6.966801
-7.086411
-6.087139
-4.156593
-1.957584
-0.2713737
0.4290657
0.08330154
-0.85429
-1.711826
-1.918549
-1.189735
0.3579788
2.242634
3.931915
5.060513
5.486446
5.35677
4.905872
4.387135
3.979076
3.765137
3.670097
3.640671
3.616333
3.52235
3.420052
3.3554
3.394623
3.568672
3.780563
3.83168
3.518341
2.686726
1.284424
-0.5058174
-2.470715
-4.331593
-5.907196
-7.130676
-7.993496
-8.599609
-9.073963
-9.575924
-10.09119
-10.54005
-10.70093
-10.38551
-9.441605
-7.909569
-6.068512
-4.269657
-2.99287
-2.452648
-2.734718
-3.628929
-4.741154
-5.552547
-5.621864
-4.714108
-2.870079
-0.4919281
1.864838
3.684784
4.666668
4.828327
4.436741
3.855591
3.393524
3.223083
3.3312
3.602158
3.926247
4.206844
4.386982
4.437283
4.343529
4.111195
3.782654
3.420891
3.120037
2.965115
2.975224
3.144444
3.337097
3.429111
3.301895
2.958519
2.440659
1.900192
1.379768
0.7704887
-0.08253098
-1.302223
-2.87999
-4.629681
-6.252674
-7.518387
-8.261536
-8.535423
-8.507236
-8.367596
-8.310368
-8.47953
-9.042789
-10.00938
-11.31333
-12.71211
-13.81189
-14.18034
-13.57333
-12.04111
-9.906353
-7.759926
-6.063175
-4.973621
-4.329159
-3.652618
-2.426933
-0.3688545
2.393749
5.412247
8.08036
9.935017
10.82478
10.89171
10.47773
9.946812
9.510456
9.175488
8.89867
8.65527
8.486366
8.458981
8.573347
8.80068
8.983707
8.953358
8.632889
8.050974
7.375044
6.813967
6.555841
6.588079
6.87018
7.209837
7.338554
7.107132
6.487318
5.554392
4.458752
3.315041
2.147516
0.9805183
-0.1749401
-1.298119
-2.320499
-3.174095
-3.86656
-4.429848
-4.936045
-5.450865
-5.974081
-6.416779
-6.713173
-6.775621
-6.665001
-6.572525
-6.701872
-7.209093
-8.175209
-9.523611
-11.03311
-12.46718
-13.5196
-13.94534
-13.57706
-12.33365
-10.29168
-7.790306
-5.319057
-3.381317
-2.307945
-2.040596
-2.224657
-2.277901
-1.706884
-0.3625755
1.527233
3.416664
4.772984
5.21616
4.750174
3.58676
2.188875
0.9807453
0.1872692
-0.02075386
0.3099327
1.120861
2.244366
3.609703
5.069448
6.545017
8.000957
9.356752
10.5862
11.62328
12.40962
12.8403
12.86389
12.44892
11.5749
10.29748
8.674747
6.866066
4.985327
3.208216
1.652534
0.3914204
-0.4847755
-0.9823551
-1.033459
-0.6538029
0.1717129
1.249289
2.333237
3.127396
3.338257
2.910673
1.869205
0.401432
-1.309837
-3.097063
-4.930862
-6.764095
-8.56357
-10.28772
-11.86592
-13.26606
-14.43869
-15.3306
-15.81656
-15.7021
-14.82777
-13.16816
-10.91419
-8.53648
-6.613533
-5.570649
-5.451152
-5.946495
-6.383109
-6.153623
-4.963501
-2.964442
-0.6298637
1.486818
3.001714
3.866086
4.218197
4.361096
4.591362
5.056274
5.848711
6.958913
8.296588
9.739739
11.02077
11.87974
12.11598
11.72035
10.82489
9.726823
8.676156
7.862719
7.407113
7.285146
7.438116
7.757423
8.107409
8.269371
8.124247
7.533539
6.504825
5.167831
3.697203
2.353902
1.321565
0.7190456
0.5312591
0.6191521
0.7495289
0.7399588
0.4695201
-0.05789948
-0.6934042
-1.301125
-1.791117
-2.198748
-2.694538
-3.479315
-4.755919
-6.596275
-9.004251
-11.7621
-14.57708
-17.01155
-18.66387
-19.19783
-18.49642
-16.708
-14.2195
-11.59004
-9.299795
-7.650016
-6.584625
-5.768072
-4.764595
-3.277689
-1.280272
0.9229598
2.93562
4.316279
4.804238
4.445035
3.500046
2.416174
1.635938
1.465049
2.053904
3.436016
5.380211
7.624775
9.881512
11.90382
13.53192
14.69875
15.36026
15.48203
15.11744
14.30067
13.19499
12.04034
11.01594
10.2609
9.749765
9.420848
9.121572
8.830593
8.583361
8.508028
8.728951
9.209787
9.856546
10.36459
10.47093
9.927589
8.631581
6.636448
4.180945
1.611173
-0.8433313
-3.000765
-4.97369
-6.943891
-9.081453
-11.44535
-13.97045
-16.46982
-18.56888
-19.97231
-20.37651
-19.62747
-17.76436
-15.01171
-11.80401
-8.667657
-6.137161
-4.411259
-3.465505
-2.952727
-2.430579
-1.554666
-0.1930428
1.530344
3.311494
4.760964
5.623928
5.817367
5.500545
4.954972
4.504745
4.385563
4.704147
5.487728
6.62405
7.94961
9.301533
10.53607
11.53569
12.19706
12.41066
12.17372
11.56564
10.76152
9.990252
9.490265
9.307877
9.400373
9.563799
9.52224
9.133457
8.367083
7.303511
6.106009
4.892931
3.677536
2.425653
1.042448
-0.5602779
-2.360086
-4.220722
-5.971558
-7.387577
-8.362411
-8.928654
-9.25639
-9.618996
-10.27679
-11.29831
-12.51738
-13.61319
-14.12986
-13.74197
-12.34039
-10.14869
-7.698326
-5.608929
-4.287682
-3.819508
-3.930786
-4.016685
-3.593349
-2.391476
-0.5253487
1.52573
3.168873
3.976883
3.801689
2.840302
1.533272
0.3720779
-0.2420387
-0.1448479
0.4980469
1.376842
2.139271
2.550636
2.638317
2.538643
2.488491
2.605431
2.869282
3.097328
3.167488
3.032478
2.807167
2.716328
2.900196
3.341923
3.818291
4.058952
3.8013
3.019688
1.788944
0.3487206
-1.046429
-2.2612
-3.290798
-4.254417
-5.277374
-6.449825
-7.749783
-9.204388
-10.7859
-12.4158
-14.0477
-15.55255
-16.70684
-17.18531
-16.65955
-14.90402
-12.00929
-8.365273
-4.623978
-1.45303
0.708725
1.849716
2.328037
2.644012
3.251022
4.253654
5.435638
6.379303
6.678009
6.204964
5.132885
3.8405
2.726082
2.052231
1.865921
2.015724
2.304443
2.529274
2.670448
2.759003
2.888206
3.096382
3.285172
3.294708
2.907555
2.069008
0.8027191
-0.6312408
-2.049118
-3.182034
-3.973186
-4.496838
-4.908562
-5.335205
-5.821205
-6.405647
-7.010056
-7.657345
-8.259567
-8.677692
-8.805191
-8.608913
-8.160889
-7.712742
-7.607529
-8.12027
-9.431763
-11.40524
-13.63628
-15.56779
-16.66033
-16.48785
-14.94056
-12.1942
-8.706764
-5.111378
-1.96653
0.4084435
2.000847
3.145515
4.278416
5.705185
7.471233
9.312252
10.78216
11.45992
11.17939
10.05334
8.518818
7.112911
6.22319
6.065666
6.601498
7.591846
8.757889
9.819016
10.51833
10.73569
10.44127
9.650288
8.533276
7.341156
6.252785
5.417702
4.750938
4.072479
3.219662
2.073532
0.6887627
-0.7598305
-2.012936
-2.930901
-3.436337
-3.626755
-3.662735
-3.742687
-3.971474
-4.377815
-5.012138
-5.829685
-6.876209
-8.114136
-9.488182
-10.87196
-12.13551
-13.15509
-13.88179
-14.39081
-14.69958
-14.79012
-14.45899
-13.53008
-11.9103
-9.7948
-7.614281
-5.832283
-4.794168
-4.434687
-4.292286
-3.799198
-2.490726
-0.2810535
2.56612
5.522274
8.109766
9.950151
11.00397
11.42292
11.37743
11.13986
10.85605
10.68524
10.68346
10.85317
11.05024
11.14839
10.97898
10.45501
9.625853
8.587745
7.491074
6.474998
5.67783
5.097165
4.741588
4.554203
4.474627
4.499586
4.537738
4.465671
4.167574
3.566735
2.625541
1.363406
-0.09115684
-1.597228
-2.902634
-3.961069
-4.81655
-5.545103
-6.267101
-7.005993
-7.730598
-8.353798
-8.830302
-9.136793
-9.46209
-9.997641
-10.91101
-12.26962
-13.90796
-15.38133
-16.17352
-15.85412
-14.20548
-11.45162
-8.077093
-4.732018
-1.911383
0.1831779
1.700785
3.011073
4.443462
6.130421
7.938908
9.566586
10.68264
11.07565
10.793
10.02954
9.022741
8.047831
7.237442
6.729378
6.593588
6.852402
7.403412
8.111738
8.740885
8.988667
8.776083
8.126877
7.197969
6.24655
5.483671
4.975161
4.707867
4.572001
4.40645
4.131683
3.722609
3.201864
2.615454
2.058228
1.649603
1.547232
1.782473
2.326929
3.065804
3.769596
4.16958
4.04562
3.328766
2.122873
0.5793419
-1.137966
-2.996881
-4.995264
-7.198317
-9.660915
-12.28253
-14.88035
-17.14965
-18.76003
-19.48582
-19.19864
-17.86044
-15.59392
-12.69659
-9.545467
-6.574776
-4.132629
-2.291004
-0.9167557
0.3161545
1.708454
3.356453
5.208088
7.013809
8.463757
9.371716
9.778439
9.833385
9.757477
9.757488
9.946404
10.32111
10.81029
11.21091
11.34232
11.15062
10.67929
10.1134
9.694199
9.596508
9.859154
10.34831
10.90977
11.38503
11.75066
12.04233
12.31762
12.54322
12.5515
12.19735
11.34057
10.03496
8.460781
6.878132
5.430752
4.179607
3.003651
1.69656
0.1331749
-1.719128
-3.651539
-5.36129
-6.57753
-7.245426
-7.571598
-7.953762
-8.762402
-10.14842
-11.96691
-13.79107
-15.16653
-15.75907
-15.38545
-14.11804
-12.0923
-9.525276
-6.692074
-4.00901
-1.864414
-0.5161209
0.03336334
0.196682
0.4721909
1.344013
2.874687
4.795666
6.499874
7.441246
7.337685
6.320919
4.890182
3.545834
2.706429
2.488075
2.80257
3.43939
4.204605
4.95966
5.658869
6.28701
6.71818
6.907446
6.854343
6.63464
6.434269
6.447426
6.726103
7.19721
7.682941
7.919598
7.751148
7.155987
6.228783
5.181728
4.187643
3.329798
2.566071
1.74468
0.6365013
-0.8497868
-2.696444
-4.754309
-6.738728
-8.435223
-9.74966
-10.72522
-11.53971
-12.48433
-13.70482
-15.19081
-16.7528
-17.93817
-18.24869
-17.29436
-14.84411
-11.11035
-6.7308
-2.532646
0.6669207
2.367307
2.592696
1.804287
0.714242
0.02858639
0.1490383
1.049382
2.413464
3.723954
4.560088
4.797498
4.498023
3.91966
3.390499
3.189796
3.431809
4.062598
4.834293
5.473408
5.838287
5.806231
5.425831
4.796888
4.047687
3.226975
2.402566
1.574826
0.8218842
0.2795811
0.01658058
0.08919621
0.3945842
0.757586
0.9566774
0.8582411
0.4316034
-0.2178679
-0.9117508
-1.456758
-1.70357
-1.739774
-1.771817
-2.06675
-2.761456
-3.849313
-5.143499
-6.3972
-7.452829
-8.270553
-8.991293
-9.788338
-10.75776
-11.85316
-12.84172
-13.41272
-13.25404
-12.1562
-10.13967
-7.498393
-4.753966
-2.492809
-1.246323
-1.186741
-2.076976
-3.280087
-4.006848
-3.686686
-2.218526
0.02872038
2.392543
4.166989
5.010537
4.956013
4.382527
3.829953
3.682009
4.049664
4.805345
5.681976
6.439271
6.945765
7.096402
6.896935
6.384257
5.571498
4.558455
3.543697
2.738295
2.391734
2.710115
3.664202
5.048466
6.527046
7.704187
8.289069
8.200725
7.518648
6.465734
5.375533
4.55343
4.161606
4.232795
4.634785
5.128581
5.491116
5.51474
5.115167
4.28057
3.069539
1.572401
-0.1956892
-2.195297
-4.353696
-6.623555
-8.964105
-11.41603
-14.0066
-16.72088
-19.38109
-21.70682
-23.31961
-23.77059
-22.74413
-20.16655
-16.26796
-11.55229
-6.820184
-2.833327
-0.1227341
1.220585
1.597643
1.682507
2.131588
3.239891
4.873049
6.493317
7.569996
7.822775
7.359143
6.547758
5.693826
5.024224
4.513004
3.979363
3.372994
2.759032
2.398001
2.423428
2.855705
3.481827
4.072134
4.465755
4.566099
4.465244
4.287083
4.152897
4.060053
4.001747
3.953648
3.919985
3.924475
3.971113
4.064989
4.190556
4.256912
4.177568
3.906939
3.454718
2.949059
2.561323
2.438078
2.691885
3.241659
3.805038
4.131523
3.985052
3.285965
2.107546
0.6480637
-0.9918709
-2.736307
-4.646439
-6.862385
-9.356684
-12.06068
-14.76158
-17.20053
-19.09762
-20.24496
-20.47846
-19.66228
-17.8
-14.98247
-11.57169
-8.170656
-5.360424
-3.555372
-2.777683
-2.665352
-2.570713
-1.956976
-0.5562572
1.50049
3.718403
5.628223
6.897837
7.465727
7.544847
7.496998
7.614773
8.070139
8.808657
9.668079
10.46576
11.00068
11.20909
11.09668
10.78413
10.34129
9.864492
9.439623
9.141771
9.094009
9.343716
9.984976
10.94669
12.10391
13.2399
14.11005
14.55559
14.46791
13.90337
12.96013
11.81093
10.62907
9.4928
8.389301
7.170311
5.654415
3.653244
1.15822
-1.60354
-4.260618
-6.415936
-7.844679
-8.545256
-8.810545
-8.980658
-9.417225
-10.32437
-11.68487
-13.33406
-15.03147
-16.50123
-17.39569
-17.49203
-16.56973
-14.69662
-12.23367
-9.748005
-7.78968
-6.71077
-6.473068
-6.577475
-6.422562
-5.503746
-3.65683
-1.095608
1.691282
4.216297
6.093794
7.225752
7.759333
7.995228
8.228773
8.616096
9.21866
9.938842
10.60884
11.07727
11.36556
11.49524
11.52578
11.49477
11.39376
11.1559
10.75961
10.22913
9.615305
9.058812
8.662695
8.416248
8.260447
8.07388
7.672915
6.973657
5.987381
4.80272
3.553755
2.383819
1.278763
0.1412382
-1.202205
-2.889627
-4.887145
-7.042089
-9.051601
-10.71603
-11.92099
-12.73749
-13.38231
-14.07852
-14.92995
-15.83899
-16.59624
-16.85946
-16.26877
-14.54905
-11.66484
-7.957156
-4.060231
-0.7910647
1.230684
1.769893
1.167657
0.1347098
-0.6406488
-0.6927691
-0.03846693
1.037009
2.042018
2.669382
2.843609
2.723387
2.553967
2.519347
2.805044
3.442792
4.461391
5.700631
6.927013
7.850705
8.218744
7.894093
6.834752
5.177374
3.108772
0.9727392
-0.8485422
-1.963786
-2.097212
-1.284019
0.1809416
1.817972
3.176151
3.913893
4.043159
3.755025
3.294353
2.841152
2.43796
2.093607
1.748945
1.376703
0.8349152
0.05945396
-1.084465
-2.695784
-4.792891
-7.331028
-10.14515
-13.06179
-15.88054
-18.49568
-20.67944
-22.21884
-22.80126
-22.0946
-19.95813
-16.537
-12.37836
-8.186388
-4.705706
-2.310989
-1.048639
-0.5611954
-0.3012085
0.1134624
0.8700218
1.865677
2.977089
4.019186
4.989676
5.853926
6.663883
7.458822
8.148695
8.665337
8.90094
8.800037
8.27002
7.369274
6.092831
4.626646
3.251099
2.105978
1.32284
0.8913784
0.7549057
0.8597317
1.252799
1.896381
2.748522
3.674028
4.385162
4.667614
4.433962
3.741792
2.784583
1.804263
0.9694242
0.293148
-0.241395
-0.7894068
-1.413042
-2.177025
-3.089452
-4.127389
-5.152634
-6.077477
-6.847239
-7.418066
-7.933648
-8.468396
-9.194915
-10.23491
-11.54136
-12.95342
-14.19379
-14.87882
-14.63313
-13.32968
-11.0463
-8.25194
-5.613216
-3.691728
-2.770889
-2.639038
-2.681515
-2.118332
-0.4781704
2.231732
5.517552
8.574789
10.75459
11.72328
11.55948
10.63905
9.45496
8.333155
7.485529
6.952487
6.658937
6.529966
6.465826
6.419665
6.368636
6.305429
6.235226
6.215764
6.265644
6.340918
6.395833
6.360934
6.203006
5.899815
5.412584
4.791009
4.091742
3.419955
2.893622
2.615501
2.636814
2.88598
3.223085
3.420221
3.314611
2.854245
2.09585
1.166209
0.2072782
-0.7125895
-1.59183
-2.487576
-3.451493
-4.468229
-5.516669
-6.525508
-7.43506
-8.201691
-8.824186
-9.365544
-9.929755
-10.6329
-11.58856
-12.81989
-14.17696
-15.31742
-15.85606
-15.43141
-13.94529
-11.61236
-8.88123
-6.318673
-4.334533
-3.033063
-2.173537
-1.361641
-0.247385
1.310248
3.12611
4.805165
5.927495
6.258705
5.896708
5.149705
4.405404
3.983819
4.024467
4.511047
5.314986
6.343951
7.546012
8.940977
10.40162
11.75305
12.7086
13.03197
12.56958
11.36893
9.644034
7.757994
6.070173
4.811825
4.07099
3.7553
3.719923
3.770425
3.820739
3.817158
3.743817
3.589499
3.322937
2.951088
2.53183
2.156845
1.971658
2.076547
2.496068
3.074436
3.575165
3.732004
3.33065
2.352637
0.8513594
-0.9363699
-2.792284
-4.466912
-5.83075
-6.849046
-7.573944
-8.150419
-8.801225
-9.776215
-11.24129
-13.2407
-15.49315
-17.51604
-18.66679
-18.47176
-16.78685
-14.03984
-11.06389
-8.680212
-7.405167
-7.154928
-7.294271
-6.953266
-5.393858
-2.425041
1.611227
5.887226
9.53285
11.91817
12.79413
12.36936
11.09488
9.564333
8.185175
7.190203
6.604408
6.337959
6.283932
6.347754
6.492847
6.644939
6.773134
6.759451
6.559351
6.178989
5.746565
5.437111
5.439259
5.931038
6.85598
8.060911
9.233498
10.05136
10.31456
9.974443
9.2281
8.242292
7.277462
6.448908
5.809601
5.358212
5.059771
4.865936
4.612188
4.196838
3.472624
2.479826
1.333666
0.2852516
-0.456131
-0.8709135
-1.156687
-1.745006
-2.931828
-4.885234
-7.420126
-10.14203
-12.58645
-14.32872
-15.12686
-14.86731
-13.70227
-11.8873
-9.857358
-8.06357
-6.831429
-6.245013
-5.960776
-5.527072
-4.456473
-2.622418
-0.249197
2.107711
3.895656
4.827755
4.949761
4.674843
4.412393
4.520524
5.084324
5.9797
6.94686
7.789091
8.493403
9.093469
9.651253
10.1106
10.29302
9.989328
9.167009
7.94298
6.635457
5.671227
5.2944
5.570886
6.297091
7.151795
7.800195
8.066732
7.954185
7.526917
6.92562
6.209423
5.416257
4.480388
3.35686
1.962291
0.235692
-1.763558
-3.896192
-5.897758
-7.522297
-8.584027
-9.124663
-9.380771
-9.675382
-10.25925
-11.1941
-12.34365
-13.35933
-13.89015
-13.59645
-12.29874
-10.06595
-7.262249
-4.50572
-2.521851
-1.872561
-2.641796
-4.399275
-6.308144
-7.467863
-7.334866
-5.940802
-3.749039
-1.439293
0.3770218
1.430298
1.707844
1.436411
0.9212685
0.4711742
0.2697964
0.4578838
1.043997
1.918369
2.866308
3.657101
4.140507
4.291704
4.211529
4.052231
3.983227
4.020693
4.057777
3.908163
3.353609
2.315645
0.8331833
-0.9357166
-2.805031
-4.533319
-6.006273
-7.128683
-7.84235
-8.153925
-8.070877
-7.650621
-6.962692
-6.135685
-5.273216
-4.552446
-4.126707
-4.126686
-4.648842
-5.642685
-7.01042
-8.515215
-9.938524
-11.02254
-11.51949
-11.20402
-10.01888
-8.064615
-5.651894
-3.267492
-1.335308
-0.07428741
0.6266193
1.169519
2.016285
3.424217
5.312519
7.305279
8.862436
9.629599
9.516748
8.717579
7.630426
6.675331
6.154985
6.164936
6.675917
7.510569
8.512951
9.46954
10.13748
10.29702
9.782669
8.589058
6.926867
5.145514
3.620386
2.637766
2.198524
2.124962
2.148615
1.997822
1.53355
0.7379723
-0.3855762
-1.735701
-3.170586
-4.547686
-5.604334
-6.081284
-5.898256
-5.190004
-4.249401
-3.509218
-3.310045
-3.730768
-4.677267
-5.873995
-6.991739
-7.780884
-8.158577
-8.150204
-7.934118
-7.76079
-7.765173
-8.060596
-8.600618
-9.211252
-9.621874
-9.540663
-8.759636
-7.282297
-5.366426
-3.434343
-1.964952
-1.346701
-1.665543
-2.677177
-3.800367
-4.348886
-3.82498
-2.123558
0.4496098
3.263571
5.644816
7.178324
7.779521
7.765751
7.630456
7.764061
8.32838
9.272465
10.30774
11.15386
11.62064
11.60893
11.17753
10.45437
9.551889
8.599385
7.68524
6.865911
6.160416
5.626919
5.270899
5.025256
4.859852
4.553624
3.992149
3.119686
2.006489
0.816309
-0.1852045
-0.8576021
-1.213711
-1.336945
-1.419228
-1.555233
-1.71047
-1.806908
-1.740344
-1.409455
-0.8634796
-0.1494112
0.6125135
1.31129
1.833714
2.061229
1.920834
1.329185
0.3335247
-0.9455338
-2.382496
-3.826443
-5.276048
-6.788227
-8.462141
-10.30868
-12.14887
-13.6369
-14.30626
-13.80385
-12.02027
-9.275754
-6.190462
-3.588855
-2.083014
-1.884056
-2.646167
-3.653552
-4.079543
-3.401711
-1.658818
0.6604109
2.756949
4.078117
4.385102
3.909133
3.09528
2.374358
2.038585
2.118114
2.545242
3.24546
4.188239
5.298342
6.394506
7.194801
7.458446
7.096435
6.303136
5.408821
4.768151
4.631555
5.007353
5.698331
6.497343
7.16447
7.563348
7.629356
7.301986
6.631789
5.812947
5.085651
4.714825
4.915691
5.59571
6.528139
7.35103
7.737461
7.540022
6.809234
5.773163
4.699514
3.783514
3.001862
2.185373
1.119471
-0.3494892
-2.193384
-4.18294
-6.002949
-7.348082
-8.036512
-8.111706
-7.711617
-7.115042
-6.628134
-6.48415
-6.803513
-7.520945
-8.295549
-8.643381
-8.151459
-6.634626
-4.333805
-1.903522
-0.09619904
0.4992123
-0.2479763
-1.923552
-3.84878
-5.24493
-5.684662
-5.137522
-3.942642
-2.622589
-1.593105
-1.042231
-0.9210949
-1.022949
-1.071203
-0.8847027
-0.353178
0.5245686
1.674524
2.96217
4.234598
5.381321
6.295071
6.954926
7.358253
7.576721
7.666924
7.708916
7.698284
7.607098
7.433083
7.232586
7.113556
7.163799
7.458401
8.008659
8.738052
9.504646
10.1425
10.50189
10.44603
9.932426
8.947872
7.581738
5.907784
4.067291
2.15456
0.2705956
-1.495586
-3.050476
-4.276867
-5.078701
-5.390949
-5.340172
-5.156292
-5.120693
-5.510464
-6.510609
-8.157219
-10.34013
-12.82091
-15.31054
-17.43067
-18.76133
-18.83735
-17.35334
-14.35738
-10.44744
-6.508102
-3.519463
-2.067287
-2.022354
-2.724697
-3.256351
-2.96207
-1.647079
0.1676865
1.840786
2.795689
2.845009
2.25222
1.504749
1.073746
1.221149
2.056137
3.346504
4.724606
5.776207
6.137589
5.682384
4.542191
3.083721
1.711201
0.7529068
0.2879028
0.2150421
0.3501129
0.5336456
0.8014603
1.184467
1.756237
2.445641
3.104149
3.509979
3.520462
3.111259
2.286087
1.307232
0.3678055
-0.3659935
-0.8161697
-1.0467
-1.260674
-1.570908
-2.022125
-2.695526
-3.492302
-4.395805
-5.419167
-6.490364
-7.548523
-8.469215
-9.108818
-9.361771
-9.365028
-9.273178
-9.322395
-9.624641
-9.97541
-10.00514
-9.288986
-7.673599
-5.330009
-2.96817
-1.299995
-0.8693314
-1.732918
-3.282028
-4.651459
-5.050407
-4.079681
-1.925812
0.7812729
3.390182
5.387535
6.564178
7.090416
7.158966
6.996696
6.746696
6.458771
6.182686
6.05928
6.171658
6.500076
6.960106
7.295994
7.264648
6.746548
5.746246
4.427341
3.056213
1.861656
0.9070778
0.2637291
-0.1838684
-0.5759544
-0.9668617
-1.45599
-2.06852
-2.765503
-3.557384
-4.4324
-5.271057
-5.97327
-6.347542
-6.209778
-5.521645
-4.400406
-3.165565
-2.203129
-1.763268
-1.851589
-2.329956
-2.948132
-3.52037
-4.092548
-4.790611
-5.798367
-7.176197
-8.824032
-10.50978
-11.98291
-13.07929
-13.68555
-13.7503
-13.18737
-11.96984
-10.18725
-8.11454
-6.18977
-4.780163
-3.986229
-3.572754
-3.011406
-1.6553
0.789257
4.187176
7.931778
11.18532
13.29104
13.9647
13.3504
11.89591
10.17237
8.660961
7.62281
7.150829
7.114346
7.299637
7.432011
7.309818
6.823757
6.009563
5.055859
4.200134
3.651367
3.488823
3.708195
4.158901
4.712086
5.207401
5.469368
5.398762
5.014725
4.452541
3.874382
3.506252
3.41164
3.528515
3.707954
3.735733
3.501297
3.02673
2.396458
1.660717
0.8536224
-0.1056976
-1.307789
-2.783726
-4.483559
-6.241859
-7.866848
-9.15786
-10.0098
-10.45789
-10.66466
-10.89331
-11.3887
-12.30247
-13.5793
-14.97412
-16.0937
-16.46251
-15.69255
-13.62795
-10.42715
-6.550299
-2.753004
0.2139225
1.87015
2.124792
1.379839
0.3650894
-0.2046337
0.1499004
1.503973
3.483252
5.570255
7.322487
8.534197
9.27643
9.829395
10.44552
11.24847
12.15481
12.94144
13.3275
13.13045
12.343
11.13111
9.770756
8.542276
7.678057
7.255951
7.159794
7.185839
7.119019
6.863628
6.486784
6.178234
6.047874
6.092258
6.158386
5.981462
5.432657
4.556274
3.616522
2.93239
2.756157
3.085333
3.697989
4.260214
4.422276
4.005043
2.990316
1.493158
-0.2526245
-1.985327
-3.493443
-4.674246
-5.549587
-6.325211
-7.22938
-8.457769
-10.13599
-12.14203
-14.24022
-16.06784
-17.21476
-17.28518
-16.0156
-13.41781
-9.818943
-5.946339
-2.649021
-0.6780109
-0.3439426
-1.402765
-3.110498
-4.60265
-5.241827
-4.780066
-3.469563
-1.802885
-0.2622986
0.8323021
1.476576
1.895208
2.416758
3.327724
4.662199
6.254314
7.761889
8.794415
9.058992
8.560057
7.467625
6.127098
4.905989
3.925648
3.254715
2.887199
2.904308
3.412287
4.564236
6.319206
8.462496
10.63036
12.39424
13.45007
13.69693
13.244
12.29478
11.10593
9.813818
8.453154
6.997791
5.338358
3.368069
1.09075
-1.333838
-3.565825
-5.286488
-6.315569
-6.687286
-6.701818
-6.847816
-7.525276
-8.955435
-11.07468
-13.41471
-15.43251
-16.57215
-16.38648
-14.74649
-11.94719
-8.572893
-5.469122
-3.383732
-2.608932
-2.907957
-3.576187
-3.807673
-3.080315
-1.476437
0.4039078
1.718317
1.814043
0.5903034
-1.476702
-3.583881
-4.986189
-5.2558
-4.37047
-2.63921
-0.5501804
1.449299
3.133224
4.449478
5.487364
6.329697
6.973923
7.446095
7.767767
8.016455
8.328167
8.819172
9.455875
10.04757
10.36477
10.19138
9.531231
8.521786
7.402115
6.302155
5.265888
4.19532
2.928167
1.353825
-0.6245613
-3.010515
-5.761225
-8.664251
-11.42155
-13.64285
-14.97886
-15.3345
-14.91951
-14.30145
-14.08974
-14.73808
-16.22742
-18.01647
-19.27872
-19.12771
-17.06903
-13.22473
-8.330286
-3.470713
0.372797
2.627483
3.391361
3.214287
2.875067
3.028339
3.923203
5.422859
7.158503
8.755207
9.957201
10.67067
10.89959
10.72163
10.23777
9.573725
8.899685
8.356514
7.998549
7.805422
7.683166
7.44801
7.027245
6.353132
5.465822
4.495874
3.566372
2.798806
2.355739
2.379561
2.892613
3.778884
4.720197
5.308557
5.213139
4.254984
2.489848
0.2601938
-2.024413
-3.898153
-5.080991
-5.523031
-5.371598
-4.939893
-4.613262
-4.695003
-5.276843
-6.294507
-7.482231
-8.604927
-9.546842
-10.32844
-11.04634
-11.89587
-12.92859
-14.06361
-15.21231
-16.23683
-16.99402
-17.40195
-17.28731
-16.41786
-14.68821
-12.18169
-9.185452
-6.200949
-3.676691
-1.82197
-0.5483646
0.5453537
1.863336
3.684395
5.917617
8.215885
10.1125
11.21919
11.35904
10.61828
9.340427
7.963034
6.994211
6.809506
7.544822
9.006159
10.80825
12.42988
13.42223
13.64068
13.19635
12.40393
11.6016
10.9892
10.50057
10.04523
9.528738
8.851804
8.052447
7.134401
6.095006
4.898521
3.528916
2.027315
0.518796
-0.82726
-1.921203
-2.788016
-3.546514
-4.314835
-5.148233
-6.021815
-6.808368
-7.411715
-7.806823
-8.087767
-8.352873
-8.694231
-9.084149
-9.385377
-9.460716
-9.171475
-8.511267
-7.531194
-6.405937
-5.346565
-4.722368
-4.837076
-5.879969
-7.852091
-10.44829
-13.11442
-15.1498
-15.98396
-15.32903
-13.46394
-10.94806
-8.510931
-6.720182
-5.761391
-5.348186
-4.917957
-3.855162
-1.795687
1.184431
4.712967
8.280758
11.43475
13.91871
15.70175
16.81005
17.31442
17.33139
17.00787
16.573
16.20124
15.94052
15.72411
15.36364
14.63779
13.42651
11.86451
10.19674
8.740704
7.771881
7.325527
7.296707
7.398762
7.325039
6.902554
6.20293
5.339569
4.472454
3.693352
2.920403
2.074104
1.128006
0.1840935
-0.5903397
-1.023392
-1.199936
-1.335796
-1.690296
-2.366142
-3.236233
-3.994625
-4.389572
-4.315945
-3.924183
-3.526817
-3.413635
-3.722031
-4.445114
-5.47245
-6.64323
-7.918072
-9.259033
-10.64922
-12.09288
-13.5797
-15.11575
-16.7314
-18.2952
-19.53922
-20.04034
-19.33429
-17.13245
-13.56322
-9.168621
-4.796486
-1.288448
0.908268
1.888542
2.251202
2.674763
3.69352
5.299339
7.119755
8.50901
9.031635
8.52533
7.24575
5.68346
4.310829
3.547493
3.471745
4.121376
5.287151
6.817776
8.534328
10.30997
11.96105
13.26659
14.02802
14.09398
13.51407
12.42971
11.15889
9.934448
8.911404
8.073761
7.278057
6.388012
5.255188
3.903614
2.498241
1.289623
0.517765
0.3881607
0.9056396
1.840591
2.913063
3.716724
4.02116
3.893036
3.531532
3.220997
3.114742
3.252277
3.47015
3.593079
3.437515
2.954987
2.166634
1.122993
-0.1140518
-1.520039
-3.077404
-4.82439
-6.758694
-8.927555
-11.30294
-13.84005
-16.46146
-18.98113
-21.13167
-22.53128
-22.78222
-21.57854
-18.98898
-15.42567
-11.67109
-8.544613
-6.496513
-5.433174
-4.821526
-3.945988
-2.280987
0.1674652
3.004536
5.547256
7.256527
7.875801
7.481773
6.382771
4.996964
3.770962
3.031139
3.027653
3.816875
5.300659
7.181854
9.055058
10.55042
11.39413
11.57261
11.17164
10.48631
9.805779
9.327572
9.121174
9.166798
9.321728
9.431538
9.397827
9.149536
8.821056
8.580482
8.568668
8.828239
9.238663
9.595001
9.630398
9.214104
8.334377
7.215031
6.116047
5.230312
4.617798
4.128578
3.552868
2.632065
1.192501
-0.7947769
-3.158684
-5.643635
-8.038239
-10.11708
-11.83496
-13.1717
-14.1029
-14.58921
-14.64357
-14.21054
-13.37975
-12.23914
-10.83034
-9.206722
-7.423145
-5.606487
-4.015224
-3.050385
-2.962479
-3.712212
-4.918354
-5.868504
-5.946217
-4.833263
-2.72131
-0.199852
2.053741
3.580906
4.353287
4.758846
5.263054
6.128025
7.304512
8.491821
9.282024
9.471386
9.107635
8.454266
7.867367
7.518112
7.350754
7.169861
6.745176
5.992001
4.984121
3.947937
3.130594
2.636354
2.456816
2.418066
2.365604
2.269129
2.266476
2.568848
3.328913
4.425684
5.500084
6.139095
6.019999
5.091249
3.57362
1.819998
0.1598225
-1.297441
-2.63147
-4.096281
-5.859953
-7.940468
-10.23395
-12.56041
-14.75888
-16.68408
-18.17415
-18.96614
-18.76061
-17.32337
-14.71091
-11.37129
-8.022987
-5.492016
-4.258347
-4.292101
-5.024492
-5.646561
-5.4706
-4.332031
-2.516171
-0.5478764
1.005114
1.835152
1.954029
1.686085
1.445353
1.607889
2.384918
3.693331
5.327374
6.95674
8.319975
9.292841
9.907584
10.19693
10.15097
9.720862
8.879882
7.702898
6.38993
5.251685
4.461898
4.072305
3.937477
3.868475
3.671043
3.333831
2.859138
2.289695
1.690482
0.9735756
0.09459114
-0.9631643
-2.120235
-3.255002
-4.247419
-5.062016
-5.702199
-6.198912
-6.668156
-7.225672
-8.065915
-9.320003
-11.01176
-13.00993
-14.90883
-16.22761
-16.55445
-15.79352
-14.18445
-12.25784
-10.55447
-9.359943
-8.622611
-7.983774
-6.967695
-5.132033
-2.405903
1.04617
4.770913
8.192787
10.86446
12.53293
13.11864
12.79161
11.87559
10.6535
9.377975
8.162703
6.952411
5.734337
4.580768
3.647363
3.150082
3.174255
3.615687
4.162408
4.487203
4.382305
3.947603
3.435755
3.201585
3.411177
3.952488
4.513033
4.801807
4.689343
4.283556
3.874386
3.66513
3.661731
3.61019
3.163533
1.972899
0.003176689
-2.550157
-5.348301
-8.019576
-10.32246
-12.23326
-13.79658
-15.0777
-16.11664
-16.8435
-17.28434
-17.51656
-17.59284
-17.4671
-16.9394
-15.67748
-13.46024
-10.2862
-6.56456
-2.9793
-0.3256874
0.9417229
0.8501644
-0.0990448
-1.122297
-1.528811
-0.9134712
0.670063
2.8596
5.018293
6.708923
7.731733
8.185984
8.426075
8.671915
9.057236
9.521837
9.973522
10.32782
10.65062
10.96861
11.27198
11.53982
11.58031
11.33999
10.8269
10.22612
9.690926
9.271238
8.865129
8.175076
7.121487
5.643684
3.957233
2.358521
1.117729
0.3976059
0.1858597
0.4142017
0.8954487
1.601948
2.435673
3.321386
4.107239
4.568775
4.613983
4.16321
3.33967
2.300734
1.318228
0.4749222
-0.1716919
-0.7261868
-1.395161
-2.272326
-3.444185
-4.828228
-6.343285
-7.848562
-9.323473
-10.76996
-12.16995
-13.58253
-14.90431
-15.97389
-16.50513
-16.16396
-14.70207
-12.12327
-8.738411
-5.122663
-2.012087
0.01083946
0.7310448
0.3764114
-0.542057
-1.441259
-1.917011
-1.795532
-1.161713
-0.3010426
0.5698986
1.264471
1.68499
1.836117
1.834846
1.826771
2.073759
2.813948
4.103041
5.842409
7.68075
9.170797
9.932856
9.869345
9.11804
8.009371
6.921537
6.079262
5.550055
5.24885
5.10684
5.077402
5.263802
5.713247
6.399967
7.18046
7.811392
8.129986
8.065321
7.693672
7.176363
6.682112
6.221247
5.770435
5.272402
4.608662
3.764154
2.694948
1.345718
-0.2425671
-1.88571
-3.364859
-4.39011
-4.775612
-4.559046
-3.917227
-3.108934
-2.410667
-1.911674
-1.541899
-1.230095
-0.9461594
-0.6751842
-0.5811977
-0.8142738
-1.538538
-2.850605
-4.783116
-7.197964
-9.883607
-12.42644
-14.2956
-15.06726
-14.47262
-12.62262
-10.01394
-7.370617
-5.420339
-4.626646
-4.947182
-5.886514
-6.720373
-6.68996
-5.404581
-2.893554
0.3667431
3.709954
6.487762
8.337756
9.146221
9.030864
8.249793
7.085323
5.857141
4.795375
4.054431
3.561604
3.139685
2.586207
1.751861
0.7210627
-0.3493614
-1.175983
-1.542224
-1.327943
-0.5536499
0.6600361
2.17883
3.821243
5.427524
6.718265
7.457798
7.479901
6.816936
5.676314
4.340947
3.128392
2.218456
1.706139
1.526143
1.555298
1.563808
1.460866
1.28084
1.055168
1.018251
1.247987
1.820967
2.640312
3.503964
4.111915
4.228667
3.752429
2.688615
1.253181
-0.3990912
-2.148421
-3.9315
-5.755756
-7.60926
-9.487686
-11.25741
-12.8077
-13.90923
-14.36305
-14.02662
-12.89253
-11.16441
-9.249204
-7.759504
-7.169568
-7.686679
-8.939394
-10.16746
-10.50398
-9.265854
-6.436867
-2.517523
1.63795
5.267826
7.901927
9.474831
10.1805
10.27625
9.992117
9.431386
8.686195
7.866585
7.066137
6.276233
5.427275
4.444474
3.284514
2.077809
1.042781
0.3243916
0.02591705
0.1649694
0.6965117
1.574088
2.800103
4.196168
5.520653
6.483654
6.830891
6.493892
5.623646
4.500688
3.422532
2.639608
2.212256
2.107703
2.246288
2.483488
2.715452
2.870028
2.920845
2.900977
2.823563
2.701015
2.494999
2.168847
1.664699
1.033971
0.4130034
-0.09088683
-0.4311509
-0.7512867
-1.33962
-2.449996
-4.24413
-6.718989
-9.67094
-12.77231
-15.65144
-17.87651
-19.00635
-18.7173
-16.90786
-13.88718
-10.43641
-7.474204
-5.773423
-5.560973
-6.376051
-7.269243
-7.306358
-5.976153
-3.446659
-0.4001918
2.397998
4.451392
5.678154
6.32565
6.709324
6.94991
7.017449
6.826874
6.395665
5.952802
5.702498
5.789565
6.146142
6.51827
6.596262
6.207593
5.416028
4.486921
3.824003
3.69747
4.26474
5.429973
6.874282
8.192062
9.055531
9.318155
9.036039
8.447981
7.842072
7.431366
7.381783
7.665913
8.158772
8.654176
8.925898
8.771047
8.084053
6.981279
5.680144
4.530512
3.686855
3.205961
2.90911
2.539697
1.893394
0.8791609
-0.3863277
-1.714592
-2.910549
-3.932426
-4.821083
-5.869734
-7.343859
-9.437902
-12.06195
-14.8021
-17.02756
-18.0644
-17.53573
-15.48348
-12.43987
-9.287676
-6.871796
-5.72051
-5.868263
-6.880535
-8.015551
-8.528084
-8.046091
-6.547878
-4.412743
-2.093491
-0.003299713
1.706432
3.089066
4.325994
5.647112
7.150536
8.806274
10.48311
11.99496
13.07575
13.61458
13.56742
13.03926
12.22734
11.36004
10.59533
10.07041
9.879654
9.951416
10.21201
10.50125
10.63664
10.46976
9.932007
9.08429
8.022903
6.884853
5.734283
4.554886
3.289234
1.959343
0.6420479
-0.5637207
-1.543888
-2.349949
-3.056175
-3.806049
-4.665348
-5.589245
-6.392532
-6.875622
-6.916065
-6.539173
-5.958904
-5.448967
-5.271446
-5.527149
-6.205532
-7.165611
-8.270588
-9.370041
-10.31097
-10.82103
-10.55952
-9.253937
-6.914993
-3.996124
-1.308128
0.2729797
0.2425308
-1.319275
-3.729362
-6.011993
-7.396652
-7.586639
-6.831535
-5.720909
-4.780083
-4.307755
-4.215935
-4.183655
-3.794678
-2.800255
-1.175789
0.8613358
2.902931
4.566475
5.630409
6.095345
6.181259
6.175697
6.247673
6.384445
6.374458
5.974869
5.102806
3.902779
2.685349
1.740479
1.223907
1.014786
0.8352737
0.3684311
-0.5098267
-1.628304
-2.693428
-3.338959
-3.404472
-3.052773
-2.615593
-2.481857
-2.854515
-3.684616
-4.646446
-5.426788
-5.826485
-5.854561
-5.719978
-5.677383
-5.899834
-6.457809
-7.314323
-8.435593
-9.827385
-11.44132
-13.11318
-14.45097
-14.93998
-14.12115
-11.88987
-8.606178
-5.058693
-2.140564
-0.4736176
-0.1921692
-0.925209
-1.934326
-2.543182
-2.391151
-1.520279
-0.2649994
0.9472961
1.805992
2.202835
2.184097
1.958046
1.723396
1.64315
1.773384
2.130547
2.625481
3.136063
3.463875
3.493416
3.263634
2.850319
2.453262
2.23243
2.314156
2.768486
3.650551
4.903564
6.452194
8.087051
9.508972
10.37037
10.41508
9.519516
7.699867
5.18824
2.301643
-0.6327133
-3.347
-5.620651
-7.376656
-8.605095
-9.422615
-10.00191
-10.48308
-10.93916
-11.39696
-11.8772
-12.36821
-12.82639
-13.27057
-13.74377
-14.29554
