6.954498
7.100464
7.464188
7.939911
8.513672
9.215683
10.07518
11.00929
11.86253
12.41728
12.56474
12.33313
11.9483
11.7189
11.90396
12.51936
13.32072
13.8867
13.75583
12.63083
10.5307
7.73671
4.771133
2.207932
0.4077606
-0.5820923
-1.045944
-1.420029
-2.196411
-3.636978
-5.709213
-8.077881
-10.27295
-11.81149
-12.49348
-12.44138
-12.02472
-11.76848
-12.13791
-13.44461
-15.74091
-18.81113
-22.07372
-24.77161
-26.04555
-25.25287
-22.19145
-17.28012
-11.43568
-5.820724
-1.385254
1.369736
2.523331
2.577621
2.165009
1.870178
2.054337
2.885239
4.265015
5.962906
7.630249
8.885025
9.492813
9.478622
9.046066
8.531097
8.231262
8.222122
8.40593
8.605499
8.666885
8.554352
8.371521
8.14621
7.876617
7.513428
7.00827
6.446564
6.040894
6.002289
6.461151
7.305008
8.219666
8.784912
8.702103
7.848694
6.356491
4.600128
2.984772
1.818069
1.124222
0.7053375
0.1856537
-0.7567139
-2.304581
-4.386459
-6.737701
-9.115395
-11.32202
-13.27575
-14.98273
-16.46955
-17.77898
-19.00584
-20.30437
-21.80924
-23.5473
-25.23634
-26.31961
-26.1353
-24.2163
-20.53978
-15.5468
-10.07237
-4.9963
-1.0215
1.600578
3.006538
3.617264
3.900085
4.224106
4.784744
5.493538
6.186249
6.654678
6.841156
6.858208
6.896927
7.139175
7.574867
8.0896
8.441933
8.505821
8.288414
7.947823
7.691315
7.652847
7.855003
8.143372
8.382584
8.410736
8.197037
7.792946
7.305481
6.912865
6.738899
6.87133
7.239014
7.66938
7.934059
7.874542
7.436874
6.679161
5.724449
4.628517
3.428726
2.075638
0.5745392
-1.028229
-2.606354
-4.055954
-5.297623
-6.291275
-7.07045
-7.708099
-8.370991
-9.279404
-10.72765
-12.92119
-15.88234
-19.30896
-22.52935
-24.64872
-24.80486
-22.59576
-18.43329
-13.51195
-9.521194
-7.932083
-9.342648
-13.16507
-17.79702
-21.33723
-22.36728
-20.51315
-16.36324
-11.08171
-5.712875
-0.8785515
3.330063
7.040058
10.34274
13.11942
15.06136
15.97828
15.89226
15.08731
13.94094
12.84052
11.92397
11.14042
10.34149
9.400291
8.363754
7.404663
6.767105
6.610683
6.951653
7.555252
8.051216
8.088245
7.473457
6.276321
4.779373
3.33279
2.187557
1.367573
0.6742096
-0.157917
-1.320877
-2.891766
-4.78896
-6.852165
-8.954082
-10.92799
-12.6505
-14.02937
-15.02368
-15.71238
-16.39128
-17.41061
-19.02193
-21.19154
-23.41202
-24.89971
-24.86737
-22.86804
-19.01597
-13.97412
-8.670975
-3.95298
-0.3270531
2.166626
3.82431
5.046045
6.164906
7.271061
8.28109
9.056698
9.492722
9.588749
9.503197
9.429928
9.509792
9.793646
10.15246
10.41434
10.42137
10.1251
9.602112
8.992908
8.405777
7.899244
7.52276
7.282225
7.232218
7.375084
7.642405
7.914585
8.011284
7.832191
7.349478
6.60548
5.658203
4.51215
3.16045
1.601959
-0.09716606
-1.826571
-3.508364
-5.133736
-6.780388
-8.51935
-10.30802
-11.9539
-13.25027
-14.05912
-14.53476
-15.0473
-16.04333
-17.87757
-20.51913
-23.51505
-26.085
-27.35875
-26.69225
-23.92845
-19.456
-14.0446
-8.615242
-3.89185
-0.2727108
2.185797
3.675291
4.4886
4.95273
5.360285
5.979919
6.961685
8.321243
9.851753
11.22321
12.17435
12.62009
12.72147
12.74602
12.96588
13.43448
14.06939
14.62884
14.86051
14.62546
13.8737
12.6281
10.92301
8.832172
6.499958
4.184704
2.184971
0.738903
-0.05287933
-0.2949638
-0.1803856
0.08568192
0.4336319
0.8535194
1.319145
1.638763
1.452095
0.3736076
-1.814667
-4.903408
-8.361427
-11.51918
-13.91409
-15.46907
-16.41381
-17.08036
-17.64878
-18.15942
-18.54882
-18.86929
-19.30254
-20.00457
-20.84635
-21.31274
-20.68827
-18.43482
-14.59488
-9.846893
-5.287937
-1.928047
-0.219017
0.03645325
-0.5194359
-1.214592
-1.615742
-1.676903
-1.521839
-1.36578
-1.316299
-1.311901
-1.267738
-1.038589
-0.482048
0.6450424
2.619152
5.763599
10.14536
15.4173
20.81538
25.26894
27.91306
28.41109
27.19608
25.19797
23.41904
22.4118
22.04221
21.67602
20.66306
18.80287
16.42918
14.17673
12.50803
11.52042
10.94896
10.40837
9.745461
9.044464
8.491982
8.084015
7.47274
6.090706
3.486084
-0.2972565
-4.65786
-8.62326
-11.34614
-12.53069
-12.56142
-12.31257
-12.65593
-14.03934
-16.21796
-18.44222
-19.78545
-19.60225
-17.75048
-14.54506
-10.51485
-6.223236
-2.08543
1.696358
5.001064
7.784363
9.986992
11.5351
12.40134
12.71664
12.63274
12.3493
12.00264
11.57122
10.97403
10.10405
8.973717
7.737267
6.742268
6.264927
6.445038
7.152802
8.07679
8.92804
9.607983
10.26452
11.18159
12.53545
14.23115
15.85194
16.88677
16.88584
15.70369
13.48425
10.53181
7.164398
3.658607
0.1728821
-3.166134
-6.172012
-8.771702
-10.93091
-12.69193
-14.13704
-15.20525
-15.60406
-14.94416
-12.9324
-9.574608
-5.375729
-1.101896
2.504007
5.024082
6.515215
7.382139
7.979706
8.424588
8.553945
8.064281
6.840467
5.141671
3.495135
2.477398
2.48363
3.530324
5.323765
7.447464
9.459904
11.05715
12.07762
12.43427
12.05587
10.93473
9.114126
6.793629
4.325084
2.059416
0.315341
-0.7996283
-1.403592
-1.788782
-2.264179
-3.059385
-4.20405
-5.645567
-7.377932
-9.457844
-11.999
-15.07519
-18.60395
-22.28365
-25.68357
-28.34652
-29.98787
-30.6502
-30.59487
-30.23202
-29.89181
-29.6847
-29.34781
-28.38467
-26.26079
-22.60368
-17.40042
-10.93768
-3.719402
3.744312
11.009
17.72821
23.58822
28.20775
31.20625
32.29034
31.38732
28.70621
24.70603
20.00915
15.29265
11.11149
7.823551
5.588303
4.261051
3.513554
2.984196
2.411282
1.751694
1.195637
1.014618
1.378147
2.217403
3.160351
3.71875
3.561302
2.698494
1.497276
0.5796204
0.5059052
1.543297
3.504898
5.751968
7.424538
7.774109
6.355476
3.189789
-1.22979
-6.210327
-11.01343
-15.12604
-18.33495
-20.7411
-22.5788
-24.19132
-25.84441
-27.62788
-29.49512
-31.06318
-31.7199
-30.71065
-27.47812
-21.92548
-14.66509
-6.879051
0.04878235
4.993591
7.546692
8.076271
7.444931
6.563553
5.97702
5.740944
5.545807
5.053688
4.0877
2.791367
1.488319
0.5346603
0.1614532
0.3987732
1.08744
1.995789
2.905594
3.599159
3.980568
4.057434
3.921394
3.741287
3.636772
3.65432
3.714561
3.698265
3.504814
3.15966
2.719604
2.271667
1.797157
1.14772
0.1072006
-1.518517
-3.740181
-6.357658
-8.969284
-11.09657
-12.32483
-12.45152
-11.4594
-9.580444
-7.184288
-4.643051
-2.24987
-0.1819839
1.475929
2.603912
3.070618
2.879318
2.188911
1.449127
1.228119
1.939339
3.620789
5.784218
7.622734
8.30201
7.364845
4.898193
1.507141
-1.966858
-4.766396
-6.430656
-6.929695
-6.565147
-5.86412
-5.331429
-5.315765
-5.876694
-6.789719
-7.691017
-8.187386
-7.917633
-6.588676
-4.026794
-0.1469574
4.788086
10.24732
15.44051
19.53046
21.93668
22.50435
21.54803
19.61717
17.2429
14.74199
12.18693
9.498169
6.60331
3.542038
0.4089508
-2.632179
-5.452461
-7.980408
-10.1943
-12.12625
-13.76595
-15.06464
-15.9015
-16.11326
-15.65133
-14.67113
-13.53445
-12.82096
-13.11124
-14.73058
-17.56629
-20.97781
-23.96736
-25.46577
-24.69662
-21.47582
-16.26409
-10.05152
-4.015877
0.8552094
4.049309
5.605392
5.989723
5.842613
5.691765
5.815048
6.264
6.955383
7.777779
8.649109
9.492081
10.23543
10.76592
11.02383
10.97222
10.72212
10.42286
10.22124
10.2173
10.40326
10.71416
11.02525
11.2048
11.14281
10.76505
9.997154
8.850349
7.390083
5.719368
4.008308
2.395432
1.024406
-0.05754089
-0.8289108
-1.340996
-1.624252
-1.718063
-1.707611
-1.605019
-1.489174
-1.401535
-1.41288
-1.597977
-2.025703
-2.728104
-3.690338
-4.857712
-6.086372
-7.24968
-8.254013
-9.118202
-10.00841
-11.22334
-13.0144
-15.42896
-18.15965
-20.4577
-21.47717
-20.56222
-17.54095
-12.90657
-7.709587
-3.139549
-0.05081177
1.324799
1.3993
0.9305954
0.643837
0.9934921
2.003952
3.463303
5.044285
6.492111
7.634563
8.384338
8.673798
8.521236
8.063183
7.557789
7.322552
7.58363
8.375324
9.503719
10.64033
11.41062
11.57824
11.07903
10.0226
8.674747
7.366333
6.36861
5.836842
5.770477
6.017143
6.33559
6.494564
6.3736
5.953217
5.31176
4.528564
3.631462
2.59005
1.36272
-0.0378418
-1.550804
-3.054489
-4.470325
-5.731075
-6.805824
-7.694057
-8.405048
-8.978542
-9.548386
-10.3658
-11.72028
-13.80835
-16.54412
-19.42792
-21.68246
-22.46667
-21.19957
-17.86205
-13.02689
-7.645485
-2.727421
1.021568
3.368187
4.514431
4.920406
5.12619
5.485207
6.174702
7.1796
8.318748
9.306091
9.893417
9.902149
9.368893
8.502892
7.579494
6.861954
6.498035
6.418575
6.421421
6.253109
5.738384
4.857967
3.794025
2.801636
2.172077
2.108025
2.617966
3.59053
4.803047
6.015759
7.023682
7.673605
7.85504
7.52865
6.737015
5.612148
4.427248
3.471153
2.940699
2.831297
2.899542
2.748808
2.08856
0.7869225
-1.038528
-3.067411
-4.976196
-6.552101
-7.76041
-8.729143
-9.687017
-10.86453
-12.43676
-14.48397
-16.89782
-19.37979
-21.45219
-22.56423
-22.24547
-20.27122
-16.79465
-12.29673
-7.469183
-3.007864
0.5673504
3.065662
4.602102
5.530411
6.244829
7.013966
7.928968
8.893116
9.700764
10.16752
10.23847
9.968374
9.561628
9.300706
9.409434
10.03909
11.12317
12.39796
13.4228
13.79384
13.2509
11.84987
9.923834
7.96229
6.457335
5.649996
5.524153
5.82643
6.209707
6.364246
6.139195
5.596504
4.903823
4.303182
3.936474
3.805633
3.709829
3.325181
2.327665
0.5589075
-1.894941
-4.735217
-7.514336
-9.836791
-11.4903
-12.54763
-13.3248
-14.27744
-15.77275
-17.91686
-20.51249
-23.02588
-24.79772
-25.23697
-24.02831
-21.18376
-17.05746
-12.21223
-7.257633
-2.767184
0.8565907
3.436556
4.991717
5.801031
6.255756
6.739458
7.477561
8.490922
9.535511
10.28831
10.53055
10.25601
9.705588
9.228428
9.084867
9.329396
9.80327
10.23409
10.3932
10.23268
9.847075
9.412674
9.047981
8.69948
8.233118
7.512381
6.451682
5.136914
3.72887
2.342211
1.011237
-0.3273039
-1.860592
-3.734381
-6.039871
-8.773763
-11.81245
-14.94212
-17.95985
-20.63148
-22.82033
-24.52253
-25.84961
-26.98925
-28.11178
-29.2053
-30.03473
-30.17025
-29.09772
-26.36739
-21.8163
-15.65722
-8.497925
-1.223257
5.31588
10.5217
14.20362
16.61876
18.26426
19.54207
20.60556
21.28607
21.22795
20.22224
18.37745
16.0578
13.80282
12.04149
10.9029
10.26857
9.847595
9.415943
8.90963
8.414238
8.017673
7.779343
7.624908
7.42416
7.042149
6.395794
5.464954
4.322224
3.142204
2.087578
1.343689
0.9223099
0.6833076
0.3352547
-0.4375305
-1.870861
-3.913307
-6.267372
-8.528408
-10.33127
-11.5691
-12.43376
-13.32753
-14.71672
-17.02345
-20.38808
-24.6489
-29.26985
-33.39504
-36.05901
-36.41106
-33.97186
-28.86964
-21.82169
-13.9778
-6.542496
-0.4450531
3.935272
6.710373
8.349678
9.460342
10.53851
11.90678
13.61356
15.53732
17.37386
18.84679
19.74316
20.02283
19.90142
19.68143
19.66758
19.96825
20.51131
21.0311
21.25424
21.0004
20.24178
19.07819
17.65514
16.10286
14.5298
13.05045
11.80618
10.95109
10.57228
10.58846
10.80995
10.9035
10.57666
9.730797
8.446617
6.949478
5.51712
4.269844
3.079178
1.669731
-0.3265076
-3.116356
-6.618439
-10.50016
-14.29328
-17.56402
-20.09797
-21.95862
-23.43517
-24.95762
-26.92461
-29.48154
-32.40482
-35.086
-36.58875
-36.02693
-32.87567
-27.23429
-19.90359
-12.10221
-5.024277
0.4748383
4.137558
6.267075
7.469406
8.377045
9.487015
10.96913
12.74767
14.58643
16.21863
17.50504
18.48843
19.36272
20.31342
21.41267
22.51402
23.32022
23.57201
23.2023
22.41472
21.56743
20.97839
20.73201
20.68048
20.51218
19.96361
18.96541
17.66356
16.34424
15.27249
14.5797
14.26114
14.19943
14.20192
14.07834
13.67235
12.84276
11.52501
9.758896
7.682983
5.492508
3.376816
1.487274
-0.1446991
-1.526184
-2.75444
-3.933075
-5.1427
-6.435425
-7.834656
-9.330353
-10.87897
-12.45744
-14.07483
-15.85805
-18.01328
-20.72203
-24.05994
-27.80641
-31.36032
-33.87071
-34.47778
-32.65632
-28.4521
-22.54911
-16.02299
-9.92305
-4.974579
-1.317032
1.370155
3.639542
5.916084
8.352982
10.75998
12.82058
14.29813
15.15041
15.54124
15.71948
15.85861
15.95634
15.93553
15.66548
15.10107
14.37896
13.74996
13.44449
13.5676
14.04414
14.60706
14.96706
14.93329
14.4412
13.57829
12.49271
11.2945
10.0549
8.772324
7.496666
6.353348
5.510765
5.025337
4.85257
4.769836
4.534653
4.023071
3.323799
2.742905
2.574585
2.920334
3.538246
3.982025
3.741158
2.522232
0.4141617
-2.218666
-4.881577
-7.166496
-8.965431
-10.46358
-11.99027
-13.94363
-16.56767
-19.82713
-23.44956
-26.91748
-29.57088
-30.78433
-30.14585
-27.52557
-23.21542
-17.8372
-12.23028
-7.263412
-3.532455
-1.239319
-0.1612015
0.23983
0.55336
1.210701
2.386391
3.994652
5.740929
7.323738
8.569801
9.434807
10.06747
10.65049
11.29758
11.99825
12.66166
13.11964
13.26677
13.08566
12.64005
12.03578
11.30276
10.43152
9.389534
8.255714
7.198204
6.445694
6.132561
6.252853
6.656685
7.061935
7.210781
6.924389
6.166237
5.05341
3.785515
2.60059
1.621284
0.8447418
0.046978
-1.088436
-2.84882
-5.315517
-8.24667
-11.2061
-13.69104
-15.4183
-16.38262
-16.84927
-17.19012
-17.74258
-18.77431
-20.40833
-22.69404
-25.46413
-28.24932
-30.30207
-30.80204
-29.13501
-25.21635
-19.58599
-13.19392
-7.05854
-1.9538
1.798336
4.255825
5.732365
6.602459
7.167072
7.618111
8.046818
8.471638
8.893986
9.308586
9.681908
10.02665
10.29979
10.45903
10.48473
10.42997
10.42317
10.6424
11.20161
12.0505
13.00844
13.79279
14.17961
14.06864
13.53603
12.7165
11.77848
10.8723
10.11966
9.590141
9.321491
9.277138
9.350002
9.367771
9.083717
8.325924
7.040535
5.345978
3.477154
1.696609
0.2163353
-0.869421
-1.646559
-2.301167
-3.013142
-3.937017
-5.071232
-6.317501
-7.575665
-8.747782
-9.9039
-11.17154
-12.74502
-14.74681
-17.22115
-20.02899
-22.91511
-25.52266
-27.33673
-27.86951
-26.68212
-23.63927
-18.96522
-13.35878
-7.755068
-3.091694
0.01464081
1.426062
1.487982
0.870472
0.2542267
0.1168461
0.6009693
1.588057
2.759729
3.84013
4.670887
5.244041
5.704149
6.224066
6.919829
7.788425
8.742621
9.676831
10.53029
11.2879
11.90509
12.35099
12.52223
12.33631
11.77826
10.94967
10.03384
9.244126
8.7066
8.420416
8.312069
8.240767
8.08414
7.743779
7.177872
6.398462
5.468184
4.488865
3.587902
2.883521
2.387033
2.041628
1.668879
1.035381
-0.04172564
-1.634074
-3.646846
-5.847771
-7.945663
-9.74229
-11.11556
-12.08145
-12.81404
-13.52005
-14.46803
-15.88109
-17.90847
-20.4786
-23.26219
-25.64187
-26.83739
-26.25022
-23.63575
-19.35892
-14.22783
-9.212361
-5.077507
-2.127913
-0.1523898
1.322004
2.76164
4.395905
6.086933
7.531306
8.449522
8.75922
8.598023
8.252803
7.972873
7.863419
7.930847
8.092834
8.274032
8.481119
8.724155
9.008415
9.323364
9.618392
9.840876
9.946493
9.909466
9.677565
9.270058
8.725927
8.188566
7.80055
7.65768
7.750935
7.9783
8.165451
8.136733
7.820711
7.185852
6.328969
5.36161
4.385625
3.481174
2.702967
2.047567
1.408734
0.6572542
-0.3566275
-1.710381
-3.395346
-5.391143
-7.661948
-10.17421
-12.8819
-15.72045
-18.60881
-21.46675
-24.21359
-26.69415
-28.65439
-29.6695
-29.25353
-27.04576
-23.04538
-17.70958
-11.92637
-6.682151
-2.662435
-0.08441448
1.360991
2.257279
3.169293
4.418026
6.039272
7.800956
9.381849
10.61076
11.45408
11.97592
12.25065
12.27629
11.98925
11.34988
10.42571
9.401828
8.577989
8.165892
8.19286
8.488873
8.769948
8.8267
8.615611
8.286421
8.050408
8.046417
8.265893
8.608998
8.919358
9.05766
8.93545
8.499619
7.746172
6.701833
5.468204
4.167261
2.9017
1.748541
0.6500702
-0.4840755
-1.71324
-3.057722
-4.473967
-5.914593
-7.295584
-8.60417
-9.792717
-10.87289
-11.89812
-12.98392
-14.34436
-16.15958
-18.46339
-20.97777
-23.13048
-24.17326
-23.5022
-20.92632
-16.88006
-12.19411
-7.835634
-4.478832
-2.219257
-0.6681042
0.8022652
2.614708
4.777254
6.879795
8.397633
9.033428
8.911823
8.48049
8.292881
8.709019
9.724976
11.06383
12.3095
13.15714
13.46817
13.32692
12.88936
12.29365
11.62449
10.89484
10.09614
9.205336
8.255144
7.246895
6.175297
5.042484
3.839546
2.647985
1.609308
0.8932781
0.610775
0.7643604
1.199846
1.628181
1.735323
1.272242
0.1191273
-1.708866
-4.029781
-6.600908
-9.165491
-11.5381
-13.73979
-15.93209
-18.35733
-21.16584
-24.24881
-27.15852
-29.16833
-29.53499
-27.8126
-24.03272
-18.73479
-12.8564
-7.383873
-3.096924
-0.3138924
1.088024
1.595623
1.791901
2.100138
2.71092
3.550648
4.416159
5.145332
5.749521
6.309204
6.924351
7.649363
8.412043
9.167776
9.911591
10.71853
11.64514
12.68599
13.66784
14.37831
14.60881
14.30768
13.57091
12.6161
11.67835
10.92341
10.44272
10.25408
10.2842
10.44403
10.53321
10.36905
9.781023
8.72702
7.278965
5.628788
3.964762
2.411526
0.9706097
-0.5241795
-2.236631
-4.27585
-6.520609
-8.732527
-10.62695
-12.06377
-13.16083
-14.21555
-15.63231
-17.67543
-20.34653
-23.35885
-26.23427
-28.40099
-29.33114
-28.64607
-26.1713
-22.14136
-17.10443
-11.82245
-7.075159
-3.378508
-0.8093681
0.9542408
2.360507
3.920992
5.820391
8.011147
10.25449
12.29332
13.91872
15.02107
15.58533
15.58417
15.13214
14.35358
13.50365
12.84246
12.56603
12.78947
13.41931
14.20084
14.78861
14.89777
14.34518
13.22021
11.76931
10.2993
9.080607
8.224988
7.705243
7.412745
7.245771
7.139821
7.095566
7.140864
7.187952
7.151789
6.882575
6.305188
5.360619
4.107873
2.656281
1.182965
-0.1231461
-1.160284
-1.892754
-2.473652
-3.13377
-4.103548
-5.534981
-7.36792
-9.409096
-11.4133
-13.15925
-14.50611
-15.52491
-16.37562
-17.32221
-18.57411
-20.18232
-21.9719
-23.5015
-24.16927
-23.43805
-21.08838
-17.32368
-12.75893
-8.226175
-4.447376
-1.808996
-0.2858219
0.5172482
1.093918
1.865633
3.062998
4.656227
6.407604
8.017233
9.264332
10.02817
10.37285
10.48046
10.50723
10.61343
10.79851
11.00326
11.16507
11.23179
11.15037
10.89042
10.44618
9.821178
9.102509
8.422583
7.981619
7.939068
8.351086
9.078091
9.86717
10.43891
10.53244
10.04008
8.974638
7.496508
5.823721
4.165728
2.700829
1.583683
0.9119339
0.7054043
0.9145546
1.399811
1.940445
2.312752
2.317322
1.84478
0.8691578
-0.5496063
-2.287378
-4.14629
-5.901136
-7.399521
-8.594948
-9.612137
-10.71264
-12.25893
-14.5202
-17.54129
-20.98941
-24.25298
-26.60875
-27.4094
-26.32448
-23.409
-19.11063
-14.18203
-9.401291
-5.441765
-2.676224
-1.084682
-0.3481216
-0.008327484
0.3594284
0.9644165
1.836983
2.875843
3.991024
5.175007
6.478767
7.944263
9.507221
11.01429
12.28061
13.2256
13.86453
14.26125
14.4997
14.62267
14.65288
14.55291
14.30722
13.90992
13.36688
12.72075
11.98607
11.21076
10.50458
9.949841
9.571674
9.323288
9.061172
8.621544
7.890831
6.842571
5.57048
4.204071
2.881573
1.638512
0.456955
-0.7711372
-2.200397
-3.926434
-5.947617
-8.120735
-10.26712
-12.1762
-13.70115
-14.72152
-15.25986
-15.39817
-15.36663
-15.46231
-16.03001
-17.34412
-19.37036
-21.70417
-23.59254
-24.22292
-22.99904
-19.8308
-15.21701
-10.06505
-5.350021
-1.712566
0.6734009
2.054661
2.892464
3.627495
4.551369
5.722157
7.050369
8.352314
9.49044
10.32178
10.77069
10.82648
10.50349
9.922344
9.191498
8.447689
7.822411
7.433228
7.314995
7.420155
7.707245
8.017887
8.218353
8.171818
7.809353
7.129124
6.241318
5.334133
4.659298
4.437725
4.692497
5.281471
5.914501
6.321434
6.317284
5.897079
5.131531
4.177452
3.211868
2.319221
1.546497
0.8505173
0.09421921
-0.9170303
-2.420006
-4.536331
-7.122337
-9.843548
-12.18998
-13.76935
-14.43915
-14.43437
-14.19853
-14.29576
-15.17096
-16.97246
-19.54105
-22.3698
-24.7304
-25.91444
-25.42973
-23.16
-19.41863
-14.92754
-10.46009
-6.689117
-3.913532
-2.043358
-0.7177505
0.4981499
1.925579
3.69101
5.70892
7.833515
9.815933
11.47363
12.69847
13.40844
13.67471
13.55814
13.20456
12.75579
12.36935
12.09948
11.958
11.90757
11.84941
11.75706
11.57516
11.34745
11.12753
10.98522
10.95284
11.01657
11.14295
11.23742
11.21968
10.97753
10.43486
9.519402
8.189796
6.483429
4.52
2.484699
0.5384445
-1.162933
-2.52153
-3.548813
-4.349659
-5.123093
-6.066448
-7.294308
-8.793976
-10.41839
-11.90377
-13.02227
-13.69351
-14.11644
-14.71573
-15.97761
-18.22377
-21.3816
-24.9211
-27.98938
-29.72472
-29.47418
-27.09282
-22.92805
-17.6923
-12.17497
-7.072105
-2.843285
0.3139687
2.390713
3.597004
4.265972
4.782181
5.439732
6.408821
7.608795
8.84811
9.912548
10.65601
11.1044
11.38417
11.65961
11.99003
12.3014
12.46065
12.37513
12.09719
11.79951
11.65488
11.68588
11.77372
11.64131
11.01295
9.791
8.131145
6.398193
4.963352
4.068623
3.724735
3.732643
3.814613
3.721317
3.357807
2.815109
2.251312
1.801964
1.534378
1.375648
1.145702
0.6200943
-0.3551254
-1.833553
-3.668381
-5.651272
-7.530701
-9.150597
-10.4165
-11.374
-12.18892
-13.08679
-14.36052
-16.29874
-19.05079
-22.46651
-26.05803
-29.00187
-30.33902
-29.34011
-25.81646
-20.31732
-13.91766
-7.862782
-3.041836
0.2650166
2.366692
3.862545
5.256721
6.757122
8.194038
9.359598
10.18835
10.83862
11.57291
12.50014
13.52595
14.36865
14.83674
14.89004
14.73697
14.66118
14.82372
15.1667
15.43078
15.37893
14.87527
13.98701
12.8868
11.75761
10.66287
9.608837
8.526922
7.35638
6.088364
4.747896
3.418146
2.13479
0.9649277
-0.09448624
-1.057072
-1.971502
-2.882286
-3.817404
-4.821165
-5.847095
-6.934586
-8.049921
-9.170665
-10.22681
-11.13404
-11.82086
-12.33704
-12.91317
-13.8764
-15.61869
-18.31152
-21.77645
-25.4054
-28.33908
-29.69824
-28.8929
-25.86184
-21.03789
-15.27743
-9.530056
-4.576852
-0.8115115
1.81837
3.646228
5.112578
6.535126
8.054001
9.57082
10.93287
12.04965
12.92481
13.71914
14.58606
15.60251
16.71901
17.77895
18.52924
18.79866
18.54125
17.80934
16.78368
15.62723
14.44876
13.22468
11.88065
10.3207
8.558766
6.725706
5.025986
3.666823
2.752875
2.292411
2.13161
2.059074
1.884087
1.465889
0.7546215
-0.2391691
-1.464203
-2.86311
-4.37816
-5.974428
-7.608204
-9.227167
-10.87734
-12.66176
-14.79329
-17.44664
-20.67899
-24.2401
-27.58611
-29.97396
-30.65176
-29.2229
-25.66456
-20.48363
-14.48323
-8.574001
-3.456131
0.5121784
3.362185
5.414669
7.006187
8.428564
9.748352
10.90225
11.77577
12.35673
12.73441
13.10064
13.64057
14.36927
15.20381
15.97408
16.51913
16.76291
16.66582
16.24121
15.44813
14.29702
12.75156
10.90244
8.918468
7.060146
5.544136
4.369995
3.404339
2.305103
0.7993507
-1.281212
-3.854122
-6.722004
-9.594315
-12.33964
-15.03857
-17.81691
-20.82304
-23.99306
-27.18784
-30.20377
-32.9526
-35.38474
-37.35033
-38.54223
-38.3946
-36.38968
-32.27482
-26.33801
-19.3529
-12.30565
-6.044182
-0.9240799
3.160858
6.691788
10.09911
13.59992
17.1099
20.30589
22.88087
24.62621
25.56122
25.83973
25.74154
25.45007
25.12607
24.82593
24.55679
24.3101
24.05697
23.79234
23.50503
23.17113
22.72715
22.07346
21.13863
19.86818
18.29565
16.51174
14.66731
12.89034
11.24833
9.723587
8.15963
6.400696
4.271713
1.665489
-1.401543
-4.833443
-8.453232
-12.06954
-15.47814
-18.48746
-20.91987
-22.68593
-23.78085
-24.3947
-24.92022
-25.86095
-27.59264
-30.1612
-33.06371
-35.38593
-36.06094
-34.26233
-29.79689
-23.17647
-15.48531
-7.914406
-1.405853
3.666214
7.423187
10.36445
12.98839
15.63553
18.32423
20.85291
22.94109
24.39843
25.19149
25.37999
25.07424
24.3636
23.36294
22.21043
21.08817
20.21047
19.71892
19.60532
19.78048
20.05083
20.21793
20.15327
19.80978
19.17324
18.27028
17.15263
15.85934
14.53181
13.25197
12.05917
10.88141
9.590324
8.030403
6.146744
4.030685
1.947876
0.2042007
-0.9521942
-1.501801
-1.576576
-1.432137
-1.340218
-1.47242
-1.935226
-2.744514
-3.910004
-5.474007
-7.42939
-9.62159
-11.86214
-13.96188
-15.78867
-17.45182
-19.20107
-21.34582
-24.16728
-27.65949
-31.4863
-35.07897
-37.63526
-38.42117
-36.99678
-33.35235
-28.00394
-21.7909
-15.62834
-10.20454
-5.794182
-2.22934
0.8901672
3.922203
7.047203
10.14597
12.95904
15.20984
16.7689
17.69344
18.26139
18.78348
19.47183
20.44058
21.61332
22.79324
23.79837
24.51908
24.88562
24.96351
24.73742
24.20964
23.43629
22.42253
21.1972
19.79548
18.24497
16.56297
14.78854
12.95312
11.07087
9.193115
7.377892
5.731552
4.382515
3.406456
2.726418
2.160103
1.474518
0.4815063
-0.8439026
-2.365425
-3.852921
-5.138603
-6.200859
-7.170486
-8.138397
-9.160469
-10.22752
-11.22862
-12.07355
-12.7129
-13.16553
-13.5006
-13.84467
-14.36181
-15.26965
-16.79949
-18.99057
-21.62862
-24.23409
-26.1012
-26.584
-25.24615
-22.12044
-17.67836
-12.75082
-8.113091
-4.334213
-1.563011
0.4121017
1.974411
3.45945
5.019119
6.613426
8.080635
9.323044
10.27018
10.99012
11.56786
12.07901
12.49524
12.79086
13.01632
13.19502
13.44189
13.76194
14.12281
14.44875
14.61163
14.45403
13.89294
12.92091
11.61961
10.13584
8.648567
7.328346
6.288078
5.556984
5.060028
4.609779
4.073471
3.343613
2.480667
1.652275
1.112694
1.003952
1.301075
1.782681
1.972969
1.434032
-0.1663284
-2.793648
-6.126884
-9.631016
-12.78301
-15.30928
-17.11594
-18.40261
-19.45951
-20.55416
-21.86272
-23.42321
-25.07391
-26.48384
-27.19087
-26.66868
-24.616
-21.00504
-16.22055
-10.9264
-5.814087
-1.406914
2.096127
4.727345
6.706402
8.206623
9.399231
10.42357
11.39125
12.46769
13.75021
15.22834
16.77708
18.20078
19.28119
19.83618
19.81708
19.21292
18.17042
16.88522
15.54745
14.30176
13.18416
12.12364
10.96247
9.619999
8.127453
6.619736
5.303188
4.315987
3.727627
3.493587
3.444164
3.354954
3.054045
2.399672
1.373413
0.1330147
-1.132191
-2.233984
-3.133434
-3.97444
-4.986351
-6.354038
-8.078339
-10.02706
-11.8921
-13.44221
-14.61604
-15.53348
-16.47616
-17.75135
-19.58379
-21.96468
-24.69362
-27.26714
-29.08639
-29.57785
-28.32757
-25.28833
-20.77876
-15.42536
-9.996517
-5.160252
-1.350051
1.294316
2.907212
3.797276
4.280723
4.637449
5.078018
5.696177
6.555251
7.604926
8.764707
9.928958
11.0094
11.9245
12.6157
13.06484
13.18423
12.94185
12.32269
11.42448
10.4112
9.500637
8.83362
8.435309
8.257059
8.138152
7.956976
7.64576
7.196001
6.611036
5.876901
4.988711
3.973495
2.976491
2.133192
1.550937
1.199839
0.9478238
0.5629501
-0.1799511
-1.349733
-2.925835
-4.697227
-6.445631
-7.959239
-9.138391
-10.05159
-10.91026
-12.05455
-13.76482
-16.16464
-19.15947
-22.3573
-25.11771
-26.72047
-26.60452
-24.51594
-20.64967
-15.60869
-10.21385
-5.277357
-1.285528
1.668658
3.866305
5.644725
7.281963
8.835596
10.19801
11.16894
11.70698
11.9585
12.13808
12.47514
12.94844
13.45189
13.76641
13.76118
13.43036
12.92446
12.48193
12.23997
12.21277
12.24928
12.20495
11.91166
11.33584
10.51833
9.586851
8.65733
7.780077
6.933432
6.040585
5.030195
3.894821
2.705584
1.600587
0.7288723
0.1506109
-0.1998644
-0.5166121
-1.05919
-2.084465
-3.669025
-5.750831
-8.06585
-10.28719
-12.12012
-13.44204
-14.37694
-15.20252
-16.3219
-18.06606
-20.57986
-23.66537
-26.83179
-29.30755
-30.30589
-29.22535
-25.89099
-20.68177
-14.41042
-8.159933
-2.90694
0.7529984
2.732105
3.450022
3.583494
3.818497
4.568422
5.948208
7.724182
9.506407
10.92827
11.7845
12.15306
12.24996
12.32441
12.48377
12.74838
13.036
13.25432
13.35388
13.35893
13.2583
12.97616
12.3773
11.39232
10.12283
8.841869
7.847082
7.286825
7.08147
6.947001
6.55905
5.773912
4.699171
3.59041
2.70686
2.084297
1.542063
0.7885132
-0.3994064
-2.047071
-3.966255
-5.897247
-7.639904
-9.139284
-10.45437
-11.70153
-12.98865
-14.37934
-15.92057
-17.61584
-19.44461
-21.25382
-22.69037
-23.25454
-22.50684
-20.23766
-16.678
-12.40334
-8.185299
-4.697348
-2.238956
-0.7338104
0.1624947
0.8792706
1.743725
2.905235
4.338495
5.884254
7.303406
8.431952
9.16362
9.542948
9.728384
9.898329
10.1983
10.7035
11.38375
12.16541
12.95531
13.63166
14.08118
14.18813
13.92086
13.28831
12.39686
11.37458
10.29562
9.236456
8.216846
7.313108
6.574688
5.974684
5.369448
4.536898
3.245207
1.431446
-0.8009052
-3.181498
-5.413401
-7.28842
-8.738585
-9.783016
-10.47629
-10.89397
-11.13771
-11.39941
-12.00894
-13.2783
-15.37883
-18.13436
-20.96347
-23.07448
-23.67125
-22.32112
-19.06303
-14.49725
-9.435963
-4.666729
-0.698988
2.352013
4.647039
6.408903
7.739979
8.682747
9.221182
9.407692
9.391087
9.376854
9.532801
9.9468
10.58157
11.31558
12.03057
12.62821
13.07648
13.36383
13.43997
13.28032
12.87737
12.22271
11.31142
10.124
8.629929
6.838398
4.860348
2.915699
1.28503
0.173008
-0.4013748
-0.6321945
-0.8347626
-1.347649
-2.378593
-3.88126
-5.651276
-7.41029
-8.917828
-10.09409
-11.07063
-12.05237
-13.29883
-14.99207
-17.12798
-19.48554
-21.67348
-23.18516
-23.55366
-22.46715
-19.86923
-16.02115
-11.44523
-6.819489
-2.758041
0.3681221
2.580101
4.206234
5.667316
7.245667
8.961597
10.62981
11.99477
12.88767
13.30775
13.38338
13.28503
13.08509
12.80378
12.38505
11.82778
11.23617
10.70469
10.34033
10.18371
10.1486
9.995811
9.531178
8.551182
7.029961
5.178699
3.332603
1.820988
0.7895355
0.1534386
-0.391449
-1.132843
-2.318382
-3.98035
-5.97192
-8.017502
-9.805336
-11.19227
-12.16739
-12.86589
-13.51486
-14.41927
-15.82773
-17.87705
-20.54965
-23.55024
-26.36224
-28.33233
-28.78735
-27.27084
-23.74267
-18.65725
-12.80647
-7.195007
-2.573357
0.7337818
2.83646
4.138447
5.109715
6.066545
7.10022
8.166548
9.097631
9.88615
10.53133
11.12043
11.73513
12.35553
12.95432
13.45726
13.78188
13.88403
13.89434
13.92876
14.11332
14.4884
14.93128
15.2255
15.16083
14.63853
13.72054
12.64232
11.66437
10.95593
10.5214
10.23325
9.861456
9.165194
8.016932
6.409975
4.507277
2.563318
0.8503036
-0.4531536
-1.379318
-2.094702
-2.869499
-3.897839
-5.201845
-6.643974
-8.02194
-9.182598
-10.11459
-11.01514
-12.1191
-13.68822
-15.88555
-18.70171
-21.89288
-24.99698
-27.353
-28.26717
-27.3046
-24.44107
-20.12678
-15.14159
-10.40488
-6.576408
-3.893648
-2.20739
-1.100941
-0.1048298
1.094643
2.62266
4.420242
6.269341
7.92255
9.207069
10.07195
10.65071
11.17893
11.86321
12.77194
13.85572
14.91419
15.72722
16.20033
16.36669
16.36283
16.31801
16.31322
16.32549
16.24087
15.97818
15.48354
14.76266
13.87259
12.91258
11.93666
10.97277
10.01348
9.030743
7.998325
6.976978
6.050943
5.273617
4.657804
4.062983
3.276455
2.086922
0.3921967
-1.757181
-4.139267
-6.470587
-8.526077
-10.18771
-11.49809
-12.56675
-13.57067
-14.71146
-16.15913
-18.06584
-20.41343
-22.94054
-25.15715
-26.41439
-26.10324
-23.92534
-20.0469
-15.07224
-9.836899
-5.175867
-1.635366
0.6195946
1.82312
2.431742
2.931543
3.638588
4.65453
5.864014
7.048092
8.012262
8.669495
9.08807
9.416115
9.763176
10.15846
10.52441
10.7279
10.7249
10.58443
10.47829
10.59467
10.98879
11.55116
12.05342
12.29591
12.14771
11.69174
11.14089
10.74438
10.5845
10.57286
10.47287
10.03286
9.106209
7.738457
6.138397
4.630489
3.479313
2.76981
2.371384
1.978561
1.231911
-0.1179695
-2.119812
-4.562428
-7.097023
-9.423538
-11.34069
-12.8763
-14.19042
-15.52085
-17.07183
-18.91812
-20.98264
-22.99521
-24.59305
-25.28262
-24.66965
-22.53505
-19.0148
-14.58702
-9.958321
-5.86729
-2.80294
-0.8662567
0.2064743
0.8845596
1.586971
2.543606
3.728828
4.985062
6.09853
6.952797
7.578926
8.051632
8.519409
9.080254
9.769714
10.5287
11.27288
11.87341
12.2468
12.3666
12.2122
11.86126
11.37442
10.81904
10.20617
9.537785
8.803146
8.017063
7.208111
6.395847
5.619198
4.847767
4.046803
3.197392
2.309483
1.465252
0.7621231
0.2490082
-0.1769676
-0.7159996
-1.624722
-3.058041
-4.925591
-6.945431
-8.747227
-9.969517
-10.50681
-10.52451
-10.38261
-10.52017
-11.29647
-12.78513
-14.7989
-16.88187
-18.40376
-18.7772
-17.57794
-14.76152
-10.71336
-6.147453
-1.888626
1.384102
3.398293
4.249733
4.361031
4.20472
4.177673
4.386772
4.762894
5.150558
5.417068
5.605965
5.816536
6.158607
6.61998
7.172096
7.661797
8.030251
8.271637
8.413765
8.48661
8.457054
8.252197
7.800507
7.115959
6.273209
5.473251
4.860123
4.50563
4.37455
4.307114
4.148201
3.800354
3.262489
2.632805
2.039101
1.61425
1.364296
1.277626
1.208725
1.028656
0.6107178
-0.1630936
-1.331161
-2.869911
-4.599358
-6.367592
-7.967529
-9.34507
-10.63554
-12.11067
-14.10042
-16.7526
-19.90432
-23.03595
-25.3886
-26.21048
-25.01852
-21.8221
-17.09276
-11.618
-6.238602
-1.596878
1.981743
4.492493
6.11071
7.049522
7.44738
7.421944
7.043709
6.469177
5.896736
5.503975
5.343582
5.40329
5.564949
5.68071
5.73259
5.793221
6.007034
6.506203
7.294128
8.228302
9.116928
9.761269
10.04325
9.932701
9.493263
8.728737
7.651093
6.280708
4.693092
3.065697
1.641914
0.6226654
0.07453918
-0.1217499
-0.1771088
-0.3183823
-0.6594772
-1.141396
-1.673286
-2.183578
-2.734734
-3.411942
-4.402748
-5.768776
-7.444756
-9.256958
-11.00388
-12.54051
-13.87915
-15.19742
-16.6465
-18.33392
-20.11014
-21.57348
-22.16615
-21.43835
-19.16738
-15.55473
-11.17774
-6.770729
-3.002609
-0.2105331
1.643089
2.903793
3.991188
5.246819
6.80233
8.493027
10.04189
11.18376
11.78057
11.85715
11.51061
10.86897
10.03792
9.134613
8.276878
7.66832
7.458725
7.694145
8.271172
8.885803
9.221313
9.066963
8.46785
7.612701
6.809937
6.281738
6.111641
6.283707
6.700562
7.252472
7.793549
8.219513
8.38298
8.214844
7.68145
6.856155
5.916618
4.967697
4.030457
3.000961
1.724548
0.1128082
-1.762817
-3.685799
-5.418556
-6.733017
-7.643044
-8.339653
-9.088074
-10.19217
-11.81652
-14.02651
-16.70813
-19.67623
-22.52571
-24.7402
-25.76163
-25.12151
-22.71289
-18.82345
-14.14112
-9.462761
-5.55397
-2.780098
-1.125008
-0.271492
0.2692947
0.8796539
1.815895
3.092697
4.573586
6.085258
7.511459
8.808899
10.01574
11.18264
12.28984
13.29639
14.15157
14.78288
15.20729
15.42017
15.3817
14.99302
14.1091
12.66649
10.77413
8.72654
6.851028
5.465195
4.639824
4.24453
4.040672
3.800507
3.424446
2.969902
2.592613
2.342117
2.241577
2.120247
1.800026
1.183723
0.2021255
-1.141121
-2.791641
-4.68103
-6.714119
-8.754463
-10.64869
-12.27267
-13.55467
-14.60571
-15.65434
-16.98566
-18.85808
-21.27251
-23.88966
-26.01907
-26.8539
-25.70146
-22.40055
-17.3588
-11.47606
-5.820633
-1.250618
1.839256
3.608307
4.521744
5.157898
5.853577
6.70974
7.617203
8.401901
8.969612
9.355972
9.685516
10.07051
10.59081
11.22132
11.88634
12.49918
12.98892
13.33975
13.57541
13.72002
13.797
13.75101
13.50003
12.97986
12.19817
11.25713
10.29033
9.445511
8.783775
8.237236
7.635239
6.836952
5.745598
4.395027
2.880516
1.290741
-0.2786484
-1.83445
-3.417778
-5.051697
-6.695259
-8.269409
-9.66362
-10.79285
-11.67503
-12.41666
-13.24967
-14.44257
-16.23544
-18.66984
-21.53322
-24.3521
-26.38683
-26.91721
-25.48802
-22.06847
-17.12167
-11.44662
-5.919891
-1.216015
2.291687
4.713646
6.268974
7.300381
8.04314
8.621891
9.115074
9.514729
9.845901
10.04546
10.10952
10.02922
9.879623
9.807549
9.98579
10.51698
11.33982
12.24017
12.90023
13.07957
12.62651
11.56244
10.12133
8.543839
7.093517
5.974876
5.273037
4.965309
4.953533
5.058323
5.079624
4.917686
4.48661
3.845917
3.076061
2.271595
1.484703
0.7065048
-0.1367607
-1.110851
-2.200275
-3.395344
-4.620529
-5.816265
-6.990044
-8.218594
-9.658253
-11.46582
-13.77198
-16.57178
-19.66589
-22.61217
-24.7616
-25.42475
-24.07151
-20.55085
-15.25551
-9.016613
-2.908329
2.121979
5.541878
7.32655
7.866375
7.678337
7.200176
6.671776
6.158978
5.658306
5.212162
4.924122
4.87521
5.058475
5.337791
5.505291
5.403748
4.987247
4.344704
3.68454
3.184044
2.957409
2.98019
3.123848
3.225651
3.15905
2.883179
2.459034
2.005943
1.644203
1.447636
1.409088
1.460869
1.506248
1.47369
1.333359
1.112694
0.8699951
0.6693802
0.5475273
0.5070114
0.5148582
0.5295334
0.5163918
0.4613495
0.372406
0.2712669
0.1821213
0.1221504
0.09386063
0.08987427
0.09872437
0.1088943
0.1166115
0.1170425
0.1147842
0.1091881
0.1070595
0.1050606
0.1040878
0.1038322
0.1040649
0.1039238
0.1027679
0.1027107
0.1021194
0.1019173
0.1016426
0.1014137
0.1013069
0.1021805
0.102211
0.101368
0.1011848
0.1004601
0.1000595
0.1000977
0.0993309
0.09897995
0.09830856
0.09808731
0.09762955
0.09830856
0.09767151
0.0982666
0.097332
0.09864044
0.09770966
0.09737778
0.09732056
0.09626389
0.09620667
0.09508896
0.0956459
0.09371567
0.09454727
0.09323883
0.09387589
0.09370422
0.09397888
0.09355545
0.09358597
0.09329987
0.09252167
0.09298706
0.09128571
0.09254456
0.09102249
0.09056091
0.09020996
0.0893898
0.0891304
0.08896637
0.08993149
0.08934021
0.09036255
0.08869553
0.08884811
0.08999252
0.08898544
0.08889771
0.08805847
0.08746338
0.08675766
0.08576584
0.08512115
0.08599854
0.08571243
0.08496475
0.08493042
0.08484268
0.08527756
0.08590317
0.0855217
0.08534241
0.08488083
0.0850811
0.085783
0.0837841
0.08413887
0.08359909
0.08256149
0.08274269
0.08124542
0.08108902
0.08070374
0.08108711
0.08269119
0.08173752
0.08090782
0.08079529
0.08098984
0.08201981
0.08066559
0.08011246
0.08104897
0.07844734
0.07957458
0.07795334
0.07789993
0.0780468
0.07691765
0.07624245
0.07690048
0.07731056
0.07660484
0.07757568
0.0768261
0.07671547
0.07702065
0.07658958
0.0770359
0.07615471
0.07644653
0.07494736
0.07541084
0.07400894
0.07497978
0.07330322
0.07217407
0.07342148
0.07422829
0.07435799
0.07336044
0.07369041
0.07400131
0.07517815
0.07704926
0.07941246
0.07891083
0.07807541
0.07162476
0.05568314
0.03569794
0.01079369
-0.01350021
-0.03446007
-0.05006599
-0.06294441
-0.07340431
-0.08759689
-0.1081486
-0.1312084
-0.1573429
-0.1804409
-0.1951199
-0.2030926
-0.2094307
-0.2193813
-0.2422867
-0.2831192
-0.3376293
-0.4020519
-0.46031
-0.5014248
-0.5293598
-0.5487022
-0.5780468
-0.638916
-0.7431393
-0.8891335
-1.054785
-1.209995
-1.331659
-1.413059
-1.472437
-1.546562
-1.68
-1.901218
-2.203026
-2.543726
-2.861919
-3.110088
-3.277468
-3.390631
-3.520494
-3.740166
-4.097216
-4.585039
-5.138903
-5.666492
-6.096254
-6.409084
-6.641649
-6.871271
-7.178387
-7.645883
-8.316099
-9.18913
-10.15133
-11.01636
-11.50959
-11.2999
-10.11589
-7.885247
-4.741432
-1.0638
2.66771
6.030402
8.781917
10.86782
12.40111
13.53342
14.28109
14.58308
14.37435
13.67473
12.66917
11.65313
10.89447
10.55812
10.6063
10.83923
11.07447
11.20661
11.26455
11.34718
11.54006
11.78933
11.96665
11.90084
11.50872
10.86302
10.12699
9.511122
9.15543
9.082357
9.136191
9.126392
8.86773
8.244802
7.269525
5.969131
4.375668
2.578706
0.7055659
-1.121066
-2.765653
-4.170213
-5.39812
-6.560877
-7.809942
-9.238531
-10.77599
-12.24748
-13.46966
-14.37907
-15.08676
-15.90425
-17.12416
-18.93928
-21.259
-23.65181
-25.47006
-26.01525
-24.81697
-21.81744
-17.47148
-12.50608
-7.765766
-3.86655
-1.040778
0.8010845
2.018897
3.007861
4.068728
5.294926
6.605094
7.801686
8.738969
9.370926
9.797766
10.20719
10.78321
11.58851
12.51786
13.38419
13.94786
14.05146
13.68948
12.93244
11.92934
10.78626
9.606445
8.497003
7.591791
6.994614
6.799232
6.991287
7.429663
7.866086
7.988309
7.584973
6.536613
4.945961
3.058444
1.187048
-0.405828
-1.619362
-2.550813
-3.474608
-4.634619
-6.178839
-8.029873
-9.95365
-11.66826
-12.98438
-13.92524
-14.62298
-15.33731
-16.26427
-17.47978
-18.90528
-20.25049
-21.11069
-21.04189
-19.71475
-17.02988
-13.2776
-9.018931
-4.942873
-1.625608
0.7280474
2.219883
3.228022
4.101461
5.025306
5.997237
6.866663
7.493141
7.834249
7.955037
7.994109
8.115192
8.459778
9.076738
9.874411
10.66596
11.25692
11.5337
11.48715
11.21693
10.88048
10.59513
10.35985
10.1049
9.731681
9.179217
8.458953
7.566347
6.472413
5.176497
3.669394
1.990917
0.2836953
-1.32002
-2.702422
-3.841247
-4.812226
-5.763342
-6.815168
-8.048107
-9.409477
-10.78331
-12.04294
-13.16882
-14.22809
-15.37923
-16.80555
-18.63694
-20.93623
-23.53231
-26.03738
-27.89987
-28.51987
-27.44695
-24.53617
-20.1032
-14.74265
-9.250685
-4.271036
-0.2028999
2.836317
4.956661
6.34082
7.192417
7.697479
8.014715
8.262312
8.593765
9.077051
9.752403
10.62463
11.62323
12.6381
13.53281
14.17921
14.4574
14.33997
13.90628
13.26869
12.55265
11.84296
11.16507
10.47226
9.754662
8.999153
8.275137
7.690735
7.341625
7.240028
7.29166
7.355183
7.239723
6.86368
6.250492
5.48299
4.635593
3.742256
2.779514
1.663952
0.3565178
-1.168503
-2.885628
-4.75164
-6.714661
-8.68961
-10.57291
-12.24973
-13.76141
-15.3063
-17.18722
-19.56548
-22.31356
-24.89128
-26.49851
-26.39839
-24.24779
-20.3395
-15.47132
-10.63153
-6.589828
-3.612343
-1.492222
0.3092422
2.287811
4.677811
7.341457
9.928707
12.02208
13.33167
13.78592
13.44476
12.49249
11.182
9.804356
8.714867
8.228596
8.575901
9.74044
11.54195
13.62401
15.64683
17.33501
18.50206
19.04481
18.94468
18.27219
17.18908
15.98191
14.92598
14.22153
13.84975
13.6214
13.24275
12.45486
11.14307
9.338791
7.190712
4.883999
2.583206
0.3686409
-1.730835
-3.718906
-5.654705
-7.611282
-9.61911
-11.66135
-13.6416
-15.49222
-17.13651
-18.62714
-20.04609
-21.59357
-23.44855
-25.70419
-28.19218
-30.51619
-32.08154
-32.22475
-30.48969
-26.82434
-21.71088
-15.94276
-10.43104
-5.824936
-2.363998
0.1011086
1.928925
3.470184
4.856182
6.072914
7.069515
7.893097
8.70089
9.707153
11.02655
12.58987
14.16536
15.48792
16.37559
16.80438
16.86231
16.71139
16.51988
16.41108
16.53825
16.96558
17.69722
18.64011
19.59044
20.2901
20.52431
20.2269
19.424
18.27322
16.91836
15.42334
13.76308
11.91624
9.884583
7.704155
5.448875
3.184196
0.9363174
-1.285614
-3.535866
-5.825142
-8.1362
-10.36389
-12.31026
-13.7665
-14.60469
-14.88043
-14.88801
-15.03578
-15.72626
-17.229
-19.54704
-22.36646
-25.17027
-27.36418
-28.38223
-27.82317
-25.54202
-21.69089
-16.72466
-11.32903
-6.208694
-1.920578
1.289963
3.479973
4.973717
6.128334
7.212479
8.340935
9.458565
10.48748
11.31679
11.94871
12.40108
12.74622
13.02755
13.19814
13.23399
13.08882
12.77857
12.38026
12.02914
11.86157
11.8897
12.00775
12.02975
11.77649
11.20683
10.44582
9.731087
9.254814
9.091316
9.126785
9.12793
8.874413
8.273758
7.353111
6.273979
5.156052
4.039879
2.845535
1.412254
-0.3799744
-2.589348
-5.106934
-7.714401
-10.1261
-12.13741
-13.63476
-14.66927
-15.42876
-16.18913
-17.25737
-18.8794
-21.14107
-23.95256
-26.93758
-29.47711
-30.87624
-30.49789
-28.085
-23.86079
-18.55809
-13.13596
-8.44754
-4.933662
-2.555687
-0.8759232
0.6224213
2.30658
4.267662
6.359871
8.348999
10.09499
11.58343
12.87383
14.04233
15.10966
16.14246
17.1718
18.26566
19.42805
20.58402
21.56983
22.19611
22.32502
21.90474
20.98941
19.62101
17.93967
16.05499
14.14484
12.38181
10.96443
10.01119
9.508675
9.327667
9.248604
9.079716
8.638954
7.834957
6.620098
5.028893
3.228676
1.389046
-0.3104172
-1.82106
-3.242126
-4.769943
-6.560753
-8.579868
-10.64487
-12.4118
-13.67328
-14.42538
-14.94746
-15.66734
-16.98904
-19.10459
-21.88857
-24.99208
-27.85222
-29.86296
-30.45452
-29.25143
-26.22809
-21.77163
-16.63103
-11.64432
-7.515327
-4.513111
-2.45554
-0.8587723
0.7921677
2.73291
4.906807
7.04752
8.902725
10.322
11.32165
11.98552
12.425
12.7673
13.07323
13.43636
13.89514
14.39734
14.83858
15.11307
15.16353
15.05004
14.88623
14.7004
14.47007
14.06441
13.38121
12.45247
11.48713
10.76972
10.43597
10.42096
10.48198
10.30577
9.662895
8.493927
6.903118
5.064934
3.150684
1.276772
-0.5123901
-2.221603
-3.90358
-5.621433
-7.401691
-9.136795
-10.6749
-11.82471
-12.51755
-12.88708
-13.30954
-14.30445
-16.30597
-19.48325
-23.5556
-27.89289
-31.56137
-33.66672
-33.55798
-31.06972
-26.57967
-20.87616
-14.89396
-9.440762
-4.957935
-1.459381
1.375603
4.046173
7.057468
10.74181
15.17695
20.10455
24.98004
29.12006
31.86273
32.82938
31.9844
29.6877
26.49301
22.93706
19.36904
15.98007
12.9173
10.29471
8.253307
6.863037
6.05924
5.61367
5.248571
4.755291
4.082647
3.312931
2.571976
1.910522
1.270296
0.4687176
-0.6385727
-2.159384
-4.075457
-6.282974
-8.632874
-10.9791
-13.144
-14.99241
-16.53822
-17.8051
-18.90518
-19.93632
-21.0045
-22.19652
-23.58072
-25.14054
-26.73509
-28.09472
-28.79452
-28.3929
-26.56518
-23.29411
-18.87415
-13.90422
-9.072754
-4.941442
-1.794222
0.4086227
1.917244
3.069715
4.15909
5.341522
6.615486
7.893522
9.120459
10.25556
11.37262
12.5181
13.71024
14.94487
16.10508
17.05958
17.6616
17.89261
17.79538
17.53553
17.2187
16.88478
16.46089
15.77922
14.7114
13.2359
11.5657
9.996277
8.844816
8.272537
8.163595
8.211935
8.024157
7.30731
5.995907
4.261929
2.377438
0.592907
-0.9793835
-2.413069
-3.857874
-5.515524
-7.423431
-9.516733
-11.63064
-13.57225
-15.22711
-16.61372
-17.89059
-19.25573
-20.94667
-23.05338
-25.53264
-28.1499
-30.48322
-32.04427
-32.32327
-30.98977
-27.94669
-23.54501
-18.42381
-13.39775
-9.13694
-5.95455
-3.711132
-1.931231
-0.08396339
2.177757
4.843737
7.639048
10.20948
12.34919
14.06955
15.48477
16.67821
17.6427
18.25292
18.39316
18.08785
17.47193
16.72643
15.98578
15.22482
14.3534
13.33505
12.19646
11.08143
10.16363
9.530172
9.148983
8.986675
8.975677
9.077354
9.287014
9.509909
9.579033
9.319077
8.6124
7.488415
6.135468
4.742176
3.436584
2.167313
0.7796555
-0.8816948
-2.837057
-5.000675
-7.2131
-9.297714
-11.19957
-12.89738
-14.45305
-15.94149
-17.47368
-19.16895
-21.18149
-23.56629
-26.1568
-28.5519
-30.13521
-30.25896
-28.4936
-24.80822
-19.59732
-13.60335
-7.683929
-2.534637
1.446323
4.230694
6.101925
7.465767
8.748554
10.19291
11.85728
13.62837
15.30173
16.69783
17.72475
18.39671
18.74578
18.86063
18.76526
18.49886
18.14174
17.8152
17.63805
17.6391
17.71453
17.61823
17.13068
16.12457
14.64749
12.95428
11.37772
10.20403
9.558804
9.40633
9.530315
9.669224
9.572426
9.042374
8.020653
6.563736
4.851353
3.090054
1.458054
0.05066681
-1.150951
-2.264561
-3.475925
-4.961807
-6.866558
-9.256882
-12.12022
-15.30173
-18.51158
-21.40525
-23.68114
-25.22729
-26.11806
-26.59295
-26.89713
-27.12315
-27.1804
-26.78682
-25.65666
-23.59525
-20.63839
-17.00888
-13.10037
-9.307917
-5.889666
-2.902403
-0.2649212
2.176674
4.523603
6.711769
8.63278
10.18792
11.40032
12.4353
13.49408
14.61536
15.69293
16.53382
16.95184
16.96879
16.7598
16.58891
16.65079
16.97534
17.40623
17.71178
17.68944
17.18192
16.17673
14.7253
12.944
10.99891
9.057451
7.303198
5.925283
5.016504
4.572435
4.505985
4.665483
4.902935
5.098488
5.150251
4.957634
4.472063
3.618725
2.333643
0.6530838
-1.275389
-3.227755
-4.922461
-6.161758
-6.923561
-7.373049
-7.791584
-8.573608
-9.978897
-12.11338
-14.8479
-17.78516
-20.40383
-22.18437
-22.75718
-22.01642
-20.17855
-17.64703
-14.9619
-12.51673
-10.46813
-8.743282
-7.132037
-5.466642
-3.669926
-1.839371
-0.1109762
1.356718
2.504919
3.389993
4.134531
4.929775
5.877914
7.041656
8.278871
9.415667
10.25559
10.73065
10.94677
11.05618
11.26794
11.5962
11.92276
12.02529
11.79646
11.26694
10.65785
10.24806
10.1674
10.42129
10.80133
11.05939
10.96146
10.40121
9.39205
7.950994
6.111768
3.950047
1.526414
-1.061898
-3.674498
-6.175542
-8.485783
-10.55204
-12.41701
-14.13729
-15.79574
-17.41886
-19.0975
-20.85872
-22.71109
-24.62389
-26.37647
-27.64448
-28.01264
-27.1711
-25.00023
-21.74218
-17.84893
-13.87786
-10.33751
-7.48543
-5.387444
-3.84615
-2.543193
-1.155145
0.5577345
2.679941
5.076138
7.455365
9.480196
10.88081
11.61549
11.89056
12.02886
12.28844
12.76583
13.37538
13.92381
14.32167
14.5388
14.64222
14.69414
14.69106
14.52956
14.16621
13.67934
13.21606
13.00051
13.14749
13.58893
14.08948
14.35286
14.09985
13.18862
11.63148
9.574938
7.27714
5.025383
3.010774
1.302601
-0.1603055
-1.519147
-2.932443
-4.474612
-6.124735
-7.763274
-9.288318
-10.73357
-12.21267
-13.92303
-16.00767
-18.52351
-21.37987
-24.37824
-27.17064
-29.38166
-30.61392
-30.46441
-28.71793
-25.40331
-20.89078
-15.76604
-10.75659
-6.483988
-3.291004
-1.199926
0.03988838
0.8089848
1.460201
2.216159
3.19649
4.370309
5.664983
7.008842
8.343064
9.627995
10.82952
11.89703
12.75307
13.35453
13.71543
13.90493
14.08889
14.38551
14.86644
15.47805
16.05518
16.39561
16.32782
15.8318
14.98148
13.93879
12.78873
11.53064
10.1103
8.452238
6.602914
4.734529
3.099461
1.888684
1.205624
0.919096
0.7607689
0.4458361
-0.2404022
-1.375115
-2.892303
-4.594037
-6.261089
-7.733856
-8.964605
-10.03973
-11.08679
-12.31639
-13.88026
-15.87521
-18.26241
-20.86228
-23.35184
-25.27619
-26.12558
-25.41903
-22.96763
-18.98522
-14.1364
-9.355227
-5.469728
-2.947345
-1.695495
-1.176014
-0.6745558
0.2927589
1.873589
3.886731
5.961261
7.802288
9.337541
10.64119
11.85167
13.02836
14.12219
15.03469
15.67937
15.9855
16.00834
15.87417
15.63315
15.29107
14.75507
13.89993
12.66024
11.09643
9.34591
7.627043
6.146262
5.001172
4.210557
3.716229
3.418329
3.323652
3.492088
4.003939
4.968462
6.359917
7.960125
9.43351
10.36147
10.35649
9.280981
7.238819
4.537041
1.62994
-1.129959
-3.567566
-5.711493
-7.809654
-10.15252
-12.94711
-16.19213
-19.65931
-22.89367
-25.34988
-26.50729
-25.99188
-23.75353
-20.05852
-15.47706
-10.73073
-6.550535
-3.38587
-1.380583
-0.3346252
0.1754913
0.5854187
1.189804
2.086288
3.160164
4.231571
5.190437
6.012421
6.772118
7.567524
8.444798
9.397366
10.39349
11.34133
12.18522
12.82449
13.17892
13.15852
12.75364
11.99989
11.02906
9.96254
8.882469
7.903282
7.098984
6.572803
6.397903
6.578915
6.936974
7.137234
6.842209
5.873085
4.295628
2.407616
0.5424271
-1.040283
-2.255314
-3.186031
-4.031662
-4.980972
-6.15836
-7.561977
-9.113216
-10.71064
-12.17672
-13.39399
-14.30211
-14.95531
-15.55285
-16.4149
-17.85529
-20.0616
-22.92444
-25.93738
-28.33035
-29.28137
-28.21025
-25.00814
-20.15859
-14.50751
-9.024502
-4.477772
-1.233173
0.7800751
1.90892
2.646263
3.46978
4.61972
6.140102
7.896263
9.655727
11.18639
12.34706
13.07048
13.43288
13.49014
13.34399
13.03773
12.63546
12.2243
11.86739
11.59387
11.3613
11.10676
10.708
10.15072
9.455864
8.722301
8.029667
7.43063
6.934242
6.52356
6.189323
5.895134
5.609821
5.254364
4.735821
3.990284
3.069622
2.153103
1.463272
1.136749
1.149323
1.224049
1.023159
0.2559853
-1.152016
-3.094425
-5.256092
-7.341713
-9.186623
-10.72036
-12.08097
-13.4199
-14.9128
-16.69496
-18.91181
-21.5924
-24.66291
-27.83943
-30.60224
-32.36277
-32.55885
-30.9094
-27.53017
-22.90047
-17.71309
-12.68664
-8.308907
-4.809193
-2.200504
-0.2982674
1.14975
2.402279
3.687134
5.182892
6.879543
8.703182
10.47187
11.95848
13.04007
13.71879
14.08859
14.32404
14.58442
14.9192
15.31416
15.65273
15.78728
15.70285
15.45305
15.12499
14.82051
14.50488
14.08091
13.48433
12.67392
11.73074
10.81353
9.992172
9.254158
8.508179
7.618851
6.510181
5.212902
3.832912
2.499664
1.375172
0.5277519
0.0586853
0.005535126
0.2850761
0.6514435
0.7215919
0.08206177
-1.490253
-3.918278
-6.837738
-9.686188
-11.98849
-13.55222
-14.47849
-15.10799
-15.83173
-16.92235
-18.49718
-20.48479
-22.57832
-24.29819
-25.09156
-24.41795
-21.98963
-17.90141
-12.74452
-7.411469
-2.799683
0.4870415
2.315853
2.986946
3.048813
2.969818
3.019398
3.211052
3.476749
3.758183
4.098053
4.593296
5.312035
6.240479
7.234344
8.123344
8.763527
9.157074
9.390854
9.596165
9.900276
10.36889
10.99526
11.6753
12.24975
12.53989
12.42899
11.91167
11.1248
10.36575
9.928539
9.930988
10.25503
10.57652
10.54157
9.93815
8.789246
7.309122
5.810671
4.497765
3.418921
2.501291
1.619789
0.6964645
-0.3161488
-1.425434
-2.658169
-4.018852
-5.547789
-7.238869
-9.052383
-10.96528
-12.97368
-15.09267
-17.32097
-19.70182
-22.22026
-24.76543
-27.04554
-28.5334
-28.62516
-26.87922
-23.20768
-17.98408
-12.00731
-6.220509
-1.378073
2.175692
4.549519
6.111694
7.242975
8.22444
9.139032
9.952658
10.65822
11.27999
11.90852
12.64512
13.50786
14.44618
15.36754
16.14106
16.67557
16.97463
17.07381
17.02229
16.84916
16.53214
15.99893
15.2075
14.14314
12.88273
11.60982
10.53504
9.798737
9.388382
9.101208
8.613533
7.654169
6.194181
4.467386
2.900112
1.842953
1.40947
1.408356
1.420105
1.085012
0.2187996
-1.088306
-2.620605
-4.135925
-5.583481
-7.035414
-8.642035
-10.59735
-13.0378
-16.12938
-20.02019
-24.77256
-30.18812
-35.74561
-40.57506
-43.60309
-43.95015
-41.26982
-35.88131
-28.722
-20.96711
-13.63556
-7.37726
-2.44091
1.255568
3.89986
5.683144
6.827719
7.533384
8.075447
8.656136
9.351385
10.00014
10.35951
10.14494
9.284639
7.973331
6.603693
5.72459
5.718859
6.725807
8.569483
10.8638
13.05164
14.70888
15.59751
15.6658
15.06139
14.02849
12.74258
11.37626
10.01198
8.669974
7.356004
6.047073
4.705914
3.322909
1.982915
0.7813578
-0.17733
-0.89393
-1.454342
-2.016455
-2.728374
-3.719038
-4.984571
-6.47661
-8.111014
-9.801182
-11.59719
-13.54481
-15.72431
-18.18946
-21.00383
-24.10069
-27.3441
-30.43384
-32.92911
-34.35172
-34.25745
-32.40847
-28.89491
-24.16282
-18.88053
-13.75143
-9.293476
-5.682573
-2.761444
-0.2275352
2.204094
4.669588
7.116871
9.403814
11.40073
13.06905
14.45888
15.65213
16.69441
17.59442
18.36696
19.06118
19.773
20.61079
21.59358
22.64226
23.53992
24.03358
23.91142
23.17992
21.96529
20.50589
19.0801
17.88935
17.03405
16.48017
16.0649
15.55993
14.72739
13.42671
11.61567
9.408375
6.963108
4.4468
1.924698
-0.6136818
-3.187778
-5.791409
-8.36887
-10.86975
-13.26303
-15.57128
-17.77934
-19.82365
-21.60095
-23.02671
-24.15044
-25.21929
-26.5851
-28.54079
-31.15157
-34.03733
-36.43251
-37.44998
-36.3749
-32.98175
-27.64352
-21.17451
-14.5761
-8.671585
-3.90361
-0.271637
2.479019
4.686913
6.653488
8.547699
10.44699
12.33223
14.19496
15.98882
17.65696
19.14428
20.37659
21.33636
21.99715
22.39368
22.563
22.58826
22.55107
22.49068
22.37327
22.09594
21.55187
20.64687
19.35232
17.70387
15.84123
13.96102
12.27892
11.02252
10.28075
10.01466
9.993889
9.914665
9.499016
8.584557
7.172058
5.405518
3.489471
1.537048
-0.3978882
-2.346077
-4.373505
-6.49839
-8.649673
-10.71521
-12.57506
-14.18695
-15.6227
-17.05964
-18.74212
-20.90547
-23.64435
-26.82918
-30.03
-32.52689
-33.50075
-32.33361
-28.85933
-23.45515
-16.97979
-10.43077
-4.660774
-0.132225
3.089241
5.205765
6.474373
7.127663
7.309265
7.201004
7.018448
6.99469
7.327354
8.126411
9.399078
11.03209
12.91838
14.90646
16.87511
18.66039
20.07642
20.92101
21.09945
20.65459
19.72675
18.50998
17.12134
15.6015
13.90189
11.98993
9.911728
7.865723
6.093048
4.772583
3.910141
3.355713
2.852386
2.11795
0.9579163
-0.7242737
-2.908264
-5.466751
-8.239197
-11.04083
-13.78856
-16.37843
-18.8015
-21.02199
-23.07454
-25.08258
-27.24612
-29.8139
-32.85654
-36.12285
-38.91653
-40.28835
-39.27695
-35.44713
-29.12056
-21.2841
-13.29462
-6.35025
-1.060089
2.633041
5.262711
7.530533
9.872208
12.37497
14.83951
16.95355
18.52489
19.55136
20.14192
20.50887
20.83493
21.2556
21.79861
22.46413
23.145
23.74846
24.21924
24.49759
24.59175
24.49663
24.1429
23.3869
22.14189
20.40315
18.38766
16.50616
15.08588
14.30084
13.99651
13.74413
13.05461
11.63612
9.521454
7.043213
4.658173
2.713333
1.313766
0.2954407
-0.6407471
-1.79982
-3.40242
-5.514023
-8.091003
-11.00247
-14.10046
-17.19376
-20.13202
-22.76816
-25.01595
-26.93602
-28.72987
-30.71892
-33.1705
-36.15585
-39.36775
-42.15331
-43.61374
-42.91582
-39.60135
-33.79494
-26.25044
-18.05032
-10.3244
-3.907654
0.8590851
4.089432
6.231064
7.862091
9.501236
11.43346
13.73073
16.24734
18.72807
20.94583
22.7749
24.24686
25.45668
26.53377
27.50456
28.36543
29.0173
29.3709
29.37526
28.9993
28.26546
27.19026
25.83003
24.26051
22.64247
21.11223
19.77728
18.62831
17.50696
16.21895
14.60692
12.68901
10.66481
8.836411
7.42691
6.512238
5.950729
5.448883
4.71344
3.614853
2.188538
0.600647
-0.987381
-2.532761
-4.139877
-5.902542
-7.883514
-9.980865
-12.04486
-13.96468
-15.7316
-17.47191
-19.36327
-21.56683
-24.08606
-26.88034
-29.87608
-33.06059
-36.3912
-39.6059
-42.15051
-43.20177
-41.99847
-38.16374
-31.98441
-24.28793
-16.26382
-8.967285
-3.01976
1.554413
5.111725
8.169739
11.08432
13.91937
16.567
18.82034
20.56941
21.83391
22.72932
23.38029
23.89555
24.25951
24.42178
24.36067
24.11829
23.81055
23.51627
23.2361
22.89806
22.44415
21.78903
20.97813
20.08307
19.18611
18.37172
17.64122
16.89798
16.06717
15.15961
14.17088
13.16917
12.2666
11.47658
10.84131
10.32253
9.787689
9.078049
8.018921
6.419983
4.312424
1.90802
-0.4875946
-2.53183
-4.069046
-5.232407
-6.32338
-7.719528
-9.621979
-11.95618
-14.43951
-16.78876
-18.72908
-20.20546
-21.28639
-22.13437
-23.00241
-24.18246
-25.95424
-28.40016
-31.40579
-34.36458
-36.42598
-36.68219
-34.52177
-30.0061
-23.79263
-16.94432
-10.53934
-5.36853
-1.636383
0.835495
2.517242
3.911728
5.392471
7.191132
9.357132
11.84964
14.47723
16.97545
19.0094
20.29099
20.70383
20.32759
19.46642
18.47647
17.72182
17.40221
17.52881
17.96439
18.43675
18.77097
18.83047
18.58365
18.00157
17.09402
15.93846
14.63121
13.35527
12.27785
11.53589
11.12593
10.93358
10.73605
10.36371
9.725861
8.835327
7.81369
6.790558
5.867645
5.032791
4.21904
3.244553
1.93779
0.1613922
-2.08017
-4.640442
-7.344711
-9.955322
-12.34155
-14.38692
-16.07755
-17.53423
-18.98279
-20.65021
-22.76981
-25.38368
-28.2934
-31.04382
-32.92807
-33.2574
-31.61491
-28.02669
-22.94728
-17.17621
-11.56013
-6.716858
-2.950943
-0.1926117
1.843292
3.509094
5.078003
6.713242
8.394348
10.04228
11.61636
13.07733
14.41487
15.61623
16.6069
17.3356
17.72121
17.72601
17.45465
17.08179
16.7981
16.73595
16.86061
16.94826
16.78289
16.13704
14.97
13.4875
11.99205
10.75998
9.933594
9.409843
8.868668
8.028595
6.75061
5.112556
3.441231
2.089249
1.184258
0.6843109
0.2836227
-0.4102325
-1.682663
-3.610573
-6.070236
-8.798203
-11.55057
-14.17383
-16.5356
-18.61424
-20.40568
-22.00129
-23.61602
-25.52484
-27.93018
-30.86125
-33.9819
-36.58146
-37.85194
-37.06274
-33.89
-28.61491
-22.01743
-15.09449
-8.823303
-3.824669
-0.2264404
2.127762
3.605545
4.587204
5.291786
5.861137
6.39946
7.017151
7.768456
8.719063
9.791107
10.88148
11.90318
12.79964
13.62464
14.4462
15.2997
16.14482
16.88047
17.34389
17.4028
16.97368
16.04539
14.74441
13.26617
11.86901
10.80658
10.20174
10.04068
10.16158
10.28825
10.14661
9.565254
8.493668
7.026466
5.304726
3.433525
1.466133
-0.660881
-3.005264
-5.593712
-8.32766
-11.03648
-13.47626
-15.49512
-17.06999
-18.30245
-19.36077
-20.41029
-21.62366
-23.14491
-25.16098
-27.70902
-30.62258
-33.4086
-35.30374
-35.47995
-33.37405
-28.96382
-22.8974
-16.2319
-10.05857
-5.098068
-1.478523
1.145309
3.268547
5.266899
7.239468
8.972145
10.26491
11.0605
11.52682
12.01254
12.82064
14.01324
15.43998
16.85289
17.9917
18.73203
19.09624
19.19833
19.15638
19.03196
18.80544
18.41566
17.81458
17.02152
16.09351
15.10662
14.15709
13.34843
12.74254
12.41141
12.34381
12.4276
12.48933
12.29419
11.61642
10.34679
8.559845
6.428322
4.202568
2.108398
0.224205
-1.481724
-3.120441
-4.846504
-6.77116
-8.859707
-11.01328
-13.06311
-14.92204
-16.59204
-18.19382
-19.96692
-22.12207
-24.7764
-27.91035
-31.33588
-34.70276
-37.52942
-39.23835
-39.23672
-37.14655
-32.93252
-27.00333
-20.16393
-13.3478
-7.32608
-2.535854
0.9926453
3.543598
5.511879
7.221863
8.876987
10.53125
12.13595
13.67524
15.08884
16.30632
17.27111
17.89705
18.09024
17.8159
17.13272
16.21194
15.31968
14.68895
14.47015
14.64043
15.02707
15.34698
15.3636
14.98674
14.27707
13.41948
12.60066
11.92766
11.43165
11.07909
10.7304
10.25332
9.494823
8.353909
6.898705
5.309746
3.816666
2.616184
1.739826
1.040718
0.2995377
-0.6902428
-2.009632
-3.559029
-5.246788
-7.049305
-8.979111
-11.06233
-13.29733
-15.50742
-17.5043
-19.18864
-20.59055
-21.94837
-23.53518
-25.44408
-27.43607
-28.99618
-29.34862
-27.90646
-24.56826
-19.74561
-14.34478
-9.350601
-5.524286
-3.113005
-1.961212
-1.548491
-1.320637
-0.8873367
-0.04602432
1.211712
2.815403
4.690292
6.783789
9.088406
11.58776
14.18616
16.71598
18.96848
20.67859
21.65143
21.82854
21.3112
20.34321
19.18205
17.98738
16.79844
15.62093
14.41971
13.22377
12.1818
11.43545
11.07462
10.98386
10.93805
10.60284
9.818089
8.591627
7.135324
5.742807
4.667015
4.030664
3.764805
3.674347
3.454529
2.775171
1.372465
-0.823967
-3.647495
-6.704538
-9.552763
-11.85407
-13.55096
-14.90181
-16.33535
-18.23205
-20.72869
-23.70324
-26.73178
-29.30941
-30.8355
-30.81302
-28.93064
-25.21818
-20.058
-14.18104
-8.428343
-3.446761
0.4286408
3.271541
5.391982
7.136045
8.645483
9.913247
10.8387
11.37758
11.63247
11.73928
11.80873
11.87816
11.94557
12.05527
12.3186
12.87726
13.81148
15.05494
16.35361
17.37993
17.85994
17.60395
16.65209
15.15072
13.34548
11.4711
9.733888
8.215701
6.906707
5.709083
4.452575
3.078595
1.566334
-0.02469969
-1.614694
-3.160498
-4.642351
-6.078592
-7.471895
-8.802355
-9.975491
-10.9473
-11.70771
-12.31756
-12.93464
-13.69861
-14.72754
-16.12437
-17.96052
-20.23245
-22.89133
-25.76623
-28.48933
-30.55577
-31.32154
-30.2939
-27.29642
-22.64334
-17.02207
-11.35109
-6.427713
-2.684166
-0.1323891
1.56205
2.817434
3.90366
4.901539
5.756283
6.401005
6.906204
7.457153
8.219114
9.300079
10.62861
11.98986
13.187
14.07145
14.59969
14.86283
15.02257
15.1837
15.38019
15.5698
15.6388
15.46007
14.89643
13.9123
12.62224
11.21653
9.890175
8.773596
7.878454
7.130119
6.376373
5.503464
4.405972
3.094318
1.556446
-0.2517376
-2.373848
-4.84416
-7.582317
-10.40782
-13.00027
-15.13415
-16.70153
-17.85219
-18.95724
-20.43035
-22.56933
-25.34397
-28.40692
-31.05127
-32.51321
-32.16285
-29.7436
-25.4432
-19.87973
-13.97588
-8.550144
-4.189876
-1.021041
1.213913
2.969205
4.696895
6.625888
8.765434
10.88293
12.76384
14.24571
15.32651
16.06021
16.52101
16.73548
16.67479
16.31053
15.64254
14.76954
13.91048
13.31687
13.24124
13.75208
14.72853
15.84584
16.71134
17.01645
16.70334
15.94849
15.04428
14.27208
13.66774
13.10404
12.34339
11.188
9.622898
7.774237
5.833387
3.987518
2.352177
0.8604374
-0.5480766
-1.992348
-3.546047
-5.233925
-7.009037
-8.816097
-10.58249
-12.24077
-13.75939
-15.10521
-16.37639
-17.76021
-19.52215
-21.80415
-24.52524
-27.30273
-29.4547
-30.25802
-29.21825
-26.32745
-22.07098
-17.244
-12.6533
-8.843931
-5.961143
-3.8216
-2.073467
-0.4169579
1.292101
3.035246
4.768692
6.425087
8.025206
9.634661
11.32577
13.10636
14.92405
16.66949
18.21327
19.46012
20.29394
20.70128
20.6358
20.14631
19.24776
18.00623
16.54992
14.99325
13.47479
12.09091
10.96535
10.10849
9.518568
9.139065
8.847462
8.530788
8.068401
7.398439
6.559828
5.652313
4.823357
4.200695
3.821184
3.534292
3.110708
2.242191
0.7473965
-1.369215
-3.885473
-6.416595
-8.614458
-10.2346
-11.32455
-12.09917
-12.90665
-14.07462
-15.82256
-18.21548
-21.02436
-23.83383
-26.02363
-26.97961
-26.23313
-23.72213
-19.80223
-15.1303
-10.49718
-6.475117
-3.310665
-0.9103813
0.985096
2.642021
4.167877
5.527145
6.664299
7.544628
8.245747
8.85606
9.448803
10.03766
10.55851
10.98253
11.29932
11.60913
12.04532
12.66902
13.43811
14.16471
14.64198
14.70319
14.36753
13.73702
12.96446
12.14986
11.26563
10.26728
9.062057
7.711727
6.354195
5.202663
4.39489
3.924854
3.628403
3.257278
2.635014
1.6427
0.274128
-1.4202
-3.330204
-5.362148
-7.424263
-9.431587
-11.30073
-12.92062
-14.30916
-15.60265
-17.02584
-18.85357
-21.24611
-24.04976
-26.78652
-28.72499
-29.07061
-27.339
-23.54198
-18.183
-12.18276
-6.459602
-1.686623
1.878777
4.321083
5.988426
7.186943
8.172958
9.053925
9.802567
10.35776
10.68685
10.80621
10.74916
10.68546
10.72105
10.94677
11.33449
11.75116
12.0648
12.1632
12.04585
11.73807
11.33063
10.80592
10.14435
9.322609
8.355042
7.351234
6.436981
5.725029
5.218178
4.849602
4.430359
3.83857
3.01149
1.968132
0.8329315
-0.2932587
-1.382668
-2.526688
-3.857536
-5.529694
-7.575722
-9.878845
-12.20129
-14.30299
-15.97244
-17.14132
-17.86111
-18.30523
-18.69437
-19.30437
-20.33916
-21.85015
-23.64355
-25.27824
-26.16723
-25.75719
-23.76824
-20.34061
-16.02251
-11.54235
-7.613892
-4.630478
-2.634232
-1.397171
-0.5070419
0.4420547
1.67617
3.242355
5.020988
6.776764
8.294334
9.47345
10.37813
11.1172
11.8867
12.74668
13.64548
14.44771
15.0361
15.36874
15.54701
15.64285
15.70473
15.67833
15.45552
14.99652
14.32324
13.58571
12.92768
12.45234
12.11294
11.85654
11.54659
11.02197
10.24924
9.170151
7.872452
6.443558
5.098412
4.028946
3.366539
3.113274
3.055038
2.96701
2.622719
1.916626
0.8353348
-0.4925308
-1.993767
-3.638992
-5.413124
-7.398651
-9.583366
-11.97977
-14.57391
-17.39626
-20.45337
-23.69007
-26.89134
-29.59581
-31.21495
-31.16044
-29.19215
-25.41673
-20.39044
-14.97396
-10.00102
-6.119492
-3.502991
-1.964348
-1.034393
-0.2396088
0.7647018
2.121979
3.721458
5.384758
6.911148
8.188873
9.181206
9.95916
10.61696
11.20565
11.77925
12.30284
12.77914
13.16983
13.51375
13.78413
13.97652
14.08325
14.06696
13.88632
13.47253
12.83286
11.95953
10.97835
10.06569
9.361588
8.907867
8.579361
8.156036
7.420242
6.325783
4.989357
3.713646
2.765663
2.273056
2.090958
1.90168
1.313591
0.1052856
-1.730141
-3.960846
-6.221901
-8.211586
-9.814896
-11.01986
-12.02411
-13.05685
-14.36529
-16.16152
-18.57619
-21.60404
-24.99313
-28.26338
-30.63013
-31.33595
-29.8499
-26.15137
-20.79402
-14.71825
-8.903175
-4.067642
-0.5198822
1.869759
3.450729
4.602333
5.622147
6.655769
7.743324
8.926933
10.16319
11.3604
12.38389
13.08122
13.38751
13.37787
13.20184
13.09045
13.24859
13.76804
14.59374
15.55734
16.43527
17.00209
17.14536
16.78642
15.96727
14.76596
13.25861
11.49905
9.573692
7.562813
5.535034
3.669418
2.060135
0.70578
-0.4980164
-1.780617
-3.301796
-5.096657
-7.083885
-9.096245
-10.92918
-12.48921
-13.82983
-15.05746
-16.33356
-17.71941
-19.23135
-20.93312
-22.91283
-25.15054
-27.43796
-29.3624
-30.31857
-29.83322
-27.72594
-24.2206
-19.91822
-15.49883
-11.46318
-8.034744
-5.167473
-2.616096
-0.2554245
1.939346
3.913391
5.585655
6.991425
8.209663
9.347168
10.49056
11.69141
12.88821
13.98103
14.88889
15.55815
16.03236
16.36876
16.63087
16.87473
17.08696
17.21089
17.13382
16.76424
16.00207
14.80822
13.20721
11.23236
9.038513
6.798027
4.691284
2.877846
1.385513
0.1066971
-1.146538
-2.567474
-4.290955
-6.273201
-8.401199
-10.46219
-12.29136
-13.84409
-15.19275
-16.46912
-17.80662
-19.34536
-21.16892
-23.36279
-25.93743
-28.71054
-31.29467
-33.00268
-33.08841
-30.97753
-26.58827
-20.42885
-13.51093
-6.98016
-1.716526
1.893517
4.090656
5.416943
6.469593
7.647095
9.033344
10.46421
11.72378
12.67915
13.36703
13.98555
14.66266
15.39294
16.01713
16.28521
16.03185
15.3077
14.40144
13.65855
13.3335
13.40776
13.59873
13.55957
13.02139
11.99477
10.74294
9.58202
8.668631
7.958223
7.226862
6.270449
5.036478
3.597006
2.142788
0.7858887
-0.5020657
-1.888958
-3.487885
-5.350609
-7.279297
-9.056314
-10.50642
-11.60959
-12.58398
-13.81231
-15.68106
-18.39846
-21.90101
-25.69607
-28.98533
-30.8995
-30.77686
-28.41647
-24.18124
-18.85032
-13.2885
-8.244839
-4.06421
-0.7289283
1.979842
4.334268
6.482322
8.491447
10.29853
11.88891
13.24369
14.40083
15.4447
16.45454
17.5383
18.70527
19.92141
21.07269
22.09777
22.94058
23.61454
24.10266
24.34833
24.27491
23.72874
22.6219
20.96683
18.92728
16.73106
14.66961
12.95977
11.68432
10.8423
10.33284
10.05206
9.878736
9.760248
9.693398
9.689799
9.743481
9.743171
9.509179
8.829794
7.526486
5.523774
2.878966
-0.2261658
-3.496374
-6.621903
-9.374847
-11.62888
-13.44589
-14.99637
-16.52516
-18.33122
-20.67501
-23.68258
-27.20678
-30.81578
-33.78061
-35.33523
-34.89908
-32.3131
-27.94997
-22.60271
-17.22279
-12.57186
-8.926935
-6.11255
-3.655473
-1.08229
1.843493
5.04514
8.210422
10.9771
13.07731
14.48588
15.37558
15.96915
16.49287
17.02212
17.52473
17.95396
18.3058
18.59556
18.90412
19.27917
19.62489
19.76607
19.48212
18.64392
17.28612
15.67088
14.1341
13.00837
12.42123
12.3033
12.41016
12.3897
11.96059
11.01276
9.67082
8.177361
6.800816
5.66936
4.763245
3.901159
2.809174
1.262726
-0.7963886
-3.231076
-5.773434
-8.128073
-10.12238
-11.72374
-13.01643
-14.15544
-15.29647
-16.60572
-18.22715
-20.23519
-22.52872
-24.7612
-26.39046
-26.80543
-25.55417
-22.54902
-18.14168
-13.03145
-8.039806
-3.79201
-0.6311007
1.46528
2.794962
3.770247
4.746644
5.931166
7.355737
8.889449
10.37
11.65961
12.65006
13.29306
13.57541
13.5416
13.25622
12.87468
12.54611
12.33717
12.23347
12.0916
11.75948
11.16024
10.35583
9.517411
8.860563
8.492035
8.359882
8.297623
8.03846
7.430599
6.41271
5.088421
3.648581
2.292597
1.118004
0.0748539
-0.9776077
-2.223135
-3.727131
-5.444122
-7.210024
-8.83865
-10.2171
-11.36579
-12.40693
-13.4177
-14.48832
-15.65287
-16.94027
-18.42237
-20.17308
-22.19511
-24.30045
-26.11748
-27.03282
-26.52593
-24.30385
-20.49086
-15.69016
-10.7009
-6.320404
-3.016647
-0.8388062
0.6072044
1.850758
3.355007
5.350151
7.676643
9.986744
11.94305
13.31208
14.05296
14.30982
14.266
14.08829
13.90443
13.72518
13.52238
13.29762
13.03996
12.77459
12.53242
12.31963
12.13898
12.01068
11.89248
11.76665
11.64928
11.51403
11.37063
11.1752
10.85326
10.34612
9.650089
8.767345
7.751701
6.698635
5.596359
4.50457
3.459072
2.463779
1.610111
0.94347
0.4484558
0.0722847
-0.248806
-0.6218605
-1.096294
-1.729832
-2.595657
-3.727875
-5.152035
-6.814987
-8.628086
-10.54008
-12.54974
-14.76611
-17.30451
-20.30334
-23.687
-27.15833
-30.17467
-32.08499
-32.35971
-30.77806
-27.54063
-23.2516
-18.69699
-14.55889
-11.21677
-8.627705
-6.439114
-4.262032
-1.788231
1.04612
4.059891
6.981209
9.531597
11.51369
12.86599
13.63094
13.94652
13.98712
13.87336
13.65799
13.32884
12.82658
12.14703
11.37734
10.68852
10.19739
9.954514
9.887718
9.85672
9.783249
9.666748
9.602196
9.683434
9.915108
10.18598
10.33835
10.21677
9.746628
8.997215
8.053688
7.036629
6.028412
5.01712
3.978401
2.892227
1.764359
0.6152802
-0.4926834
-1.543785
-2.571899
-3.680321
-4.984482
-6.531448
-8.228493
-9.885544
-11.27567
-12.2223
-12.73191
-12.99578
-13.30096
-14.01795
-15.39993
-17.51524
-20.15041
-22.80219
-24.72705
-25.20604
-23.76901
-20.41824
-15.75735
-10.70356
-6.226692
-2.957016
-1.038193
-0.1703262
0.1437225
0.347435
0.7169418
1.288124
2.038574
2.902519
3.851402
4.886497
5.939774
6.957504
7.852615
8.600159
9.20829
9.776932
10.37396
11.01453
11.65776
12.1353
12.27885
11.94346
11.15945
10.09663
9.101563
8.461449
8.344002
8.741821
9.440277
10.21303
10.87557
11.40166
11.79204
12.01874
11.97541
11.48
10.46584
8.974716
7.238068
5.485298
3.863052
2.350784
0.8179092
-0.8284531
-2.624199
-4.441528
-6.149811
-7.634682
-8.94603
-10.20382
-11.60493
-13.33419
-15.51174
-18.17898
-21.2123
-24.26871
-26.7875
-28.12659
-27.71369
-25.33247
-21.25305
-16.16627
-10.95177
-6.355827
-2.754814
-0.1083298
1.891479
3.566238
5.060295
6.308113
7.189812
7.640007
7.799019
7.859215
8.022003
8.423996
9.048531
9.797241
10.53922
11.17062
11.57329
11.68037
11.38214
10.64526
9.538956
8.242508
6.972038
5.915482
5.158981
4.674385
4.414368
4.362061
4.553085
4.976707
5.541336
6.014381
6.130722
5.680244
4.60965
3.130493
1.561333
0.1656723
-1.002029
-2.124794
-3.497108
-5.34214
-7.696678
-10.33226
-12.87846
-14.97352
-16.48112
-17.49278
-18.34013
-19.38252
-20.87704
-22.86491
-25.11279
-27.14656
-28.36878
-28.26479
-26.51241
-23.164
-18.60963
-13.50847
-8.56057
-4.337029
-1.106033
1.153687
2.68573
3.837677
4.836723
5.796265
6.692863
7.441765
7.991402
8.375603
8.704811
9.089516
9.613182
10.25514
10.9671
11.70992
12.45568
13.18863
13.82108
14.18104
14.07835
13.38361
12.14307
10.58852
9.072365
7.877121
7.133614
6.8283
6.821823
6.962196
7.13604
7.2351
7.14563
6.762657
5.973076
4.717056
3.037437
1.047531
-1.080009
-3.187546
-5.186523
-7.050926
-8.796638
-10.4517
-12.0631
-13.66449
-15.32003
-17.12241
-19.18956
-21.6464
-24.47848
-27.44286
-30.04123
-31.65865
-31.70113
-29.87084
-26.24115
-21.24876
-15.62238
-10.06651
-5.197227
-1.345016
1.407135
3.239639
4.459496
5.442223
6.521149
7.836914
9.413872
11.09778
12.68401
14.00058
14.903
15.34387
15.36637
15.10537
14.74281
14.47549
14.39409
14.53675
14.89939
15.37918
15.8596
16.20852
16.29637
15.98636
15.21723
14.01101
12.49834
10.8926
9.336082
7.884682
6.476532
5.012619
3.396492
1.647434
-0.1431847
-1.863674
-3.386242
-4.66164
-5.685394
-6.472652
-7.126434
-7.758457
-8.481182
-9.429764
-10.71899
-12.47065
-14.73324
-17.50014
-20.6867
-24.0402
-27.12594
-29.39365
-30.28753
-29.44572
-26.82276
-22.69432
-17.58496
-12.13529
-6.934135
-2.410915
1.181164
3.784439
5.494537
6.548515
7.205086
7.692959
8.158859
8.65691
9.199192
9.814133
10.59354
11.61813
12.92824
14.40958
15.82097
16.90004
17.46911
17.47763
17.06596
16.45308
15.82671
15.24844
14.67095
13.99607
13.16757
12.26313
11.39361
10.65905
10.09275
9.586544
8.989998
8.195578
7.135183
5.855875
4.401386
2.765059
0.9411812
-1.057394
-3.073843
-4.790926
-5.856319
-6.096373
-5.583778
-4.691198
-3.976896
-3.972414
-5.092335
-7.517065
-11.19844
-15.87106
-21.0638
-26.11861
-30.20518
-32.524
-32.46436
-29.86323
-25.12729
-19.11228
-12.91162
-7.48016
-3.393864
-0.7210674
0.8616314
1.943764
3.025184
4.393757
6.067677
7.827522
9.41269
10.62801
11.45062
11.98325
12.47032
13.07013
13.82374
14.67269
15.48057
16.10583
16.46224
16.52856
16.31305
15.85701
15.21932
14.49819
13.81256
13.22869
12.73372
12.20404
11.47198
10.44037
9.13071
7.712138
6.379858
5.281294
4.337551
3.338421
2.024439
0.2666575
-1.860842
-4.140491
-6.315326
-8.308776
-10.17721
-12.20193
-14.62906
-17.5873
-20.99802
-24.61397
-28.03236
-30.78743
-32.38081
-32.34476
-30.38745
-26.49444
-21.05558
-14.79509
-8.593105
-3.170582
1.067301
4.134421
6.34283
8.070255
9.602478
11.02416
12.24932
13.1767
13.76517
14.08706
14.28227
14.5266
14.94199
15.49896
16.08727
16.46079
16.465
15.99995
15.14324
14.10896
13.13854
12.39406
11.88347
11.43337
10.76882
9.690368
8.126666
6.234436
4.364069
2.886423
2.011858
1.747007
1.826355
1.810168
1.310891
0.08649635
-1.857265
-4.294405
-6.902758
-9.385729
-11.55088
-13.35294
-14.91637
-16.43549
-18.11185
-20.13151
-22.52111
-25.19545
-27.84035
-29.97128
-31.05565
-30.63657
-28.49231
-24.76883
-19.959
-14.70938
-9.673391
-5.27784
-1.620594
1.389523
4.005569
6.429443
8.723351
10.85831
12.79619
14.48932
15.91043
17.03272
17.79024
18.12662
18.05355
17.6729
17.17535
16.7677
16.54584
16.52235
16.62362
16.72827
16.74676
16.59517
16.22967
15.59199
14.65977
13.49314
12.27913
11.23777
10.4951
10.00214
9.58036
9.045723
8.309757
7.403255
6.426804
5.490509
4.563564
3.513145
2.174751
0.4374428
-1.632355
-3.872387
-6.129688
-8.332912
-10.51569
-12.82349
-15.3547
-18.14405
-21.21714
-24.52122
-27.9261
-31.17096
-33.80164
-35.23037
-34.93015
-32.60512
-28.39239
-22.92454
-17.08848
-11.71314
-7.311031
-3.904987
-1.185898
1.228474
3.622761
6.039917
8.280254
10.14215
11.51844
12.44574
13.12256
13.71853
14.30792
14.85836
15.3167
15.59742
15.7514
15.92216
16.25847
16.87215
17.69846
18.47693
18.87066
18.65882
17.80454
16.55618
15.25006
14.20601
13.58089
13.31285
13.18439
12.96308
12.51509
11.74126
10.669
9.285961
7.615963
5.798965
3.994938
2.361221
0.9337273
-0.378418
-1.768726
-3.360847
-5.159966
-7.017887
-8.693039
-10.0368
-11.13762
-12.25635
-13.75485
-15.93127
-18.88076
-22.43636
-26.19026
-29.58871
-31.99804
-32.88736
-31.94527
-29.17032
-24.93638
-19.85032
-14.62157
-9.841686
-5.844288
-2.69173
-0.2359428
1.785622
3.559715
5.204453
6.763275
8.253918
9.658157
10.95441
12.12322
13.06684
13.72552
14.04903
14.06472
13.90312
13.7383
13.73694
14.00982
14.59814
15.41702
16.30433
17.05882
17.47307
17.43367
16.98799
16.27705
15.51851
14.90756
14.52082
14.31283
14.13431
13.81001
13.20093
12.20317
10.83404
9.179592
7.425552
5.755615
4.297112
3.006741
1.694866
0.1618729
-1.804359
-4.258015
-7.0909
-10.08733
-13.03331
-15.74387
-18.11124
-20.1049
-21.7119
-23.01877
-24.15754
-25.28018
-26.43425
-27.43037
-27.83807
-27.04014
-24.51405
-20.07416
-14.06276
-7.29694
-0.8326073
4.357723
7.766968
9.393456
9.718731
9.423056
9.116365
9.115734
9.450409
9.929323
10.30405
10.47166
10.48587
10.54427
10.87117
11.60838
12.72717
14.06129
15.33451
16.29506
16.83275
16.99526
16.95794
16.88171
16.75604
16.40431
15.58157
14.14578
12.182
10.05389
8.18272
6.83638
6.013943
5.420122
4.676197
3.555688
2.115262
0.6102743
-0.6374321
-1.532702
-2.235058
-3.087275
-4.407833
-6.303482
-8.628058
-11.03249
-13.16856
-14.84216
-16.13678
-17.32849
-18.78912
-20.79057
-23.40253
-26.41225
-29.36108
-31.66057
-32.72667
-32.12865
-29.73892
-25.76611
-20.69671
-15.2097
-9.949622
-5.463079
-2.050338
0.2873864
1.80751
2.905113
3.971697
5.280192
6.863039
8.604439
10.2674
11.63091
12.58508
13.10014
13.26257
13.20751
13.08887
12.99873
12.97933
13.0248
13.05706
12.98008
12.64205
11.89572
10.65381
8.909117
6.736486
4.35546
2.062128
0.1264157
-1.320135
-2.372259
-3.297581
-4.387178
-5.823812
-7.571867
-9.389757
-10.98246
-12.19247
-13.09405
-14.04638
-15.52593
-17.91059
-21.31139
-25.40004
-29.51435
-32.80627
-34.47562
-34.04358
-31.47156
-27.18276
-21.85316
-16.2904
-11.09079
-6.592474
-2.857841
0.2278676
2.804559
4.993041
6.808329
8.281809
9.401979
10.18801
10.66057
10.8526
10.82413
10.64795
10.4479
10.29696
10.15991
9.947722
9.60976
9.167971
8.706083
8.335272
8.093004
7.890636
7.482983
6.56678
4.982948
2.829889
0.4294395
-1.800283
-3.536493
-4.773251
-5.777742
-7.052486
-9.080122
-12.09328
-15.97273
-20.17549
-23.93775
-26.41918
-27.03102
-25.50377
-22.02281
-17.11637
-11.509
-5.968178
-1.071682
2.864716
5.800297
7.933174
9.571873
10.99003
12.36626
13.72642
14.93859
15.84821
16.37048
16.52184
16.48512
16.47815
16.5738
16.72127
16.73612
16.39418
15.61513
14.4788
13.16964
11.93424
10.89877
10.00785
9.072975
7.876099
6.234154
4.139153
1.791458
-0.5474091
-2.57856
-4.181396
-5.443123
-6.608673
-8.051109
-10.11818
-12.99474
-16.62197
-20.66653
-24.48244
-27.28085
-28.31204
-27.04388
-23.5071
-18.25938
-12.24774
-6.481743
-1.719627
1.821182
4.347328
6.363091
8.348839
10.5424
12.92584
15.29336
17.40895
19.09834
20.34801
21.22478
21.83577
22.25076
22.44233
22.3246
21.8128
20.90075
19.67664
18.36378
17.20885
16.35046
15.80029
15.38715
14.93152
14.35567
13.73928
13.28929
13.21491
13.61532
14.31025
14.96468
15.13184
14.49381
12.93758
10.64899
7.985519
5.415428
3.330101
1.925713
1.156174
0.7393494
0.2623825
-0.6592484
-2.25351
-4.488678
-7.100716
-9.774673
-12.27697
-14.57104
-16.75516
-19.0125
-21.41216
-23.98006
-26.64382
-29.31924
-31.86913
-34.04163
-35.37003
-35.28954
-33.36324
-29.42394
-23.81726
-17.31744
-10.88309
-5.337418
-1.104523
1.885399
3.975945
5.576355
6.995438
8.375404
9.687523
10.88203
11.91895
12.81209
13.56898
14.11864
14.38341
14.34091
14.14069
14.00455
14.19096
14.83043
15.8292
16.95678
17.8694
18.31789
18.23245
17.76469
17.14572
16.61304
16.25919
16.05021
15.90572
15.68869
15.29137
14.63362
13.71449
12.54536
11.25479
9.989326
8.867855
7.999825
7.365891
6.851715
6.29422
5.561272
4.541172
3.225018
1.628151
-0.2622108
-2.395699
-4.688358
-7.051907
-9.320789
-11.43848
-13.39988
-15.27199
-17.09917
-18.93767
-20.78358
-22.69587
-24.73433
-26.92815
-29.17136
-31.09977
-32.1821
-31.82721
-29.74465
-26.00035
-21.11411
-15.83371
-10.86954
-6.672588
-3.323761
-0.6100922
1.782146
4.054001
6.286972
8.366982
10.10507
11.35452
12.09076
12.43014
12.63944
12.91799
13.35347
13.86038
14.26205
14.3518
14.06256
13.47167
12.78942
12.22248
11.84025
11.50768
10.97195
10.07565
8.804199
7.390575
6.184622
5.463247
5.330564
5.671277
6.231488
6.781483
7.228137
7.571998
7.88903
8.166024
8.258214
7.923582
6.918148
5.17554
2.815056
0.1022115
-2.635541
-5.15082
-7.299654
-9.138124
-10.72724
-12.24388
-13.88602
-15.81558
-18.19061
-21.05234
-24.21815
-27.25633
-29.54932
-30.34569
-29.15943
-25.95024
-21.14902
-15.53887
-9.998121
-5.175541
-1.375168
1.40616
3.467097
5.070425
6.382303
7.46376
8.312818
8.956117
9.471877
9.971082
10.48081
10.99987
11.46106
11.81211
12.13523
12.51139
13.12296
14.0507
15.15936
16.14523
16.60663
16.20301
14.80324
12.59842
9.910894
7.220524
4.969616
3.416536
2.621656
2.416632
2.465488
2.417061
2.038694
1.223101
0.05298805
-1.293186
-2.709848
-4.160988
-5.72419
-7.492699
-9.446266
-11.39882
-13.12406
-14.44252
-15.30384
-15.85202
-16.26854
-16.78384
-17.54818
-18.64005
-20.07021
-21.85101
-23.89092
-25.95128
-27.61936
-28.35903
-27.67226
-25.34614
-21.53977
-16.7818
-11.77573
-7.132965
-3.207439
-0.0294838
2.568218
4.807289
6.768391
8.448204
9.771839
10.69752
11.30725
11.71399
12.02326
12.28477
12.47643
12.49154
12.27536
11.77647
11.03917
10.19146
9.392452
8.840107
8.69545
8.994854
9.661118
10.46387
11.11362
11.3419
11.05079
10.31024
9.280762
8.16465
7.086864
6.068298
5.024143
3.882378
2.63205
1.379135
0.3063774
-0.4310913
-0.7461433
-0.7184677
-0.5810356
-0.6631966
-1.252132
-2.481583
-4.297604
-6.522316
-8.937088
-11.38213
-13.77608
-16.09034
-18.30281
-20.42778
-22.45057
-24.42033
-26.36155
-28.22028
-29.75668
-30.59595
-30.27006
-28.46424
-25.21103
-20.87984
-16.11442
-11.56494
-7.686977
-4.602013
-2.155533
-0.03194046
2.085049
4.321625
6.62067
8.779648
10.58977
11.89877
12.70483
13.14202
13.40223
13.70387
14.18954
14.88547
15.73201
16.57017
17.25809
17.69247
17.8351
17.717
17.43906
17.12724
16.87182
16.68358
16.47944
16.15364
15.65532
14.97457
14.2155
13.50513
12.89898
12.37446
11.82405
11.07543
10.02017
8.653131
7.055588
5.408495
3.884485
2.616152
1.63839
0.9146233
0.2685986
-0.5311756
-1.682224
-3.294956
-5.318624
-7.615242
-9.990063
-12.31717
-14.54952
-16.7366
-18.94985
-21.23175
-23.62554
-26.13511
-28.70502
-31.1564
-33.11372
-34.04809
-33.4281
-30.91941
-26.61274
-21.1133
-15.28999
-10.04745
-5.999077
-3.27985
-1.623577
-0.5159626
0.5431004
1.873655
3.538452
5.429165
7.35836
9.130085
10.64222
11.83776
12.71408
13.31172
13.6694
13.88158
14.03851
14.25817
14.58597
15.07078
15.67209
16.24228
16.60464
16.56686
16.07061
15.17902
14.09823
13.03204
12.15713
11.53965
11.18348
11.01528
10.95039
10.8868
10.67755
10.20065
9.350262
8.153572
6.768826
5.42297
4.292059
3.428852
2.697447
1.871119
0.7434444
-0.8062344
-2.814251
-5.184252
-7.758879
-10.31316
-12.64091
-14.58386
-16.11449
-17.37849
-18.66978
-20.35108
-22.63144
-25.47276
-28.42911
-30.73913
-31.55029
-30.28303
-26.82483
-21.69623
-15.84368
-10.32876
-6.022411
-3.286139
-1.995157
-1.688478
-1.806471
-1.830843
-1.499563
-0.7134991
0.4840698
1.960911
3.566624
5.185417
6.737619
8.184698
9.559574
10.90115
12.19618
13.41118
14.44369
15.24484
15.80917
16.20157
16.48709
16.66704
16.67119
16.40017
15.84826
15.08432
14.35824
13.8758
13.77907
14.02478
14.40984
14.63486
14.48652
13.86612
12.77937
11.39751
9.914529
8.547809
7.389345
6.385135
5.344134
4.005965
2.19351
-0.08146858
-2.601863
-5.06956
-7.192303
-8.849477
-10.08084
-11.06993
-12.04523
-13.28342
-15.02848
-17.48905
-20.69116
-24.3655
-27.87832
-30.39332
-31.11706
-29.6134
-26.04387
-21.06023
-15.55374
-10.33766
-5.871475
-2.195723
0.856657
3.472153
5.688734
7.419365
8.6026
9.275188
9.591074
9.791306
10.08852
10.54826
11.1846
11.88575
12.58849
13.20307
13.73808
14.12536
14.39897
14.53463
14.4806
14.17407
13.53145
12.58262
11.38391
10.10759
8.920666
7.982603
7.330566
6.877703
6.477619
5.99173
5.303417
4.333302
3.09741
1.649834
0.05230141
-1.576004
-3.146299
-4.572943
-5.833588
-7.040651
-8.329382
-9.868839
-11.69929
-13.75104
-15.82012
-17.77032
-19.5912
-21.48339
-23.75444
-26.55748
-29.74987
-32.72341
-34.67447
-34.79572
-32.6935
-28.56326
-23.09779
-17.29937
-12.02765
-7.805254
-4.659739
-2.253974
-0.09624481
2.128247
4.47364
6.806366
8.850928
10.40629
11.44905
12.09748
12.55884
12.98973
13.407
13.71664
13.84557
13.81137
13.77118
13.93489
14.42
15.16117
15.90259
16.35701
16.28668
15.70627
14.77694
13.76025
12.86772
12.15841
11.53217
10.81828
9.890285
8.710217
7.39604
6.131843
5.129244
4.518887
4.270161
4.137052
3.833289
3.038526
1.547699
-0.7178963
-3.623255
-6.875359
-10.06261
-12.83269
-14.95579
-16.40814
-17.3953
-18.27186
-19.44316
-21.20683
-23.65474
-26.61879
-29.74129
-32.44577
-34.09148
-34.10786
-32.167
-28.33693
-23.16888
-17.53384
-12.31883
-8.155008
-5.19343
-3.140732
-1.48576
0.1917
2.08931
4.126291
6.072117
7.752121
9.120138
10.21885
11.15106
12.00278
12.86101
13.72482
14.64927
15.59785
16.51197
17.34352
18.05448
18.64905
19.17939
19.68141
20.08823
20.31466
20.24789
19.81428
19.04326
18.06372
17.04004
16.08949
15.25787
14.53876
13.90345
13.3172
12.7164
11.99187
11.03684
9.784557
8.258137
6.61047
5.042679
3.697365
2.603016
1.62458
0.6040154
-0.6379623
-2.125015
-3.825184
-5.558964
-7.178085
-8.611473
-9.923073
-11.26556
-12.86197
-14.98151
-17.78304
-21.33488
-25.52372
-30.06199
-34.4551
-38.10693
-40.32239
-40.52305
-38.35075
-33.88763
-27.67049
-20.56994
-13.59097
-7.580875
-2.970284
0.2713814
2.50988
4.256687
5.894089
7.559925
9.227169
10.77642
12.17105
13.53195
14.99035
16.55398
18.09145
19.39536
20.2428
20.664
20.8649
21.06704
21.41858
21.82238
22.01046
21.72829
20.98411
19.93233
18.88575
18.06749
17.4671
16.90042
16.13358
15.02684
13.66512
12.30252
11.12699
10.21301
9.492188
8.737759
7.808552
6.613464
5.237022
3.836891
2.544846
1.374908
0.2679291
-0.8899536
-2.208099
-3.690166
-5.321106
-7.052975
-8.861286
-10.76714
-12.76347
-14.79879
-16.78706
-18.69769
-20.52351
-22.39324
-24.48134
-26.85652
-29.40878
-31.76325
-33.33513
-33.52554
-31.95217
-28.51934
-23.52584
-17.60015
-11.46175
-5.794361
-1.004253
2.788719
5.637981
7.716965
9.202686
10.22413
10.87608
11.29332
11.66086
12.17971
13.03814
14.25322
15.73448
17.25363
18.6004
19.66916
20.44227
21.0005
21.38216
21.53375
21.31029
20.63672
19.55075
18.27709
17.17969
16.51208
16.32454
16.40203
16.3768
15.85402
14.61157
12.63821
10.10128
7.308212
4.519943
1.971527
-0.173111
-1.875015
-3.19128
-4.292858
-5.42358
-6.815536
-8.571171
-10.7013
-13.05637
-15.41393
-17.64254
-19.63692
-21.4301
-23.13182
-24.91139
-26.94501
-29.3283
-31.94735
-34.40785
-36.12025
-36.38791
-34.69324
-30.95306
-25.57792
-19.41119
-13.38095
-8.193634
-4.161583
-1.189766
1.110374
3.131042
5.111458
7.093922
8.90715
10.39228
11.47572
12.24306
12.96087
13.9579
15.43825
17.39186
19.58316
21.618
23.08518
23.76594
23.67991
23.04209
22.11451
21.05837
19.86106
18.45842
16.87212
15.24643
13.89649
13.11308
13.03704
13.53365
14.22929
14.69602
14.64544
14.01035
12.90236
11.50407
9.916748
8.181599
6.243359
4.098637
1.821018
-0.5231056
-2.887074
-5.262466
-7.679878
-10.11266
-12.44172
-14.52208
-16.26229
-17.69568
-18.99371
-20.43069
-22.24501
-24.60722
-27.57085
-31.0764
-34.88883
-38.59325
-41.57391
-43.06923
-42.44429
-39.38388
-34.1354
-27.46556
-20.43598
-13.97675
-8.640888
-4.478073
-1.13401
1.813789
4.689823
7.51199
10.1307
12.34459
14.08235
15.4046
16.45237
17.35845
18.13691
18.79467
19.28878
19.65832
20.01305
20.44093
20.97805
21.5005
21.85314
21.81352
21.28238
20.26749
18.90008
17.397
15.93804
14.72718
13.86975
13.40085
13.19923
13.0367
12.6556
11.83392
10.60094
9.092327
7.567181
6.213642
5.087929
4.122101
3.174698
2.128834
0.8652725
-0.6456337
-2.466026
-4.63512
-7.191216
-10.05067
-13.00007
-15.76416
-18.10484
-19.96777
-21.5265
-23.12571
-25.16708
-27.86714
-31.09376
-34.24437
-36.48379
-36.93623
-35.03143
-30.80565
-24.8669
-18.28679
-12.18183
-7.409992
-4.295597
-2.620632
-1.800625
-1.159386
-0.2380104
1.162197
2.962303
4.985058
7.022171
8.959885
10.76634
12.44734
14.00663
15.36963
16.47663
17.30957
17.92463
18.45078
18.98929
19.57694
20.12093
20.50506
20.52704
20.12254
19.33773
18.3236
17.30449
16.46836
15.92469
15.60009
15.28492
14.65718
13.49359
11.69965
9.418465
6.930069
4.538979
2.483017
0.800724
-0.624073
-2.048531
-3.676266
-5.629158
-7.846344
-10.08968
-12.09284
-13.61157
-14.59927
-15.18911
-15.7591
-16.76326
-18.5931
-21.41573
-25.04168
-28.94611
-32.36262
-34.43855
-34.46733
-32.16324
-27.74989
-21.88895
-15.49152
-9.42218
-4.270927
-0.2490997
2.705662
4.847679
6.412457
7.550579
8.370098
8.908157
9.223511
9.441383
9.736694
10.28706
11.19201
12.451
13.91051
15.31969
16.43471
17.13265
17.47491
17.65142
17.86357
18.17225
18.46926
18.52631
18.12258
17.19436
15.87109
14.40437
12.98422
11.65483
10.32867
8.821457
7.001167
4.876614
2.547829
0.2105865
-1.978642
-3.963181
-5.753944
-7.412952
-9.024242
-10.62384
-12.1979
-13.73472
-15.19918
-16.65926
-18.20324
-19.97341
-22.09251
-24.63215
-27.59504
-30.88282
-34.26591
-37.34962
-39.54117
-40.12665
-38.5467
-34.60013
-28.60711
-21.39032
-13.97728
-7.244942
-1.678322
2.655762
5.980881
8.509697
10.31775
11.40865
11.76057
11.54479
11.15625
10.99125
11.29156
12.06969
13.10514
14.11893
14.99522
15.79447
16.74258
18.03997
19.62305
21.26028
22.59647
23.30692
23.29993
22.69745
21.66226
20.42996
19.10822
17.66492
16.1329
14.56566
13.03246
11.58781
10.2813
8.982498
7.580063
5.954636
4.011635
1.804787
-0.5355453
-2.925636
-5.305595
-7.635956
-10.00984
-12.46598
-14.972
-17.47287
-19.83936
-21.97662
-23.9738
-26.00748
-28.34819
-31.18331
-34.38512
-37.45223
-39.57928
-39.89086
-37.76798
-33.18451
-26.71767
-19.41611
-12.46181
-6.687363
-2.363174
0.7454376
3.19709
5.545868
8.018753
10.55891
12.94744
14.93015
16.43874
17.59425
18.5779
19.61873
20.85503
22.25437
23.71217
25.0691
26.09074
26.60876
26.60168
26.1696
25.47924
24.68053
23.76891
22.66679
21.30637
19.65089
17.83083
16.14145
14.85378
14.08607
13.71063
13.37551
12.7131
11.48887
9.669792
7.454811
5.193558
3.163086
1.497482
0.1655502
-1.052734
-2.398514
-4.101532
-6.235069
-8.703857
-11.20524
-13.44387
-15.19202
-16.41562
-17.32886
-18.24084
-19.48637
-21.3556
-23.96408
-27.28297
-31.09035
-34.85555
-37.82958
-39.20786
-38.32483
-34.97996
-29.53687
-22.8577
-15.99767
-9.862282
-4.912064
-1.072586
1.982407
4.727531
7.464638
10.24776
12.99461
15.55685
17.8503
19.86346
21.66719
23.20164
24.39868
25.15115
25.42153
25.29286
24.87154
24.29338
23.61106
22.80663
21.80957
20.60128
19.18134
17.67597
16.20663
14.83061
13.62264
12.58472
11.6985
10.91396
10.14936
9.258659
8.112587
6.68856
4.982399
3.148865
1.312393
-0.4586792
-2.233429
-4.141464
-6.269852
-8.606422
-10.91611
-12.99349
-14.61076
-15.71798
-16.44886
-17.11049
-18.05933
-19.59046
-21.89104
-24.87917
-28.23864
-31.33261
-33.40569
-33.72349
-31.83975
-27.81166
-22.14157
-15.70039
-9.442184
-4.125145
-0.05099487
2.840096
4.910088
6.579399
8.150406
9.719353
11.17686
12.35424
13.14941
13.61753
13.978
14.47385
15.31772
16.5254
17.92292
19.23219
20.22475
20.81447
21.06521
21.15028
21.12897
20.91019
20.27433
18.97437
16.96954
14.54542
12.1782
10.34341
9.314659
8.963894
8.887871
8.574718
7.633091
5.974495
3.787468
1.370171
-1.040791
-3.366558
-5.769455
-8.442081
-11.46236
-14.70942
-17.83504
-20.42381
-22.19218
-23.10977
-23.44393
-23.68912
-24.33908
-25.73233
-27.9301
-30.66679
-33.46963
-35.74963
-36.8622
-36.30745
-33.83257
-29.51339
-23.82801
-17.5905
-11.63646
-6.640381
-2.920547
-0.3092613
1.626038
3.438953
5.521515
7.985142
10.64042
13.25673
15.5642
17.42333
18.8501
19.93848
20.85025
21.67827
22.45927
23.14286
23.68419
24.00545
24.08121
23.87252
23.33247
22.45491
21.25674
19.80379
18.25358
16.81817
15.6807
14.93442
14.5345
14.23421
13.69454
12.61417
10.8621
8.532883
5.93388
3.450935
1.443077
0.09058762
-0.6691856
-1.045593
-1.386047
-2.046097
-3.273788
-5.138824
-7.5214
-10.17535
-12.81589
-15.24236
-17.33003
-19.14238
-20.82673
-22.61268
-24.7236
-27.34307
-30.48831
-33.90869
-36.9984
-38.93402
-38.92484
-36.52042
-31.83054
-25.5037
-18.52479
-11.88259
-6.243134
-1.833492
1.507156
4.1516
6.46986
8.691498
10.83314
12.8035
14.46519
15.72532
16.57696
17.08146
17.4082
17.69414
17.97481
18.17626
18.21815
18.03999
17.7204
17.39764
17.18837
17.1426
17.12154
16.9213
16.37648
15.47382
14.30769
13.10869
12.1156
11.45862
11.18645
11.14681
11.14006
10.93738
10.41984
9.548058
8.46714
7.389816
6.447727
5.638458
4.797127
3.666201
2.041882
-0.1235027
-2.761593
-5.637964
-8.505594
-11.17268
-13.52885
-15.5676
-17.44077
-19.37618
-21.64977
-24.44756
-27.71887
-31.11822
-34.04206
-35.66017
-35.29009
-32.59049
-27.73787
-21.38626
-14.5016
-8.057566
-2.77664
1.01705
3.490271
5.065037
6.256046
7.494338
8.993048
10.68616
12.35691
13.74453
14.67603
15.17816
15.40829
15.60512
15.96882
16.59354
17.39165
18.25419
19.03065
19.56226
19.71331
19.34726
18.3526
16.73135
14.61006
12.22096
9.907954
7.975366
6.530078
5.559919
4.859637
4.184649
3.300152
2.072694
0.4390643
-1.560032
-3.8739
-6.449894
-9.138757
-11.78663
-14.17329
-16.15647
-17.65451
-18.72343
-19.58488
-20.50659
-21.78201
-23.56559
-25.87955
-28.54134
-31.13305
-33.05717
-33.68312
-32.51128
-29.38446
-24.59061
-18.74952
-12.71241
-7.23265
-2.753302
0.6345816
3.165547
5.153557
6.848965
8.372277
9.74297
10.95703
12.05363
13.1126
14.18024
15.23727
16.15815
16.80047
17.0604
16.96124
16.6446
16.29035
16.03032
15.87803
15.76553
15.57023
15.23902
14.74984
14.10405
13.26795
12.19612
10.83075
9.241722
7.578271
6.013905
4.649752
3.43699
2.14092
0.5311222
-1.480216
-3.797152
-6.13176
-8.234985
-9.983639
-11.44632
-12.80095
-14.19364
-15.65475
-17.12422
-18.60672
-20.21603
-22.15399
-24.61155
-27.5405
-30.558
-32.9535
-33.88654
-32.67323
-29.13834
-23.66463
-17.14143
-10.66694
-5.148488
-1.09918
1.488317
3.032315
4.089806
5.107693
6.320788
7.745137
9.287936
10.8282
12.26644
13.54364
14.64911
15.61757
16.52111
17.38859
18.15396
18.68242
18.85283
18.6297
18.11525
17.57567
17.23871
17.20525
17.35513
17.41825
17.05965
16.05354
14.34272
12.04212
9.434187
6.778113
4.282312
2.090369
0.2464896
-1.275612
-2.524481
-3.580551
-4.569228
-5.588422
-6.766364
-8.148561
-9.696917
-11.29393
-12.81915
-14.24573
-15.67126
-17.32318
-19.44174
-22.16459
-25.38977
-28.73971
-31.64733
-33.44259
-33.5999
-31.81244
-28.15853
-23.08281
-17.27913
-11.50505
-6.355715
-2.192746
0.9924541
3.444301
5.505303
7.402958
9.274492
11.09392
12.78572
14.32868
15.66796
16.8171
17.76949
18.54267
19.06993
19.35263
19.40827
19.23189
18.88067
18.37478
17.75799
17.11064
16.50718
15.9808
15.50107
15.04679
14.56962
14.05055
13.47729
12.75833
11.76206
10.40018
8.726561
6.952658
5.387025
4.290782
3.792797
3.816051
4.185855
4.653687
4.913309
4.654066
3.661785
1.800325
-0.8433604
-3.924575
-6.981508
-9.645864
-11.76016
-13.55126
-15.46938
-17.94564
-21.23105
-25.17191
-29.23727
-32.61497
-34.50402
-34.35106
-32.00529
-27.79737
-22.39845
-16.61003
-11.1265
-6.39304
-2.5607
0.4234126
2.741174
4.618666
6.269854
7.843999
9.425697
11.00345
12.53433
13.93926
15.15765
16.15166
16.8945
17.35686
17.52613
17.43709
17.24016
17.12415
17.28938
17.77027
18.42263
18.94727
18.9804
18.31534
16.97492
15.2232
13.38201
11.73328
10.37243
9.275675
8.365823
7.531369
6.703125
5.814506
4.838373
3.696988
2.338099
0.7043462
-1.205588
-3.368698
-5.738046
-8.161341
-10.4345
-12.27997
-13.51742
-14.13661
-14.3523
-14.51761
-15.03495
-16.19415
-18.04606
-20.40491
-22.85676
-24.84539
-25.81133
-25.33648
-23.34772
-20.07299
-15.99895
-11.69587
-7.645628
-4.125156
-1.145004
1.472855
3.936621
6.291618
8.449385
10.22966
11.43937
11.97982
11.90977
11.48079
10.97412
10.62137
10.47757
10.47547
10.53577
10.57952
10.60732
10.69715
10.93255
11.26493
11.51239
11.4521
10.94973
10.06919
9.039755
8.125452
7.500729
7.095591
6.694155
6.038523
5.026854
3.790855
2.575426
1.605825
0.9204292
0.3809605
-0.3106651
-1.357254
-2.834217
-4.644962
-6.619812
-8.608154
-10.50654
-12.33548
-14.10655
-15.89464
-17.72206
-19.60866
-21.61182
-23.8017
-26.15381
-28.4813
-30.34837
-31.1301
-30.25971
-27.45567
-22.89435
-17.24226
-11.4123
-6.249779
-2.264965
0.5336342
2.482758
4.028442
5.506203
7.001381
8.417095
9.591217
10.45311
11.05296
11.57263
12.17576
12.881
13.59898
14.16087
14.41596
14.3346
14.01883
13.59453
13.17761
12.78337
12.3135
11.72588
11.05983
10.41738
9.949406
9.716888
9.633453
9.575096
9.471504
9.274422
9.070301
8.847351
8.521816
7.959751
7.06879
5.86396
4.517193
3.273411
2.199921
1.224617
0.06150436
-1.588497
-3.808662
-6.390068
-8.981384
-11.20458
-12.87477
-14.08086
-15.0877
-16.23762
-17.8422
-20.07023
-22.93358
-26.2689
-29.68104
-32.60795
-34.401
-34.46741
-32.49368
-28.57832
-23.19481
-17.09767
-11.05876
-5.699669
-1.313919
2.056187
4.643166
6.675537
8.304913
9.578522
10.41961
10.75404
10.64817
10.31974
10.00329
10.00774
10.39156
11.08723
12.00919
13.09825
14.42391
16.0678
18.01147
20.00066
21.66591
22.57037
22.46099
21.42006
19.76233
17.98601
16.47135
15.40775
14.65606
13.9718
13.10394
11.88436
10.36821
8.718315
7.159962
5.870472
4.870556
4.013596
3.066746
1.785706
-0.01620483
-2.283981
-4.861732
-7.427822
-9.61327
-11.18942
-12.07236
-12.46667
-12.73429
-13.37472
-14.76098
-17.16008
-20.49571
-24.29035
-27.80732
-30.0997
-30.4363
-28.49214
-24.56541
-19.38941
-13.93132
-9.016758
-5.005177
-1.866169
0.7139778
3.034992
5.240067
7.250351
8.925484
10.15448
10.9474
11.40206
11.61185
11.69786
11.72769
11.76389
11.88638
12.15079
12.57791
13.11
13.61718
13.90029
13.87257
13.48193
12.77615
11.90834
11.01995
10.25118
9.626564
9.143627
8.717953
8.256477
7.745296
7.195633
6.633221
6.001461
5.203304
4.036186
2.394047
0.230751
-2.349739
-5.139511
-7.932899
-10.57197
-12.98759
-15.10663
-16.8899
-18.29439
-19.38264
-20.32699
-21.38913
-22.8228
-24.67766
-26.75378
-28.5377
-29.37418
-28.74931
-26.47405
-22.79141
-18.22314
-13.49977
-9.199703
-5.668297
-2.889465
-0.6464615
1.32766
3.218201
5.085743
6.946823
8.763752
10.53672
12.20059
13.63737
14.68375
15.21069
15.23494
14.91679
14.51482
14.27281
14.35649
14.75621
15.30202
15.79462
15.988
15.72199
14.90989
13.5935
11.96941
10.39309
9.218372
8.595558
8.435219
8.351505
7.941929
6.963848
5.503193
3.883858
2.456921
1.375858
0.5166397
-0.4082184
-1.711285
-3.480659
-5.609585
-7.846233
-9.969719
-11.85613
-13.51164
-14.97305
-16.28762
-17.53694
-18.8505
-20.41618
-22.42444
-24.8404
-27.34966
-29.31955
-30.00396
-28.78017
-25.47074
-20.44576
-14.54008
-8.785057
-3.960815
-0.4491272
1.916431
3.532249
4.904938
6.305077
7.758224
9.067093
9.996037
10.41218
10.32883
9.884594
9.284168
8.786968
8.61269
8.946537
9.867268
11.33836
13.14994
15.00213
16.59753
17.72124
18.24994
18.16431
17.50648
16.38566
14.99113
13.57389
12.39993
11.66492
11.3464
11.18291
10.8306
10.04151
8.818943
7.347118
5.880726
4.512199
3.131706
1.439823
-0.7948608
-3.576271
-6.587196
-9.348953
-11.45516
-12.77998
-13.49436
-14.01688
-14.81113
-16.19872
-18.34081
-21.18129
-24.44693
-27.64059
-30.11808
-31.15143
-30.19071
-27.04583
-22.06682
-16.12617
-10.26093
-5.384113
-1.955208
0.07084274
1.142483
1.835083
2.681976
3.988014
5.755268
7.876926
10.14529
12.41449
14.57359
16.56373
18.32127
19.78283
20.86651
21.50127
21.72021
21.57991
21.18034
20.59192
19.84477
18.92863
17.83619
16.62027
15.38757
14.28574
13.41658
12.86893
12.70045
12.84293
13.10919
13.17901
12.68243
11.3544
9.213223
6.487015
3.61451
1.09623
-0.7804947
-1.982647
-2.774063
-3.512474
-4.532997
-5.997604
-7.89048
-10.05847
-12.27187
-14.3776
-16.32932
-18.19387
-20.07207
-22.07113
-24.22648
-26.45054
-28.52966
-30.07731
-30.62001
-29.71665
-27.09485
-22.81012
-17.31814
-11.36117
-5.748962
-1.077225
2.410309
4.884369
6.73769
8.292145
9.650436
10.70607
11.26651
11.28507
10.95192
10.59578
10.56752
11.00972
11.80474
12.64683
13.25571
13.50879
13.45773
13.26309
13.04535
12.79359
12.39479
11.73166
10.77226
9.660572
8.587116
7.738537
7.191616
6.894657
6.709938
6.557579
6.37077
6.170715
5.919907
5.459476
4.626106
3.331013
1.609619
-0.3397789
-2.272739
-4.06216
-5.725983
-7.434998
-9.298729
-11.26617
-13.08939
-14.51295
-15.41824
-15.92479
-16.42159
-17.36726
-19.10374
-21.6388
-24.57418
-27.23132
-28.83673
-28.74408
-26.72164
-23.04568
-18.36555
-13.51917
-9.197678
-5.707088
-3.002308
-0.781868
1.389034
3.796829
6.501362
9.366512
12.1451
14.50587
16.24984
17.28246
17.6651
17.54932
17.11142
16.44243
15.59222
14.60915
13.54689
12.54744
11.7141
11.10031
10.65979
10.24846
9.755608
9.148857
8.47142
7.82848
7.360199
7.122147
7.13736
7.336311
7.553822
7.553947
7.130352
6.131676
4.615307
2.849636
1.209122
0.001083374
-0.6245766
-0.8488235
-1.03952
-1.582535
-2.725945
-4.486801
-6.679054
-9.064903
-11.40028
-13.4994
-15.21727
-16.53082
-17.5191
-18.49918
-19.85233
-21.89178
-24.66227
-27.73811
-30.33537
-31.56017
-30.78291
-27.84938
-23.21136
-17.69685
-12.19164
-7.406837
-3.635551
-0.8024826
1.409492
3.319305
5.160782
6.944595
8.548241
9.857872
10.81519
11.48734
11.97033
12.39112
12.82949
13.33684
13.97476
14.76332
15.72259
16.77441
17.81596
18.68391
19.25228
19.44932
19.26508
18.70682
17.82654
16.69007
15.34206
13.83725
12.27197
10.71217
9.282825
8.095963
7.202339
6.546791
5.990578
5.33403
4.440231
3.346169
2.20158
1.201714
0.5269203
0.1742096
-0.0640564
-0.4255142
-1.134132
-2.312347
-3.930817
-5.864624
-7.976555
-10.08486
-12.07961
-13.93866
-15.69813
-17.47826
-19.42339
-21.65987
-24.24326
-27.06444
-29.83193
-32.05571
-33.18326
-32.71014
-30.4306
-26.52578
-21.54721
-16.30867
-11.61673
-7.993156
-5.55526
-4.06118
-2.99157
-1.892387
-0.4155121
1.571167
3.961243
6.535603
9.049011
11.25187
12.99552
14.23236
14.99333
15.40113
15.65258
15.94142
16.44866
17.29351
18.42454
19.67591
20.76898
21.39713
21.30915
20.4579
18.97524
17.13917
15.28245
13.66555
12.41761
11.49776
10.69652
9.739895
8.417271
6.635273
4.550808
2.493088
0.8565521
-0.0545845
-0.2044106
0.1210518
0.4700317
0.3093071
-0.7212677
-2.69611
-5.424122
-8.521301
-11.54636
-14.18357
-16.37398
-18.25463
-20.10545
-22.22832
-24.76691
-27.73554
-30.91066
-33.8064
-35.79078
-36.23486
-34.69231
-31.0566
-25.66796
-19.22249
-12.5754
-6.474648
-1.375648
2.586132
5.498074
7.578217
9.024242
9.994286
10.65107
11.14005
11.5955
12.11975
12.73635
13.43234
14.17865
14.87957
15.44875
15.83533
16.03637
16.10547
16.1542
16.27853
16.49795
16.77007
16.87087
16.63643
15.99078
15.03407
13.98788
13.04675
12.28906
11.51322
10.40828
8.708179
6.407078
3.78545
1.264061
-0.7259293
-1.976372
-2.508282
-2.599285
-2.600716
-2.805855
-3.389893
-4.362453
-5.666538
-7.113052
-8.535339
-9.81451
-11.00122
-12.29434
-14.04604
-16.58631
-19.9782
-23.97186
-27.89418
-30.91328
-32.25734
-31.45314
-28.57586
-24.15927
-19.03697
-13.99268
-9.581291
-5.952579
-2.990795
-0.4434013
1.971626
4.350677
6.670162
8.733589
10.36639
11.4616
12.068
12.35444
12.56626
12.95192
13.52859
14.23547
14.83199
15.15669
15.17379
15.03011
14.90011
14.8893
14.9459
14.87165
14.54701
13.94721
13.13917
12.27449
11.44169
10.61101
9.707285
8.664358
7.450756
6.100903
4.640528
3.016689
1.146559
-1.003811
-3.445154
-6.096239
-8.789503
-11.37445
-13.68158
-15.64335
-17.28993
-18.71786
-20.12261
-21.75526
-23.82984
-26.45026
-29.53849
-32.70761
-35.36555
-36.80984
-36.4127
-33.91184
-29.48896
-23.71748
-17.45011
-11.47893
-6.342052
-2.260451
0.817256
3.086
4.789383
6.126982
7.318581
8.505626
9.752588
11.08053
12.41482
13.68543
14.89481
16.10297
17.37266
18.69662
19.86527
20.63142
20.82543
20.4134
19.57705
18.59193
17.71751
17.08187
16.70231
16.49827
16.43424
16.52581
16.74766
17.06571
17.26787
17.10902
16.31527
14.75935
12.44546
9.591246
6.496414
3.448635
0.7290382
-1.59395
-3.569799
-5.406199
-7.328453
-9.502897
-11.90224
-14.36141
-16.64768
-18.52302
-19.92661
-20.96433
-21.93346
-23.23962
-25.23711
-28.11292
-31.67268
-35.32294
-38.13741
-39.14041
-37.64888
-33.53872
-27.4028
-20.27101
-13.32146
-7.401867
-2.850281
0.5102673
3.055872
5.24995
7.376301
9.49789
11.56853
13.42389
15.00073
16.29334
17.45649
18.60479
19.87385
21.24296
22.54406
23.5817
24.14105
24.18158
23.81192
23.24996
22.66339
22.11593
21.48782
20.58637
19.26448
17.46623
15.3243
13.06837
10.91653
9.085655
7.696102
6.759056
6.200027
5.931232
5.788361
5.629158
5.320332
4.777424
4.035858
3.14859
2.196014
1.133762
-0.1530838
-1.961491
-4.460068
-7.646572
-11.30944
-15.00397
-18.33015
-21.08848
-23.3481
-25.45094
-27.85713
-30.87899
-34.48516
-38.30622
-41.57497
-43.40961
-43.03364
-40.05873
-34.65202
-27.54356
-19.81856
-12.48884
-6.256912
-1.277527
2.739792
6.320351
9.952599
13.92569
18.29251
22.83046
27.18626
30.86589
33.51982
34.87957
34.97294
34.0318
32.38145
30.37096
28.24213
26.13477
24.16019
22.48203
21.24461
20.56078
20.40056
20.54681
20.65769
20.41479
19.67494
18.44994
16.96005
15.42766
13.93942
12.45782
10.86472
9.025688
6.901833
4.590324
2.2584
0.1131363
-1.686218
-3.114059
-4.248543
-5.279518
-6.458427
-7.966698
-9.848961
-11.97294
-14.08803
-15.97401
-17.57819
-19.08725
-20.84446
-23.20501
-26.3373
-30.1015
-34.08076
-37.59179
-39.86747
-40.25041
-38.36337
-34.31126
-28.62516
-22.14281
-15.75404
-10.16175
-5.641869
-2.064507
0.9617004
3.863823
6.860611
9.953613
12.89401
15.3487
17.03414
17.86555
17.96764
17.65376
17.26599
17.051
17.14388
17.50764
18.00952
18.51175
18.89651
19.04611
18.9008
18.43444
17.69559
16.82402
15.97301
15.24663
14.6621
14.12858
13.51595
12.66862
11.46422
9.863777
7.931709
5.795891
3.608421
1.517128
-0.4722214
-2.403648
-4.420357
-6.656761
-9.167152
-11.86404
-14.63518
-17.32419
-19.79
-22.00567
-24.01991
-25.91153
-27.82919
-29.93973
-32.33372
-34.96594
-37.55423
-39.57368
-40.42017
-39.56983
-36.79332
-32.25515
-26.48354
-20.19839
-14.07356
-8.575813
-3.867928
0.05883026
3.35759
6.209824
8.78109
11.1904
13.4852
15.67719
17.68237
19.41218
20.70848
21.57365
22.04514
22.23329
22.2754
22.3065
22.44347
22.75105
23.31435
24.12587
25.12089
26.03927
26.50425
26.14931
24.78262
22.52307
19.76878
17.07469
14.91145
13.46251
12.58189
11.84921
10.85529
9.378677
7.442192
5.234497
3.058891
1.074501
-0.7569962
-2.597641
-4.687279
-7.146523
-9.950371
-12.91904
-15.86361
-18.59969
-21.0838
-23.4189
-25.74157
-28.25538
-31.1204
-34.43069
-38.1256
-41.86184
-44.98955
-46.65089
-46.09325
-42.92684
-37.39931
-30.29304
-22.65136
-15.43564
-9.187164
-4.017838
0.3192291
4.180153
7.829788
11.29836
14.51305
17.34061
19.64179
21.41247
22.66114
23.47961
23.9939
24.32347
24.57849
24.83795
25.19159
25.68388
26.31073
26.96318
27.44104
27.55128
27.18095
26.33365
25.0883
23.60428
22.0358
20.51212
19.09239
17.82037
16.76692
15.92499
15.29791
14.77451
14.15993
13.26575
11.9855
10.34431
8.46402
6.520676
4.564819
2.5737
0.3978577
-2.124512
-5.046875
-8.295639
-11.61867
-14.76823
-17.57849
-20.02414
-22.20301
-24.25526
-26.38451
-28.77312
-31.53174
-34.59073
-37.65072
-40.17139
-41.48598
-40.922
-38.12897
-33.20993
-26.74394
-19.6259
-12.76356
-6.821342
-2.066612
1.608902
4.499985
6.89283
8.982773
10.83923
12.48688
13.96706
15.35312
16.75462
18.196
19.58086
20.7246
21.48349
21.81683
21.84609
21.73694
21.67908
21.79893
22.10159
22.48677
22.79989
22.90553
22.6927
22.06218
20.96406
19.3792
17.40442
15.19606
12.95885
10.88608
9.097404
7.612
6.373398
5.291351
4.297714
3.364212
2.481628
1.584526
0.5322113
-0.9245682
-3.014633
-5.814774
-9.17627
-12.71748
-15.96684
-18.5362
-20.31995
-21.48027
-22.4409
-23.71049
-25.60744
-28.17278
-31.08565
-33.68953
-35.16792
-34.7588
-32.00619
-26.9903
-20.34155
-13.05749
-6.246483
-0.7105026
3.199738
5.675705
7.236618
8.462448
9.74292
11.16911
12.61365
13.83264
14.71222
15.26787
15.6758
16.14983
16.80136
17.64705
18.54381
19.34959
19.87194
20.04462
19.89393
19.45534
18.75878
17.78195
16.46423
14.79214
12.87096
10.92176
9.231522
8.008377
7.255028
6.759041
6.170212
5.1875
3.68869
1.786217
-0.3265533
-2.476624
-4.651932
-6.950989
-9.476891
-12.22081
-14.98446
-17.51401
-19.6031
-21.27586
-22.80286
-24.57786
-26.9991
-30.25096
-34.22939
-38.46717
-42.21029
-44.55768
-44.71203
-42.22128
-37.16904
-30.16206
-22.16485
-14.20653
-7.088959
-1.21138
3.444168
7.147263
10.23744
12.93577
15.26544
17.13726
18.41666
19.03706
19.12425
18.90874
18.64863
18.51412
18.5263
18.56816
18.5415
18.45885
18.46375
18.75083
19.39227
20.22809
20.9047
21.06248
20.53334
19.42654
18.07372
16.78866
15.7183
14.77415
13.76266
12.50622
10.94939
9.212631
7.447807
5.737991
4.071205
2.386147
0.576088
-1.42131
-3.63163
-6.082169
-8.709572
-11.38546
-13.93716
-16.19218
-18.07481
-19.62263
-21.06971
-22.73682
-24.96746
-27.99777
-31.79901
-36.02715
-40.01717
-42.89304
-43.72033
-41.88244
-37.28417
-30.50251
-22.60213
-14.78728
-7.999802
-2.640274
1.398949
4.537621
7.218422
9.696854
11.96354
13.90011
15.41951
16.55445
17.49088
18.41467
19.41924
20.50769
21.57722
22.48865
23.16657
23.58378
23.7594
23.72981
23.54707
23.18836
22.61211
21.74548
20.55372
19.04905
17.36014
15.67535
14.20193
13.05995
12.19747
11.42578
10.53028
9.373283
8.010353
6.617653
5.382813
4.420097
3.660812
2.925018
1.981888
0.679985
-1.070534
-3.261307
-5.823196
-8.632141
-11.47537
-14.17323
-16.49846
-18.37753
-19.85874
-21.18831
-22.71533
-24.77911
-27.51247
-30.70471
-33.77405
-35.89134
-36.19172
-34.15542
-29.81507
-23.79074
-17.09539
-10.72984
-5.410843
-1.377357
1.519386
3.649117
5.377068
6.966377
8.582695
10.30376
12.19347
14.25606
16.48101
18.74505
20.86584
22.62724
23.87878
24.58749
24.81876
24.75274
24.53446
24.31164
24.08779
23.76569
23.20028
22.21337
20.76192
18.78783
16.41296
13.84486
11.34713
9.239326
7.703915
6.749107
6.169395
5.709686
5.144306
4.433727
3.689281
2.965538
2.221695
1.21793
-0.3293381
-2.615299
-5.530716
-8.685081
-11.60434
-13.91789
-15.6097
-16.8971
-18.18046
-19.80038
-22.01418
-24.85609
-28.18629
-31.66998
-34.69445
-36.61238
-36.74145
-34.76103
-30.82743
-25.57282
-19.92006
-14.71338
-10.44529
-7.098717
-4.348995
-1.740601
1.01268
3.904934
6.738911
9.249447
11.27613
12.85046
14.16831
15.41829
16.67258
17.83677
18.66942
18.92798
18.53729
17.59682
16.37365
15.1898
14.27426
13.69433
13.3358
12.95101
12.33594
11.34685
10.0266
8.499851
6.997192
5.739704
4.836599
4.251558
3.760843
3.038231
1.718826
-0.3823204
-3.274353
-6.706919
-10.30416
-13.6498
-16.46615
-18.64934
-20.29755
-21.66083
-23.08372
-24.90693
-27.375
-30.52499
-34.00229
-37.09212
-38.87028
-38.53826
-35.72208
-30.68268
-24.21347
-17.38216
-11.09085
-5.893232
-1.814674
1.394026
4.063482
6.449932
8.667112
10.74469
12.66973
14.48291
16.12913
17.55837
18.64853
19.31596
19.5432
19.4691
19.2886
19.25714
19.53564
20.16486
21.00629
21.80842
22.31301
22.26546
21.54182
20.11352
18.13146
15.80469
13.36031
10.96823
8.759104
6.778511
4.990835
3.27491
1.463957
-0.6040745
-2.957275
-5.530581
-8.119694
-10.48581
-12.48211
-14.06295
-15.29726
-16.3184
-17.27728
-18.31075
-19.64634
-21.45051
-23.89129
-26.94554
-30.33012
-33.38155
-35.28559
-35.28574
-32.91552
-28.29427
-22.01017
-15.04021
-8.417206
-2.915215
1.211838
4.112221
6.242298
8.125473
10.05607
12.10273
14.10628
15.83664
17.13705
18.01114
18.52528
18.84644
19.10221
19.3096
19.49248
19.58757
19.59906
19.55018
19.46617
19.35314
19.25497
19.20519
19.16368
19.11796
19.01895
18.82179
18.50197
17.99296
17.19396
15.99483
14.31273
12.07559
9.406216
6.511673
3.619183
1.008881
-1.192455
-2.941479
-4.26302
-5.251387
-6.039118
-6.691162
-7.333885
-8.074286
-8.96987
-10.1163
-11.53106
-13.22206
-15.2273
-17.5807
-20.29953
-23.44056
-26.98905
-30.69997
-34.1365
-36.60578
-37.32107
-35.71445
-31.6643
-25.61872
-18.53524
-11.53737
-5.462996
-0.7778511
2.569574
4.943392
6.728285
8.250275
9.643364
10.92507
12.15389
13.42038
14.82535
16.443
18.24056
20.05531
21.71601
23.01972
23.81744
24.1125
23.95667
23.4532
22.64644
21.62016
20.33862
18.87424
17.30612
15.76151
14.4009
13.24999
12.20542
11.14575
10.03225
8.871997
7.843611
7.09047
6.649863
6.409048
6.15461
5.692819
4.946275
3.947661
2.76652
1.408561
-0.1616111
-1.987
-4.020076
-6.127174
-8.1235
-9.836243
-11.21169
-12.34503
-13.41375
-14.62628
-16.20398
-18.2784
-20.88523
-23.9493
-27.18685
-30.13687
-32.19888
-32.75343
-31.44028
-28.26276
-23.62321
-18.15706
-12.58654
-7.48611
-3.111314
0.5053339
3.528546
6.159527
8.532993
10.6353
12.38374
13.64672
14.33185
14.47225
14.1845
13.68324
13.22387
12.97966
13.0737
13.48553
14.15501
14.91215
15.61402
16.13692
16.44547
16.57372
16.55537
16.37663
15.97114
15.29373
14.28355
12.9988
11.49039
9.802986
7.984066
5.993938
3.845512
1.69416
-0.2118607
-1.623863
-2.350994
-2.471767
-2.275333
-2.143997
-2.434231
-3.343208
-4.811802
-6.691452
-8.785645
-10.88298
-12.87838
-14.76761
-16.5835
-18.45094
-20.54367
-22.94045
-25.5965
-28.19437
-30.11163
-30.6563
-29.26562
-25.76795
-20.57048
-14.53907
-8.675915
-3.8241
-0.4047546
1.701786
2.908997
3.74485
4.619316
5.63839
6.697945
7.609886
8.172264
8.318512
8.132004
7.806671
7.609802
7.800369
8.444443
9.501442
10.7936
12.10735
13.2721
14.20898
14.83468
15.07809
14.85728
14.0993
12.85329
11.24272
9.451859
7.670639
6.004326
4.475853
3.026367
1.642097
0.3661423
-0.7292557
-1.539474
-2.082581
-2.454178
-2.83416
-3.431854
-4.421478
-5.902809
-7.78257
-9.911728
-11.97427
-13.75832
-15.1071
-16.08318
-16.89577
-17.87094
-19.33871
-21.42303
-24.01682
-26.64133
-28.61044
-29.22086
-28.03014
-24.98151
-20.43567
-15.05589
-9.597946
-4.770912
-1.011414
1.511108
2.890121
3.45929
3.60305
3.672447
3.925484
4.416588
5.060265
5.760712
6.47628
7.212364
8.077026
9.081017
10.12653
11.06475
11.75444
12.12432
12.23989
12.23636
12.18461
12.15761
12.09072
11.91097
11.56512
11.06973
10.50927
10.00784
9.619339
9.309311
8.975777
8.467384
7.692162
6.66993
5.486778
4.263443
3.091339
1.941414
0.7619247
-0.5941238
-2.225449
-4.15451
-6.327591
-8.656197
-11.0078
-13.24633
-15.27685
-17.05244
-18.68317
-20.3727
-22.35481
-24.80453
-27.63415
-30.45624
-32.58871
-33.2756
-31.94926
-28.52438
-23.45455
-17.50667
-11.59799
-6.35006
-2.066467
1.289459
3.916435
5.997383
7.59713
8.703201
9.395836
9.808907
10.24729
10.95986
12.03837
13.40334
14.8353
16.05448
16.90681
17.35589
17.42838
17.25321
16.8826
16.3268
15.5661
14.55587
13.26035
11.75633
10.1741
8.716911
7.624496
7.025238
6.884407
7.063614
7.250481
7.230774
6.958672
6.502441
6.053543
5.712349
5.460884
5.088158
4.387474
3.130501
1.238556
-1.231674
-4.125877
-7.195107
-10.15691
-12.72781
-14.74773
-16.15305
-17.13036
-17.99714
-19.13849
-20.819
-23.00032
-25.23712
-26.82887
-27.03862
-25.37444
-21.86557
-17.00983
-11.65432
-6.677063
-2.598236
0.4525299
2.686775
4.471825
6.077515
7.548409
8.832077
9.796249
10.4297
10.88389
11.38489
12.09464
13.02659
13.98876
14.72749
15.12994
15.20995
15.1283
15.12828
15.36157
15.84196
16.44919
16.96566
17.20878
17.05302
16.47281
15.47025
14.13514
12.59187
10.99202
9.478477
8.115242
6.927368
5.938019
5.144569
4.503525
3.942184
3.279984
2.290398
0.7759171
-1.357803
-4.004364
-6.851143
-9.531914
-11.72924
-13.34225
-14.53038
-15.58113
-16.79532
-18.39789
-20.46091
-22.85478
-25.29042
-27.28476
-28.27946
-27.77506
-25.52156
-21.6591
-16.766
-11.6666
-7.070435
-3.360306
-0.3521118
2.472984
5.679611
9.524353
13.82178
17.9802
21.24317
23.09882
23.35274
22.32331
20.54819
18.58741
16.85951
15.49135
14.42063
13.4893
12.63755
11.84555
11.19378
10.67475
10.19132
9.591057
8.664864
7.378662
5.82679
4.195282
2.679695
1.406303
0.3626175
-0.5484009
-1.352715
-2.146599
-2.967491
-3.844696
-4.840858
-5.992462
-7.256912
-8.532204
-9.751457
-10.78538
-11.73016
-12.66644
-13.71468
-15.00539
-16.58788
-18.53049
-20.85789
-23.51231
-26.23176
-28.56639
-29.86172
-29.58276
-27.48402
-23.75303
-19.02843
-14.07919
-9.567055
-5.853043
-2.933609
-0.5465775
1.59082
3.696487
5.831322
7.910881
9.811516
11.42107
12.65784
13.50907
14.01223
14.2581
14.36142
14.4967
14.7636
15.21085
15.74692
16.18378
16.35874
16.09273
15.36914
14.28973
13.0368
11.7747
10.66154
9.75293
9.02533
8.434631
7.826576
7.063019
6.082527
4.854858
3.480957
2.190971
1.194344
0.6614075
0.5238113
0.4656143
0.06532288
-1.030823
-2.938004
-5.44857
-8.121826
-10.5511
-12.54197
-14.16641
-15.72015
-17.43546
-19.42702
-21.6637
-23.95492
-26.09232
-27.77945
-28.6595
-28.27438
-26.34856
-22.80941
-17.99844
-12.5955
-7.362854
-2.901772
0.4456177
2.741089
4.232269
5.207809
5.897888
6.477135
7.049278
7.681915
8.415253
9.21051
10.06535
10.99771
12.04195
13.2234
14.4942
15.67379
16.56605
16.97144
16.82603
16.21661
15.35669
14.46442
13.67371
13.04134
12.45978
11.88344
11.29556
10.77326
10.4437
10.40565
10.58873
10.78101
10.70789
10.11536
8.937759
7.344566
5.61171
4.096977
3.023468
2.379532
1.937256
1.389221
0.4972
-0.7525482
-2.196671
-3.622986
-4.83902
-5.850258
-6.840004
-8.185898
-10.17216
-12.92902
-16.29447
-19.91652
-23.34942
-26.13776
-27.88731
-28.24474
-27.02866
-24.24175
-20.16137
-15.32887
-10.41103
-6.048309
-2.617439
-0.2133102
1.343262
2.343781
3.054794
3.637016
4.151085
4.697441
5.357346
6.212997
7.246048
8.400352
9.565491
10.65149
11.61057
12.4136
13.07514
13.58272
13.91529
14.0501
14.04778
13.92564
13.74284
13.4552
12.97585
12.25323
11.31898
10.27853
9.275543
8.426521
7.678841
6.919067
6.037483
5.01075
3.924034
2.928223
2.084854
1.34787
0.5561218
-0.5061035
-1.966904
-3.816124
-5.915581
-8.126724
-10.31593
-12.40293
-14.40172
-16.30846
-18.1559
-20.00965
-21.99065
-24.24246
-26.7959
-29.45965
-31.73383
-32.96935
-32.53504
-30.14865
-25.98875
-20.6607
-14.9811
-9.616074
-4.951698
-1.085014
2.06266
4.601402
6.580299
8.026611
8.981667
9.556786
9.985466
10.48835
11.22881
12.20088
13.34137
14.47855
15.41837
16.08601
16.40549
16.39678
16.16139
15.85889
15.62404
15.55847
15.56674
15.45129
15.04843
14.25679
13.21817
12.20622
11.45539
11.05285
10.82507
10.43301
9.604385
8.26429
6.556175
4.779305
3.174419
1.792503
0.5612679
-0.6982117
-2.097229
-3.651596
-5.300056
-7.028816
-8.813698
-10.68852
-12.65815
-14.6104
-16.41213
-17.9028
-19.05207
-19.96083
-20.93004
-22.22614
-24.03228
-26.28229
-28.50288
-29.99236
-29.98843
-27.96771
-23.97322
-18.65837
-12.98195
-7.910355
-4.040932
-1.35741
0.5295639
2.155476
3.907307
5.845772
7.815495
9.63364
11.17886
12.44093
13.47641
14.23274
14.68102
14.75746
14.54274
14.20031
13.98297
14.05789
14.50092
15.25477
16.07954
16.73853
16.99871
16.70021
15.82383
14.51551
13.00535
11.62855
10.6701
10.22332
10.25667
10.55863
10.80187
10.69641
10.13565
9.164204
7.949173
6.761887
5.744099
4.904877
4.070072
2.935249
1.276081
-1.004406
-3.765808
-6.790367
-9.735218
-12.39936
-14.67752
-16.62529
-18.41203
-20.29431
-22.48544
-25.12436
-28.09804
-30.88905
-32.7834
-32.93069
-30.80741
-26.38332
-20.24582
-13.432
-7.092201
-2.065277
1.330719
3.303257
4.451111
5.400776
6.548473
7.978626
9.549797
11.0266
12.31693
13.46523
14.60394
15.81398
17.03866
18.06802
18.68683
18.80481
18.53145
18.06393
17.65179
17.35979
17.16892
16.97289
16.63221
16.12177
15.47524
14.77216
14.06395
13.39695
12.74995
12.08713
11.30587
10.3101
8.992233
7.331966
5.46159
3.569691
1.845963
0.3369484
-1.053448
-2.550354
-4.360703
-6.603291
-9.230907
-12.01096
-14.6437
-16.77118
-18.23098
-19.05471
-19.50594
-19.98472
-20.94881
-22.68956
-25.17015
-28.02664
-30.56174
-31.98051
-31.64189
-29.29346
-25.16736
-19.92181
-14.41719
-9.417332
-5.397552
-2.35955
0.00535202
2.088936
4.145668
6.191925
8.091824
9.703049
10.93177
11.80079
12.3559
12.64084
12.7071
12.65394
12.56971
12.57469
12.71448
12.94318
13.12807
13.13419
12.92055
12.52148
12.09081
11.68279
11.28373
10.83763
10.29233
9.666302
9.008404
8.384182
7.766525
7.114662
6.283726
5.183315
3.811382
2.252331
0.686409
-0.7560997
-2.007824
-3.154037
-4.366119
-5.837372
-7.684563
-9.8452
-12.13089
-14.22941
-15.89129
-17.04605
-17.85094
-18.63839
-19.80058
-21.69474
-24.41432
-27.77792
-31.23273
-33.98168
-35.2093
-34.34716
-31.23354
-26.228
-20.13338
-13.88713
-8.329243
-3.881638
-0.5523891
1.974289
4.11405
6.233202
8.489386
10.78244
12.85837
14.40107
15.20837
15.28309
14.82584
14.16978
13.6332
13.44869
13.72155
14.45769
15.58696
17.04995
18.73014
20.40316
21.79837
22.60655
22.59533
21.70391
20.11244
18.1313
16.1656
14.51341
13.30975
12.46443
11.73295
10.82578
9.532841
7.869395
5.997628
4.209745
2.752059
1.672802
0.7882938
-0.2599001
-1.770152
-3.861662
-6.431569
-9.147696
-11.66721
-13.69644
-15.1566
-16.14641
-16.9329
-17.81295
-19.0451
-20.84813
-23.19513
-25.84983
-28.24298
-29.71219
-29.64986
-27.75655
-24.14594
-19.30598
-13.95296
-8.728133
-4.102414
-0.1916516
3.068574
5.836611
8.227087
10.24429
11.85164
12.99767
13.75126
14.16738
14.37981
14.50814
14.65982
14.95445
15.4466
16.13689
16.91777
17.61919
18.03738
18.05721
17.73209
17.23284
16.79821
16.51762
16.37506
16.22757
15.91105
15.32593
14.48978
13.48708
12.37861
11.18946
9.850388
8.332712
6.668698
4.926456
3.168772
1.419221
-0.3521756
-2.294583
-4.511239
-7.055891
-9.79165
-12.4473
-14.70575
-16.34942
-17.39447
-18.10028
-18.95293
-20.44394
-22.87296
-26.12654
-29.66407
-32.61556
-34.07347
-33.40703
-30.50339
-25.7938
-20.06945
-14.24863
-9.016005
-4.771396
-1.505416
1.025138
3.175655
5.196112
7.265811
9.409653
11.52846
13.45444
14.99445
16.03436
16.52395
16.57145
16.32816
15.97316
15.58493
15.25157
14.97192
14.76518
14.63079
14.48885
14.23885
13.76485
12.99044
11.93404
10.73123
9.541507
8.534781
7.745801
7.144686
6.585473
5.996511
5.322997
4.584455
3.79712
2.921116
1.838723
0.4122324
-1.428584
-3.66722
-6.091684
-8.409559
-10.32942
-11.68007
-12.51682
-13.08579
-13.75897
-14.93126
-16.88936
-19.69964
-23.14507
-26.80886
-30.09595
-32.39611
-33.11285
-31.8981
-28.72965
-23.9334
-18.16937
-12.18139
-6.706903
-2.138735
1.365309
3.986322
5.978981
7.62149
9.069128
10.32377
11.37057
12.13885
12.71031
13.22239
13.90023
14.91285
16.27497
17.83693
19.27605
20.32029
20.77007
20.67555
20.16936
19.39908
18.41208
17.16569
15.6611
13.96057
12.30751
10.95888
10.10947
9.722675
9.617336
9.551699
9.283276
8.772974
8.059345
7.243546
6.412893
5.591021
4.696936
3.55831
1.956951
-0.3094387
-3.295038
-6.837534
-10.5524
-13.91626
-16.50436
-18.18061
-19.17637
-19.95615
-21.03449
-22.70573
-24.949
-27.3929
-29.43389
-30.44021
-29.93552
-27.74509
-24.06723
-19.41979
-14.47749
-9.91507
-6.140688
-3.204548
-0.9155045
1.042595
2.983574
5.00915
7.136803
9.270287
11.30468
13.19909
14.9277
16.46155
17.77241
18.8361
19.61932
20.11507
20.31581
20.22791
19.88076
19.33528
18.70275
18.1176
17.66424
17.3465
17.10301
16.86374
16.55985
16.17135
15.72746
15.22586
14.69377
14.0408
13.1417
11.93998
10.49717
8.986019
7.681387
6.71843
6.094154
5.601166
4.866995
3.573765
1.58536
-1.021305
-3.916254
-6.703407
-9.086628
-10.93286
-12.32034
-13.44835
-14.54767
-15.81982
-17.43849
-19.4534
-21.75305
-24.0675
-25.89837
-26.65153
-25.81105
-23.2109
-19.07888
-14.13868
-9.220309
-5.011602
-1.862172
0.366189
2.004623
3.41692
4.822545
6.230875
7.516544
8.564602
9.304401
9.749155
10.02028
10.18577
10.33854
10.57778
10.96247
11.48766
12.06376
12.53694
12.77102
12.73481
12.47292
12.13721
11.87437
11.68653
11.42178
10.78288
9.568232
7.747663
5.574124
3.456632
1.813478
0.8862448
0.5635052
0.5581522
0.4761868
-0.02335072
-1.11366
-2.812297
-5.013863
-7.533156
-10.1871
-12.77386
-15.03019
-16.746
-17.85962
-18.48156
-18.9299
-19.58224
-20.76025
-22.52521
-24.61265
-26.43862
-27.28614
-26.60838
-24.26874
-20.61219
-16.31194
-12.12222
-8.512312
-5.586512
-3.123688
-0.7974072
1.616262
4.139456
6.63479
8.936045
10.90453
12.48565
13.66154
14.35453
14.57306
14.40355
14.02846
13.65004
13.38832
13.24461
13.12483
12.95419
12.71904
12.50305
12.37553
12.309
12.19275
11.83714
11.10952
10.02705
8.733978
7.441236
6.271557
5.227827
4.222633
3.185991
2.14221
1.159164
0.3018703
-0.4690456
-1.306105
-2.377563
-3.768833
-5.488705
-7.363737
-9.229002
-10.94693
-12.47318
-13.84889
-15.21454
-16.77189
-18.7371
-21.25331
-24.28263
-27.47153
-30.18999
-31.68376
-31.28499
-28.74686
-24.3069
-18.62732
-12.60355
-7.08465
-2.601862
0.6850052
2.969704
4.6404
6.066168
7.500446
9.022982
10.5454
11.88923
12.90653
13.51309
13.7545
13.77596
13.74451
13.80795
14.00679
14.34606
14.79593
15.3324
15.93572
16.46334
16.68925
16.33978
15.2116
13.37739
11.15158
9.047146
7.529762
6.813482
6.798826
7.16028
7.508486
7.589012
7.372185
6.954779
6.446682
5.900503
5.274782
4.509111
3.589218
2.520313
1.297741
-0.08640289
-1.724747
-3.704437
-6.027069
-8.562969
-11.13593
-13.54007
-15.7005
-17.71343
-19.72055
-21.86704
-24.0927
-26.07312
-27.27822
-27.15979
-25.35698
-21.91422
-17.32747
-12.38131
-7.838634
-4.204311
-1.557541
0.3398247
1.853657
3.261124
4.646507
5.914143
6.93449
7.6814
8.210819
8.729763
9.356457
10.16125
11.09593
12.05038
12.89017
13.5676
14.10421
14.59114
15.13222
15.76261
16.41753
16.95696
17.22966
17.1208
16.64402
15.85161
14.8613
13.7714
12.57766
11.21099
9.606552
7.793056
5.940594
4.315697
3.163628
2.615036
2.570801
2.704193
2.619083
2.014629
0.7570496
-1.006516
-3.058014
-5.158031
-7.126896
-8.88905
-10.48168
-11.98959
-13.58041
-15.4736
-17.81103
-20.51207
-23.19255
-25.18411
-25.72803
-24.35434
