2.123924
1.483025
0.7957611
0.1757965
-0.2878418
-0.6431732
-1.032951
-1.636353
-2.506477
-3.550804
-4.557922
-5.293892
-5.676651
-5.792526
-5.900864
-6.257172
-7.034096
-8.240875
-9.732307
-11.26473
-12.54736
-13.25732
-13.09225
-11.89352
-9.741806
-7.050011
-4.488693
-2.72229
-2.152603
-2.700951
-3.790718
-4.636436
-4.584686
-3.446388
-1.499184
0.6599655
2.462082
3.558723
3.94664
3.83429
3.49987
3.178596
2.971977
2.927307
3.00766
3.156761
3.270012
3.254761
3.06472
2.697945
2.246841
1.836914
1.597572
1.62648
1.969597
2.597649
3.401222
4.267372
5.025208
5.554771
5.805977
5.791389
5.523994
5.012451
4.272202
3.286026
2.117065
0.8572235
-0.3063126
-1.123619
-1.413391
-1.115318
-0.3445587
0.6672668
1.611008
2.222702
2.382729
2.124481
1.610252
1.002449
0.3747864
-0.3217392
-1.209579
-2.385567
-3.877396
-5.611023
-7.497208
-9.434944
-11.32642
-12.95073
-13.99339
-14.07607
-13.00074
-10.91176
-8.299622
-5.920486
-4.432549
-4.080879
-4.580887
-5.254318
-5.407593
-4.65789
-3.142326
-1.354652
0.1144485
0.8744659
0.9315186
0.5848389
0.2631989
0.2921982
0.8043365
1.706284
2.814629
3.941124
4.920761
5.729874
6.367531
6.863556
7.266083
7.584061
7.742439
7.654442
7.210121
6.400711
5.380089
4.361115
3.600189
3.236732
3.220108
3.40789
3.615227
3.751244
3.819382
3.96077
4.2696
4.781792
5.486214
6.246155
6.920174
7.361603
7.448944
7.094482
6.337563
5.243042
3.925476
2.550949
1.174454
-0.1986389
-1.595543
-3.070763
-4.650558
-6.31588
-7.975662
-9.496758
-10.61944
-11.06197
-10.60727
-9.21347
-7.118057
-4.834999
-2.945068
-1.855446
-1.592827
-1.810326
-1.941742
-1.503311
-0.3225632
1.358627
3.039734
4.217751
4.602226
4.229836
3.371849
2.412041
1.664146
1.269501
1.180038
1.270767
1.442314
1.629326
1.821091
2.032906
2.274857
2.494591
2.639
2.671852
2.584778
2.437225
2.260963
2.087433
1.94532
1.803993
1.669746
1.490891
1.27829
1.035851
0.8369675
0.7297897
0.7873383
0.9998398
1.215088
1.264603
0.9445038
0.184967
-0.989006
-2.438835
-4.013649
-5.582275
-7.108521
-8.586777
-9.995392
-11.30465
-12.39344
-13.11144
-13.2298
-12.50531
-10.8177
-8.265793
-5.246658
-2.308716
-0.006088257
1.389099
1.974701
2.154953
2.446014
3.118103
4.194763
5.345322
6.222214
6.574463
6.38562
5.879318
5.313736
4.925415
4.762238
4.771454
4.795288
4.678894
4.289047
3.603134
2.718063
1.760818
0.8960266
0.1480255
-0.5235443
-1.224426
-1.974686
-2.683578
-3.14389
-3.159744
-2.721542
-1.984924
-1.313599
-0.9981995
-1.220825
-1.902252
-2.786346
-3.585571
-4.07988
-4.201187
-4.036469
-3.819565
-3.808807
-4.205276
-5.090958
-6.419434
-8.026276
-9.65773
-11.01184
-11.72411
-11.55029
-10.38115
-8.310699
-5.711639
-3.112427
-1.019104
0.2424469
0.7001343
0.6863403
0.6694641
1.045303
1.929901
3.102966
4.180283
4.812363
4.816223
4.31424
3.565475
2.912704
2.619278
2.742432
3.130295
3.593872
3.928391
3.989731
3.794601
3.436813
3.036179
2.723068
2.523041
2.355072
2.111969
1.702499
1.054138
0.2472916
-0.5986176
-1.380943
-2.010857
-2.497475
-2.933113
-3.40799
-4.015892
-4.798378
-5.672684
-6.525566
-7.227158
-7.647926
-7.816231
-7.843208
-7.900627
-8.183899
-8.783791
-9.673866
-10.66166
-11.40607
-11.49443
-10.60661
-8.656822
-5.84684
-2.739929
-0.02606964
1.751396
2.40316
2.212135
1.779251
1.737892
2.44873
3.899185
5.704559
7.375847
8.574455
9.178329
9.315224
9.161316
8.853584
8.460823
8.025116
7.633186
7.433426
7.556396
7.970421
8.474228
8.779045
8.666817
8.099121
7.274895
6.507919
6.047066
5.9263
5.965134
5.924149
5.621147
4.995361
4.1446
3.176468
2.174194
1.136322
0.08049011
-0.9330826
-1.760788
-2.273384
-2.417679
-2.27729
-2.064056
-2.004959
-2.251015
-2.797562
-3.496681
-4.160103
-4.679459
-5.068123
-5.51252
-6.276749
-7.569511
-9.432724
-11.63589
-13.77585
-15.34203
-15.92992
-15.30689
-13.51134
-10.81354
-7.685204
-4.689262
-2.36145
-1.032166
-0.6687775
-0.8902588
-1.08139
-0.6868973
0.5326996
2.40287
4.466248
6.180199
7.238693
7.638435
7.597092
7.3937
7.197639
7.070816
7.002686
7.020088
7.142532
7.367928
7.668472
7.897438
7.906105
7.598236
6.981148
6.180992
5.398201
4.852516
4.68795
4.945076
5.530952
6.230988
6.817612
7.105919
7.047119
6.689758
6.174568
5.628784
5.126587
4.67115
4.225952
3.751556
3.170471
2.437103
1.53698
0.5317993
-0.4083786
-1.077888
-1.336098
-1.159241
-0.711792
-0.2985458
-0.2028885
-0.5680695
-1.35717
-2.380241
-3.426498
-4.363907
-5.207901
-6.040886
-7.007195
-8.196144
-9.576118
-11.06474
-12.46998
-13.55323
-13.99025
-13.48941
-11.90923
-9.376389
-6.405159
-3.673782
-1.873375
-1.315041
-1.797783
-2.697258
-3.214104
-2.818741
-1.496681
0.3121643
1.972313
2.966904
3.191948
2.884407
2.43544
2.194702
2.275856
2.608749
3.008751
3.367157
3.646011
3.900452
4.20771
4.544273
4.862068
5.060211
5.091347
4.950867
4.731033
4.541893
4.481483
4.585754
4.753769
4.858559
4.751595
4.353729
3.723923
3.029266
2.456909
2.160995
2.119316
2.157761
2.068039
1.724617
1.158554
0.5627289
0.161499
0.02283478
0.02896118
-0.07117462
-0.5372009
-1.473778
-2.713585
-3.954117
-4.862877
-5.277237
-5.235115
-4.946571
-4.657204
-4.585205
-4.889908
-5.608841
-6.718315
-8.131592
-9.630142
-10.91792
-11.58199
-11.26402
-9.805885
-7.398697
-4.547409
-1.900299
-0.04620361
0.7863846
0.7584229
0.3816376
0.1400146
0.3265839
0.8847122
1.540604
2.016487
2.160637
2.061592
1.878716
1.7752
1.826714
2.069305
2.519211
3.219345
4.217461
5.444504
6.756798
7.870613
8.512161
8.559036
8.01709
7.037682
5.851288
4.655304
3.596062
2.820114
2.419838
2.474991
3.027435
3.992332
5.204704
6.39756
7.324211
7.819328
7.910797
7.754723
7.568489
7.533157
7.71122
8.030052
8.339409
8.464363
8.228989
7.542046
6.416359
4.916039
3.232155
1.521255
-0.1084366
-1.645203
-3.192017
-4.860283
-6.711609
-8.775719
-10.95474
-13.00584
-14.66106
-15.59978
-15.54103
-14.3667
-12.17143
-9.319748
-6.375244
-3.897659
-2.21331
-1.33902
-0.9334869
-0.4908142
0.4279861
2.001671
4.101776
6.328613
8.188782
9.249428
9.285805
8.34893
6.746445
4.901779
3.22242
1.940102
1.07283
0.5119476
0.1187973
-0.1868973
-0.3582458
-0.367363
-0.2351379
-0.07266998
-0.03764343
-0.2436676
-0.5890045
-0.8527069
-0.8157806
-0.3710403
0.4092636
1.321648
2.169426
2.853516
3.38092
3.830498
4.277802
4.675751
4.893631
4.744949
4.046387
2.760681
1.061615
-0.7030487
-2.095512
-2.767052
-2.655861
-1.996384
-1.287369
-1.082085
-1.739388
-3.301788
-5.500893
-7.916916
-10.0598
-11.5326
-11.98415
-11.27625
-9.494972
-6.992805
-4.361771
-2.202553
-0.8952484
-0.3879318
-0.2721252
0.0688324
1.072235
2.778275
4.875023
6.799683
8.074326
8.474106
8.063057
7.093887
5.958099
4.999512
4.447784
4.382301
4.642357
4.958588
4.985565
4.548157
3.653984
2.522552
1.446198
0.5673523
-0.1426697
-0.9040146
-1.861954
-2.995979
-4.03846
-4.624275
-4.541779
-3.888206
-3.093956
-2.660828
-3.016434
-4.128952
-5.638527
-7.046356
-7.934479
-8.232109
-8.192337
-8.226402
-8.594925
-9.370895
-10.36786
-11.34538
-12.08582
-12.40834
-12.1469
-11.10508
-9.190453
-6.474571
-3.40345
-0.6511002
1.173256
1.828156
1.624832
1.256844
1.440338
2.528259
4.375626
6.437065
8.104683
9.06646
9.309608
9.121231
8.772903
8.410004
8.060776
7.62822
7.012321
6.169868
5.201424
4.184464
3.211288
2.349556
1.613525
1.028366
0.6326141
0.4245682
0.4419327
0.6884995
1.056847
1.398285
1.554283
1.383179
0.862709
0.08355713
-0.7945557
-1.60968
-2.333382
-3.100945
-4.117241
-5.518837
-7.390068
-9.646179
-12.1175
-14.49168
-16.39314
-17.4423
-17.31752
-15.88734
-13.2885
-10.02153
-6.798996
-4.256851
-2.751724
-2.086357
-1.717407
-0.9508743
0.6557922
3.100067
5.928772
8.484383
10.24391
10.91791
10.6143
9.6689
8.510078
7.464371
6.73938
6.363319
6.252815
6.260773
6.162979
5.810844
5.119041
4.100723
2.809937
1.386284
-0.03953552
-1.297714
-2.209381
-2.645149
-2.554108
-2.034508
-1.407829
-1.087898
-1.453476
-2.665726
-4.593063
-6.834251
-8.927055
-10.52336
-11.48133
-11.90523
-12.01697
-12.08761
-12.367
-13.02169
-14.07936
-15.4423
-16.83026
-17.7362
-17.61298
-16.08755
-13.19949
-9.49633
-5.800995
-2.836967
-0.9165878
0.2236099
1.291855
2.998131
5.70327
9.203514
12.8366
15.86428
17.71434
18.19247
17.45918
15.88811
13.92854
12.0077
10.47566
9.517998
9.145111
9.166733
9.27607
9.199463
8.851326
8.339363
7.928383
7.900597
8.313599
8.99057
9.603951
9.819542
9.502563
8.741196
7.726433
6.673637
5.685677
4.728073
3.735794
2.693787
1.691216
0.8781433
0.3439484
0.0637207
-0.1327209
-0.4883118
-1.193237
-2.320168
-3.780357
-5.404457
-6.977516
-8.368057
-9.541786
-10.55222
-11.46097
-12.31638
-13.1381
-13.89771
-14.62198
-15.41787
-16.44575
-17.822
-19.46706
-21.07951
-22.11159
-22.0039
-20.3539
-17.19321
-12.99042
-8.531548
-4.619175
-1.764969
-0.02444458
1.009708
1.921619
3.240196
5.169285
7.544926
9.935368
11.89566
13.18324
13.83644
14.11469
14.26039
14.4225
14.54989
14.5443
14.39336
14.1381
13.89415
13.7126
13.50454
13.02679
12.09094
10.66421
8.931072
7.254063
5.987659
5.364285
5.41927
6.015736
6.868858
7.684536
8.176544
8.157433
7.595448
6.63718
5.56485
4.674885
4.146431
3.968613
3.963062
3.871357
3.453396
2.653305
1.575069
0.4217262
-0.5957298
-1.349945
-1.842335
-2.136391
-2.377346
-2.732605
-3.310795
-4.199467
-5.410637
-6.886086
-8.471642
-9.942402
-11.01707
-11.50983
-11.42117
-10.95284
-10.51003
-10.53602
-11.32219
-12.86715
-14.85674
-16.71539
-17.81133
-17.67483
-16.10948
-13.35733
-9.995052
-6.759895
-4.304573
-2.918331
-2.354767
-2.047203
-1.358944
0.09809494
2.225918
4.550568
6.500015
7.747803
8.315788
8.528133
8.688515
8.892502
9.026543
8.903061
8.476242
7.952362
7.656116
7.774345
8.274208
8.846222
9.115623
8.851501
8.049717
6.925659
5.81366
4.979424
4.560368
4.592106
5.018543
5.701088
6.458504
7.035313
7.263096
7.104267
6.706474
6.333614
6.2925
6.703011
7.431267
8.129581
8.395954
7.956577
6.824184
5.254787
3.609875
2.222218
1.200806
0.4421654
-0.2460098
-1.066528
-2.12022
-3.386406
-4.731937
-5.97192
-6.962791
-7.646149
-8.094479
-8.41172
-8.788349
-9.38813
-10.2906
-11.50722
-12.93309
-14.35377
-15.46009
-15.8716
-15.26061
-13.50577
-10.82862
-7.77264
-5.071823
-3.346565
-2.795475
-3.064812
-3.416389
-3.077923
-1.677216
0.5698967
2.968346
4.740536
5.421329
5.032047
4.039459
3.058876
2.536797
2.652344
3.314732
4.323299
5.494778
6.714539
7.890175
8.922813
9.654564
9.942593
9.684361
8.899178
7.73019
6.444931
5.316261
4.598022
4.396904
4.63266
5.036076
5.316658
5.241264
4.761612
4.01218
3.221275
2.576054
2.189823
2.058529
2.124485
2.338707
2.640903
2.988358
3.335289
3.627827
3.779362
3.759499
3.538475
3.091045
2.423195
1.523346
0.4187126
-0.8523521
-2.210419
-3.611694
-5.015053
-6.394253
-7.748295
-9.087673
-10.4271
-11.72632
-12.85572
-13.54941
-13.46834
-12.37035
-10.29922
-7.649387
-5.096058
-3.285789
-2.537663
-2.691998
-3.187252
-3.364731
-2.812359
-1.565964
-0.006412506
1.391315
2.309769
2.725513
2.816898
2.818493
2.850594
2.915672
2.97467
3.054722
3.257465
3.650341
4.209908
4.76141
5.086498
4.999985
4.488285
3.741112
3.023468
2.583172
2.531044
2.846546
3.415573
4.165359
5.022114
5.885662
6.63689
7.090763
7.107956
6.66098
5.934906
5.247082
4.941902
5.190708
5.894413
6.715851
7.162506
6.862206
5.658237
3.703457
1.344227
-1.0266
-3.109692
-4.76313
-6.045532
-7.129673
-8.214481
-9.474407
-10.9801
-12.67963
-14.4042
-15.83596
-16.56903
-16.25751
-14.74449
-12.20029
-9.108288
-6.140148
-3.842884
-2.435539
-1.689941
-1.059086
0.02879715
1.839958
4.20229
6.578926
8.298836
8.932022
8.433987
7.139889
5.590504
4.275482
3.463425
3.147015
3.118057
3.134079
3.03252
2.779079
2.442158
2.122669
1.858833
1.635616
1.410465
1.160099
0.9361038
0.8459549
0.9889107
1.34576
1.829082
2.21656
2.327076
2.068489
1.529068
0.8603897
0.296627
-0.03897095
-0.1586533
-0.1757889
-0.2838974
-0.6200638
-1.243587
-2.109509
-3.124935
-4.103668
-4.916302
-5.505142
-5.945274
-6.458298
-7.30661
-8.716671
-10.75078
-13.22784
-15.70063
-17.60514
-18.40046
-17.73344
-15.67054
-12.63368
-9.30378
-6.353153
-4.206615
-2.860611
-1.95594
-1.023067
0.3324051
2.100723
3.986481
5.499615
6.324909
6.384171
5.887165
5.197636
4.594398
4.238297
4.110878
4.133213
4.258469
4.519165
4.982113
5.648678
6.477066
7.298134
7.931637
8.209373
8.069637
7.541965
6.757984
5.910854
5.211761
4.810516
4.683571
4.737942
4.769863
4.623508
4.239574
3.637688
2.905373
2.113373
1.286999
0.3466911
-0.7681122
-2.082062
-3.521408
-4.95742
-6.197304
-7.097393
-7.568806
-7.63081
-7.454273
-7.281261
-7.362743
-7.934273
-9.07732
-10.7291
-12.66186
-14.50535
-15.79902
-16.14422
-15.26488
-13.20628
-10.36052
-7.361942
-4.883797
-3.317242
-2.615898
-2.289608
-1.713318
-0.4234505
1.635715
4.091263
6.390297
8.063419
8.914467
9.006212
8.622038
8.011324
7.370089
6.825771
6.455812
6.336523
6.451431
6.755037
7.114744
7.450497
7.719189
7.944094
8.141994
8.278187
8.284143
8.065611
7.608805
6.969984
6.263842
5.547369
4.825171
4.06464
3.232992
2.367573
1.576902
1.004078
0.7464275
0.843832
1.211176
1.711126
2.159878
2.333534
2.037706
1.197962
-0.1162834
-1.711357
-3.305805
-4.694691
-5.860912
-6.908205
-8.036562
-9.418613
-11.08488
-12.92225
-14.76399
-16.36922
-17.47849
-17.84583
-17.21443
-15.44393
-12.60032
-9.087213
-5.521816
-2.594981
-0.7513103
0.007575989
0.1220226
0.2487783
0.8815603
2.193819
3.921867
5.59664
6.769824
7.228983
7.055264
6.543301
6.036144
5.771955
5.87333
6.289592
6.915999
7.608902
8.236653
8.706541
8.993289
9.129055
9.188164
9.216592
9.151285
8.86928
8.293123
7.435817
6.508308
5.797919
5.562884
5.84577
6.420234
6.857168
6.732503
5.878969
4.435585
2.811196
1.488272
0.7772734
0.6697271
0.887002
0.9792664
0.6203837
-0.3323606
-1.780803
-3.45516
-5.056397
-6.39537
-7.393641
-8.071412
-8.547032
-8.942186
-9.410319
-10.12683
-11.23897
-12.78592
-14.62679
-16.33765
-17.31783
-17.04453
-15.23646
-12.13744
-8.404529
-4.882624
-2.217926
-0.6224079
0.1912255
0.808876
1.694711
3.045491
4.654505
6.132975
7.135318
7.516117
7.344441
6.818384
6.130217
5.415834
4.795094
4.372087
4.230105
4.443576
4.942867
5.530832
5.97852
6.127748
5.959987
5.583187
5.155821
4.755194
4.422428
4.128745
3.90237
3.83801
4.061765
4.629011
5.416617
6.19765
6.73313
6.93334
6.896481
6.846198
6.996498
7.408215
7.981059
8.465625
8.633276
8.289216
7.353005
5.869597
3.945877
1.761319
-0.4689398
-2.538495
-4.309248
-5.755107
-7.002549
-8.262057
-9.709799
-11.45616
-13.43801
-15.44106
-17.08459
-17.95038
-17.64567
-16.00221
-13.19163
-9.670205
-6.098978
-3.095674
-1.005155
0.2018719
0.8345232
1.386908
2.256047
3.578651
5.229776
6.853623
8.024438
8.427451
7.979361
6.884495
5.547111
4.374283
3.64228
3.372914
3.39057
3.482499
3.563144
3.669248
3.958351
4.561335
5.42585
6.290857
6.833951
6.832178
6.30003
5.537785
4.939092
4.784353
5.111603
5.651402
5.990559
5.846462
5.224363
4.440084
3.950849
4.088557
4.789719
5.636665
6.028742
5.493904
3.930932
1.64279
-0.8342676
-3.050941
-4.762307
-6.037878
-7.128014
-8.248135
-9.500469
-10.84886
-12.19392
-13.48937
-14.67712
-15.65581
-16.19673
-15.94227
-14.6004
-12.13538
-8.871486
-5.469026
-2.631118
-0.752079
0.2364883
0.8365097
1.699487
3.256813
5.433603
7.767023
9.618754
10.49432
10.28797
9.269923
7.95575
6.831439
6.204356
6.061507
6.195532
6.322237
6.211863
5.806185
5.204488
4.602132
4.155909
3.912636
3.758165
3.525814
3.056667
2.319521
1.375546
0.3911147
-0.4539676
-1.051653
-1.359653
-1.501274
-1.657187
-2.070896
-2.913561
-4.17983
-5.689957
-7.121216
-8.170687
-8.67643
-8.72204
-8.528128
-8.306821
-8.16058
-8.083672
-8.022881
-8.049238
-8.418919
-9.421652
-11.18763
-13.46085
-15.54484
-16.53176
-15.76134
-13.08589
-9.090786
-4.837279
-1.401518
0.5858035
1.165736
1.0174
1.008454
1.835635
3.636296
6.020624
8.315436
9.944105
10.68749
10.72861
10.44989
10.16409
10.00238
9.862789
9.580814
9.081245
8.463576
7.864475
7.383761
6.961067
6.462987
5.810789
5.086685
4.46303
4.082696
3.981788
3.997326
3.935792
3.669907
3.282073
2.920849
2.744075
2.747617
2.774974
2.623145
2.176437
1.48317
0.7248421
0.1341152
-0.2119312
-0.3949175
-0.6203175
-1.125526
-2.065543
-3.42353
-5.017761
-6.629078
-8.073569
-9.314999
-10.45857
-11.63043
-12.93036
-14.38288
-15.95774
-17.60297
-19.31627
-21.04944
-22.61126
-23.59532
-23.47175
-21.80982
-18.52963
-14.05887
-9.249903
-5.004004
-1.929897
-0.0585804
1.098402
2.235207
3.845037
5.971268
8.217793
9.978905
10.87475
10.94592
10.61154
10.43509
10.74927
11.56573
12.60638
13.51546
14.09673
14.40314
14.62256
14.90701
15.23009
15.35114
15.05059
14.23658
13.05178
11.80571
10.72906
9.893526
9.17692
8.432144
7.504608
6.392651
5.174332
3.990721
2.97743
2.211996
1.739258
1.53997
1.554077
1.652681
1.644938
1.363134
0.7231121
-0.2052002
-1.290747
-2.377502
-3.387001
-4.351671
-5.340349
-6.40559
-7.523216
-8.586689
-9.440044
-10.02299
-10.36087
-10.59193
-10.90038
-11.37724
-12.05795
-12.93969
-14.0611
-15.43318
-17.03395
-18.64909
-19.79718
-19.92117
-18.58464
-15.77757
-11.97823
-8.038673
-4.805542
-2.718296
-1.646156
-0.9784279
-0.01492691
1.658909
3.95924
6.362225
8.262642
9.325027
9.635849
9.633068
9.821995
10.48273
11.54843
12.71056
13.59562
13.99364
13.94185
13.62768
13.27188
12.96088
12.64338
12.17444
11.4392
10.37606
9.075104
7.730999
6.567314
5.767326
5.39822
5.373421
5.457886
5.417873
5.102402
4.550251
3.91518
3.394398
3.079987
2.926483
2.794361
2.546963
2.114841
1.535244
0.8751831
0.1684265
-0.6101112
-1.519562
-2.621201
-3.942066
-5.445908
-7.079575
-8.738342
-10.29881
-11.59798
-12.47418
-12.81503
-12.65633
-12.18866
-11.76529
-11.72679
-12.32362
-13.55312
-15.08656
-16.37606
-16.76223
-15.79454
-13.40349
-10.03738
-6.449123
-3.434917
-1.486488
-0.5738411
-0.2214928
0.2412682
1.265202
2.930096
4.863064
6.549011
7.595856
7.946411
7.850555
7.734859
7.918919
8.476913
9.297871
10.15576
10.9095
11.52942
12.04118
12.47079
12.71791
12.63633
12.12865
11.23326
10.11146
9.018845
8.143421
7.54908
7.206871
7.008396
6.894981
6.833996
6.804314
6.717129
6.504887
6.115925
5.574017
4.982548
4.439774
3.979435
3.545845
3.047916
2.361256
1.497654
0.539959
-0.3873634
-1.192089
-1.874275
-2.51437
-3.215984
-4.04845
-5.033932
-6.081291
-7.088493
-7.924763
-8.473194
-8.784428
-9.004787
-9.399769
-10.23224
-11.65049
-13.59268
-15.79773
-17.84047
-19.19384
-19.40798
-18.15646
-15.40037
-11.4494
-6.913416
-2.596415
0.7701263
2.80842
3.648308
3.82564
4.023136
4.71685
5.938271
7.29364
8.227566
8.298412
7.403254
5.835094
4.105707
2.7255
2.01959
2.065401
2.75643
3.859932
5.165873
6.485128
7.670286
8.588987
9.10334
9.101959
8.564222
7.624773
6.511295
5.512936
4.882803
4.728039
5.010317
5.554649
6.170362
6.738668
7.201645
7.572678
7.863188
8.018373
7.95393
7.56937
6.821136
5.809874
4.711889
3.721621
2.949041
2.365465
1.792267
1.057674
0.07509613
-1.09894
-2.263975
-3.230726
-3.924683
-4.4132
-4.837769
-5.400733
-6.208447
-7.294247
-8.666398
-10.32757
-12.27966
-14.44747
-16.56594
-18.11762
-18.53703
-17.39204
-14.68312
-10.93397
-7.013716
-3.778495
-1.705435
-0.6797938
-0.134069
0.6120949
1.949709
3.787697
5.606194
6.782842
6.955491
6.175827
4.88411
3.652662
2.954557
2.974754
3.605134
4.508761
5.328246
5.816678
5.880753
5.60064
5.082588
4.430166
3.695064
2.922968
2.129666
1.417323
0.9300953
0.8017838
1.090836
1.716748
2.487851
3.159033
3.520024
3.424054
2.863712
1.940444
0.8336759
-0.2062058
-0.9473495
-1.255293
-1.150696
-0.8148594
-0.5294018
-0.5754976
-1.120271
-2.173071
-3.549249
-4.981936
-6.244597
-7.227388
-7.964426
-8.588946
-9.278697
-10.18551
-11.3936
-12.88794
-14.57508
-16.26483
-17.62672
-18.23589
-17.67291
-15.72983
-12.59774
-8.826035
-5.209214
-2.44887
-0.8256979
-0.09602833
0.3172588
1.004097
2.241675
3.876196
5.49542
6.658353
7.150811
7.065022
6.634836
6.101732
5.605553
5.224145
4.959337
4.884535
5.025953
5.402221
5.949381
6.541626
7.048538
7.38606
7.555322
7.567347
7.474354
7.298869
7.044998
6.751061
6.447244
6.162211
5.915693
5.657936
5.29636
4.769773
4.054066
3.221278
2.387144
1.639355
1.001346
0.410284
-0.2493391
-1.020167
-1.893864
-2.848987
-3.851858
-4.927567
-6.113114
-7.40553
-8.739252
-10.01481
-11.14123
-12.14112
-13.08956
-14.10861
-15.27665
-16.6207
-18.10239
-19.58671
-20.85902
-21.58429
-21.33822
-19.7683
-16.75513
-12.62154
-8.096437
-4.061799
-1.142185
0.5546083
1.474396
2.325259
3.62984
5.521151
7.645533
9.470203
10.58507
10.90117
10.6477
10.18213
9.794297
9.589581
9.586064
9.74697
10.10377
10.65
11.33482
11.9937
12.40001
12.39026
11.90192
11.02025
9.907428
8.75255
7.68818
6.817554
6.210533
5.957735
6.068183
6.411299
6.774076
6.875747
6.50857
5.675045
4.498173
3.222107
2.051944
1.111119
0.4024588
-0.1159145
-0.5031785
-0.7814498
-0.9908209
-1.227595
-1.666726
-2.497976
-3.771369
-5.408815
-7.170637
-8.77797
-10.04387
-10.93992
-11.63631
-12.37193
-13.34917
-14.64631
-16.23024
-17.94564
-19.55048
-20.68159
-20.89092
-19.80609
-17.2384
-13.40348
-8.932674
-4.678209
-1.413191
0.5371647
1.40041
1.811064
2.464641
3.775188
5.643145
7.596384
9.056133
9.670347
9.51178
8.922782
8.355795
8.120643
8.29814
8.736416
9.266141
9.787067
10.27634
10.75777
11.16498
11.36839
11.22499
10.69045
9.83403
8.853619
7.987517
7.400313
7.163335
7.211891
7.419208
7.620587
7.676691
7.461755
6.947343
6.153706
5.208361
4.278113
3.476056
2.841829
2.328691
1.835402
1.280071
0.6709704
0.06250477
-0.505301
-0.98945
-1.458218
-1.999853
-2.709548
-3.635308
-4.799845
-6.146351
-7.597666
-9.084656
-10.49731
-11.76387
-12.85449
-13.79546
-14.68721
-15.68311
-16.84031
-18.01046
-18.84637
-18.8577
-17.6486
-15.08552
-11.47572
-7.450716
-3.797042
-1.114727
0.4282255
1.112807
1.560225
2.328977
3.708611
5.555076
7.384374
8.667929
9.08366
8.690672
7.792773
6.860374
6.238777
6.084842
6.34694
6.852852
7.433239
7.933202
8.244998
8.234844
7.876469
7.190157
6.305333
5.432871
4.781559
4.537024
4.681206
5.12838
5.685325
6.234844
6.712441
7.098529
7.393947
7.575803
7.647271
7.568635
7.354764
7.012012
6.618629
6.219946
5.896057
5.702886
5.619705
5.605735
5.505524
5.148919
4.384739
3.175821
1.577265
-0.2849194
-2.257195
-4.20547
-5.991803
-7.544549
-8.810786
-9.860523
-10.8189
-11.83805
-13.03314
-14.4044
-15.76195
-16.75129
-17.02238
-16.2403
-14.33515
-11.50314
-8.261899
-5.238768
-3.014544
-1.793477
-1.338622
-1.092978
-0.433857
0.9831467
3.028547
5.185634
6.819475
7.489337
7.157971
6.151666
4.961535
4.023883
3.543859
3.452855
3.569803
3.70214
3.801192
3.928477
4.176546
4.545424
4.927336
5.119888
4.929433
4.373698
3.61085
2.943752
2.647459
2.813098
3.339269
3.967628
4.439412
4.605215
4.47131
4.180548
3.869471
3.623402
3.435629
3.226044
2.87693
2.302866
1.498358
0.4943676
-0.5601788
-1.5637
-2.426554
-3.152641
-3.850323
-4.704477
-5.905552
-7.549643
-9.648874
-12.01629
-14.38178
-16.35742
-17.55075
-17.64283
-16.47546
-14.15632
-11.02267
-7.687756
-4.71949
-2.544943
-1.178429
-0.2630081
0.741066
2.265524
4.359735
6.698307
8.670481
9.82564
9.989454
9.342251
8.259109
7.076683
6.034084
5.247286
4.811794
4.777565
5.168344
5.853495
6.590944
7.135969
7.304098
7.126329
6.712944
6.217079
5.657471
5.023123
4.275785
3.479385
2.81349
2.428635
2.404865
2.610008
2.829884
2.857311
2.668839
2.412823
2.313953
2.542759
3.055408
3.620373
3.905197
3.651707
2.84898
1.705902
0.5348053
-0.4286079
-1.118809
-1.65987
-2.19986
-2.825333
-3.517258
-4.148365
-4.65379
-5.015289
-5.345165
-5.744087
-6.298187
-6.970535
-7.663536
-8.250927
-8.653908
-8.912128
-9.125935
-9.492149
-10.19915
-11.36817
-12.97586
-14.85513
-16.74009
-18.32688
-19.33651
-19.4483
-18.43188
-16.20841
-13.00478
-9.356426
-6.02116
-3.68829
-2.674576
-2.727924
-3.096233
-2.884052
-1.494709
1.068878
4.209854
7.099445
9.034039
9.771301
9.533962
8.884239
8.374928
8.328438
8.792332
9.555782
10.36687
11.00043
11.36345
11.40454
11.12604
10.54364
9.728172
8.805794
7.915173
7.187534
6.713589
6.559097
6.672222
6.950176
7.227341
7.323017
7.088421
6.448246
5.4403
4.219307
2.982571
1.939785
1.205284
0.8057671
0.7069511
0.8065338
0.9527626
1.030216
0.9912834
0.827095
0.5942078
0.3511658
0.1288795
-0.09154892
-0.3510742
-0.6978607
-1.146412
-1.676655
-2.283176
-2.985119
-3.785652
-4.66581
-5.551285
-6.317101
-6.846573
-7.098816
-7.10043
-6.951202
-6.747341
-6.548084
-6.361084
-6.142952
-5.873947
-5.551006
-5.202927
-4.87904
-4.607147
-4.360504
-4.112778
-3.844212
-3.532543
-3.191238
-2.847942
-2.537743
-2.286388
-2.094429
-1.943035
-1.805084
-1.656857
-1.485565
-1.294201
-1.103935
-0.9357376
-0.8055649
-0.7102242
-0.6404343
-0.581234
-0.5173912
-0.4395943
-0.3549614
-0.2683411
-0.1919479
-0.1353073
-0.09548569
-0.07086182
-0.04951477
-0.02724075
-0.003017426
0.02556229
0.054245
0.07788849
0.09277725
0.102932
0.1066895
0.1085472
0.1100044
0.1119194
0.1161385
0.1187897
0.1211548
0.1220779
0.1232262
0.1229706
0.1229706
0.1220131
0.1212654
0.1200638
0.1194916
0.120266
0.1211205
0.1195107
0.1200829
0.1199226
0.1205254
0.1187172
0.1185837
0.1175385
0.117588
0.1168671
0.1161003
0.1161728
0.1171494
0.1154366
0.1157875
0.116272
0.1153946
0.1145782
0.1146202
0.1136627
0.1128426
0.112484
0.1125488
0.1125183
0.1130981
0.1130486
0.1122742
0.1129684
0.1128044
0.1119614
0.1116486
0.1122437
0.1102791
0.1098938
0.1093979
0.1090813
0.1095657
0.1096878
0.1092606
0.1098785
0.1087761
0.1094398
0.1080475
0.1087456
0.1071243
0.1065254
0.106636
0.1056519
0.1063385
0.1061745
0.1060143
0.1062279
0.1051025
0.1050491
0.1052399
0.1050148
0.1039505
0.1033974
0.1036263
0.1013718
0.1026268
0.1020393
0.1025238
0.1024933
0.101799
0.1035309
0.1019478
0.1022644
0.1017456
0.1010361
0.100914
0.1006737
0.09945297
0.09819031
0.09896088
0.09853745
0.09765244
0.09880447
0.09846497
0.09824371
0.09822845
0.09920502
0.09802628
0.09701157
0.09776306
0.09756088
0.09589767
0.09535599
0.09545517
0.09442902
0.09510422
0.09542847
0.0956955
0.09541702
0.09559631
0.09542084
0.09561157
0.09521103
0.0931778
0.0946312
0.09402847
0.09307098
0.09170914
0.09220886
0.09246826
0.09238052
0.09093475
0.09175873
0.09119415
0.09119797
0.09089661
0.09085083
0.09134674
0.09047318
0.09050369
0.08878708
0.08843613
0.08872604
0.08692551
0.08649445
0.08535385
0.08549881
0.08563614
0.08575439
0.08330536
0.08435822
0.084198
0.08639908
0.08826447
0.0929718
0.0986824
0.1037407
0.1093788
0.1128769
0.1175156
0.1200447
0.1246109
0.1275978
0.1318398
0.1380424
0.1432991
0.1522102
0.1616974
0.1730499
0.1828537
0.1966743
0.2107506
0.2317772
0.2581711
0.2870865
0.3180275
0.3470345
0.3776741
0.4071732
0.4424782
0.4835815
0.5335579
0.5916824
0.6489143
0.7069664
0.7570076
0.8021545
0.8456078
0.9000511
0.9703407
1.065063
1.179085
1.30624
1.436966
1.563457
1.680058
1.796993
1.934917
2.096474
2.297932
2.548344
2.831696
3.143208
3.464867
3.785923
4.109409
4.453613
4.813454
5.20686
5.674561
6.19334
6.710075
7.132759
7.351532
7.295776
6.996532
6.539398
6.030632
5.550045
5.094997
4.649578
4.221626
3.889824
3.789078
4.041489
4.633663
5.35968
5.936863
6.099007
5.73801
4.914303
3.765705
2.442848
1.038124
-0.4576492
-2.08992
-3.886856
-5.842018
-7.895615
-9.995461
-12.11876
-14.17556
-16.02944
-17.45593
-18.15574
-17.82372
-16.32344
-13.79741
-10.68819
-7.633583
-5.197323
-3.620819
-2.725433
-1.9813
-0.8272629
0.9779816
3.22625
5.353992
6.697849
6.857372
5.895462
4.223049
2.427082
1.026997
0.2427711
0.08554077
0.3951607
0.9345284
1.497082
1.981525
2.3396
2.575905
2.69809
2.71991
2.641098
2.503723
2.341766
2.210655
2.205872
2.347473
2.62056
2.933624
3.145805
3.135376
2.856895
2.352242
1.721474
1.125435
0.6905289
0.443161
0.3584442
0.2917328
0.1002579
-0.3370895
-1.084526
-2.110771
-3.367554
-4.740028
-6.125893
-7.411209
-8.56929
-9.601311
-10.59207
-11.67233
-12.9438
-14.41689
-16.03578
-17.59814
-18.80436
-19.34658
-18.88917
-17.29161
-14.65288
-11.37253
-8.025734
-5.191994
-3.221649
-2.01458
-1.212585
-0.287468
1.122841
2.996002
4.998573
6.653866
7.600792
7.777512
7.436142
6.963478
6.717163
6.861134
7.356968
8.071438
8.842506
9.564713
10.19571
10.67189
10.89589
10.77688
10.2494
9.354397
8.261337
7.196629
6.370087
5.891621
5.720284
5.709873
5.693172
5.561207
5.238331
4.735191
4.06543
3.263771
2.35894
1.376369
0.3361855
-0.7026749
-1.678967
-2.559505
-3.331608
-4.016666
-4.679272
-5.387466
-6.192307
-7.092144
-8.013733
-8.873035
-9.599522
-10.18052
-10.71027
-11.32851
-12.19413
-13.40229
-14.94908
-16.68892
-18.30711
-19.39335
-19.51854
-18.40533
-16.08888
-12.96382
-9.674519
-6.889515
-4.974995
-3.83696
-2.958294
-1.69698
0.3194466
3.034225
5.989243
8.631851
10.55867
11.73911
12.39547
12.82635
13.17229
13.40934
13.47083
13.33913
13.08796
12.85519
12.66533
12.42476
11.94954
11.06147
9.734501
8.100708
6.451122
5.056969
4.127666
3.667824
3.594318
3.724869
3.927326
4.185291
4.521919
4.977413
5.501526
5.950352
6.083485
5.751446
4.938057
3.809788
2.643112
1.663414
0.8746872
0.1115799
-0.8409767
-2.120888
-3.657524
-5.204086
-6.515186
-7.448143
-8.091709
-8.703526
-9.579365
-10.85244
-12.52044
-14.44425
-16.44601
-18.39094
-20.08906
-21.30375
-21.6748
-20.87951
-18.80075
-15.67388
-12.07508
-8.671494
-5.942976
-3.912867
-2.221239
-0.3541908
2.027212
4.849918
7.675795
10.00691
11.52645
12.22939
12.39113
12.32733
12.2652
12.26679
12.28609
12.31717
12.38948
12.57136
12.81088
12.97901
12.82738
12.16002
10.91968
9.243277
7.467976
5.972073
5.021805
4.655392
4.710587
4.919546
5.087311
5.15045
5.167746
5.21858
5.25633
5.128981
4.656847
3.833759
2.832304
1.997149
1.6105
1.751438
2.183153
2.458338
2.175739
1.181023
-0.3762493
-2.121038
-3.692152
-4.917795
-5.845291
-6.685989
-7.655722
-8.840961
-10.18369
-11.56466
-12.95313
-14.36288
-15.82755
-17.22896
-18.21709
-18.30109
-17.06974
-14.4824
-10.96514
-7.290586
-4.244841
-2.212572
-1.044744
-0.1382933
1.175287
3.217592
5.754663
8.182402
9.821058
10.28428
9.66926
8.401808
7.051531
6.014937
5.469223
5.343287
5.50935
5.833785
6.240912
6.711819
7.169837
7.547914
7.746274
7.673512
7.2825
6.608057
5.791688
5.056305
4.631642
4.662525
5.151098
5.973766
6.84166
7.455269
7.55074
7.016559
5.917677
4.5158
3.151502
2.119713
1.553487
1.2992
1.03812
0.4028988
-0.7703209
-2.388615
-4.119712
-5.646295
-6.771142
-7.546129
-8.194012
-8.935902
-9.92531
-11.1606
-12.52343
-13.86283
-15.00722
-15.70318
-15.64055
-14.5381
-12.26901
-9.050364
-5.47069
-2.220116
0.1248713
1.432033
2.076643
2.733334
3.991535
6.013952
8.442245
10.56109
11.75383
11.74707
10.7515
9.250832
7.787579
6.666531
5.936728
5.433998
4.994736
4.555316
4.189792
4.032345
4.165062
4.510735
4.866869
4.988665
4.673473
3.91168
2.881495
1.892352
1.230929
1.052181
1.213837
1.426123
1.336002
0.70998
-0.4174614
-1.802273
-3.085348
-4.019606
-4.531885
-4.81888
-5.122747
-5.680567
-6.563183
-7.656015
-8.784113
-9.761393
-10.51826
-11.07058
-11.54191
-12.07851
-12.84502
-13.93072
-15.31704
-16.8138
-18.00384
-18.37562
-17.49464
-15.24318
-11.91356
-8.192462
-4.844563
-2.408074
-1.00757
-0.2570152
0.4665956
1.685665
3.577756
5.931088
8.261874
10.0928
11.19057
11.57402
11.47795
11.18561
10.90594
10.71465
10.6368
10.67834
10.84232
11.13339
11.49656
11.82277
11.96526
11.80453
11.29611
10.48693
9.467806
8.348453
7.221768
6.104487
5.016624
3.955131
2.936634
1.999897
1.160834
0.3930793
-0.3414443
-1.056588
-1.740324
-2.253494
-2.425756
-2.125146
-1.388608
-0.4656775
0.2090535
0.1294882
-0.9503684
-3.01961
-5.711149
-8.540242
-11.07219
-13.132
-14.7408
-16.1163
-17.45555
-18.83546
-20.26349
-21.57685
-22.63249
-23.19602
-22.99613
-21.74461
-19.26305
-15.65676
-11.38795
-7.186857
-3.761676
-1.529078
-0.3614635
0.3210807
1.318554
3.214059
6.058985
9.375807
12.37449
14.40371
15.24801
15.13744
14.58669
14.09447
13.94485
14.13223
14.52547
14.95837
15.37998
15.7365
15.93423
15.78634
15.03394
13.55662
11.41307
8.937323
6.587605
4.805441
3.869244
3.827551
4.471781
5.456566
6.430086
7.071371
7.2486
6.935486
6.268452
5.434486
4.673172
4.11857
3.793118
3.568613
3.202223
2.530542
1.468229
0.1466389
-1.148813
-2.1255
-2.60936
-2.631252
-2.409701
-2.256551
-2.435863
-3.084435
-4.154254
-5.492054
-6.931159
-8.384109
-9.80244
-11.21815
-12.6657
-14.17151
-15.74761
-17.41142
-19.10113
-20.66025
-21.77423
-21.99868
-20.93821
-18.45832
-14.84285
-10.77851
-7.121951
-4.523783
-3.155584
-2.584833
-2.006441
-0.6883526
1.7183
4.972151
8.387621
11.20706
12.90782
13.43768
13.09987
12.38288
11.63061
11.0674
10.71627
10.52028
10.46472
10.55552
10.79721
11.0825
11.21938
10.97694
10.26448
9.131054
7.77774
6.485771
5.509111
5.006422
5.00511
5.380932
5.944414
6.491394
6.829674
6.82321
6.458185
5.803696
5.009279
4.291372
3.763288
3.434168
3.166908
2.797493
2.19342
1.405067
0.5535774
-0.1678543
-0.5993862
-0.7485886
-0.7148819
-0.7039909
-0.8575859
-1.246313
-1.836407
-2.579149
-3.437691
-4.413399
-5.513432
-6.710419
-7.961689
-9.2413
-10.56474
-12.03862
-13.77719
-15.8381
-18.12319
-20.3569
-22.09562
-22.83437
-22.22902
-20.20866
-17.047
-13.30869
-9.677013
-6.712016
-4.669754
-3.347855
-2.22213
-0.7523785
1.341662
3.92011
6.524858
8.638296
9.988585
10.60031
10.75272
10.76758
10.8365
10.99357
11.19101
11.43473
11.76075
12.21184
12.66163
12.88953
12.64379
11.79007
10.45421
8.925198
7.480957
6.293644
5.411068
4.735161
4.215607
3.880995
3.795746
4.012676
4.495226
5.027838
5.376099
5.398306
5.099646
4.642532
4.243736
4.010626
3.908818
3.779679
3.428741
2.769627
1.868586
0.9293118
0.1626177
-0.3094826
-0.5594664
-0.7710962
-1.179145
-1.9333
-2.975298
-4.112028
-5.104551
-5.791443
-6.190563
-6.517445
-7.051229
-8.022741
-9.523244
-11.44938
-13.62047
-15.81851
-17.80138
-19.29248
-19.95899
-19.53019
-17.9174
-15.36852
-12.4443
-9.819528
-7.968881
-6.926453
-6.282364
-5.388188
-3.748763
-1.267254
1.688945
4.476409
6.497374
7.48355
7.565211
7.136452
6.666345
6.472646
6.697668
7.273106
8.051346
8.874104
9.625651
10.27682
10.80132
11.2082
11.43589
11.39234
10.9732
10.14363
8.990472
7.725297
6.61423
5.838349
5.482902
5.504541
5.804868
6.31944
7.019032
7.90895
8.923454
9.898905
10.60669
10.8471
10.55549
9.796618
8.695592
7.421217
6.082669
4.677432
3.156656
1.431571
-0.5889101
-2.897756
-5.371499
-7.727385
-9.651716
-10.90391
-11.4839
-11.66847
-11.88266
-12.51228
-13.73347
-15.45338
-17.33734
-18.9996
-20.00786
-20.01022
-18.75037
-16.1475
-12.43584
-8.194142
-4.225585
-1.238178
0.4594116
1.107455
1.368272
1.961196
3.256158
5.087989
6.891741
8.017204
8.072037
7.102259
5.544574
3.966703
2.842695
2.403133
2.609399
3.253625
4.098945
4.94207
5.675876
6.246119
6.628187
6.774033
6.631766
6.169907
5.458919
4.692019
4.117851
3.953496
4.276361
4.945454
5.644515
6.057658
5.975803
5.410086
4.561216
3.727407
3.152048
2.926494
2.956211
2.976702
2.702204
1.88002
0.4336529
-1.505735
-3.622725
-5.527668
-6.932188
-7.77198
-8.236721
-8.727892
-9.642845
-11.15759
-13.19783
-15.44349
-17.47214
-18.86016
-19.23308
-18.31713
-16.06276
-12.72815
-8.872356
-5.260021
-2.567778
-1.049805
-0.4282856
-0.03312683
0.8848782
2.692146
5.205807
7.768831
9.649534
10.34643
9.871357
8.627157
7.17399
5.981548
5.241371
4.895407
4.750814
4.625988
4.405228
4.115377
3.750526
3.278917
2.624329
1.72777
0.6009808
-0.6130733
-1.690805
-2.431385
-2.685604
-2.460289
-1.900951
-1.21785
-0.6476364
-0.3277454
-0.2881355
-0.4637909
-0.7566986
-1.100126
-1.504566
-2.07766
-2.903332
-4.060324
-5.469994
-6.939375
-8.239017
-9.229679
-9.916439
-10.47438
-11.16887
-12.16107
-13.57384
-15.30102
-17.05028
-18.34344
-18.67809
-17.66443
-15.19195
-11.56838
-7.414089
-3.54666
-0.6119967
1.14489
2.015474
2.6087
3.532105
5.079669
7.080336
9.070339
10.50895
11.11347
10.94304
10.33454
9.694021
9.321408
9.278738
9.468697
9.769897
10.08669
10.36815
10.59941
10.67127
10.4628
9.906481
9.023016
7.954796
6.923958
6.121654
5.580457
5.24047
4.963407
4.634916
4.23533
3.81794
3.382143
2.836705
2.082852
1.045671
-0.1825578
-1.424434
-2.495793
-3.330644
-4.037704
-4.842741
-5.931541
-7.279744
-8.683819
-9.86512
-10.64958
-11.0996
-11.43859
-12.01836
-13.06008
-14.60791
-16.52336
-18.51193
-20.2652
-21.44268
-21.70268
-20.69976
-18.27295
-14.52601
-9.930349
-5.254185
-1.313145
1.330276
2.690453
3.271355
3.878656
5.166077
7.313747
9.995787
12.54987
14.42442
15.39597
15.68523
15.70803
15.80948
16.1153
16.52084
16.84172
16.93875
16.84106
16.59682
16.2019
15.53061
14.38825
12.65295
10.41921
7.973415
5.670422
3.845716
2.658463
2.104193
2.040876
2.276299
2.611801
2.872711
2.967665
2.895334
2.760273
2.725065
2.914234
3.349457
3.893606
4.300453
4.298347
3.746033
2.727226
1.458933
0.1984291
-0.8647823
-1.692392
-2.405851
-3.179354
-4.177028
-5.491963
-7.090967
-8.812187
-10.45074
-11.82168
-12.83056
-13.50922
-14.03814
-14.60799
-15.40767
-16.5448
-17.96513
-19.42575
-20.48586
-20.61401
-19.3158
-16.42261
-12.20543
-7.399302
-3.033957
0.04229546
1.48863
1.672276
1.435854
1.681595
2.918407
5.022526
7.402082
9.339081
10.4242
10.69803
10.5531
10.42185
10.54293
10.87895
11.25598
11.5406
11.71644
11.90667
12.15275
12.37537
12.35337
11.91836
11.02592
9.82102
8.562572
7.450966
6.638334
6.072872
5.657434
5.285358
4.892143
4.451965
3.917139
3.256134
2.435421
1.561556
0.7536068
0.1559124
-0.1459999
-0.1972141
-0.1525993
-0.2242737
-0.5208168
-1.056093
-1.675932
-2.21701
-2.538157
-2.646637
-2.658154
-2.772085
-3.160437
-3.890011
-4.933964
-6.141232
-7.370737
-8.436533
-9.258474
-9.843756
-10.27571
-10.70119
-11.26938
-12.07189
-13.07861
-14.10486
-14.836
-14.86965
-13.91475
-11.83524
-8.832794
-5.425915
-2.3424
-0.2222424
0.6150284
0.3449688
-0.3619995
-0.6998577
-0.04349518
1.730555
4.219292
6.697371
8.523354
9.380924
9.369526
8.869141
8.301119
7.930498
7.846495
7.993895
8.270679
8.60499
8.933533
9.204058
9.316164
9.193666
8.773449
8.116045
7.35157
6.621988
6.042824
5.650269
5.451071
5.362125
5.315216
5.226326
5.065165
4.824806
4.562899
4.378044
4.387379
4.61438
4.979931
5.334247
5.493584
5.373182
4.986439
4.467812
3.990532
3.647995
3.422624
3.197977
2.85794
2.302912
1.490632
0.4193029
-0.8571978
-2.231884
-3.581561
-4.806325
-5.845485
-6.727884
-7.595697
-8.601734
-9.884678
-11.4796
-13.2432
-14.8719
-15.94681
-15.97482
-14.60954
-11.83043
-7.985481
-3.836232
-0.29515
1.933402
2.639081
2.238905
1.533457
1.320129
1.955542
3.256127
4.578292
5.234132
4.869963
3.605629
1.975432
0.5831945
-0.1642427
-0.1810188
0.3379207
1.076507
1.777311
2.350532
2.744249
2.986633
3.05518
2.943788
2.685762
2.37326
2.121696
1.976301
1.983815
2.106853
2.371243
2.816579
3.498108
4.390566
5.361423
6.164742
6.565426
6.497715
6.026873
5.412934
4.888721
4.544639
4.310501
3.982215
3.398899
2.516829
1.393551
0.1174812
-1.183918
-2.451889
-3.694672
-4.876852
-6.017429
-7.103977
-8.130905
-9.12476
-10.12202
-11.10406
-12.03506
-12.8191
-13.22887
-13.00939
-11.91888
-9.855244
-6.996231
-3.859684
-1.087397
0.6982079
1.26759
0.9364586
0.3725739
0.2914181
1.071344
2.566849
4.20199
5.312372
5.43569
4.587435
3.177776
1.741999
0.7325897
0.3547955
0.5173359
1.013033
1.588078
2.041243
2.270395
2.25861
1.995218
1.506334
0.8903236
0.2435875
-0.2535934
-0.4156799
-0.1300087
0.6084862
1.641544
2.693386
3.504158
3.908909
3.905376
3.626053
3.235413
2.83511
2.437878
1.969646
1.374897
0.6608467
-0.1267395
-0.9614868
-1.862553
-2.956429
-4.336899
-5.98756
-7.739258
-9.298199
-10.37989
-10.85124
-10.84166
-10.62808
-10.55856
-10.89489
-11.7143
-12.91078
-14.22754
-15.24164
-15.4916
-14.59541
-12.35796
-9.023647
-5.187233
-1.703094
0.6679726
1.548306
1.164207
0.2193298
-0.3587494
0.1369438
1.879425
4.495255
7.215828
9.250893
10.10024
9.708393
8.454414
6.942478
5.744141
5.171158
5.284061
5.894402
6.737621
7.573376
8.25079
8.682209
8.816635
8.620911
8.122128
7.393112
6.560848
5.730515
4.980659
4.31765
3.728958
3.205795
2.773853
2.449646
2.209629
1.941681
1.472057
0.6823044
-0.4496384
-1.774235
-3.022621
-3.938934
-4.402557
-4.48922
-4.392487
-4.378586
-4.606838
-5.158028
-5.986111
-6.958618
-7.925983
-8.802124
-9.562363
-10.24088
-10.89244
-11.61535
-12.47581
-13.5381
-14.79095
-16.18449
-17.53061
-18.51645
-18.74922
-17.85998
-15.73106
-12.58914
-9.019751
-5.726852
-3.260803
-1.696156
-0.684
0.3451195
1.853352
3.928335
6.27556
8.422623
10.03586
11.04855
11.63143
12.02333
12.29478
12.37484
12.18476
11.75113
11.27046
10.99293
11.08854
11.43053
11.74902
11.66369
11.01979
9.889326
8.544243
7.313208
6.402445
5.88191
5.644449
5.589251
5.568825
5.477449
5.238321
4.825186
4.272797
3.630764
2.994263
2.447044
2.029406
1.729939
1.467722
1.172072
0.7814226
0.2856598
-0.2861195
-0.9333239
-1.701918
-2.635138
-3.782888
-5.146832
-6.596766
-7.980042
-9.097356
-9.868712
-10.29532
-10.49401
-10.63115
-10.94234
-11.62287
-12.79964
-14.47888
-16.39859
-18.05246
-18.80972
-18.12619
-15.88279
-12.47772
-8.721534
-5.495084
-3.382854
-2.391717
-1.995271
-1.473635
-0.2786751
1.66862
3.992476
6.118525
7.609086
8.33279
8.504299
8.507208
8.591471
8.847982
9.226967
9.682844
10.18014
10.76592
11.39788
11.95013
12.23794
12.10178
11.5447
10.6956
9.799128
9.004606
8.358131
7.830307
7.417423
7.20534
7.309161
7.77657
8.473151
9.136146
9.473123
9.307814
8.670505
7.76349
6.837093
6.046257
5.444939
4.948969
4.484156
4.037362
3.667589
3.436153
3.281966
3.027579
2.385615
1.17627
-0.5810976
-2.631081
-4.593803
-6.143035
-7.192518
-7.901026
-8.60464
-9.656135
-11.22647
-13.26075
-15.473
-17.44494
-18.68348
-18.77602
-17.51759
-14.98029
-11.57551
-7.966007
-4.856647
-2.744594
-1.736411
-1.495798
-1.434018
-1.006289
0.05183887
1.601788
3.162334
4.174108
4.270565
3.411427
1.931818
0.3668842
-0.73841
-1.047069
-0.4997425
0.7072554
2.224875
3.684294
4.811937
5.464399
5.655261
5.511246
5.194944
4.83747
4.557549
4.415032
4.467826
4.772326
5.389963
6.315399
7.438285
8.551326
9.384606
9.716993
9.529668
8.970527
8.318452
7.853446
7.688569
7.714803
7.665802
7.214976
6.128735
4.373782
2.149899
-0.1835737
-2.209265
-3.649269
-4.446145
-4.78082
-5.032835
-5.584501
-6.690496
-8.351109
-10.4012
-12.52568
-14.4094
-15.71764
-16.10906
-15.32889
-13.3117
-10.31643
-6.952389
-4.041517
-2.14225
-1.366629
-1.20915
-0.8433533
0.3878174
2.576769
5.189905
7.34392
8.272715
7.783594
6.239246
4.342009
2.755363
1.839949
1.556395
1.686028
1.988798
2.360235
2.796654
3.302233
3.802713
4.155695
4.180254
3.775467
2.997404
2.066935
1.281755
0.9216022
1.04212
1.491669
2.006372
2.265263
2.098185
1.47909
0.5932312
-0.3871651
-1.226734
-1.845936
-2.261593
-2.552372
-2.883265
-3.363087
-4.054514
-4.895971
-5.781172
-6.52927
-7.105726
-7.62825
-8.326752
-9.442511
-11.09716
-13.21265
-15.50824
-17.60706
-19.0568
-19.45877
-18.54448
-16.26699
-12.92296
-9.059723
-5.397335
-2.489298
-0.5468369
0.6603184
1.610073
2.695524
4.072962
5.460421
6.439137
6.644358
6.010277
4.805035
3.510706
2.609467
2.38073
2.897749
3.960138
5.308813
6.640425
7.723397
8.420225
8.709661
8.631975
8.25883
7.698883
7.002394
6.256786
5.534882
4.874924
4.302348
3.743085
3.152153
2.459897
1.727641
1.03387
0.5341568
0.3121109
0.322382
0.4307375
0.3753371
-0.03350735
-0.9031363
-2.178085
-3.705223
-5.321891
-6.891878
-8.382851
-9.820223
-11.30619
-12.87568
-14.53462
-16.24987
-17.96313
-19.60748
-21.00898
-21.8879
-21.81339
-20.41033
-17.535
-13.44953
-8.862934
-4.639167
-1.48755
0.4297094
1.465419
2.377234
3.813104
6.014718
8.701152
11.26901
13.1734
14.13612
14.30326
14.04655
13.75134
13.6105
13.60976
13.6232
13.57227
13.49639
13.47457
13.49501
13.44409
13.10312
12.2811
10.98872
9.396236
7.829552
6.56418
5.731653
5.260202
4.998526
4.817005
4.650024
4.47714
4.248714
3.847569
3.165979
2.157419
0.9297981
-0.2860184
-1.222784
-1.717615
-1.766706
-1.642202
-1.681192
-2.17795
-3.257792
-4.795094
-6.502275
-8.078682
-9.332067
-10.21569
-10.888
-11.55449
-12.3978
-13.55032
-15.01735
-16.72657
-18.48076
-19.95918
-20.6792
-20.21061
-18.31533
-15.10596
-11.11516
-7.107744
-3.808262
-1.608887
-0.3907394
0.3948555
1.418552
3.156528
5.667175
8.585876
11.35286
13.48012
14.74524
15.26675
15.36153
15.3131
15.33015
15.43245
15.51987
15.48087
15.19163
14.57468
13.64477
12.44501
11.05016
9.594597
8.221043
7.072998
6.264297
5.830185
5.694309
5.732491
5.756588
5.576862
5.099884
4.339249
3.422913
2.525433
1.78664
1.284145
1.030277
1.000099
1.117447
1.319839
1.506325
1.563282
1.403164
0.9421272
0.1504021
-0.9803123
-2.399162
-4.016304
-5.631771
-7.042709
-8.048336
-8.550694
-8.660877
-8.646988
-8.876369
-9.635876
-11.0071
-12.78017
-14.54498
-15.83354
-16.19923
-15.40056
-13.43349
-10.57285
-7.321098
-4.26939
-1.919487
-0.4923935
0.1217346
0.3530121
0.7143021
1.578835
3.013592
4.726643
6.236462
7.132488
7.231918
6.692928
5.903851
5.296082
5.149235
5.511551
6.226143
7.013054
7.67926
8.125187
8.381748
8.515034
8.545895
8.416573
8.072159
7.502415
6.809986
6.180828
5.809017
5.844162
6.336487
7.171688
8.159618
9.080044
9.737728
10.01746
9.894337
9.413921
8.720779
8.025948
7.444588
7.040585
6.722054
6.306038
5.588947
4.436707
2.83572
0.9465103
-0.9293251
-2.541672
-3.716373
-4.46545
-5.007629
-5.629517
-6.583015
-7.997532
-9.821636
-11.85988
-13.85623
-15.54778
-16.64153
-16.89515
-16.06972
-14.08008
-11.13359
-7.769258
-4.707273
-2.566946
-1.544704
-1.283134
-1.111387
-0.3354034
1.346901
3.641605
5.865555
7.296185
7.547527
6.766445
5.470369
4.241348
3.472887
3.236477
3.296129
3.360023
3.255177
2.948931
2.570269
2.267164
2.091892
1.984898
1.83214
1.531267
1.135307
0.8249626
0.8244057
1.321867
2.346117
3.700394
5.068037
6.115534
6.626644
6.609484
6.254431
5.779984
5.389727
5.170452
5.022415
4.776661
4.228232
3.232871
1.780315
0.03077126
-1.75153
-3.260934
-4.270564
-4.7747
-5.000138
-5.359493
-6.294107
-8.04345
-10.5508
-13.43096
-16.11198
-18.01925
-18.69542
-17.86981
-15.55915
-12.03014
-7.893212
-3.97343
-1.053634
0.4062805
0.4994879
-0.1064692
-0.4659457
0.2110667
2.128096
4.807621
7.372871
8.975653
9.227554
8.249957
6.547713
4.719814
3.207217
2.196014
1.671888
1.518715
1.606225
1.806666
1.957573
1.956804
1.739364
1.34271
0.9019587
0.5689842
0.4911548
0.7964588
1.480025
2.503205
3.779651
5.105735
6.233623
6.954328
7.104154
6.674581
5.823299
4.763575
3.760311
2.951585
2.363319
1.874044
1.351339
0.6475768
-0.3058105
-1.465625
-2.777922
-4.118832
-5.409823
-6.577
-7.604487
-8.499554
-9.370192
-10.31762
-11.46521
-12.95627
-14.81601
-16.98855
-19.22176
-21.08732
-22.06566
-21.71046
-19.82187
-16.58038
-12.61889
-8.713215
-5.599937
-3.615602
-2.580271
-1.912739
-0.899848
0.8739624
3.368949
6.106309
8.454239
9.916126
10.36726
10.06738
9.4414
8.928046
8.764042
8.974586
9.428471
9.998817
10.48535
10.74121
10.65157
10.12876
9.190266
7.987384
6.755766
5.746684
5.149107
4.969711
5.088336
5.350785
5.566605
5.664514
5.592691
5.363665
4.958054
4.323731
3.414122
2.213479
0.7963567
-0.7255647
-2.137568
-3.311571
-4.184265
-4.833967
-5.462179
-6.291864
-7.47955
-8.923691
-10.4025
-11.51715
-12.02338
-11.90052
-11.42796
-11.07392
-11.27297
-12.22956
-13.84252
-15.83597
-17.75375
-19.15947
-19.65306
-18.92412
-16.85064
-13.58723
-9.622746
-5.665116
-2.478322
-0.5108459
0.3072627
0.5265336
0.9410791
2.205864
4.51545
7.552815
10.69561
13.27619
14.85891
15.38214
15.05968
14.30413
13.51809
12.9869
12.84305
13.04544
13.39721
13.64702
13.54554
12.91329
11.7712
10.27655
8.675209
7.199682
6.003491
5.098361
4.453795
4.043818
3.826503
3.804761
3.935832
4.123612
4.242982
4.210301
3.995147
3.612071
3.149755
2.640127
2.087204
1.445706
0.6868486
-0.1936378
-1.110332
-2.008563
-2.853682
-3.681204
-4.604901
-5.680625
-6.905411
-8.147585
-9.194029
-9.846441
-10.05393
-9.935194
-9.752991
-9.858296
-10.44544
-11.57057
-13.09452
-14.68705
-15.93791
-16.42434
-15.82151
-14.02818
-11.29236
-8.137754
-5.241721
-3.176398
-2.181497
-2.031483
-2.133926
-1.818555
-0.6262045
1.460428
4.068064
6.619403
8.588177
9.714866
10.00492
9.703644
9.09513
8.41241
7.825091
7.423779
7.266701
7.344752
7.685648
8.195415
8.73397
9.137643
9.26747
9.068048
8.602352
8.006508
7.424917
6.988393
6.699007
6.455356
6.139734
5.633876
4.881245
3.938305
2.9059
1.9157
1.100327
0.5495358
0.2678518
0.2339668
0.356986
0.4959908
0.5455551
0.4505253
0.2086411
-0.1500864
-0.6002073
-1.169863
-1.858797
-2.682474
-3.598486
-4.544412
-5.519122
-6.611054
-7.937006
-9.591817
-11.59586
-13.81571
-16.03223
-17.92987
-19.11278
-19.23388
-18.0522
-15.57971
-12.15307
-8.407796
-5.076843
-2.756761
-1.602947
-1.227862
-0.95819
-0.1085167
1.589229
3.893131
6.174101
7.765308
8.288552
7.811538
6.811718
5.889146
5.495197
5.745977
6.485744
7.442648
8.350718
9.084105
9.598332
9.912859
10.00669
9.878399
9.485271
8.843835
8.027415
7.149907
6.406896
5.955706
5.879357
6.113296
6.497884
6.811447
6.884195
6.678862
6.295022
5.934637
5.720038
5.660256
5.637136
5.503959
5.17305
4.676665
4.064464
3.366226
2.554039
1.528739
0.2386942
-1.220742
-2.687157
-3.98762
-5.105079
-6.167726
-7.415632
-9.037929
-11.08022
-13.39392
-15.68499
-17.59292
-18.70846
-18.7034
-17.30578
-14.51291
-10.63128
-6.330963
-2.438756
0.293952
1.533182
1.502324
0.8068714
0.191808
0.1522695
0.7749519
1.753136
2.626551
3.00528
2.784287
2.149756
1.421152
0.916983
0.8370579
1.202633
1.940128
2.935077
4.07103
5.241205
6.346827
7.244382
7.780273
7.89219
7.555264
6.914336
6.215579
5.776934
5.845671
6.484106
7.51759
8.625922
9.438375
9.669543
9.239218
8.279539
7.033257
5.804843
4.776022
3.988159
3.34065
2.595282
1.529031
0.09416389
-1.588539
-3.269293
-4.644894
-5.557516
-6.052992
-6.363711
-6.771789
-7.486892
-8.576808
-9.988308
-11.67925
-13.49889
-15.15748
-16.1816
-16.0432
-14.4403
-11.5276
-8.048016
-4.983339
-3.135112
-2.654828
-2.957057
-3.065525
-2.179146
-0.1238785
2.588407
5.007421
6.344129
6.331549
5.272435
3.815627
2.589435
1.947834
1.908278
2.265631
2.746761
3.121405
3.273907
3.166965
2.852929
2.385027
1.828751
1.222757
0.6129894
0.07252121
-0.2671604
-0.2458191
0.2639904
1.279547
2.593407
3.873037
4.729744
4.941713
4.516958
3.658401
2.65097
1.666512
0.7978115
-0.05588341
-1.01804
-2.161251
-3.472424
-4.826216
-6.098276
-7.212887
-8.225466
-9.223785
-10.31193
-11.56616
-12.95225
-14.3861
-15.6394
-16.415
-16.36756
-15.26179
-13.06442
-10.04085
-6.768713
-3.885866
-1.87139
-0.7985697
-0.3356094
0.1194344
1.059928
2.660909
4.69344
6.649581
8.057465
8.656737
8.514416
7.910601
7.197703
6.687441
6.521328
6.725182
7.226561
7.903532
8.551345
8.993321
9.104347
8.8432
8.301855
7.607703
6.88524
6.176696
5.506797
4.878265
4.308679
3.859568
3.533703
3.316194
3.16225
3.039948
2.949986
2.915737
2.89736
2.81504
2.542956
1.987078
1.197488
0.3140574
-0.4553308
-0.9792414
-1.296901
-1.53769
-1.859739
-2.349512
-3.006061
-3.786962
-4.67412
-5.688458
-6.845128
-8.148193
-9.533901
-10.95334
-12.39842
-13.92821
-15.6103
-17.43031
-19.19157
-20.46468
-20.78987
-19.791
-17.41319
-13.98584
-10.15349
-6.628674
-3.984229
-2.356615
-1.440087
-0.666122
0.5663586
2.549395
5.176808
8.014196
10.51725
12.27608
13.19442
13.43796
13.28968
13.01578
12.7457
12.49782
12.20555
11.81873
11.31446
10.72735
10.03506
9.199881
8.232027
7.194035
6.187853
5.35165
4.795211
4.541414
4.5767
4.797961
5.110322
5.464722
5.790728
6.032348
6.122393
6.029216
5.789531
5.493424
5.278304
5.231414
5.393461
5.656297
5.868877
5.81983
5.336616
4.301501
2.706647
0.7292562
-1.376807
-3.267645
-4.691533
-5.513967
-5.812119
-5.834745
-5.881809
-6.201557
-6.849442
-7.724096
-8.622112
-9.345206
-9.785475
-10.01516
-10.25009
-10.71616
-11.6628
-13.15992
-15.11823
-17.28138
-19.20566
-20.38528
-20.35088
-18.91555
-16.18417
-12.70415
-9.19291
-6.371959
-4.630658
-3.815528
-3.340025
-2.472361
-0.7350121
1.852184
4.771742
7.346346
9.07895
9.905698
10.14789
10.2753
10.63461
11.32384
12.16197
12.92486
13.46577
13.75217
13.78912
13.57829
13.05309
12.15655
10.92998
9.486458
8.018085
6.717382
5.714516
5.022302
4.610476
4.377852
4.224528
4.03339
3.711288
3.250347
2.736358
2.299827
2.080711
2.121959
2.343011
2.596919
2.684659
2.503251
2.073384
1.484219
0.861907
0.3416181
-0.01528311
-0.2114434
-0.2793818
-0.3145871
-0.4546127
-0.7854724
-1.358948
-2.133844
-2.946665
-3.622765
-4.129469
-4.556046
-5.139181
-6.157449
-7.764364
-9.971432
-12.58927
-15.31921
-17.79751
-19.6557
-20.52827
-20.11703
-18.34534
-15.41925
-11.94704
-8.697059
-6.346753
-5.186078
-4.938439
-4.9136
-4.312493
-2.64158
0.09445763
3.377152
6.479286
8.811808
10.12525
10.52648
10.38757
10.07767
9.871265
9.906693
10.1552
10.53635
10.89949
11.09948
11.00767
10.55582
9.771957
8.752872
7.726004
6.889472
6.363538
6.164513
6.226013
6.460413
6.799956
7.183821
7.550231
7.798378
7.838631
7.585537
7.096613
6.461391
5.849203
5.384536
5.082551
4.834087
4.513005
3.996578
3.294024
2.507159
1.765185
1.162016
0.687829
0.2966814
-0.1605616
-0.8047924
-1.716871
-2.89456
-4.228849
-5.558737
-6.66984
-7.415333
-7.741077
-7.799496
-7.865879
-8.226145
-9.06588
-10.38517
-11.97622
-13.51554
-14.58945
-14.86599
-14.11461
-12.32842
-9.752613
-6.907686
-4.409327
-2.759996
-2.073257
-2.012224
-1.94611
-1.266462
0.2868271
2.484434
4.685766
6.195499
6.571856
5.808445
4.268301
2.513868
1.030712
0.140089
-0.06804466
0.3154316
1.091789
2.062811
3.022644
3.802589
4.328732
4.581034
4.617634
4.520155
4.378195
4.251545
4.209854
4.327364
4.66894
5.285503
6.138893
7.12529
8.105919
8.966713
9.620628
10.03147
10.15349
9.942245
9.361237
8.396999
7.115833
5.6908
4.292198
3.076031
2.087036
1.271564
0.5078926
-0.2737961
-1.1287
-2.030998
-2.911289
-3.75462
-4.586933
-5.46851
-6.522442
-7.841915
-9.477242
-11.41151
-13.57639
-15.77926
-17.7834
-19.25531
-19.82589
-19.22084
-17.34568
-14.38705
-10.83015
-7.400665
-4.732719
-3.216003
-2.722504
-2.723103
-2.513382
-1.56036
0.206234
2.377045
4.248734
5.232323
5.084499
4.005928
2.493866
1.080242
0.1376228
-0.2074203
-0.03939438
0.4535294
1.072079
1.660992
2.098755
2.330315
2.370159
2.304043
2.250237
2.333912
2.624207
3.164753
3.931965
4.832943
5.792458
6.71088
7.501595
8.106239
8.48748
8.584064
8.36554
7.781403
6.785362
5.448689
3.921562
2.415329
1.159313
0.2680283
-0.2757416
-0.6347961
-1.016506
-1.599815
-2.452827
-3.575226
-4.906387
-6.306377
-7.63377
-8.75396
-9.579494
-10.13792
-10.57798
-11.13347
-12.01914
-13.33487
-15.01923
-16.90725
-18.72457
-20.16483
-20.89508
-20.59559
-19.07677
-16.42218
-13.04898
-9.635197
-6.86311
-5.074177
-4.117508
-3.390701
-2.213085
-0.1935577
2.565243
5.526161
7.980339
9.454006
9.895462
9.620766
9.067108
8.566856
8.201847
7.923141
7.656422
7.425991
7.347805
7.521156
7.931198
8.444485
8.875229
9.00507
8.806618
8.357613
7.816978
7.410759
7.287933
7.458912
7.82016
8.182854
8.296593
8.052525
7.444836
6.600082
5.725708
5.006195
4.482182
4.126835
3.892307
3.723751
3.631603
3.606403
3.584805
3.481007
3.220043
2.734791
2.053341
1.237793
0.2999229
-0.7686272
-2.02261
-3.498039
-5.120735
-6.784264
-8.331299
-9.595253
-10.55425
-11.31515
-12.04678
-12.94329
-14.10337
-15.49164
-16.98927
-18.41254
-19.47869
-19.86597
-19.32755
-17.73711
-15.25134
-12.31678
-9.505543
-7.322403
-5.99099
-5.268776
-4.613663
-3.518822
-1.724846
0.5736885
2.867889
4.663338
5.692072
5.99152
5.895811
5.814262
6.03808
6.710354
7.780096
9.105049
10.48602
11.73277
12.6467
13.11836
13.09138
12.62041
11.81706
10.83173
9.783537
8.786432
7.96117
7.441143
7.395971
7.839466
8.646593
9.492252
9.968704
9.759657
8.82922
7.393339
5.854166
4.572159
3.661993
3.04677
2.491884
1.781101
0.8527336
-0.1885433
-1.159477
-1.919434
-2.457064
-2.863165
-3.246929
-3.67738
-4.187979
-4.768402
-5.398571
-6.063156
-6.781118
-7.57012
-8.429682
-9.355671
-10.38296
-11.59924
-13.0947
-14.95072
-17.1379
-19.45694
-21.48458
-22.65901
-22.42533
-20.48151
-16.99663
-12.60943
-8.211835
-4.604894
-2.152206
-0.6628513
0.4328766
1.711043
3.427699
5.411208
7.147184
8.200846
8.410552
8.021646
7.447128
7.03995
6.936969
7.080236
7.362197
7.701848
8.119754
8.638581
9.230091
9.767088
10.04731
9.925782
9.364639
8.49197
7.529349
6.759146
6.413087
6.608321
7.247855
8.039487
8.63583
8.745227
8.293138
7.468721
6.619075
6.03539
5.846435
5.928377
6.079972
6.104207
5.871634
5.400522
4.770641
4.087907
3.412127
2.772977
2.119127
1.365218
0.4363053
-0.6872723
-1.921472
-3.082568
-4.015239
-4.670576
-5.1732
-5.808678
-6.890175
-8.587747
-10.88969
-13.57156
-16.26521
-18.56619
-20.0017
-20.17493
-18.88127
-16.22359
-12.69102
-9.037422
-5.995971
-4.000303
-2.99125
-2.428034
-1.671247
-0.3191612
1.57683
3.529649
4.911343
5.315444
4.756256
3.616051
2.475839
1.767158
1.670533
2.131679
2.915943
3.820367
4.719421
5.575205
6.388824
7.162919
7.844664
8.375105
8.669721
8.708198
8.528544
8.265254
8.09254
8.173892
8.579241
9.195247
9.803074
10.14615
10.01501
9.375837
8.316282
6.996799
5.608161
4.345982
3.339514
2.690825
2.372974
2.220331
1.993053
1.40919
0.3117981
-1.261398
-3.097301
-4.920574
-6.466527
-7.624033
-8.472573
-9.181295
-9.928411
-10.83226
-11.93688
-13.22387
-14.6115
-15.88426
-16.72625
-16.75169
-15.65097
-13.3882
-10.31259
-7.085685
-4.42598
-2.75399
-1.959927
-1.449965
-0.4226351
1.647362
4.695879
8.037614
10.73125
11.9709
11.50383
9.65724
7.15143
4.740468
2.939797
1.889498
1.438195
1.35227
1.451826
1.656977
1.964027
2.323784
2.620079
2.697567
2.440437
1.896891
1.262047
0.8428078
0.8990173
1.543329
2.661312
3.950537
5.0425
5.646997
5.659595
5.14262
4.302418
3.39646
2.659983
2.178373
1.91431
1.680161
1.217457
0.3280067
-1.039524
-2.719599
-4.424522
-5.832541
-6.785362
-7.388418
-7.941921
-8.789368
-10.13607
-11.97575
-14.08561
-16.1206
-17.65432
-18.24166
-17.53457
-15.39678
-12.02755
-8.000904
-4.233109
-1.516474
-0.2345715
-0.1018467
-0.3104057
0.02682877
1.380705
3.563543
5.91448
7.662939
8.404045
8.240116
7.6171
7.033848
6.755226
6.76442
6.940388
7.200642
7.592972
8.217663
9.042969
9.872704
10.45413
10.60428
10.33083
9.826111
9.299068
8.874374
8.549473
8.225586
7.803505
7.299229
6.727695
6.154869
5.542278
4.822502
3.931171
2.91449
1.887016
0.9494247
0.1999931
-0.4024658
-0.9306984
-1.473179
-2.092209
-2.818619
-3.656094
-4.623337
-5.72855
-6.963459
-8.25676
-9.497181
-10.58148
-11.4246
-12.03905
-12.54288
-13.1024
-13.92071
-15.1539
-16.88044
-18.97745
-21.14004
-22.86242
-23.5503
-22.73411
-20.25438
-16.38857
-11.79735
-7.355228
-3.779099
-1.367905
0.08450317
1.212048
2.681786
4.888058
7.77924
10.91567
13.7235
15.7656
16.9143
17.31879
17.27458
16.99285
16.60149
16.14489
15.68705
15.33488
15.16482
15.15089
15.08144
14.69289
13.79702
12.43974
10.89738
9.568455
8.712559
8.381359
8.396324
8.483879
8.459934
8.306427
8.121651
7.957355
7.755348
7.365166
6.637798
5.503643
4.069782
2.555759
1.177544
0.09493637
-0.7061119
-1.352959
-2.002907
-2.768707
-3.650932
-4.538113
-5.264118
-5.739853
-5.954456
-6.009476
-6.064217
-6.260441
-6.667465
-7.232269
-7.848846
-8.370453
-8.722317
-8.95575
-9.190552
-9.624187
-10.44712
-11.76341
-13.50607
-15.51825
-17.57082
-19.39656
-20.7147
-21.20716
-20.54288
-18.53332
-15.31876
-11.41824
-7.656097
-4.797844
-3.169281
-2.498383
-2.020134
-0.9290085
1.246891
4.366932
7.830944
10.89493
13.03856
14.15726
14.48907
14.41216
14.20573
14.00683
13.88211
13.89144
14.12824
14.63641
15.30453
15.83691
15.92615
15.36617
14.19899
12.73129
11.37166
10.43565
10.02751
10.01739
10.12878
10.15032
9.93261
9.425858
8.623505
7.522156
6.151619
4.568916
2.966507
1.561172
0.5166473
-0.1496658
-0.5236816
-0.7915649
-1.097584
-1.506062
-1.983543
-2.48214
-2.961517
-3.381874
-3.693169
-3.790657
-3.616783
-3.233986
-2.843891
-2.710213
-3.066593
-3.953876
-5.186131
-6.471153
-7.498592
-8.126469
-8.475964
-8.759327
-9.194653
-9.889736
-10.85565
-12.06042
-13.48009
-15.09126
-16.72739
-18.02995
-18.49104
-17.68532
-15.48267
-12.25017
-8.720131
-5.727684
-3.786106
-2.855183
-2.416946
-1.715111
-0.2140274
2.14912
4.997478
7.716175
9.736008
10.80575
10.99226
10.55293
9.814728
9.018436
8.333031
7.902687
7.846302
8.199257
8.895039
9.726654
10.36895
10.61432
10.35659
9.708672
8.867916
8.05534
7.379814
6.860233
6.470398
6.172607
5.992844
5.916351
5.877048
5.749878
5.366917
4.659786
3.691212
2.674736
1.876915
1.507389
1.589554
1.97274
2.411201
2.67712
2.608536
2.201653
1.569569
0.8435631
0.1686707
-0.3890152
-0.7919121
-1.042297
-1.200706
-1.35334
-1.647907
-2.179916
-2.992523
-3.99155
-5.039707
-5.994255
-6.815399
-7.626686
-8.614914
-9.956783
-11.70455
-13.7661
-15.93904
-17.95249
-19.5106
-20.2544
-19.83768
-18.03777
-14.89977
-10.86515
-6.739353
-3.367565
-1.311531
-0.5679054
-0.6101303
-0.6610222
-0.1484489
1.065506
2.684254
4.15834
5.091885
5.396378
5.289604
5.117592
5.150463
5.435047
5.916821
6.466507
7.015804
7.578259
8.154331
8.698292
9.075085
9.182465
8.96714
8.51865
8.016045
7.651081
7.581039
7.785484
8.131607
8.431934
8.546963
8.402653
8.030878
7.538597
7.06308
6.767282
6.712179
6.867411
7.12919
7.391979
7.495731
7.354294
6.95796
6.33477
5.591551
4.802702
4.034893
3.343355
2.743256
2.195145
1.564096
0.6766109
-0.6226234
-2.371181
-4.419952
-6.494968
-8.292171
-9.63629
-10.59135
-11.38739
-12.32473
-13.56172
-15.05137
-16.53382
-17.67809
-18.16573
-17.78238
-16.41137
-14.10509
-11.15469
-8.077845
-5.485501
-3.900204
-3.507355
-4.045977
-4.930421
-5.50348
-5.368399
-4.488145
-3.173013
-1.820002
-0.6732082
0.2089405
0.9318657
1.571989
2.115168
2.457283
2.502374
2.235593
1.773808
1.315071
1.035829
1.021167
1.2287
1.512675
1.715627
1.722198
1.527277
1.206507
0.8802543
0.6773472
0.6406717
0.741508
0.8956032
1.002856
0.9985504
0.8724642
0.6670108
0.4597507
0.3150148
0.2610664
0.2829142
0.3393216
0.3822904
0.3777909
0.3185868
0.2238903
0.1253462
0.05302429
0.01985359
0.01928711
0.03618622
0.05555153
0.06204224
0.0527916
0.03284883
0.01217508
-0.00564909
-0.01671982
-0.01979589
-0.02243662
-0.02176666
-0.02150249
-0.02101898
-0.02141523
-0.02182198
-0.0202899
-0.01976681
-0.01902151
-0.01863337
-0.01808119
-0.01816463
-0.01716566
-0.01739025
-0.01837254
-0.0178566
-0.01691866
-0.01795053
-0.01802778
-0.01783037
-0.0184474
-0.01741552
-0.01757622
-0.01846552
-0.01871967
-0.01925898
-0.01899242
-0.01949978
-0.01934052
-0.01989365
-0.01883936
-0.0194726
-0.0184412
-0.01778173
-0.01786613
-0.01801395
-0.01777315
-0.01740837
-0.01741886
-0.01687241
-0.01643658
-0.01637936
-0.01579237
-0.01587629
-0.01619196
-0.01619577
-0.01633501
-0.01628494
-0.0157423
-0.01564026
-0.01602983
-0.01643991
-0.01695538
-0.01571131
-0.01566982
-0.01554871
-0.01492691
-0.01431561
-0.01403427
-0.01382828
-0.01322794
-0.01359367
-0.01273155
-0.01307058
-0.01337576
-0.01263094
-0.01283789
-0.01287031
-0.01202154
-0.01180124
-0.01144981
-0.01146269
-0.01162958
-0.01062155
-0.01094198
-0.01117563
-0.01081181
-0.01049852
-0.01034546
-0.01095152
-0.01136398
-0.01032877
-0.01138735
-0.01179171
-0.01104498
-0.0112648
-0.01150274
-0.01234341
-0.011971
-0.01227379
-0.0119772
-0.01240063
-0.01363087
-0.01217175
-0.01273394
-0.01280499
-0.01389074
-0.01385069
-0.01402998
-0.01449156
-0.01476955
-0.01490641
-0.01475763
-0.0147047
-0.01438618
-0.01525497
-0.01418209
-0.01421976
-0.01399755
-0.0141573
-0.01418877
-0.01419973
-0.01403189
-0.01478863
-0.01402664
-0.01441813
-0.01480389
-0.01443481
-0.01425314
-0.01467609
-0.01441336
-0.01463842
-0.01524162
-0.0143609
-0.01526308
-0.01624584
-0.01578188
-0.01574135
-0.01654005
-0.01628208
-0.01544094
-0.01490831
-0.0141716
-0.01455832
-0.01471901
-0.01366901
-0.01395798
-0.01309586
-0.01179171
-0.01343966
-0.01316929
-0.01262283
-0.01272583
-0.01370716
-0.01509666
-0.01744604
-0.01953554
-0.02112675
-0.02191067
-0.02109146
-0.02168512
-0.02466345
-0.031075
-0.04132271
-0.05603838
-0.07080412
-0.08377123
-0.09109402
-0.09269571
-0.08910513
-0.08488083
-0.0846324
-0.09187555
-0.10568
-0.1243424
-0.1447959
-0.161993
-0.173399
-0.1783457
-0.1818824
-0.1923547
-0.2124095
-0.2463417
-0.2873116
-0.3277473
-0.3563704
-0.3680573
-0.3695345
-0.3718066
-0.399487
-0.4592104
-0.5551138
-0.668952
-0.7755699
-0.8497691
-0.8783445
-0.8752961
-0.8702536
-0.9065881
-1.009784
-1.185274
-1.403912
-1.61934
-1.778678
-1.854609
-1.856732
-1.830939
-1.853446
-1.974508
-2.220551
-2.55021
-2.904073
-3.182453
-3.31822
-3.278553
-3.064151
-2.751592
-2.428905
-2.238191
-2.255445
-2.50461
-2.843731
-3.006838
-2.671448
-1.608641
0.1530333
2.325369
4.422565
5.977953
6.686554
6.530061
5.699669
4.522668
3.336939
2.422683
1.99827
2.199122
3.065468
4.417074
5.943633
7.205316
7.826768
7.683141
6.925048
5.874568
4.888508
4.16098
3.714139
3.431842
3.192653
2.957688
2.784403
2.747541
2.817754
2.914135
2.86466
2.610381
2.184611
1.710078
1.313867
1.066152
0.9143391
0.7640181
0.5371704
0.1826363
-0.303359
-0.92523
-1.707801
-2.664917
-3.769327
-4.967192
-6.160881
-7.233083
-8.124229
-8.859821
-9.511375
-10.22779
-11.16627
-12.42207
-13.99959
-15.75122
-17.37709
-18.43348
-18.45444
-17.07488
-14.2562
-10.3249
-6.005879
-2.167949
0.4847069
1.675697
1.727085
1.38769
1.489973
2.497385
4.329366
6.4218
8.080008
8.843588
8.68689
7.943608
7.068705
6.422523
6.147098
6.229461
6.615294
7.244396
8.050449
8.914651
9.621378
9.990593
9.949412
9.596224
9.140218
8.772917
8.569252
8.466748
8.351862
8.173372
7.951767
7.767568
7.736277
7.874741
8.129187
8.397286
8.546664
8.500402
8.258251
7.837392
7.280389
6.608004
5.804926
4.811959
3.570213
1.99205
0.1185942
-1.839768
-3.618811
-4.913898
-5.591142
-5.747639
-5.661601
-5.704865
-6.242832
-7.447424
-9.277917
-11.55746
-14.02593
-16.35465
-18.18095
-19.04041
-18.51262
-16.444
-13.05989
-9.025098
-5.252642
-2.459258
-0.8700542
-0.1175389
0.5729673
1.890411
4.069482
6.743267
9.164663
10.5798
10.66966
9.568563
7.70262
5.642724
3.78545
2.363163
1.509069
1.232384
1.469658
2.10026
2.881722
3.570029
4.0162
4.184875
4.123056
3.944138
3.658613
3.288327
2.906322
2.646561
2.694311
3.17689
4.028359
4.967001
5.643132
5.800144
5.391452
4.639916
3.875669
3.286755
2.902731
2.501864
1.772174
0.5255709
-1.239047
-3.300063
-5.327744
-7.019403
-8.228775
-8.989611
-9.505488
-10.09237
-11.05429
-12.57662
-14.64237
-17.0024
-19.24412
-20.84861
-21.36489
-20.45876
-18.10043
-14.56075
-10.4361
-6.501852
-3.415321
-1.494341
-0.5449533
0.0211277
0.9151192
2.509681
4.720531
6.963369
8.519798
8.947032
8.27097
6.951702
5.580242
4.66258
4.352264
4.564482
5.069271
5.661168
6.220339
6.690347
7.034278
7.217391
7.214533
7.009887
6.669049
6.278773
5.917916
5.639881
5.398106
5.107076
4.697262
4.140066
3.481705
2.836829
2.250513
1.69963
1.100546
0.3349237
-0.6022749
-1.611135
-2.500471
-3.156599
-3.547588
-3.807289
-4.182829
-4.895084
-6.081825
-7.689893
-9.533481
-11.34124
-12.88268
-14.00514
-14.70127
-15.10996
-15.44192
-15.90408
-16.56829
-17.43162
-18.30728
-18.8786
-18.78115
-17.68727
-15.45938
-12.25116
-8.55126
-5.005436
-2.234316
-0.5209132
0.3083138
0.809289
1.637698
3.21902
5.572577
8.279852
10.75171
12.5037
13.3734
13.49388
13.18368
12.76924
12.46213
12.37459
12.522
12.85859
13.27745
13.6478
13.80109
13.58725
12.98929
12.0646
10.9393
9.743188
8.588901
7.542065
6.67722
6.101353
5.879739
6.034594
6.439529
6.842208
6.973405
6.684041
6.004211
5.136871
4.314485
3.670212
3.157141
2.585724
1.762556
0.6197042
-0.7205324
-2.048515
-3.134792
-3.905541
-4.454819
-4.999939
-5.739467
-6.721632
-7.84962
-8.916661
-9.725864
-10.17453
-10.33484
-10.41298
-10.66854
-11.30245
-12.43684
-14.05165
-16.02114
-18.07336
-19.77831
-20.60353
-20.10972
-18.13485
-14.93182
-11.14619
-7.601449
-4.89817
-3.161709
-1.974636
-0.6485405
1.359302
4.099419
7.077985
9.581436
11.03798
11.39442
11.03698
10.52294
10.27966
10.40168
10.71094
10.98156
11.12544
11.18597
11.25271
11.3173
11.25729
10.90767
10.22195
9.340109
8.442879
7.697069
7.122204
6.652653
6.211905
5.791649
5.479469
5.321386
5.338499
5.409019
5.380016
5.149508
4.71513
4.169081
3.611847
3.094011
2.590714
2.026773
1.345545
0.5680523
-0.2598362
-1.062635
-1.839586
-2.668348
-3.652878
-4.80512
-6.03466
-7.160797
-7.998909
-8.50816
-8.856813
-9.294149
-10.07599
-11.34811
-13.04932
-14.98979
-16.9012
-18.39729
-19.04068
-18.45449
-16.44871
-13.19756
-9.323496
-5.662167
-2.970955
-1.579082
-1.204206
-1.164309
-0.7135773
0.5459442
2.519749
4.697176
6.474916
7.484186
7.688028
7.379351
6.952898
6.722277
6.815056
7.242496
7.939554
8.837824
9.87269
10.89558
11.73979
12.19593
12.14067
11.6242
10.85503
10.09141
9.500847
9.099108
8.754736
8.406387
8.068804
7.885031
7.964201
8.274101
8.585789
8.600243
8.124729
7.185619
6.057255
5.096193
4.543346
4.390726
4.407373
4.217276
3.539663
2.29845
0.6596394
-1.073927
-2.606745
-3.808977
-4.715307
-5.550859
-6.592508
-8.004663
-9.804354
-11.82603
-13.7982
-15.42257
-16.40986
-16.50524
-15.55494
-13.57771
-10.82332
-7.749243
-4.94273
-2.88825
-1.786024
-1.422436
-1.269747
-0.7192926
0.5852337
2.598313
4.882729
6.779185
7.798862
7.747358
6.825525
5.457166
4.151759
3.250831
2.910285
3.06408
3.554913
4.206882
4.846725
5.335442
5.522158
5.307444
4.681407
3.785441
2.821045
2.022913
1.566448
1.474672
1.662176
2.003886
2.372384
2.68965
2.929619
3.034786
3.006116
2.890009
2.767199
2.696763
2.670433
2.530132
2.042585
1.050718
-0.4311945
-2.170642
-3.87265
-5.346213
-6.571296
-7.711013
-8.979202
-10.52277
-12.31512
-14.146
-15.65706
-16.40926
-16.02721
-14.31697
-11.42192
-7.889825
-4.508005
-2.001696
-0.7092819
-0.3649775
-0.2427452
0.4650276
2.156388
4.613472
7.045407
8.544426
8.532095
7.040516
4.648126
2.172572
0.3050833
-0.6501307
-0.7942095
-0.4602027
0.01125002
0.4101312
0.7671406
1.217965
1.849949
2.638958
3.376425
3.837217
3.822492
3.342034
2.549209
1.725988
1.119181
0.8044853
0.7012093
0.6401129
0.4578047
0.06226635
-0.547617
-1.329677
-2.258672
-3.325976
-4.534134
-5.806489
-7.079385
-8.257897
-9.338681
-10.41243
-11.61011
-13.06095
-14.78942
-16.71873
-18.58756
-20.08791
-20.81343
-20.38824
-18.54036
-15.25942
-10.89162
-6.09744
-1.712662
1.615408
3.641196
4.678675
5.390943
6.430175
8.10587
10.23675
12.3084
13.78052
14.40897
14.29084
13.79251
13.29581
12.95178
12.75621
12.56602
12.31103
12.0071
11.73648
11.53388
11.33173
11.01568
10.4513
9.56553
8.40028
7.132127
5.929572
4.974521
4.333138
4.016861
3.983143
4.165574
4.478005
4.804718
5.053747
5.130203
4.998578
4.641658
4.106509
3.447272
2.688003
1.820987
0.8051448
-0.391789
-1.712308
-3.026183
-4.173247
-5.062061
-5.72504
-6.298759
-6.952897
-7.785379
-8.773988
-9.792585
-10.68199
-11.30793
-11.6622
-11.83045
-11.98097
-12.28495
-12.90699
-13.97277
-15.50957
-17.34532
-19.03485
-19.92649
-19.37719
-17.03201
-13.06307
-8.178201
-3.385968
0.420862
2.838866
4.02563
4.613736
5.297682
6.529304
8.293416
10.24494
11.8961
12.9077
13.23211
13.02615
12.59194
12.15569
11.85054
11.63497
11.46398
11.25415
10.99412
10.6733
10.2587
9.704781
8.92119
7.886654
6.652016
5.33079
4.061721
2.992091
2.267549
1.956383
2.112005
2.689275
3.499094
4.291859
4.826317
4.947114
4.660706
4.115399
3.439182
2.727283
1.916828
0.8606178
-0.5520916
-2.308981
-4.218629
-6.009991
-7.429476
-8.359079
-8.770896
-8.752803
-8.426741
-7.90066
-7.280441
-6.671296
-6.164515
-5.842799
-5.75109
-5.897722
-6.289175
-6.982328
-8.017893
-9.424335
-11.18097
-13.15617
-15.06928
-16.55722
-17.17575
-16.55846
-14.5854
-11.50319
-7.930414
-4.710606
-2.554867
-1.701529
-1.820117
-2.1104
-1.692448
-0.0587337
2.711636
6.011941
9.024044
11.13861
12.17453
12.31846
11.95387
11.37361
10.73657
10.02685
9.262773
8.53888
8.061865
8.000891
8.334022
8.834785
9.185451
9.105986
8.527091
7.611162
6.645816
5.925523
5.613436
5.619023
5.744951
5.696104
5.255938
4.37636
3.176318
1.917248
0.9345182
0.4833038
0.6289127
1.340632
2.409435
3.57155
4.581496
5.282157
5.58937
5.537269
5.264537
4.883739
4.521408
4.135208
3.587708
2.690215
1.329128
-0.4795294
-2.513164
-4.412949
-5.890018
-6.817712
-7.357086
-7.820362
-8.523071
-9.63871
-11.11907
-12.6684
-13.83284
-14.15028
-13.26099
-11.10774
-7.980694
-4.492466
-1.457411
0.4356155
0.9260073
0.2886038
-0.7654371
-1.38369
-1.069946
0.1571159
1.769066
3.025845
3.37701
2.728367
1.419878
0.01352119
-0.9730511
-1.281498
-0.9376545
-0.1489143
0.8187447
1.777481
2.633972
3.362617
3.952528
4.391045
4.635838
4.615976
4.31011
3.783237
3.221405
2.840036
2.800278
3.125942
3.713676
4.340113
4.827236
5.043491
4.999044
4.789492
4.537321
4.392908
4.468021
4.814886
5.323013
5.740572
5.714323
4.965324
3.418526
1.29801
-0.9750729
-2.936447
-4.333099
-5.238211
-5.951189
-6.81909
-8.054352
-9.649971
-11.40885
-13.05204
-14.31137
-14.90152
-14.53322
-13.01168
-10.34946
-6.89399
-3.324223
-0.4483986
1.192154
1.500607
0.9587593
0.3189354
0.1857605
0.6518135
1.369602
1.773617
1.472755
0.52491
-0.6706505
-1.594982
-1.894871
-1.524193
-0.7156677
0.2838478
1.318626
2.334759
3.32177
4.194374
4.804184
4.994583
4.723251
4.082352
3.288235
2.574097
2.142513
2.115284
2.481987
3.141041
3.908466
4.519154
4.749523
4.444099
3.553078
2.188396
0.5530853
-1.095631
-2.539028
-3.643414
-4.42152
-4.971859
-5.474236
-6.070694
-6.831985
-7.69207
-8.497395
-9.03429
-9.16526
-8.921227
-8.514832
-8.293545
-8.585224
-9.622482
-11.36703
-13.59437
-15.78663
-17.33067
-17.63472
-16.33836
-13.44611
-9.452095
-5.172882
-1.507725
0.8693962
1.800468
1.680374
1.267403
1.304581
2.191101
3.84333
5.803852
7.491859
8.515213
8.770494
8.447718
7.904202
7.477892
7.351192
7.5578
7.978634
8.47151
8.861263
8.996895
8.780546
8.215542
7.458935
6.708469
6.178038
5.98451
6.126989
6.507757
6.978567
7.369181
7.547445
7.471468
7.115726
6.552067
5.850784
5.07762
4.245569
3.324615
2.233393
0.9411545
-0.5050793
-1.97089
-3.275307
-4.306059
-5.047163
-5.58629
-6.052727
-6.515764
-6.987953
-7.425032
-7.780128
-8.011728
-8.200178
-8.438852
-8.819511
-9.421772
-10.27779
-11.39356
-12.7476
-14.22467
-15.55454
-16.34255
-16.1303
-14.57576
-11.68028
-7.860413
-3.921665
-0.7367229
1.103481
1.55143
1.116344
0.5862179
0.6413345
1.527515
3.066174
4.766087
6.182926
7.095497
7.548319
7.707506
7.717342
7.671494
7.600554
7.600464
7.763367
8.161911
8.739747
9.313813
9.655358
9.607913
9.198104
8.60174
8.072903
7.74945
7.622965
7.557972
7.374045
6.998471
6.446024
5.800222
5.151562
4.559057
4.010642
3.452485
2.855722
2.210587
1.577348
1.03206
0.6335878
0.3609848
0.1578035
-0.07895947
-0.428978
-0.960001
-1.697143
-2.630408
-3.725684
-4.906992
-6.074693
-7.128312
-7.985252
-8.631969
-9.133883
-9.586629
-10.1162
-10.81803
-11.75364
-12.89829
-14.09357
-15.00051
-15.10956
-13.93569
-11.27889
-7.453235
-3.260137
0.2761755
2.388874
2.953258
2.490857
1.902295
1.93334
2.794205
4.143863
5.363052
5.997716
5.939011
5.447093
4.880613
4.496882
4.358912
4.43172
4.696692
5.187316
5.948265
6.935937
8.039631
9.067238
9.863653
10.32232
10.40361
10.07234
9.322371
8.179001
6.790445
5.397919
4.240252
3.494937
3.16777
3.143202
3.226166
3.274444
3.218451
3.100566
2.953228
2.823963
2.716898
2.60994
2.489517
2.343474
2.166497
1.946131
1.691134
1.341642
0.8920336
0.321353
-0.3665285
-1.14107
-1.980247
-2.895713
-3.935387
-5.150104
-6.603397
-8.278885
-10.10028
-11.93752
-13.57217
-14.72896
-15.09571
-14.35548
-12.35073
-9.21536
-5.464205
-1.872902
0.7516527
1.960661
1.792253
0.7727804
-0.3085365
-0.8453169
-0.6193714
0.1514645
1.001431
1.517511
1.598252
1.415719
1.299808
1.546049
2.205307
3.16478
4.183138
5.01528
5.518738
5.66042
5.517311
5.199721
4.83791
4.542335
4.389915
4.380827
4.464775
4.576541
4.690723
4.859633
5.135993
5.567287
6.139547
6.778032
7.367126
7.784275
7.935814
7.781299
7.361349
6.773328
6.161035
5.68924
5.428709
5.291262
5.051399
4.455969
3.317844
1.68922
-0.1529255
-1.855719
-3.105753
-3.863176
-4.331585
-4.839373
-5.689207
-6.984804
-8.60187
-10.28465
-11.75086
-12.70949
-12.91004
-12.12387
-10.23301
-7.400232
-4.142479
-1.19931
0.7587166
1.4207
1.09552
0.5067348
0.4170361
1.223816
2.681501
4.089479
4.721817
4.188011
2.665445
0.781271
-0.7657795
-1.521717
-1.434053
-0.8061523
-0.05575371
0.5157299
0.8106689
0.9143658
0.9647198
1.036892
1.042385
0.8329926
0.2918701
-0.5439377
-1.403519
-1.905933
-1.73822
-0.776947
0.7603912
2.431862
3.773178
4.458096
4.450512
4.007687
3.488003
3.181305
3.162296
3.289623
3.311646
2.990936
2.201599
0.9911003
-0.4615021
-1.927269
-3.222359
-4.237537
-5.039627
-5.823338
-6.784081
-8.095734
-9.797066
-11.77343
-13.78553
-15.46484
-16.36044
-16.03452
-14.22392
-10.9776
-6.795544
-2.509205
0.965126
2.995068
3.468967
2.870579
1.967297
1.428192
1.540722
2.116634
2.7117
2.937954
2.663696
2.036793
1.367931
0.9084816
0.7383156
0.8137741
0.9931984
1.217167
1.554989
2.088806
2.872005
3.817684
4.719345
5.312744
5.439693
5.076065
4.368454
3.573792
2.92564
2.576801
2.538342
2.7155
2.926762
2.982567
2.692795
1.969204
0.8080864
-0.6451187
-2.146164
-3.401096
-4.220634
-4.597305
-4.692345
-4.792202
-5.099827
-5.68396
-6.428539
-7.121796
-7.621441
-7.904175
-8.125008
-8.475357
-9.123215
-10.11313
-11.43794
-13.03196
-14.7893
-16.53839
-17.96074
-18.62425
-18.04227
-15.93012
-12.39047
-8.00956
-3.65686
-0.1869755
1.943239
2.892597
3.239025
3.726845
4.838434
6.556604
8.45236
9.991976
10.78835
10.82939
10.44632
10.03269
9.924067
10.2371
10.86867
11.63412
12.31316
12.70993
12.70011
12.275
11.46325
10.40167
9.217138
8.050329
7.017981
6.161972
5.486368
4.955078
4.53208
4.165728
3.857182
3.572897
3.310606
3.069738
2.830715
2.537596
2.161945
1.73102
1.265997
0.8708534
0.5631027
0.3145523
0.03187561
-0.4067078
-1.089445
-2.023388
-3.194601
-4.556438
-6.002302
-7.485298
-8.88681
-10.0684
-10.95627
-11.55066
-11.94468
-12.3529
-12.9808
-13.93825
-15.19013
-16.40076
-17.04104
-16.57505
-14.65384
-11.35909
-7.268213
-3.267512
-0.1843214
1.478487
1.832018
1.462773
1.122856
1.381639
2.348211
3.698023
4.954229
5.774352
6.048692
5.982757
5.867181
5.896237
6.149289
6.578106
7.104153
7.738619
8.533788
9.452169
10.37768
11.06361
11.22643
10.77024
9.803723
8.562162
7.376048
6.470619
5.912273
5.672783
5.638072
5.713375
5.855479
6.023343
6.15274
6.162981
5.950662
5.451909
4.702177
3.781887
2.859326
2.118305
1.664082
1.512053
1.535513
1.52373
1.250293
0.5797968
-0.5136914
-1.882925
-3.307385
-4.576052
-5.539706
-6.144456
-6.454855
-6.655705
-6.980869
-7.685438
-8.904668
-10.63548
-12.67168
-14.64879
-16.13493
-16.68829
-16.00722
-14.05541
-11.1441
-7.863381
-4.904852
-2.794802
-1.64856
-1.156636
-0.7456458
0.08210194
1.484323
3.195857
4.685103
5.46411
5.359821
4.554353
3.478206
2.611471
2.261424
2.51
3.253818
4.2356
5.195868
5.982872
6.554301
6.975827
7.356668
7.766053
8.171959
8.494239
8.582328
8.378885
7.933475
7.427838
7.066206
7.016913
7.296593
7.792434
8.354772
8.805097
9.079569
9.174673
9.145071
9.035604
8.898389
8.675707
8.281127
7.636212
6.668321
5.394058
3.886348
2.249933
0.6033081
-0.9525772
-2.389088
-3.69136
-4.907228
-6.104663
-7.36471
-8.767946
-10.37749
-12.16575
-14.07904
-16.03139
-17.87017
-19.34109
-20.06839
-19.59812
-17.56668
-14.02069
-9.481998
-4.923362
-1.361474
0.6245317
1.158976
0.9825253
1.052479
1.980704
3.713182
5.616544
6.884828
7.000037
5.982284
4.296876
2.62063
1.448786
1.014008
1.24612
1.894276
2.713936
3.559593
4.392416
5.193585
5.952929
6.595507
7.038445
7.206923
7.079122
6.732599
6.272073
5.861061
5.590609
5.447595
5.368182
5.240176
5.004889
4.589942
4.013303
3.2856
2.452515
1.583692
0.7430515
-0.004938126
-0.613637
-1.050303
-1.392919
-1.729602
-2.233088
-3.012234
-4.043669
-5.231481
-6.367338
-7.30372
-7.961753
-8.469973
-9.011951
-9.799806
-10.95084
-12.46475
-14.26637
-16.17026
-17.99549
-19.40391
-19.98864
-19.35552
-17.28083
-13.9648
-9.961229
-6.089351
-3.028871
-1.115032
-0.1715441
0.3144464
0.8608017
1.736061
2.82928
3.822329
4.391532
4.452526
4.139955
3.744433
3.529897
3.609106
4.02348
4.712538
5.690745
6.914803
8.28529
9.608378
10.63867
11.19668
11.2047
10.77055
10.0286
9.15619
8.220724
7.261425
6.342744
5.617611
5.275401
5.37797
5.863854
6.430474
6.775854
6.63782
6.003465
5.034712
3.978171
3.048836
2.276591
1.601802
0.8625722
-0.04593325
-1.167603
-2.463018
-3.845034
-5.249505
-6.578636
-7.774714
-8.779744
-9.571199
-10.22052
-10.85617
-11.63513
-12.69233
-14.09602
-15.76628
-17.47791
-18.86747
-19.48416
-18.9078
-16.89023
-13.48683
-9.110577
-4.481544
-0.3852696
2.601616
4.27484
4.901086
5.021303
5.159746
5.611173
6.30271
6.961223
7.282059
7.156278
6.668856
6.091982
5.684608
5.580157
5.790575
6.169899
6.558119
6.850413
7.020962
7.100834
7.14487
7.206377
7.263207
7.301672
7.253593
7.087177
6.85207
6.653635
6.613493
6.788472
7.130336
7.413365
7.407125
6.933615
5.96836
4.671559
3.237615
1.888996
0.7250443
-0.2219334
-0.9974976
-1.644288
-2.239058
-2.883625
-3.69432
-4.787187
-6.155135
-7.676237
-9.141664
-10.31711
-11.06956
-11.44112
-11.65177
-11.93943
-12.51186
-13.42383
-14.62722
-16.00011
-17.27925
-18.06685
-17.88093
-16.34229
-13.36993
-9.362791
-5.146197
-1.641873
0.5006351
1.281798
1.270322
1.310534
2.004103
3.445184
5.170039
6.536633
7.108027
6.896841
6.297832
5.838984
5.869965
6.480141
7.508558
8.675192
9.72554
10.54176
11.08836
11.39253
11.47309
11.35911
11.07303
10.60632
9.955338
9.114548
8.137646
7.141521
6.313196
5.826111
5.800234
6.239809
6.974957
7.724516
8.197699
8.208
7.777611
7.12958
6.565691
6.337809
6.454359
6.709784
6.728849
6.168991
4.867447
2.914015
0.6190186
-1.641832
-3.556252
-5.026985
-6.134871
-7.087503
-8.141506
-9.467312
-11.12194
-12.98753
-14.81139
-16.20135
-16.76917
-16.1653
-14.2131
-11.01891
-7.020391
-2.904512
0.6373978
3.106359
4.434561
4.897289
5.006296
5.185884
5.543194
5.899902
5.868616
5.156071
3.76371
1.993906
0.2988224
-0.8995609
-1.355619
-1.105791
-0.3458471
0.6617794
1.677958
2.601883
3.39871
4.075487
4.582701
4.897495
4.935327
4.703328
4.266069
3.734191
3.262461
2.952137
2.895259
3.087516
3.512202
4.065096
4.679442
5.233964
5.573234
5.592627
5.216001
4.460283
3.406178
2.174188
0.8708897
-0.385705
-1.506312
-2.480881
-3.29493
-4.022451
-4.782977
-5.73375
-7.025003
-8.808894
-11.07945
-13.60293
-15.9141
-17.32444
-17.19763
-15.14258
-11.35164
-6.581418
-1.907488
1.680422
3.771639
4.627915
5.016182
5.720261
7.149279
9.072216
10.78902
11.54113
10.86491
8.828134
5.951322
2.9317
0.3479986
-1.459507
-2.448873
-2.757123
-2.553083
-1.992537
-1.189526
-0.21631
0.8258743
1.767014
2.426691
2.66743
2.497756
2.076481
1.617911
1.345867
1.343734
1.511068
1.661765
1.600096
1.205049
0.4582541
-0.5705769
-1.796166
-3.131618
-4.497476
-5.834406
-7.041445
-8.043363
-8.799129
-9.286802
-9.574751
-9.773149
-10.07844
-10.69825
-11.82811
-13.47185
-15.46771
-17.39959
-18.71746
-18.91286
-17.66871
-15.00327
-11.2914
-7.17854
-3.377257
-0.4526262
1.383862
2.394764
3.122116
4.13913
5.760446
7.897295
10.09166
11.76357
12.54392
12.37393
11.50636
10.31641
9.150546
8.207171
7.580616
7.319654
7.434099
7.889936
8.532748
9.158959
9.538371
9.575418
9.272353
8.733373
8.055856
7.268274
6.357538
5.308483
4.169613
3.068716
2.14925
1.486528
1.03652
0.66675
0.201457
-0.5228119
-1.545706
-2.749247
-3.897327
-4.738958
-5.121983
-5.086044
-4.883511
-4.915575
-5.507114
-6.766184
-8.526497
-10.44099
-12.14229
-13.42749
-14.28306
-14.88845
-15.5026
-16.29512
-17.33367
-18.51262
-19.64102
-20.46125
-20.68435
-20.04165
-18.32433
-15.49938
-11.79044
-7.69594
-3.86025
-0.8585968
1.067877
2.12903
2.87937
3.945839
5.707575
8.096552
10.64709
12.73392
13.93537
14.22924
13.95293
13.5726
13.43924
13.65425
14.11923
14.65723
15.16273
15.64139
16.12563
16.5812
16.82743
16.63447
15.81223
14.36555
12.48052
10.49372
8.750244
7.485939
6.759335
6.471809
6.432865
6.396999
6.145813
5.543343
4.609722
3.527699
2.559494
1.944473
1.753181
1.848351
1.922764
1.626106
0.7336311
-0.7057152
-2.456894
-4.160969
-5.509258
-6.387066
-6.858376
-7.129337
-7.417244
-7.876461
-8.470268
-9.087036
-9.566116
-9.817341
-9.92469
-10.14205
-10.74531
-11.96537
-13.86953
-16.24649
-18.7155
-20.74206
-21.80227
-21.50811
-19.72275
-16.60447
-12.63707
-8.525177
-4.962563
-2.445053
-1.028812
-0.309803
0.3163261
1.408978
3.151672
5.321548
7.430676
9.033295
9.916813
10.21437
10.29636
10.45492
10.84373
11.38796
11.93752
12.42393
12.91312
13.4611
14.0614
14.60503
14.82794
14.55101
13.69983
12.41072
10.95875
9.700886
8.852699
8.517323
8.621696
8.974815
9.310696
9.309731
8.593948
6.904629
4.23679
0.9513855
-2.285915
-4.726448
-5.843208
-5.527344
-4.101055
-2.148148
-0.1944122
1.462833
2.769089
3.711838
4.236111
4.147675
3.299809
1.750038
-0.2228699
-2.168053
-3.725925
-4.766006
-5.462925
-6.154926
-7.21526
-8.838863
-11.04194
-13.63518
-16.23107
-18.32065
-19.35722
-18.92708
-16.93042
-13.71448
-10.01952
-6.686237
-4.369808
-3.198509
-2.790359
-2.475842
-1.683025
-0.2274933
1.598095
3.259598
4.358559
4.794552
4.886387
5.058331
5.623695
6.614826
7.806664
8.847164
9.471367
9.671547
9.562069
9.368267
9.172546
8.945999
8.595169
8.068645
7.385952
6.665325
6.061852
5.705307
5.646545
5.804123
6.045433
6.235828
6.296555
6.201962
6.031639
5.881569
5.831482
5.914497
6.058403
6.163685
6.103226
5.734848
4.970695
3.799534
2.290882
0.5810051
-1.116764
-2.633415
-3.956905
-5.201496
-6.58923
-8.328156
-10.49568
-12.95285
-15.37048
-17.17945
-17.80446
-16.79086
-14.05314
-9.949795
-5.276501
-1.034519
1.940491
3.296837
3.379818
2.94408
2.844475
3.500252
4.785435
6.090881
6.715221
6.228088
4.689518
2.585777
0.580349
-0.7520199
-1.139017
-0.6454754
0.452076
1.813145
3.149939
4.253052
4.998522
5.328499
5.22513
4.748201
4.055031
3.383156
2.967407
2.937513
3.179878
3.454985
3.460806
3.037449
2.188093
1.119167
0.04844475
-0.8668003
-1.609322
-2.229996
-2.806702
-3.360708
-3.876383
-4.357351
-4.816822
-5.322578
-5.922335
-6.635138
-7.402225
-8.208588
-9.069473
-10.06913
-11.30748
-12.80955
-14.44047
-15.8017
-16.36797
-15.61701
-13.35479
-9.820618
-5.698727
-1.850647
1.013796
2.63895
3.290007
3.558149
4.012657
4.926741
6.177919
7.402557
8.204876
8.435274
8.157406
7.597879
6.991377
6.458454
6.046605
5.714301
5.471961
5.339712
5.322996
5.380217
5.391808
5.239071
4.855199
4.280339
3.599356
2.972489
2.490091
2.19889
2.092055
2.100348
2.151967
2.172561
2.04378
1.637151
0.8668642
-0.2529001
-1.560686
-2.808002
-3.799281
-4.413733
-4.736699
-4.966763
-5.315495
-5.917232
-6.760278
-7.743871
-8.726065
-9.62015
-10.43916
-11.19616
-11.94546
-12.70749
-13.49766
-14.32089
-15.11854
-15.69583
-15.73097
-14.82318
-12.70851
-9.461878
-5.541916
-1.768689
1.012918
2.302246
2.143353
1.16029
0.2771263
0.2949009
1.566829
3.894102
6.620284
8.987564
10.48042
10.93395
10.66008
10.14587
9.856739
10.072
10.80808
11.90232
13.05732
13.9913
14.40556
14.11628
13.04862
11.27909
9.061632
6.719431
4.596268
2.970762
2.005775
1.688269
1.903149
2.436289
3.016024
3.441975
3.587605
3.464334
3.184095
2.911831
2.755013
2.739754
2.820561
2.887892
2.838455
2.52222
1.82739
0.67379
-0.9076004
-2.792468
-4.759206
-6.534563
-7.942378
-8.836744
-9.233673
-9.228325
-9.004965
-8.801016
-8.864967
-9.403507
-10.49988
-12.06813
-13.82085
-15.33079
-16.10778
-15.66353
-13.72274
-10.39212
-6.202706
-2.032246
1.159348
2.717616
2.576935
1.318211
-0.09784412
-0.7572651
-0.2121572
1.393914
3.457904
5.241548
6.286922
6.534753
6.259311
5.898108
5.758409
5.943438
6.382565
6.908119
7.357743
7.69383
7.936306
8.1131
8.187323
8.088932
7.730668
7.06778
6.147812
5.121589
4.223551
3.673983
3.592656
3.968144
4.646368
5.37446
5.894473
6.023403
5.758095
5.250031
4.683045
4.179234
3.727428
3.201601
2.444014
1.404878
0.169044
-1.045931
-2.003796
-2.563078
-2.714064
-2.575539
-2.33635
-2.166057
-2.185016
-2.38723
-2.766081
-3.250325
-3.787486
-4.382216
-5.103621
-6.028351
-7.214334
-8.64395
-10.23736
-11.87439
-13.32917
-14.28933
-14.31074
-13.03508
-10.36238
-6.677393
-2.836
0.1468511
1.43698
0.9232229
-0.8142867
-2.716854
-3.791311
-3.57054
-2.219009
-0.3985858
1.216145
2.205214
2.551876
2.559962
2.55037
2.783659
3.346507
4.216765
5.279891
6.410229
7.443789
8.194435
8.528771
8.338344
7.653956
6.609156
5.442347
4.373411
3.593678
3.173816
3.080631
3.263078
3.583794
4.031269
4.535029
5.082584
5.636234
6.116061
6.452945
6.565173
6.458275
6.126394
5.678911
5.207315
4.788003
4.463036
4.231752
4.057068
3.861468
3.57896
3.122846
2.458732
1.592991
0.6047821
-0.3753452
-1.195492
-1.759544
-2.094538
-2.353765
-2.790787
-3.653236
-5.122139
-7.168833
-9.529371
-11.7102
-13.07441
-13.08377
-11.51976
-8.614841
-5.093462
-1.914574
0.06716537
0.485117
-0.4438305
-2.031298
-3.471123
-4.166014
-3.998722
-3.250051
-2.412275
-1.934372
-1.986345
-2.49485
-3.168734
-3.662746
-3.685715
-3.142479
-2.12381
-0.8874397
0.2562752
1.097382
1.594181
1.877499
2.115639
2.435375
2.781406
2.995632
2.936264
2.66227
2.41531
2.507633
3.13929
4.27396
5.609596
6.747299
7.399998
7.50042
7.218777
6.860634
6.642773
6.619331
6.736481
6.791992
6.647629
6.202122
5.417179
4.315765
3.010101
1.629265
0.373291
-0.5843124
-1.244968
-1.739094
-2.310394
-3.201305
-4.535011
-6.258236
-8.196846
-10.08747
-11.64257
-12.56887
-12.50762
-11.20475
-8.641243
-5.190968
-1.587872
1.305542
2.866024
3.007572
2.209438
1.297077
0.9619293
1.410282
2.29982
2.977547
2.84074
1.718487
-0.09906006
-2.034988
-3.490562
-4.168083
-4.083515
-3.505371
-2.757172
-2.086815
-1.585007
-1.232056
-1.023739
-0.9465103
-1.040146
-1.246063
-1.471603
-1.52272
-1.259216
-0.6207809
0.3042526
1.294968
2.074226
2.404129
2.171791
1.424309
0.3366089
-0.8546143
-1.889343
-2.567108
-2.810066
-2.709641
-2.514816
-2.514259
-2.904396
-3.732086
-4.835533
-5.920731
-6.729324
-7.173111
-7.369255
-7.566719
-8.05864
-9.022614
-10.52338
-12.37717
-14.20362
-15.42602
-15.47064
-13.97228
-11.02428
-7.222214
-3.513458
-0.8352203
0.3647003
0.2054291
-0.6589584
-1.471161
-1.667923
-1.19281
-0.3055038
0.6089096
1.311676
1.832558
2.335472
2.989922
3.852211
4.863945
5.876701
6.764694
7.474297
7.986797
8.263306
8.260174
7.938599
7.316326
6.481098
5.586266
4.771126
4.162933
3.825279
3.764992
3.921009
4.187805
4.40778
4.410915
4.101547
3.437088
2.545692
1.567192
0.6764412
-0.1093483
-0.8566933
-1.702805
-2.777084
-4.067123
-5.498146
-6.895897
-8.147346
-9.186939
-10.00751
-10.68073
-11.29345
-11.94608
-12.7114
-13.66262
-14.76001
-15.89799
-16.80516
-17.11423
-16.4632
-14.57727
-11.46811
-7.511852
-3.403378
0.09529495
2.39687
3.363972
3.350464
3.010502
3.032772
3.745979
5.062923
6.548523
7.725052
8.305965
8.323471
8.024498
7.687237
7.504032
7.518715
7.652321
7.849205
8.088127
8.341156
8.568348
8.663509
8.492516
7.959362
7.069843
5.934566
4.798683
3.900272
3.414513
3.404329
3.791716
4.383986
4.912134
5.128592
4.875513
4.130863
3.001236
1.698845
0.4411774
-0.5993023
-1.398703
-2.045156
-2.703186
-3.524906
-4.562895
-5.764801
-6.963074
-7.982224
-8.736807
-9.301434
-9.857191
-10.63468
-11.75852
-13.20277
-14.80884
-16.28635
-17.23804
-17.26998
-16.12688
-13.77066
-10.51376
-6.94458
-3.798084
-1.65154
-0.6937771
-0.5647287
-0.5381784
0.1248131
1.813804
4.398249
7.304133
9.812496
11.37415
11.80048
11.27099
10.16141
8.913105
7.852509
7.131233
6.786461
6.757994
6.956716
7.285052
7.627313
7.889393
8.003876
7.946686
7.706513
7.319449
6.833077
6.314561
5.882272
5.613774
5.568741
5.687879
5.826778
5.770034
5.348131
4.51396
3.403645
2.299791
1.443402
0.9540081
0.7066011
0.4227571
-0.1984234
-1.289045
-2.754996
-4.302891
-5.616488
-6.520446
-7.05201
-7.407158
-7.852288
-8.525114
-9.451117
-10.55382
-11.70011
-12.75765
-13.56367
-13.85144
-13.30564
-11.70348
-9.095348
-5.87767
-2.695467
-0.1819305
1.299269
1.852713
1.92802
2.074865
2.651503
3.638651
4.719402
5.513744
5.783752
5.544682
4.990179
4.40414
4.022306
4.004509
4.432514
5.312517
6.539782
7.947718
9.338301
10.51554
11.35306
11.81299
11.94096
11.80221
11.46628
11.01067
10.54583
10.28918
10.39852
10.91545
11.66631
12.31444
12.48618
11.98061
10.82772
9.306387
7.780678
6.531076
5.640339
4.937963
4.160433
3.120255
1.807833
0.3928185
-0.868866
-1.794788
-2.399343
-2.815941
-3.297314
-4.058119
-5.216076
-6.816248
-8.824139
-11.12426
-13.40412
-15.19984
-15.89875
-15.01793
-12.46058
-8.64163
-4.426834
-0.810154
1.515713
2.475092
2.535378
2.477488
2.908522
3.961344
5.274426
6.214216
6.246876
5.221567
3.386246
1.261654
-0.5786381
-1.778936
-2.194273
-1.917465
-1.164572
-0.1538086
0.9225731
1.934151
2.777534
3.398245
3.751972
3.807365
3.58502
3.11792
2.555864
2.064259
1.797886
1.816229
2.099159
2.498436
2.871028
3.131654
3.256292
3.249124
3.118809
2.811123
2.238558
1.403921
0.3858805
-0.6630735
-1.598876
-2.410739
-3.177474
-4.12361
-5.430315
-7.158742
-9.219825
-11.35282
-13.21619
-14.37754
-14.4651
-13.21836
-10.70579
-7.371561
-3.958164
-1.289389
0.1153421
0.2575588
-0.3084831
-0.7858934
-0.4621582
0.9134083
3.12076
5.584095
7.712244
9.05522
9.439992
8.955729
7.824369
6.321183
4.714345
3.191973
1.86534
0.7732029
-0.04389191
-0.542778
-0.6885204
-0.4634199
0.03039932
0.6166797
1.060384
1.211479
1.048819
0.700572
0.4019728
0.2963362
0.4063807
0.5926981
0.6002951
0.1903014
-0.7984939
-2.321856
-4.208254
-6.17046
-7.902833
-9.210666
-10.03542
-10.47355
-10.7111
-10.9841
-11.48183
-12.35658
-13.59559
-15.06378
-16.44716
-17.31257
-17.18801
-15.72555
-12.87705
-8.979881
-4.715895
-0.8892651
1.870417
3.349094
3.839127
3.963089
4.384337
5.445232
7.01712
8.641611
9.760844
10.0359
9.465515
8.38789
7.271175
6.504412
6.287354
6.563145
7.189299
7.9704
8.701115
9.198317
9.371378
9.16877
8.629761
7.895794
7.089886
6.298908
5.534504
4.762169
3.963247
3.195484
2.552177
2.094662
1.80052
1.523375
1.03628
0.2378426
-0.8106709
-1.871323
-2.658667
-3.025671
-3.059513
-3.037218
-3.280388
-4.026247
-5.251823
-6.75522
-8.238867
-9.529175
-10.60674
-11.60749
-12.69061
-13.95307
-15.4178
-16.97971
-18.51094
-19.78552
-20.52214
-20.34284
-18.91051
-16.0661
-12.02679
-7.475197
-3.31348
-0.3375816
1.157619
1.576092
1.774269
2.637497
4.616982
7.492569
10.53222
12.94996
14.30334
14.67748
14.57142
14.51899
14.81411
15.39026
15.93191
16.11328
15.81866
15.11655
14.15512
13.07316
11.87822
10.55004
9.090164
7.617062
6.330688
5.431393
4.994282
4.916534
4.988495
4.957035
4.666122
4.116154
3.434971
2.791725
2.334435
2.090881
2.022743
2.021587
1.974575
1.793816
1.426865
0.8570786
0.09608078
-0.8215218
-1.812511
-2.744995
-3.514404
-4.090202
-4.540127
-5.030308
-5.741375
-6.720375
-7.85672
-8.901855
-9.616787
-9.912899
-9.944916
-10.01034
-10.44242
-11.43705
-12.92249
-14.56861
-15.88441
-16.35209
-15.58595
-13.48786
-10.29569
-6.595222
-3.136101
-0.540535
0.8873596
1.329243
1.345409
1.607948
2.531349
4.098675
5.912823
7.375957
8.0849
7.965309
7.309914
6.573441
6.152245
6.230598
6.733204
7.496002
8.324448
9.145519
9.901672
10.56528
11.06762
11.32813
11.28184
10.90511
10.26089
9.454655
8.673676
8.07019
7.780239
7.840118
8.176647
8.614319
8.946133
9.015068
8.790886
8.388062
8.000786
7.779366
7.795631
7.960014
8.114128
8.088638
7.813251
7.336506
6.80426
6.363838
6.040855
5.765442
5.317871
4.477417
3.122475
1.297817
-0.7738686
-2.791183
-4.508717
-5.806107
-6.745121
-7.538082
-8.433514
-9.618572
-11.19042
-13.0779
-15.02761
-16.66571
-17.52586
-17.20253
-15.5219
-12.61838
-8.987408
-5.376047
-2.480349
-0.6945877
0.02734184
0.1334343
0.2243462
0.7089329
1.661327
2.79225
3.635147
3.825174
3.277283
2.181267
0.9379559
-0.06602097
-0.5885468
-0.5673485
-0.1740017
0.3421364
0.7788696
1.017643
1.083948
1.105192
1.170101
1.334724
1.597298
1.899967
2.237282
2.69635
3.380598
4.350456
5.600558
6.982796
8.28453
9.324371
9.983961
10.25949
10.256
10.08023
9.842876
9.58594
9.287447
8.840529
8.127064
7.027562
5.503275
3.623652
1.521739
-0.5826173
-2.491094
-4.058676
-5.240641
-6.113945
-6.862036
-7.653858
-8.643414
-9.875834
-11.26657
-12.65994
-13.8357
-14.4999
-14.33131
-13.09384
-10.74621
-7.575007
-4.232741
-1.496187
-0.02054882
-0.00582695
-1.032768
-2.257614
-2.817039
-2.206358
-0.5486879
1.523265
3.228568
3.987534
3.6695
2.555285
1.143346
-0.0736475
-0.8052673
-1.000189
-0.8146343
-0.4782085
-0.2414837
-0.2383633
-0.4623661
-0.8015175
-1.102337
-1.235098
-1.178562
-0.9969482
-0.7314243
-0.3964615
0.05851936
0.6693649
1.378546
2.017315
2.388762
2.342098
1.859819
1.109669
0.3364754
-0.2088833
-0.3753376
-0.1924133
0.1373138
0.2852135
-0.02988625
-0.9037018
-2.241407
-3.723328
-5.019936
-5.904755
-6.384268
-6.661398
-7.005898
-7.68005
-8.800934
-10.38469
-12.30183
-14.28429
-15.94155
-16.77711
-16.38792
-14.59364
-11.66084
-8.200047
-5.021435
-2.759838
-1.59741
-1.226458
-1.000458
-0.3257809
1.085697
3.044867
5.108494
6.745892
7.665514
7.839483
7.429712
6.7365
5.978556
5.338196
4.887222
4.663687
4.626463
4.69874
4.760143
4.672106
4.407621
3.997026
3.573322
3.266684
3.171814
3.268263
3.520206
3.840765
4.138641
4.394163
4.577595
4.662737
4.599691
4.317263
3.750816
2.90588
1.902359
0.8623238
-0.06005287
-0.7964592
-1.414125
-2.063908
-2.890728
-3.962715
-5.226683
-6.54517
-7.781431
-8.816776
-9.669935
-10.37181
-10.99707
-11.57532
-12.13598
-12.70707
-13.31094
-13.98013
-14.59614
-14.9694
-14.79422
-13.79824
-11.8717
-9.211098
-6.283211
-3.629654
-1.699308
-0.5771866
0.02574158
0.6238976
1.678045
3.370819
5.493425
7.556995
9.08214
9.756767
9.589996
8.874731
8.018974
7.389505
7.182253
7.387308
7.836966
8.365345
8.767598
8.936798
8.811921
8.384682
7.742637
7.031847
6.407922
5.966917
5.727138
5.58635
5.457635
5.320949
5.203526
5.192472
5.294424
5.393248
5.261748
4.731421
3.738082
2.463326
1.230412
0.308691
-0.2052574
-0.4549608
-0.7011442
-1.199759
-2.037397
-3.165795
-4.374274
-5.470084
-6.31784
-6.863718
-7.19436
-7.485817
-7.928283
-8.659822
-9.769643
-11.17787
-12.77026
-14.35883
-15.71068
-16.56543
-16.64874
-15.73765
-13.76757
-11.00491
-8.004538
-5.46389
-3.858979
-3.215584
-3.065747
-2.69998
-1.556025
0.4946632
3.019571
5.34532
6.860863
7.351725
7.050038
6.468253
6.120051
6.257085
6.900519
7.815008
8.781475
9.64837
10.37636
10.98054
11.43027
11.62281
11.38915
10.63273
9.386055
7.886739
6.464408
5.389295
4.800435
4.676865
4.824934
5.031699
5.113873
4.971283
4.627196
4.179214
3.748222
3.440922
3.347522
3.463729
3.703308
3.945981
4.060726
3.968189
3.648463
3.103012
2.351495
1.401707
0.2763529
-0.9524322
-2.187121
-3.369929
-4.495639
-5.679511
-7.03999
-8.668588
-10.40979
-11.90389
-12.62816
-12.17043
-10.40737
-7.617617
-4.438528
-1.583869
0.3676267
1.258541
1.33865
1.135728
1.20259
1.86121
3.064609
4.469931
5.590842
5.998754
5.554235
4.374036
2.787562
1.203271
-0.0222863
-0.6917261
-0.7477021
-0.2848032
0.5615019
1.60371
2.673597
3.610423
4.307836
4.692591
4.791799
4.655654
4.403872
4.150412
4.055507
4.229704
4.698447
5.375102
6.034252
6.463728
6.507924
6.190012
5.681797
5.20929
4.914212
4.751897
4.566909
4.09815
3.238009
2.030627
0.6994252
-0.4928627
-1.363787
-1.901584
-2.255429
-2.678354
-3.438147
-4.704755
-6.493106
-8.63294
-10.78672
-12.51426
-13.32309
-12.84762
-10.95788
-7.929943
-4.405373
-1.225368
0.8945026
1.673758
1.380997
0.7317276
0.526535
1.243414
2.833065
4.739159
6.246556
6.777123
6.222707
4.87291
3.312757
2.08563
1.506575
1.567226
1.992043
2.401424
2.458546
2.054598
1.253868
0.2634487
-0.7161331
-1.599928
-2.397621
-3.162622
-3.860727
-4.37657
-4.525965
-4.20784
-3.472723
-2.510696
-1.57313
-0.8420467
-0.3680248
-0.1272316
-0.04607582
-0.09350204
-0.272438
-0.6098003
-1.046394
-1.517441
-1.922993
-2.263124
-2.641983
-3.266058
-4.319206
-5.878366
-7.867622
-9.996065
-11.89217
-13.09029
-13.22566
-12.02122
-9.456076
-5.855017
-1.835337
1.783928
4.315063
5.437521
5.374084
4.713398
4.170567
4.158335
4.662668
5.304989
5.585608
5.190754
4.161629
2.809456
1.51906
0.6173553
0.2109585
0.2636852
0.6539536
1.239014
1.920782
2.572252
3.082806
3.316341
3.200394
2.713976
1.950077
1.124512
0.4711704
0.1827049
0.2906876
0.669508
1.078373
1.276981
1.106121
0.5817318
-0.1828156
-1.021732
-1.837269
-2.636887
-3.524508
-4.587658
-5.846397
-7.247284
-8.677549
-10.03463
-11.25629
-12.32297
-13.2335
-14.00216
-14.63015
-15.13423
-15.5921
-16.09061
-16.56022
-16.81808
-16.50683
-15.27957
-12.99322
-9.83816
-6.296728
-2.981493
-0.4045057
1.304821
2.340888
3.167265
4.232318
5.778026
7.707243
9.67827
11.28157
12.25285
12.57917
12.46342
12.19226
11.99524
11.93092
11.89321
11.74696
11.40416
10.91068
10.36077
9.849877
9.390809
8.95612
8.479273
7.941786
7.368577
6.760046
6.118025
5.386017
4.5174
3.502686
2.37411
1.221527
0.1798075
-0.6253682
-1.143264
-1.386374
-1.453085
-1.432575
-1.409173
-1.368177
-1.244215
-1.007595
-0.6988217
-0.5007403
-0.6367258
-1.287858
-2.486609
-4.042103
-5.636509
-6.951995
-7.852713
-8.387224
-8.797923
-9.340984
-10.19549
-11.4068
-12.84466
-14.31521
-15.57688
-16.37078
-16.40231
-15.39753
-13.18901
-9.929112
-6.161938
-2.677695
-0.1836691
1.004273
1.150029
0.993042
1.289418
2.448028
4.357252
6.450922
8.107288
8.986997
9.095696
8.744075
8.322149
8.089588
8.134471
8.456592
8.985161
9.673365
10.45465
11.18394
11.69153
11.77752
11.36929
10.51202
9.405575
8.281158
7.358185
6.768482
6.518002
6.487005
6.504866
6.382109
6.004259
5.31455
4.333557
3.169851
1.966269
0.8668537
0.01620293
-0.5449791
-0.8377609
-0.9115486
-0.8684349
-0.8017902
-0.784256
-0.8987389
-1.24028
-1.84993
-2.746897
-3.84197
-4.989311
-6.043261
-6.911655
-7.64854
-8.389257
-9.33185
-10.6112
-12.21661
-14.03147
-15.88665
-17.58653
-18.91757
-19.66135
-19.57465
-18.45813
-16.28074
-13.26727
-9.900558
-6.80109
-4.479073
-3.025541
-2.113119
-1.150362
0.4211922
2.746832
5.477221
7.990574
9.676971
10.30238
10.09698
9.535244
9.097786
9.04842
9.336826
9.784176
10.20071
10.51516
10.73833
10.90327
10.98631
10.97682
10.9028
10.81807
10.77991
10.77977
10.75391
10.57681
10.22886
9.759575
9.350361
9.165035
9.25156
9.537392
9.822304
9.93494
9.777893
9.407589
8.982502
8.712467
8.706783
8.890106
9.030216
8.757946
7.82267
6.161907
3.948872
1.502998
-0.8650627
-2.981178
-4.854679
-6.600266
-8.351971
-10.15334
-11.97176
-13.77579
-15.55255
-17.31244
-18.95364
-20.23535
-20.73037
-19.97978
-17.70938
-14.01734
-9.474661
-4.920012
-1.172724
1.298204
2.575945
3.216753
3.937933
5.229713
7.065006
8.912964
10.06038
9.949547
8.469694
6.016342
3.326958
1.12948
-0.1247063
-0.348938
0.1989689
1.145124
2.14637
2.99404
3.639643
4.132328
4.501116
4.703369
4.677485
4.397079
3.922276
3.461662
3.238611
3.39842
3.92477
4.618879
5.18713
5.390224
5.155407
4.621368
4.012039
3.522575
3.193842
2.896935
2.379538
1.437033
0.0321579
-1.708769
-3.490559
-5.052805
-6.26689
-7.179632
-7.997145
-8.988791
-10.35963
-12.14218
-14.24725
-16.40075
-18.22953
-19.30747
-19.20086
-17.60274
-14.49773
-10.25831
-5.587175
-1.369098
1.697577
3.381608
3.994908
4.200594
4.637524
5.596411
6.857672
7.873497
8.069284
7.157042
5.303368
3.014868
0.9029036
-0.5501986
-1.102312
-0.8017845
0.1248598
1.409627
2.780184
4.061878
5.113467
5.817953
6.071662
5.83462
5.164345
4.199854
3.202844
2.411697
2.007858
2.002992
2.227108
2.426865
2.355192
1.896316
1.100126
0.1754341
-0.6579514
-1.242835
-1.576934
-1.837334
-2.249572
-3.003751
-4.151941
-5.542584
-6.942281
-8.158106
-9.143724
-10.04783
-11.12412
-12.56185
-14.39715
-16.47861
-18.47637
-20.00705
-20.68813
-20.23988
-18.54629
-15.74759
-12.21569
-8.497454
-5.149897
-2.502514
-0.5560608
1.020111
2.689156
4.74576
7.1399
9.49436
11.29357
12.16724
12.09929
11.37278
10.4469
9.695292
9.292643
9.218203
9.329615
9.467764
9.543608
9.508741
9.328182
8.983561
8.492542
7.930239
7.428389
7.030666
6.73164
6.443521
6.070589
5.603844
5.130178
4.771544
4.588366
4.490496
4.253115
3.652161
2.616585
1.275944
-0.07736969
-1.088629
-1.615255
-1.725698
-1.734612
-1.996178
-2.722872
-3.889647
-5.249363
-6.494236
-7.415203
-8.047314
-8.597397
-9.319107
-10.38348
-11.79585
-13.46465
-15.28222
-17.14064
-18.90005
-20.31417
-20.95881
-20.38883
-18.37769
-15.09523
-11.14925
-7.401314
-4.563881
-2.89595
-2.088085
-1.452934
-0.3062477
1.661045
4.284573
7.054897
9.439579
11.07782
11.97195
12.33278
12.3689
12.23925
11.97068
11.60302
11.23659
11.06789
11.18723
11.59314
12.11079
12.45771
12.44511
12.0269
11.31573
10.52369
9.792408
9.181637
8.663963
8.184414
7.719193
7.274155
6.838272
6.345329
5.744522
4.960773
4.021694
3.004131
1.996391
1.039589
0.1483574
-0.6963501
-1.505608
-2.288094
-3.110733
-4.05014
-5.193279
-6.539284
-7.959023
-9.213036
-10.06332
-10.44452
-10.48814
-10.50478
-10.80684
-11.56681
-12.75923
-14.25852
-15.86064
-17.35095
-18.47048
-18.85352
-18.09715
-15.96312
-12.56383
-8.480839
-4.591396
-1.673569
-0.06072998
0.521328
0.7857132
1.460899
2.888535
4.893105
6.974743
8.621857
9.645443
10.22995
10.72645
11.39968
12.26872
13.14714
13.79374
14.09033
14.05241
13.77355
13.31515
12.61317
11.64748
10.41737
9.02314
7.636955
6.380287
5.29483
4.38958
3.723267
3.389664
3.521156
4.134933
5.025131
5.845993
6.233063
5.976585
5.139381
3.976051
2.75843
1.716995
0.9164658
0.3038025
-0.1789169
-0.6043167
-1.021126
-1.492828
-2.088402
-2.882133
-3.830864
-4.812759
-5.681076
-6.314407
-6.781021
-7.27813
-8.051651
-9.275932
-11.00533
-13.1207
-15.38255
-17.49329
-19.01093
-19.47488
-18.52653
-16.06849
-12.46192
-8.443192
-4.863701
-2.28611
-0.811409
0.03337097
0.9037476
2.270599
4.148758
6.121941
7.6577
8.422211
8.449753
8.008583
7.5243
7.230843
7.201782
7.418068
7.808273
8.364143
9.064774
9.815994
10.42712
10.78474
10.8244
10.60941
10.3186
10.09135
9.981544
9.963547
9.991104
10.07193
10.29613
10.73034
11.31363
11.85864
12.06654
11.69016
10.69778
9.320114
7.931923
6.879433
6.242134
5.832577
5.293701
4.258171
2.626572
0.5848389
-1.527107
-3.345718
-4.684696
-5.57885
-6.172859
-6.647007
-7.163334
-7.829403
-8.758144
-10.06376
-11.77226
-13.69096
-15.38569
-16.24944
-15.77919
-13.79947
-10.60498
-6.867867
-3.39315
-0.762989
0.8688011
1.82193
2.695583
3.970467
5.797401
7.923664
9.807896
10.89249
10.87926
9.801445
8.001247
6.000824
4.260105
3.070324
2.544666
2.599834
3.036053
3.596733
4.031368
4.164173
3.974468
3.545815
3.070393
2.738558
2.66684
2.844345
3.167719
3.463079
3.5271
3.251003
2.58102
1.587202
0.414732
-0.7746048
-1.796732
-2.544275
-3.047844
-3.455767
-3.934452
-4.646521
-5.604151
-6.702368
-7.761683
-8.579155
-9.091282
-9.411926
-9.791519
-10.46541
-11.62737
-13.28087
-15.25459
-17.2227
-18.73339
-19.33161
-18.66866
-16.60761
-13.28549
-9.228684
-5.140685
-1.725624
0.5841913
1.817231
2.45077
3.154041
4.494755
6.597932
9.075508
11.20167
12.32392
12.11349
10.76766
8.85791
7.018772
5.659783
4.820075
4.261449
3.661982
2.86057
1.859671
0.8739109
0.08377552
-0.4455023
-0.8271618
-1.229506
-1.807405
-2.532147
-3.248227
-3.759195
-3.890311
-3.660856
-3.234959
-2.878309
-2.804041
-3.146354
-3.868035
-4.883784
-6.085094
-7.364506
-8.652903
-9.88593
-10.99591
-11.90285
-12.61682
-13.17817
-13.77661
-14.66177
-16.05227
-17.98821
-20.25024
-22.30102
-23.46398
-23.15676
-21.09779
-17.47977
-12.91164
-8.201736
-4.08045
-0.9260502
1.301304
3.010826
4.735664
6.886917
9.582956
12.59791
15.48437
17.77147
19.16647
19.60773
19.24136
18.32117
17.08481
15.73765
14.45608
13.41791
12.69104
12.22372
11.76629
11.01351
9.750011
8.002121
6.050932
4.302958
3.052326
2.334717
1.937645
1.545097
0.9805794
0.2349091
-0.5488091
-1.199402
-1.69672
-2.167934
-2.802586
-3.728451
-4.927216
-6.221596
-7.434097
-8.451672
-9.273346
-9.995995
-10.74428
-11.58605
-12.54489
-13.63914
-14.88235
-16.3382
-18.01863
-19.83391
-21.51462
-22.59606
-22.56213
-21.01328
-17.87811
-13.48494
-8.550037
-3.910526
-0.2553787
2.16864
3.67226
4.880772
6.421349
8.580437
11.20538
13.79031
15.79217
16.94181
17.33412
17.36147
17.40548
17.66733
18.0913
18.51434
18.81355
18.92326
18.85575
18.53176
17.84625
16.6743
15.00902
13.03518
11.03788
9.276237
7.874062
6.774876
5.8405
4.938419
4.052757
3.216911
2.512772
1.904884
1.346146
0.7615318
0.148983
-0.4710312
-1.025856
-1.499672
-1.934731
-2.391518
-2.971535
-3.737247
-4.71423
-5.834789
-6.983746
-8.009079
-8.78447
-9.34137
-9.804085
-10.39314
-11.30394
-12.62074
-14.27603
-16.10951
-17.90808
-19.46651
-20.61422
-21.07831
-20.55965
-18.80954
-15.75115
-11.68354
-7.238838
-3.195282
-0.1787109
1.603859
2.478539
3.099442
4.158142
6.056381
8.656906
11.43196
13.71594
15.02813
15.30156
14.82292
14.04765
13.38191
13.06953
13.14081
13.48231
13.97311
14.48344
14.91108
15.11946
14.97981
14.41707
13.45862
12.22377
10.87963
9.602264
8.505058
7.661568
7.098816
6.795174
6.661385
6.562561
6.360825
6.004059
5.549454
5.103607
4.779953
4.532127
4.237114
3.78878
3.157555
2.480934
1.950775
1.695915
1.640671
1.565117
1.191376
0.3951454
-0.7334366
-1.980732
-3.137554
-4.100822
-4.929787
-5.797428
-6.881588
-8.338398
-10.20463
-12.45926
-14.97176
-17.48152
-19.58574
-20.78259
-20.58704
-18.75915
-15.47093
-11.27589
-7.002106
-3.470348
-1.133984
0.009513855
0.3898659
0.608387
1.110947
1.995056
3.047981
3.934933
4.389439
4.418106
4.230812
4.118698
4.288448
4.849033
5.703255
6.67104
7.600555
8.30912
8.723015
8.830093
8.662148
8.277718
7.746738
7.080837
6.288742
5.38599
4.475803
3.774559
3.529205
3.918705
4.956615
6.384022
7.759064
8.639454
8.686768
7.909973
6.652767
5.429974
4.670296
4.550892
4.918762
5.322422
5.342625
4.65926
3.27718
1.420135
-0.6261711
-2.602032
-4.369184
-5.909571
-7.297747
-8.606636
-9.958366
-11.446
-13.06661
-14.75298
-16.25111
-17.17113
-17.05493
-15.56951
-12.66622
-8.72982
-4.533503
-0.9044571
1.474047
2.45779
2.440042
2.14242
2.230522
3.001742
4.255711
5.416087
5.943652
5.498753
4.208635
2.428039
0.6630383
-0.6664925
-1.352054
-1.405968
-0.9898958
-0.3172522
0.4091606
1.110743
1.795171
2.489207
3.219074
3.898707
4.401814
4.567244
4.357659
3.808791
3.059055
2.254171
1.412457
0.5071559
-0.5069292
-1.603543
-2.629302
-3.358276
-3.640998
-3.481282
-3.023575
-2.5888
-2.460935
-2.840314
-3.732651
-4.950152
-6.218048
-7.250184
-7.861362
-8.029259
-7.917466
-7.821114
-8.106608
-9.065783
-10.78971
-13.13727
-15.69943
-17.87996
-18.99995
-18.52866
-16.26632
-12.55457
-8.238676
-4.325925
-1.654597
-0.4884439
-0.4349599
-0.6197948
-0.1497321
1.479061
4.131322
7.129594
9.661909
11.13127
11.41512
10.81985
9.875299
9.076553
8.743239
8.981486
9.676429
10.61875
11.52058
12.09408
12.12784
11.55511
10.46928
9.120836
7.81623
6.75703
6.021044
5.484516
4.993098
4.507174
4.04399
3.703045
3.539439
3.49194
3.412716
3.21658
2.874713
2.499672
2.229675
2.097871
1.991135
1.767089
1.302899
0.6273241
-0.06283379
-0.6134682
-0.9751759
-1.256645
-1.698507
-2.527275
-3.803873
-5.393438
-7.048777
-8.468689
-9.502361
-10.15813
-10.63313
-11.20249
-12.13598
-13.59955
-15.57986
-17.88237
-20.12129
-21.83182
-22.48286
-21.69074
-19.32592
-15.63751
-11.2458
-6.990826
-3.619267
-1.493824
-0.4974995
-0.0579567
0.5021629
1.645452
3.4046
5.444674
7.245844
8.431351
8.922625
8.895926
8.622561
8.332752
8.133724
8.021334
7.984972
8.046448
8.215919
8.45772
8.62694
8.525021
8.039204
7.20524
6.235138
5.376846
4.843605
4.67013
4.740976
4.856125
4.885765
4.812994
4.691277
4.597799
4.536926
4.441298
4.208376
3.822948
3.324144
2.785007
2.261087
1.734602
1.173199
0.5863056
0.09264374
-0.1559162
-0.04810524
0.3407059
0.7457733
0.7748623
0.126049
-1.23728
-3.093542
-5.11508
-6.984259
-8.561811
-9.884983
-11.0791
-12.25867
-13.45975
-14.66567
-15.83663
-16.92626
-17.81327
-18.24912
-17.86767
-16.37309
-13.69927
-10.22002
-6.649542
-3.760124
-2.042028
-1.476017
-1.537663
-1.470009
-0.7094135
0.8421497
2.802729
4.540615
5.576824
5.820789
5.540709
5.193563
5.144199
5.55316
6.348051
7.398886
8.556744
9.722931
10.75681
11.44073
11.55307
10.9662
9.784752
8.302448
6.902451
5.893375
5.363403
5.195438
5.179134
5.160484
5.099533
5.040539
5.107321
5.37233
5.84197
6.394808
6.849531
7.021681
6.824909
6.25975
5.435558
4.509129
3.64262
2.936291
2.389551
1.896793
1.330938
0.572485
-0.4346313
-1.659107
-3.01223
-4.382948
-5.663095
-6.796299
-7.815506
-8.809914
-9.872787
-11.07167
-12.44592
-13.93817
-15.37061
-16.41228
-16.63081
-15.64943
-13.38353
-10.1353
-6.590939
-3.585392
-1.740337
-1.181755
-1.471207
-1.842525
-1.555286
-0.3140335
1.617615
3.586048
4.902519
5.132496
4.336071
2.916283
1.444935
0.4156036
0.04935837
0.2971001
0.9766846
1.909416
2.973404
4.132225
5.32196
6.439476
7.35471
7.941662
8.188721
8.175747
8.079967
8.096321
8.358387
8.886555
9.588535
10.30977
10.849
11.02051
10.69041
9.823669
8.50087
6.983131
5.532162
4.397476
3.687176
3.23962
2.757084
1.918571
0.5777779
-1.187912
-3.007717
-4.500515
-5.359417
-5.535248
-5.295258
-5.076481
-5.281891
-6.138008
-7.673023
-9.640945
-11.70036
-13.39195
-14.2229
-13.77158
-11.84668
-8.65971
-4.875416
-1.459938
0.7380905
1.346043
0.6547279
-0.4841003
-1.133896
-0.706192
0.7272186
2.51786
3.844151
4.150291
3.382519
1.964996
0.5435371
-0.4175453
-0.6988945
-0.427227
0.1173363
0.6740036
1.11488
1.413464
1.605301
1.710442
1.659954
1.376385
0.8564224
0.2054367
-0.397438
-0.671711
-0.4421844
0.3266869
1.494595
2.781429
3.783878
4.268127
4.10133
3.421902
2.559669
1.874977
1.586094
1.638817
1.740425
1.478401
0.584465
-0.9918709
-2.965038
-4.942032
-6.599941
-7.839806
-8.820923
-9.835072
-11.14959
-12.83232
-14.80578
-16.81958
-18.53807
-19.63618
-19.71525
-18.46609
-15.79578
-11.92768
-7.460091
-3.219505
0.07435608
2.143314
3.122742
3.615971
4.228615
5.264668
6.632996
7.901558
8.604053
8.530472
7.838505
6.875484
6.041615
5.573803
5.498371
5.731876
6.189083
6.812908
7.556843
8.30632
8.883221
9.131817
8.981304
8.498177
7.86306
7.2491
6.727997
6.279072
5.82502
5.332966
4.860088
4.515007
4.295734
4.08065
3.609192
2.587738
0.8873825
-1.362316
-3.762016
-5.793224
-7.029171
-7.371414
-7.061184
-6.567787
-6.359882
-6.657631
-7.403812
-8.349247
-9.223953
-9.876953
-10.3503
-10.78989
-11.33766
-12.06299
-12.95962
-13.99194
-15.14434
-16.36343
-17.47551
-18.17358
-18.05962
-16.80733
-14.33929
-10.96748
-7.245319
-3.875729
-1.302929
0.4118309
1.576923
2.699703
4.206749
6.182903
8.391769
10.41515
11.83931
12.48335
12.38405
11.71823
10.75667
9.760456
8.919285
8.442474
8.451511
8.955517
9.792908
10.68349
11.30055
11.41454
11.01302
10.20205
9.191887
8.173962
7.262249
6.485939
5.892277
5.478252
5.281181
5.276009
5.347324
5.366783
5.225838
4.85696
4.281338
3.580051
2.768982
1.886612
0.9105606
-0.1797028
-1.336058
-2.514404
-3.660843
-4.739956
-5.760071
-6.778351
-7.810074
-8.826662
-9.756687
-10.52286
-11.09955
-11.58473
-12.15031
-12.97934
-14.20901
-15.8092
-17.60738
-19.30509
-20.5081
-20.8233
-19.95172
-17.73708
-14.335
-10.2123
-6.00741
-2.380449
0.3298588
2.212278
3.698339
5.238869
7.079645
9.053303
10.72907
11.70818
11.87992
11.50742
11.04848
10.88039
11.07797
11.47524
11.78799
11.86616
11.72756
11.51698
11.37178
11.31217
11.21446
10.92488
10.37777
9.609594
8.760202
7.985505
7.378105
6.929954
6.535835
6.053207
5.378674
4.506147
3.547515
2.682532
2.106486
1.886987
1.930246
2.042323
2.023444
1.772904
1.335525
0.8184757
0.2766266
-0.2973824
-1.009409
-1.966302
-3.193707
-4.603573
-6.029947
-7.299164
-8.328446
-9.135173
-9.807358
-10.51801
-11.36948
-12.44752
-13.78787
-15.39927
-17.22386
-19.10126
-20.72269
-21.62084
-21.31412
-19.45925
-16.0733
-11.62596
-6.952815
-2.942015
-0.2037058
1.186287
1.695662
2.036456
2.841981
4.34039
6.318435
8.233277
9.593655
10.17474
10.10032
9.722073
9.389191
9.301029
9.435938
9.656614
9.823599
9.859648
9.806107
9.739502
9.698926
9.656513
9.537653
9.272771
8.837549
8.287003
7.701515
7.157764
6.727293
6.443187
6.257694
6.078412
5.762266
5.194052
4.343438
3.245913
2.016414
0.8133602
-0.2047968
-0.9110502
-1.25612
-1.277004
-1.047424
-0.700967
-0.4278166
-0.4054603
-0.7694665
-1.553906
-2.657133
-3.896268
-5.066468
-6.010262
-6.680579
-7.147455
-7.555978
-8.058012
-8.81539
-9.864691
-11.17334
-12.59027
-13.82003
-14.46294
-14.11132
-12.47085
-9.601194
-6.003978
-2.432822
0.3034074
1.704115
1.781797
1.094967
0.4009662
0.3682413
1.199783
2.626642
4.145585
5.270445
5.789338
5.825768
5.764932
5.962385
6.666234
7.851229
9.288363
10.67918
11.75547
12.33097
12.36595
11.90568
11.05451
9.993124
8.850694
7.771658
6.851147
6.12491
5.618061
5.363866
5.401644
5.750886
6.412413
7.289564
8.152822
8.764915
8.90063
8.502686
7.701432
6.755308
5.935696
5.405143
5.091724
4.705839
3.931753
2.530708
0.5333751
-1.754451
-3.880194
-5.468628
-6.331997
-6.612443
-6.694186
-6.987041
-7.812547
-9.237869
-11.14692
-13.268
-15.28106
-16.82658
-17.5132
-17.02921
-15.18335
-12.13135
-8.380229
-4.705914
-1.860253
-0.2625985
0.2458229
0.2777596
0.600069
1.723206
3.569708
5.592644
7.02628
7.335809
6.475257
4.901465
3.298737
2.243337
1.930883
2.126303
2.405742
2.405638
2.03391
1.495547
1.117299
1.211649
1.802972
2.732048
3.67626
4.352238
4.664198
4.725454
4.792174
5.108892
5.852921
6.937513
8.11532
8.988897
9.226561
8.694235
7.55459
6.215744
5.053213
4.340466
3.976656
3.622772
2.843512
1.481081
-0.3541126
-2.247448
-3.759066
-4.709646
-5.207033
-5.60947
-6.338514
-7.632479
-9.459511
-11.62578
-13.83341
-15.77772
-17.14605
-17.57376
-16.696
-14.31581
-10.56767
-6.054485
-1.676155
1.676624
3.487331
3.823368
3.264687
2.537521
2.161388
2.231216
2.414261
2.289864
1.60664
0.4670715
-0.8406677
-1.919998
-2.524265
-2.578854
-2.134682
-1.353416
-0.4206238
0.5179901
1.350437
2.000496
2.499622
2.889084
3.225487
3.547916
3.875168
4.196339
4.550377
4.9646
5.422981
5.868935
6.119095
6.00045
5.397575
4.314724
2.904015
1.339825
-0.1929893
-1.520893
-2.507435
-3.111172
-3.397556
-3.531933
-3.780632
-4.305702
-5.125507
-6.109257
-6.993023
-7.608059
-7.981606
-8.371014
-9.110455
-10.4852
-12.55487
-15.11741
-17.78098
-20.0285
-21.34011
-21.3336
-19.84106
-16.98097
-13.1889
-9.09631
-5.398216
-2.598217
-0.8085442
0.2322311
1.114357
2.434006
4.512341
7.240108
10.15388
12.64468
14.2317
14.79246
14.46103
13.61934
12.65732
11.81561
11.21141
10.84433
10.70559
10.71482
10.78565
10.69215
10.25452
9.355835
8.049709
6.555191
5.144711
4.0103
3.198872
2.641052
2.189266
1.784166
1.448467
1.221905
1.145618
1.156784
1.088089
0.7713356
0.1166458
-0.8300781
-1.90839
-2.895248
-3.684158
-4.223602
-4.582695
-4.909706
-5.348553
-6.005302
-6.887882
-7.903629
-8.892002
-9.745419
-10.3901
-10.89256
-11.38557
-12.06154
-13.04048
-14.32073
-15.78338
-17.23523
-18.49923
-19.33327
-19.48212
-18.64786
-16.58585
-13.33929
-9.313601
-5.223763
-1.837511
0.3671494
1.472361
2.033958
2.825195
4.394533
6.776688
9.522215
11.97349
13.60959
14.32659
14.36531
14.10176
13.85863
13.78401
13.89688
14.14647
14.50539
14.89289
15.18056
15.19494
14.75346
13.80069
12.41954
10.79919
9.148434
7.632956
6.286472
5.131823
4.197432
3.49364
2.993411
2.650646
2.355518
2.044359
1.70895
1.382397
1.134706
0.9830666
0.8708801
0.6881847
0.3424129
-0.2202969
-0.9281654
-1.671165
-2.377131
-3.031401
-3.755749
-4.691162
-5.912529
-7.353489
-8.837057
-10.08815
-10.88332
-11.14516
-10.99601
-10.70041
-10.58116
-10.84307
-11.54362
-12.60189
-13.7729
-14.73726
-15.11301
-14.55959
-12.88222
-10.18508
-6.90267
-3.74663
-1.452757
-0.4245377
-0.5547304
-1.20272
-1.554585
-0.9464378
0.7548389
3.167355
5.601629
7.452401
8.433762
8.649876
8.478741
8.288773
8.31013
8.570895
8.977623
9.414911
9.794042
10.03361
10.03426
9.735322
9.118374
8.238141
7.241353
6.29193
5.525104
5.02382
4.82709
4.913992
5.265835
5.801605
6.41698
6.946117
7.228831
7.208244
6.931098
6.575367
6.287301
6.131101
6.028191
5.822145
5.399449
4.693895
3.784814
2.79472
1.851815
1.006065
0.2320995
-0.572958
-1.490265
-2.494407
-3.497399
-4.307893
-4.782162
-4.905284
-4.844463
-4.85672
-5.274241
-6.323514
-8.046624
-10.33943
-12.88077
-15.25758
-16.95652
-17.49034
-16.55324
-14.20388
-10.89575
-7.374069
-4.460574
-2.643139
-1.956356
-1.961797
-1.947667
-1.358196
-0.004070282
1.869238
3.759098
5.138359
5.748147
5.630615
5.051805
4.429928
4.055546
4.093988
4.538706
5.257648
6.027679
6.669017
7.059623
7.118438
6.923796
6.579258
6.233919
6.021038
6.018503
6.183159
6.485094
6.871714
7.31415
7.816481
8.297966
8.664326
8.814129
8.69986
8.345268
7.88298
7.448309
7.111696
6.873102
6.611835
6.244427
5.748636
5.165722
4.539803
3.858282
3.064217
2.07917
0.958313
-0.1790524
-1.165031
-1.881582
-2.396646
-2.884161
-3.593899
-4.670193
-6.170273
-7.975883
-9.957878
-11.9667
-13.82581
-15.29257
-15.99979
-15.61784
-13.99833
-11.3569
-8.207298
-5.242504
-3.028507
-1.771454
-1.223618
-0.8351326
-0.1160011
1.144798
2.702553
4.013737
4.523979
3.903423
2.26796
0.1071892
-1.913029
-3.235462
-3.611851
-3.185226
-2.323269
-1.435829
-0.7944908
-0.4287567
-0.1985054
0.0723114
0.4753304
0.9693298
1.412094
1.698887
1.864555
2.073559
2.583729
3.565472
4.966576
6.527344
7.862751
8.574558
8.457664
7.578632
6.21236
4.797089
3.711998
3.106934
2.901649
2.82111
2.485428
1.657066
0.3223648
-1.287403
-2.7826
-3.851959
-4.4002
-4.622547
-4.955452
-5.858017
-7.59753
-10.13431
-13.13956
-16.08264
-18.40897
-19.63772
-19.48046
-17.88295
-15.07159
-11.52974
-7.925457
-4.904675
-2.854401
-1.730141
-1.104553
-0.3683624
0.9210052
2.783989
4.841351
6.459812
7.086803
6.552017
5.061611
3.15284
1.395061
0.2125931
-0.2648392
-0.1040688
0.4654617
1.233646
2.070259
2.855923
3.520187
3.977448
4.173321
4.085369
3.791645
3.417175
3.046871
2.757843
2.474731
2.139145
1.690964
1.240269
0.9112473
0.8563881
1.099129
1.462845
1.716171
1.675018
1.34317
0.8984413
0.5841103
0.4761162
0.4341545
0.1285896
-0.778183
-2.366562
-4.420681
-6.485138
-8.08934
-9.02763
-9.429054
-9.699127
-10.27332
-11.41259
-13.08699
-15.06238
-17.02072
-18.63795
-19.7066
-19.97524
-19.24147
-17.28387
-14.1712
-10.24297
-6.178013
-2.767281
-0.4851494
0.6444893
1.093384
1.513004
2.385181
3.723846
5.191826
6.287014
6.698303
6.466606
5.930035
5.526482
5.566246
6.107376
6.995792
8.026089
9.043468
9.974327
10.80649
11.51756
12.09608
12.4629
12.53399
12.27842
11.69659
10.86278
9.865601
8.844765
7.897314
7.10956
6.515087
6.042892
5.554703
4.91287
4.003824
2.814648
1.471655
0.1423168
-0.9798641
-1.775682
-2.226295
-2.434744
-2.520338
-2.649776
-2.956688
-3.537167
-4.435299
-5.586267
-6.834875
-7.982443
-8.884295
-9.526905
-10.04867
-10.67563
-11.64921
-13.08402
-14.96815
-17.15817
-19.41087
-21.39544
-22.72642
-22.98202
-21.82194
-19.16466
-15.30968
-10.88756
-6.688717
-3.303422
-0.8627491
0.968792
2.743717
4.919792
7.550152
10.23951
12.41917
13.63091
13.7703
13.09354
12.05312
11.03991
10.28448
9.845934
9.692787
9.788078
10.09186
10.52484
10.91931
11.06324
10.78751
10.09691
9.134186
8.176999
7.463763
7.124493
7.116702
7.262633
7.368531
7.298218
7.009717
6.554846
5.961287
5.242463
4.355028
3.308298
2.164817
1.097545
0.2509136
-0.3056145
-0.6386127
-0.9773254
-1.565122
-2.554309
-3.949598
-5.583316
-7.205971
-8.60853
-9.666925
-10.37012
-10.86235
-11.35223
-12.0667
-13.14888
-14.65173
-16.45658
-18.38882
-20.1529
-21.35378
-21.5934
-20.48978
-17.96006
-14.31959
-10.27223
-6.608004
-3.911018
-2.260485
-1.1588
0.07593536
1.961992
4.538631
7.33519
9.730093
11.31324
12.0508
12.23083
12.22904
12.27781
12.40012
12.52862
12.60968
12.64122
12.68756
12.75181
12.77562
12.68304
12.43184
12.03822
