15.26476
15.47768
16.20699
17.3421
18.63941
19.79454
20.58892
20.93307
20.89512
20.57068
20.06954
19.41206
18.62538
17.75277
16.86346
16.03008
15.25973
14.50462
13.65339
12.64078
11.47655
10.25961
9.119747
8.111916
7.225876
6.338928
5.351967
4.202671
2.916111
1.548229
0.1529427
-1.242191
-2.664101
-4.138008
-5.744621
-7.545002
-9.564865
-11.78373
-14.08609
-16.33334
-18.38067
-20.12303
-21.5318
-22.71528
-23.84756
-25.15736
-26.87757
-29.09776
-31.70568
-34.3095
-36.2812
-36.88373
-35.52484
-31.95709
-26.35994
-19.32624
-11.63811
-4.090349
2.695829
8.33112
12.65166
15.67711
17.5399
18.44587
18.60902
18.27814
17.68596
17.07532
16.68499
16.6405
17.01229
17.73064
18.65414
19.59526
20.40332
20.96275
21.21154
21.1135
20.63197
19.78035
18.61731
17.28031
15.90352
14.63417
13.56094
12.71377
12.08764
11.63801
11.29359
10.9716
10.56649
10.00656
9.259808
8.372362
7.423946
6.505836
5.647631
4.816288
3.908728
2.80732
1.490347
-0.04374886
-1.707071
-3.461636
-5.29076
-7.219032
-9.264532
-11.41777
-13.62739
-15.79553
-17.88505
-19.8866
-21.8681
-23.95229
-26.25642
-28.84644
-31.68975
-34.60634
-37.17698
-38.90002
-39.20653
-37.66769
-34.14017
-28.80753
-22.15849
-14.81987
-7.435431
-0.4771118
5.714439
10.95458
15.11649
18.12014
19.93398
20.63274
20.42996
19.64416
18.65111
17.76276
17.16505
16.89813
16.89946
17.11348
17.47696
17.97942
18.61696
19.32421
19.99099
20.42818
20.48436
20.04536
19.14408
17.89789
16.50069
15.11651
13.80619
12.57651
11.34299
10.1014
8.884163
7.791868
6.90484
6.223408
5.658257
5.063297
4.325411
3.405983
2.319944
1.121805
-0.1724358
-1.545464
-2.975794
-4.428354
-5.893087
-7.339987
-8.832918
-10.47288
-12.29453
-14.27282
-16.22588
-17.94704
-19.29113
-20.29282
-21.141
-22.19038
-23.79568
-26.08662
-28.92252
-31.78401
-33.92654
-34.59451
-33.26579
-29.82566
-24.58902
-18.17659
-11.28544
-4.525837
1.678864
7.121181
11.65252
15.17706
17.58243
18.81106
18.95335
18.24663
17.05228
15.76579
14.75662
14.19014
14.07492
14.26141
14.55278
14.82581
15.06958
15.36485
15.76426
16.26797
16.73309
16.94575
16.72112
15.94671
14.68531
13.11555
11.47593
9.989498
8.763523
7.796806
7.021095
6.337746
5.632469
4.836182
3.877228
2.752907
1.519627
0.2597504
-0.8753624
-1.833286
-2.614735
-3.384777
-4.374249
-5.821266
-7.800861
-10.20387
-12.79052
-15.25666
-17.4274
-19.24891
-20.85302
-22.45068
-24.28009
-26.51819
-29.20484
-32.26158
-35.44013
-38.3497
-40.45871
-41.19485
-40.03165
-36.6731
-31.18211
-24.01173
-15.93493
-7.834476
-0.4879761
5.625664
10.36559
13.846
16.32786
18.01204
19.01817
19.39656
19.23823
18.65958
17.85394
17.05838
16.47426
16.25224
16.45065
17.02442
17.85329
18.7919
19.64516
20.21567
20.37239
20.03858
19.1945
17.93848
16.42326
14.82756
13.33764
12.097
11.15195
10.45624
9.887253
9.30307
8.59853
7.758392
6.821507
5.799088
4.67234
3.346077
1.768448
-0.06007767
-2.00629
-3.857979
-5.448223
-6.71603
-7.763924
-8.802895
-10.034
-11.52786
-13.24446
-15.04153
-16.75562
-18.33477
-19.84491
-21.41982
-23.24219
-25.42263
-27.98593
-30.83444
-33.76952
-36.45598
-38.43596
-39.18533
-38.19424
-35.15214
-30.0528
-23.29806
-15.62132
-7.855759
-0.7246933
5.312481
10.1004
13.69953
16.22159
17.80228
18.51723
18.45256
17.78113
16.77066
15.73443
15.00192
14.80048
15.16018
15.99006
17.0879
18.22178
19.24533
20.06566
20.62652
20.87666
20.81926
20.43258
19.796
19.01103
18.18424
17.40983
16.65524
15.85101
14.88274
13.70662
12.35628
10.93895
9.567459
8.315892
7.204906
6.18672
5.202572
4.173748
3.070189
1.894464
0.656951
-0.6325359
-1.980194
-3.411852
-4.964709
-6.624446
-8.362237
-10.12052
-11.8788
-13.64408
-15.47505
-17.45645
-19.60423
-21.95308
-24.50121
-27.27381
-30.30362
-33.51319
-36.71893
-39.49681
-41.2947
-41.50053
-39.65025
-35.58761
-29.56501
-22.18678
-14.2643
-6.593749
0.2579565
5.994178
10.5551
14.01095
16.43604
17.8609
18.3541
18.09591
17.40606
16.70846
16.39297
16.69594
17.59763
18.87731
20.21513
21.32677
22.03612
22.29264
22.17029
21.74917
21.0708
20.18002
19.1268
18.01081
16.94924
16.02409
15.221
14.45518
13.61422
12.60544
11.46137
10.28535
9.202223
8.276876
7.465424
6.644374
5.706944
4.593088
3.31321
1.931066
0.5135407
-0.9092623
-2.387626
-3.997459
-5.836688
-7.961308
-10.34545
-12.86073
-15.30772
-17.50964
-19.37746
-20.98781
-22.54165
-24.31445
-26.5147
-29.21522
-32.24208
-35.14826
-37.28992
-37.9809
-36.68053
-33.19293
-27.77479
-21.00662
-13.65316
-6.412614
0.218473
5.968872
10.71042
14.36518
16.85291
18.12471
18.27861
17.59071
16.48333
15.42109
14.77105
14.6926
15.15345
15.99366
17.01839
18.09595
19.16691
20.21423
21.18517
21.92788
22.19563
21.75905
20.51048
18.54189
16.14475
13.68407
11.51299
9.838554
8.675051
7.872553
7.230597
6.581308
5.844213
5.035659
4.194179
3.353168
2.527248
1.646709
0.6414423
-0.5553207
-1.965082
-3.595284
-5.418978
-7.420537
-9.593674
-11.89585
-14.27808
-16.63981
-18.84193
-20.78483
-22.41387
-23.79799
-25.1193
-26.63695
-28.51243
-30.65065
-32.60674
-33.69666
-33.24195
-30.81143
-26.38361
-20.38214
-13.50489
-6.521749
-0.06997299
5.447203
9.830703
12.96471
14.86022
15.59962
15.35239
14.39825
13.12416
11.88614
10.99737
10.61717
10.75153
11.34274
12.28293
13.48149
14.86764
16.34464
17.75521
18.89516
19.54473
19.53536
18.85997
17.59775
15.90144
13.9612
11.95917
10.04521
8.393259
7.098087
6.174072
5.502684
4.846064
3.956589
2.722826
1.197693
-0.4295845
-1.932775
-3.259954
-4.517775
-5.905884
-7.566851
-9.466702
-11.41531
-13.20159
-14.76172
-16.21245
-17.80114
-19.75611
-22.12244
-24.74665
-27.33472
-29.55791
-31.15082
-31.90391
-31.60951
-30.06233
-27.10125
-22.71901
-17.14855
-10.82913
-4.338991
1.771519
7.072893
11.32701
14.43346
16.40649
17.3323
17.38835
16.83109
15.984
15.13656
14.48176
14.10046
13.98334
14.08933
14.42427
14.97417
15.71444
16.5639
17.33178
17.83838
17.94301
17.60379
16.88067
15.91421
14.81827
13.63184
12.33059
10.81657
9.003559
6.880131
4.567661
2.24651
0.1506767
-1.596958
-2.98922
-4.178299
-5.363865
-6.730991
-8.300053
-9.997559
-11.64933
-13.13288
-14.46692
-15.77407
-17.27549
-19.18417
-21.58434
-24.4534
-27.70787
-31.12632
-34.41975
-37.17484
-38.84049
-38.85259
-36.81636
-32.64587
-26.67013
-19.54801
-12.03542
-4.770832
1.837246
7.614586
12.47284
16.34336
19.13038
20.78267
21.37146
21.14294
20.47659
19.74771
19.27685
19.20681
19.53032
20.14525
20.89221
21.65913
22.3876
23.05316
23.63561
24.08825
24.26678
24.03474
23.31955
22.16877
20.7635
19.34666
18.09932
17.09169
16.2924
15.59138
14.92187
14.26132
13.62154
13.00085
12.3379
11.5297
10.50517
9.262421
7.899216
6.512585
5.17416
3.856831
2.503551
1.045704
-0.5129204
-2.118282
-3.7216
-5.291023
-6.885925
-8.596878
-10.53363
-12.72942
-15.14586
-17.63531
-20.05482
-22.31613
-24.4451
-26.54792
-28.74508
-31.14194
-33.77073
-36.62053
-39.57158
-42.41989
-44.80673
-46.23846
-46.14182
-44.04813
-39.77009
-33.55577
-25.98851
-17.8825
-9.992981
-2.872051
3.270634
8.447201
12.76752
16.29205
18.98253
20.77472
21.65747
21.75508
21.30223
20.62967
20.04683
19.77428
19.90009
20.4481
21.36757
22.57441
23.97108
25.39433
26.63567
27.4591
27.67588
27.20943
26.16037
24.73495
23.18871
21.75509
20.55141
19.5794
18.75781
17.95272
17.01725
15.88332
14.51678
13.01145
11.54071
10.28391
9.358238
8.688618
8.053402
7.148705
5.765358
3.869728
1.620743
-0.7155762
-2.919365
-4.840538
-6.474907
-7.883972
-9.180744
-10.45524
-11.82022
-13.37748
-15.17579
-17.21507
-19.39215
-21.57095
-23.64196
-25.54388
-27.27713
-28.93578
-30.63473
-32.49936
-34.59569
-36.8284
-38.95714
-40.48923
-40.81102
-39.36661
-35.84586
-30.37536
-23.46603
-15.89127
-8.384975
-1.489405
4.550358
9.688931
13.94314
17.29409
19.65858
20.98511
21.33096
20.94729
20.21451
19.52695
19.17199
19.2432
19.71621
20.42972
21.2159
21.93837
22.53641
22.97405
23.24088
23.28094
22.99759
22.37429
21.41398
20.21359
18.89323
17.58205
16.35057
15.20214
14.09808
12.97495
11.84138
10.76307
9.828506
9.077719
8.457312
7.836198
7.059155
6.01755
4.670153
3.080725
1.381933
-0.2677622
-1.786065
-3.199079
-4.570439
-5.99159
-7.536886
-9.22644
-11.02814
-12.86547
-14.63004
-16.23067
-17.63717
-18.88999
-20.11218
-21.45567
-23.08633
-25.12096
-27.59257
-30.41412
-33.29374
-35.75703
-37.17569
-36.9231
-34.56849
-30.0757
-23.86134
-16.69529
-9.459768
-2.876618
2.649977
7.036373
10.38222
12.84471
14.50072
15.35742
15.50582
15.14056
14.59544
14.25336
14.41548
15.16892
16.37211
17.71085
18.83402
19.51842
19.69497
19.48414
19.04203
18.50935
17.94906
17.30684
16.51748
15.54484
14.42693
13.2479
12.1334
11.16389
10.3237
9.55666
8.735567
7.723358
6.428061
4.846766
3.034725
1.156303
-0.6137943
-2.192499
-3.530558
-4.670889
-5.673883
-6.63101
-7.609257
-8.694664
-9.974751
-11.49321
-13.23205
-15.09188
-16.99271
-18.87382
-20.80654
-22.93322
-25.38813
-28.19745
-31.19138
-33.97877
-35.99603
-36.69438
-35.60888
-32.51586
-27.52251
-21.06292
-13.78446
-6.430519
0.3390656
6.119068
10.70752
14.09056
16.29382
17.32946
17.24738
16.18793
14.499
12.62327
11.06584
10.19609
10.14643
10.784
11.85368
13.10349
14.33005
15.42702
16.29702
16.85688
17.00414
16.659
15.80107
14.49775
12.93713
11.31553
9.782394
8.39452
7.083004
5.734631
4.268223
2.705276
1.16267
-0.2178574
-1.389713
-2.430344
-3.543465
-4.955807
-6.796116
-9.05106
-11.55481
-14.08128
-16.42874
-18.49638
-20.27009
-21.84096
-23.35796
-24.99708
-26.89272
-29.05162
-31.25114
-33.03458
-33.80808
-33.00019
-30.27672
-25.66434
-19.59304
-12.73345
-5.821796
0.5621834
6.051201
10.51589
13.91912
16.24244
17.47183
17.63418
16.86945
15.48196
13.91462
12.62711
11.97902
12.10198
12.88473
14.05981
15.30013
16.35996
17.09124
17.47278
17.51231
17.23693
16.67004
15.8194
14.72216
13.41693
11.97361
10.43169
8.766361
6.946392
4.945461
2.793858
0.5980988
-1.461128
-3.273033
-4.777233
-6.008747
-7.102768
-8.199047
-9.386044
-10.68724
-12.10853
-13.65173
-15.36049
-17.24992
-19.31293
-21.50817
-23.78515
-26.12304
-28.53532
-31.02111
-33.43766
-35.42497
-36.42096
-35.8254
-33.18339
-28.44152
-22.0015
-14.61034
-7.125191
-0.2716675
5.516029
10.1052
13.5043
15.8102
17.1229
17.57063
17.35329
16.7776
16.23763
16.06925
16.45158
17.34642
18.55196
19.77706
20.76959
21.36739
21.47723
21.08602
20.22345
18.99944
17.56195
16.08691
14.72266
13.51763
12.44105
11.36954
10.20755
8.916483
7.529541
6.141073
4.805167
3.549994
2.350812
1.160898
-0.09955883
-1.509528
-3.144859
-5.049011
-7.160492
-9.353064
-11.41873
-13.16187
-14.51022
-15.56436
-16.5626
-17.84335
-19.69502
-22.25299
-25.45883
-29.0471
-32.61773
-35.63886
-37.5317
-37.78205
-36.03526
-32.23702
-26.63989
-19.79233
-12.4031
-5.136752
1.460517
7.10753
11.69024
15.21028
17.70594
19.25282
19.96153
20.01724
19.65963
19.10531
18.57384
18.19883
18.05233
18.15616
18.49807
19.00793
19.56461
20.04499
20.31417
20.3035
20.00733
19.47465
18.77137
17.94974
17.05489
16.08353
15.0831
14.07768
13.10753
12.16811
11.21402
10.17186
8.957687
7.54269
5.940178
4.247747
2.543322
0.886961
-0.7166214
-2.335426
-4.049065
-5.9475
-8.083157
-10.43648
-12.88008
-15.26148
-17.39716
-19.17002
-20.61276
-21.8772
-23.25887
-25.05191
-27.42599
-30.29047
-33.29875
-35.88322
-37.38158
-37.24847
-35.15246
-31.11736
-25.48644
-18.85649
-11.88062
-5.159853
0.8904114
6.050943
10.24039
13.45465
15.71264
17.09949
17.75417
17.90509
17.8469
17.88697
18.2298
18.94468
19.94779
21.02516
21.96989
22.59119
22.81965
22.68659
22.31895
21.85337
21.36847
20.84681
20.2178
19.40196
18.40023
17.29683
16.23566
15.35235
14.68234
14.16362
13.62576
12.89759
11.85004
10.42318
8.68446
6.747417
4.762966
2.850189
1.088459
-0.5450974
-2.105877
-3.638088
-5.219143
-6.867867
-8.622334
-10.52731
-12.61023
-14.84311
-17.1045
-19.21123
-20.99342
-22.42697
-23.65354
-25.00072
-26.78058
-29.18693
-32.11613
-35.14653
-37.63522
-38.84241
-38.23171
-35.5463
-30.93715
-24.85191
-17.9458
-10.87302
-4.172581
1.771023
6.766644
10.6907
13.51751
15.28701
16.12716
16.24976
15.9121
15.42687
15.03399
14.94428
15.27579
16.01813
17.07975
18.28509
19.45749
20.46267
21.27161
21.8649
22.24863
22.3514
22.0289
21.19495
19.80173
17.98293
16.02107
14.2107
12.78521
11.82087
11.20197
10.69723
10.06149
9.110474
7.788494
6.198521
4.499428
2.880951
1.46912
0.3195648
-0.6556206
-1.628414
-2.834915
-4.489563
-6.665718
-9.292969
-12.12538
-14.86383
-17.28236
-19.31575
-21.08841
-22.84973
-24.81747
-27.11015
-29.70179
-32.37212
-34.81043
-36.60159
-37.2399
-36.25838
-33.34151
-28.44964
-21.93349
-14.46941
-6.874916
0.1099281
6.004032
10.62579
14.02232
16.32546
17.68603
18.21799
18.0803
17.50069
16.7631
16.1593
15.92172
16.1633
16.87314
17.95157
19.21911
20.47979
21.59224
22.44118
22.95443
23.0957
22.83923
22.17962
21.11281
19.6913
18.02726
16.30415
14.7007
13.33802
12.25793
11.42078
10.71509
10.01421
9.227283
8.286625
7.171776
5.878067
4.422459
2.853455
1.211491
-0.4896507
-2.264019
-4.14542
-6.186832
-8.425179
-10.84935
-13.39433
-15.95289
-18.42356
-20.70802
-22.73792
-24.48637
-25.99557
-27.36645
-28.74181
-30.31477
-32.27145
-34.70326
-37.48376
-40.19427
-42.13725
-42.54044
-40.78864
-36.65052
-30.45517
-22.93798
-15.00646
-7.478146
-0.8209152
4.821274
9.52663
13.40047
16.46626
18.65532
19.93481
20.4033
20.33265
20.077
19.97319
20.18639
20.67276
21.26228
21.75517
22.03198
22.12133
22.14599
22.20921
22.32862
22.36663
22.13043
21.45673
20.27587
18.70815
17.00378
15.43004
14.17609
13.28521
12.63351
12.06193
11.40762
10.56952
9.565334
8.466599
7.323582
6.135632
4.852936
3.410141
1.799606
0.1020279
-1.596989
-3.24612
-4.930698
-6.848988
-9.216843
-12.08488
-15.32248
-18.63155
-21.67222
-24.25112
-26.34431
-28.13467
-29.84705
-31.66971
-33.70358
-35.95275
-38.27874
-40.3442
-41.649
-41.56627
-39.56159
-35.42673
-29.36035
-21.98666
-14.11625
-6.529617
0.2412796
5.951485
10.55682
14.11177
16.63339
18.1457
18.73295
18.5696
17.96875
17.30768
16.92458
17.04233
17.70163
18.73725
19.88508
20.84435
21.42185
21.58595
21.44476
21.17601
20.90547
20.65716
20.34289
19.81139
18.9488
17.72966
16.26759
14.72574
13.28428
12.02239
10.95015
9.973877
8.963463
7.820396
6.49572
5.003712
3.433464
1.910946
0.5192528
-0.7001305
-1.785904
-2.846127
-4.024612
-5.431602
-7.132427
-9.143639
-11.41966
-13.86804
-16.38445
-18.86986
-21.28786
-23.65008
-26.02532
-28.51456
-31.18888
-34.00805
-36.81801
-39.26066
-40.84087
-41.03717
-39.40925
-35.72534
-30.06521
-22.8442
-14.75201
-6.632816
0.798069
7.043526
11.87563
15.28646
17.36284
18.21551
18.00131
16.96522
15.45924
13.96591
12.9458
12.69104
13.27722
14.52566
16.16624
17.9111
19.54883
20.95402
22.06311
22.84854
23.2702
23.34323
23.07364
22.47518
21.56456
20.3304
18.78624
16.98087
15.00413
12.95392
10.92063
8.962574
7.11784
5.447941
4.027176
2.917027
2.105492
1.520088
1.01572
0.4301605
-0.3615837
-1.428158
-2.770912
-4.350204
-6.089504
-7.913174
-9.714607
-11.45708
-13.16418
-14.9326
-16.90327
-19.14505
-21.66611
-24.41216
-27.31147
-30.36039
-33.51949
-36.63538
-39.27475
-40.772
-40.40372
-37.70407
-32.72666
-26.01933
-18.47441
-10.96507
-4.100208
1.911434
7.02277
11.22449
14.40114
16.36671
17.05708
16.67575
15.68676
14.71453
14.27824
14.58526
15.52824
16.75121
17.84543
18.5495
18.80804
18.75246
18.55574
18.26962
17.84186
17.12698
16.05467
14.67365
13.16792
11.76264
10.62799
9.789658
9.115753
8.459877
7.717339
6.86396
5.905899
4.834816
3.574226
2.040771
0.1922531
-1.916252
-4.116699
-6.169395
-7.92804
-9.383698
-10.67139
-12.03394
-13.69053
-15.74591
-18.20063
-20.95648
-23.89061
-26.8797
-29.76191
-32.2652
-33.96494
-34.33127
-32.89808
-29.47202
-24.25405
-17.82198
-10.89388
-4.120293
2.049835
7.376038
11.74941
15.04766
17.19032
18.13111
18.01209
17.17638
16.11163
15.29098
15.00999
15.35082
16.1797
17.30454
18.50745
19.6543
20.61488
21.27441
21.50224
21.14966
20.17191
18.60133
16.62083
14.46797
12.36971
10.49287
8.892548
7.555161
6.383118
5.296791
4.206612
3.087601
1.931396
0.7503357
-0.4729385
-1.81366
-3.34333
-5.167847
-7.266228
-9.551811
-11.85781
-14.03497
-16.0372
-17.96235
-19.96809
-22.22684
-24.85951
-27.85606
-31.16309
-34.63051
-37.97665
-40.77861
-42.48291
-42.52305
-40.46409
-36.21907
-30.07638
-22.65816
-14.75
-7.03643
0.01010895
6.150703
11.28799
15.40769
18.43884
20.3586
21.23705
21.26071
20.83105
20.38258
20.3185
20.83614
21.87715
23.1507
24.29395
24.99967
25.15181
24.85094
24.30894
23.75772
23.2842
22.84082
22.24884
21.36584
20.12035
18.56691
16.86548
15.17004
13.60602
12.20102
10.91995
9.67794
8.444221
7.21122
5.976265
4.746346
3.492569
2.180779
0.8072052
-0.6295166
-2.14592
-3.742958
-5.471725
-7.368958
-9.455795
-11.66148
-13.8774
-16.00967
-18.02126
-20.03297
-22.21445
-24.77935
-27.90022
-31.59078
-35.67159
-39.75343
-43.28446
-45.61484
-46.14578
-44.44083
-40.38219
-34.23744
-26.58899
-18.22324
-9.87796
-2.100693
4.788651
10.64259
15.36807
18.86217
21.03236
21.92786
21.80614
21.1387
20.47795
20.30792
20.84106
22.05774
23.74232
25.57214
27.31123
28.76537
29.84776
30.49908
30.67967
30.3553
29.55609
28.37273
26.96585
25.55013
24.24481
23.08299
21.95145
20.67677
19.1115
17.24867
15.23418
13.30826
11.66019
10.32663
9.205719
8.144821
7.029938
5.798569
4.443817
2.960663
1.356171
-0.3482666
-2.109039
-3.869446
-5.596222
-7.392273
-9.413811
-11.7899
-14.46623
-17.18037
-19.56831
-21.37991
-22.61836
-23.5663
-24.68068
-26.33846
-28.72755
-31.81063
-35.36689
-39.09245
-42.61379
-45.493
-47.23756
-47.31441
-45.27971
-40.91248
-34.39252
-26.26534
-17.39632
-8.697334
-0.9062958
5.579346
10.72741
14.73748
17.87834
20.2866
22.01205
23.04649
23.46973
23.49076
23.41731
23.54085
24.00858
24.7394
25.48154
26.0026
26.13139
25.87797
25.39185
24.83576
24.30135
23.75908
23.06487
22.10641
20.87779
19.49544
18.15878
17.0506
16.20457
15.53782
14.85051
13.95847
12.78294
11.36706
9.848267
8.317627
6.847382
5.396263
3.919044
2.374252
0.7493362
-0.9229736
-2.647202
-4.434547
-6.334465
-8.36689
-10.53241
-12.76313
-14.93082
-16.94301
-18.76498
-20.47962
-22.23647
-24.1842
-26.40184
-28.86371
-31.45579
-33.97713
-36.1333
-37.55619
-37.81563
-36.50645
-33.3717
-28.45207
-22.0906
-14.92271
-7.613274
-0.7351837
5.360619
10.47606
14.49367
17.33124
18.91426
19.32085
18.77151
17.69028
16.59477
15.92915
15.96468
16.73988
18.09346
19.73579
21.39913
22.83345
23.87245
24.39138
24.28139
23.47074
21.94154
19.76284
17.13278
14.37118
11.81855
9.768547
8.313431
7.346329
6.618858
5.881454
4.989876
3.978653
3.013222
2.226784
1.665474
1.18605
0.5378036
-0.505867
-2.055687
-4.070587
-6.386223
-8.783691
-11.14288
-13.41218
-15.64341
-17.94942
-20.40443
-23.06958
-25.95959
-29.01886
-32.04491
-34.68128
-36.41809
-36.69793
-35.11547
-31.5494
-26.23589
-19.68704
-12.53383
-5.369411
1.352585
7.351662
12.42827
16.42311
19.21564
20.7235
21.02319
20.32545
18.93982
17.26578
15.67035
14.47568
13.88781
13.96095
14.56589
15.45022
16.31643
16.90102
17.08329
16.84077
16.24738
15.3825
14.32895
13.12123
11.82652
10.58193
9.495834
8.623211
7.886086
7.044106
5.874573
4.251602
2.23461
0.04670525
-2.033602
-3.844604
-5.419298
-6.908329
-8.51762
-10.29974
-12.19044
-14.02091
-15.68303
-17.18088
-18.66066
-20.34362
-22.40273
-24.97573
-28.08498
-31.61857
-35.28507
-38.55145
-40.65619
-40.82533
-38.49481
-33.56183
-26.53044
-18.35724
-10.11494
-2.701827
3.442134
8.28982
12.04226
14.9286
17.06758
18.45049
19.07856
19.09373
18.76667
18.45827
18.45024
18.83138
19.49122
20.23232
20.86825
21.3472
21.7363
22.0789
22.32787
22.33867
21.88199
20.85742
19.31273
17.43018
15.4817
13.66126
12.04352
10.58651
9.227029
7.852923
6.40448
4.82436
3.083536
1.23
-0.6466312
-2.427728
-4.06299
-5.550026
-7.010815
-8.546124
-10.20653
-11.96573
-13.73827
-15.46645
-17.1767
-18.99002
-21.05085
-23.47275
-26.2752
-29.37758
-32.63017
-35.77499
-38.45874
-40.19576
-40.46759
-38.80808
-35.03282
-29.35578
-22.33054
-14.75277
-7.324011
-0.573616
5.289835
10.19636
14.13987
17.06127
18.86317
19.56874
19.34549
18.5812
17.68189
17.00818
16.71672
16.80896
17.13602
17.54903
17.96312
18.32613
18.66813
18.99467
19.26911
19.36671
19.16001
18.51017
17.39939
15.95562
14.32003
12.67451
11.07317
9.460426
7.714628
5.753384
3.608456
1.41844
-0.599823
-2.266026
-3.495888
-4.319248
-4.9338
-5.596088
-6.536972
-7.86937
-9.568707
-11.48193
-13.45599
-15.42196
-17.45704
-19.71379
-22.28244
-25.16317
-28.22151
-31.26672
-34.09525
-36.51692
-38.25439
-38.95154
-38.13766
-35.41428
-30.66853
-24.1969
-16.72093
-9.091827
-2.055519
4.001675
9.021126
13.15153
16.48882
19.00335
20.52671
20.9505
20.39421
19.23153
17.9788
17.1167
16.883
17.23377
17.94657
18.75863
19.46897
19.97216
20.24832
20.261
19.97476
19.36555
18.46634
17.36826
16.22244
15.10767
14.03958
12.94526
11.70365
10.2447
8.572239
6.741474
4.856422
3.030594
1.348495
-0.0949707
-1.277649
-2.233318
-3.080494
-3.99419
-5.1492
-6.653072
-8.509594
-10.62025
-12.7888
-14.83121
-16.63692
-18.22053
-19.70934
-21.31313
-23.2063
-25.5163
-28.25373
-31.28978
-34.35646
-37.01408
-38.70663
-38.87247
-37.0624
-33.10326
-27.22429
-20.01051
-12.26613
-4.811745
1.759102
7.120853
11.20638
14.03872
15.68398
16.22554
15.823
14.80907
13.62114
12.74984
12.51717
13.00354
14.02495
15.27005
16.48136
17.53983
18.46779
19.26293
19.89816
20.20672
20.00154
19.15369
17.65372
15.67727
13.52099
11.48574
9.776512
8.475594
7.509171
6.713844
5.902401
4.975582
3.939003
2.882355
1.901318
1.011875
0.1281548
-0.9244804
-2.328583
-4.167095
-6.397709
-8.833988
-11.24605
-13.43266
-15.26183
-16.70787
-17.84746
-18.82419
-19.82355
-21.10596
-22.8728
-25.25641
-28.16845
-31.2502
-33.89265
-35.40328
-35.18925
-32.92923
-28.66024
-22.75564
-15.76758
-8.334015
-1.068939
5.525074
11.03667
15.22243
17.96098
19.29012
19.37077
18.49796
17.04836
15.47515
14.21933
13.62326
13.83919
14.7805
16.17206
17.66342
18.95976
19.89757
20.46558
20.71622
20.6684
20.29975
19.55464
18.38242
16.79757
14.90327
12.87276
10.95033
9.378235
8.272717
7.610535
7.188644
6.701488
5.888493
4.631763
3.016926
1.257298
-0.4566574
-2.06543
-3.680412
-5.478783
-7.5695
-9.915726
-12.35497
-14.71189
-16.89193
-18.90864
-20.85334
-22.82351
-24.89838
-27.13938
-29.59068
-32.24426
-35.01582
-37.70173
-39.9116
-41.10018
-40.70937
-38.34824
-33.94878
-27.79369
-20.49363
-12.80201
-5.467018
1.028093
6.476458
10.93659
14.54167
17.3547
19.32146
20.34781
20.45803
19.86143
18.9833
18.29902
18.16474
18.68034
19.68337
20.89337
22.03722
22.94648
23.58445
23.96565
24.06571
23.83333
23.25405
22.34715
21.21356
19.96162
18.69182
17.44309
16.21781
14.98887
13.73743
12.47527
11.208
9.924589
8.636961
7.359383
6.125206
4.930717
3.746864
2.52319
1.184124
-0.2718792
-1.823193
-3.445415
-5.171158
-7.058039
-9.200558
-11.59661
-14.16028
-16.73466
-19.16522
-21.38834
-23.44294
-25.46429
-27.54026
-29.74767
-32.12094
-34.70947
-37.49297
-40.30299
-42.69061
-43.98627
-43.45301
-40.59484
-35.41022
-28.42431
-20.53339
-12.67009
-5.476428
0.8149738
6.247965
10.9656
14.92639
17.93884
19.77476
20.38978
20.02967
19.24421
18.62352
18.59734
19.24942
20.36872
21.59355
22.61651
23.36833
23.90611
24.37645
24.83462
25.18713
25.22757
24.78236
23.79894
22.42821
20.92837
19.55859
18.46047
17.59241
16.81254
15.94529
14.90403
13.73857
12.61008
11.65607
10.90995
10.25053
9.453163
8.298035
6.691015
4.697074
2.490692
0.2944746
-1.767346
-3.736772
-5.740391
-7.919738
-10.36755
-13.02281
-15.7393
-18.34029
-20.64484
-22.54694
-24.01287
-25.13349
-26.09171
-27.19039
-28.73108
-30.9724
-33.9663
-37.47363
-40.94215
-43.58671
-44.583
-43.24659
-39.32424
-33.01375
-25.02708
-16.33393
-7.929255
-0.5430877
5.463488
10.08686
13.51521
15.94566
17.50198
18.25268
18.31267
17.93531
17.5013
17.40857
17.93249
19.09375
20.71253
22.44717
24.03319
25.27679
26.1264
26.59158
26.67619
26.36978
25.63786
24.48048
22.92636
21.08968
19.11674
17.19833
15.48041
14.06103
12.92129
11.93522
10.91873
9.706858
8.231977
6.522462
4.698542
2.901215
1.248504
-0.2081318
-1.456387
-2.555921
-3.572349
-4.601637
-5.741977
-7.029699
-8.430223
-9.893825
-11.39266
-12.98116
-14.78541
-16.89019
-19.28688
-21.86747
-24.44096
-26.85433
-29.09542
-31.24095
-33.3218
-35.18952
-36.45252
-36.56665
-35.04264
-31.62711
-26.46749
-20.03656
-12.99037
-5.963489
0.5545692
6.273937
11.01973
14.68416
17.20313
18.51638
18.71909
18.06652
16.97995
15.93128
15.32579
15.37
16.04643
17.16641
18.45266
19.65821
20.59359
21.15973
21.30198
21.02691
20.39182
19.46101
18.31977
17.07662
15.84726
14.73025
13.75752
12.89146
11.99957
10.90821
9.478811
7.698006
5.66453
3.569342
1.548658
-0.3787498
-2.299122
-4.342232
-6.547737
-8.825106
-10.97649
-12.86974
-14.46451
-15.92252
-17.4568
-19.22432
-21.27941
-23.55966
-26.03183
-28.65273
-31.39847
-34.09446
-36.34716
-37.53537
-37.00594
-34.32543
-29.47564
-22.91856
-15.39989
-7.742392
-0.5847588
5.685701
10.90326
15.00706
17.93798
19.68588
20.32636
20.11173
19.4426
18.81319
18.61084
18.99585
19.89204
20.99993
22.03483
22.78789
23.20631
23.3251
23.19941
22.85765
22.28613
21.45914
20.38542
19.15535
17.8737
16.62606
15.41969
14.20353
12.94786
11.63735
10.32929
9.085596
7.93792
6.87949
5.866243
4.82549
3.694103
2.455444
1.128078
-0.2303038
-1.637508
-3.142084
-4.843726
-6.833831
-9.125262
-11.63096
-14.22363
-16.74998
-19.12021
-21.31302
-23.37558
-25.39417
-27.45187
-29.6564
-32.10426
-34.88232
-37.98029
-41.17136
-43.94774
-45.59492
-45.35017
-42.6969
-37.58611
-30.46517
-22.21338
-13.7877
-5.928341
0.984623
6.914226
11.97802
16.21081
19.54498
21.83347
23.03178
23.33583
23.16435
22.97195
23.08655
23.57518
24.27114
24.9285
25.36007
25.52439
25.51471
25.46273
25.4205
25.31445
24.98101
24.26602
23.12964
21.67748
20.11874
18.72935
17.68853
17.04755
16.69569
16.43384
16.02707
15.3479
14.37314
13.1333
11.76285
10.34488
8.995922
7.778644
6.69026
5.649475
4.531171
3.183584
1.484278
-0.5480282
-2.810191
-5.074269
-7.147648
-8.969928
-10.62838
-12.30296
-14.15229
-16.2109
-18.38593
-20.526
-22.47666
-24.18086
-25.67654
-27.10309
-28.67716
-30.59807
-33.02909
-35.97235
-39.22292
-42.32688
-44.58624
-45.27676
-43.83247
-40.05698
-34.16745
-26.77261
-18.6453
-10.56561
-3.11021
3.397476
8.844917
13.24939
16.65089
19.0909
20.60919
21.27826
21.29079
20.91812
20.48345
20.28572
20.47764
21.01934
21.76152
22.47751
22.99834
23.28639
23.36954
23.30685
23.14013
22.8088
22.20314
21.2336
19.89674
18.36183
16.83833
15.55486
14.6202
14.0207
13.58878
13.07562
12.31179
11.25934
10.02756
8.817715
7.803925
7.008619
6.32198
5.455389
4.155214
2.313969
0.02661133
-2.433769
-4.719116
-6.600834
-8.07304
-9.323124
-10.65624
-12.28535
-14.23642
-16.35101
-18.42757
-20.29258
-21.93606
-23.46544
-25.01426
-26.72123
-28.65882
-30.87498
-33.42355
-36.3147
-39.37752
-42.18123
-44.03846
-44.15677
-41.96349
-37.32336
-30.61897
-22.62167
-14.23143
-6.255146
0.7943459
6.647697
11.25787
14.65211
16.86789
18.00177
18.2311
17.85736
17.27641
16.90834
17.04124
17.77119
18.96789
20.34643
21.60767
22.55437
23.14189
23.42604
23.48427
23.32667
22.89286
22.11366
20.92878
19.38281
17.59305
15.72782
13.95112
12.39924
11.16107
10.28107
9.770275
9.521111
9.380333
9.141594
8.622993
7.731865
6.459095
4.878788
3.095142
1.233917
-0.6346283
-2.478977
-4.306538
-6.163357
-8.077744
-10.10118
-12.24588
-14.43104
-16.5222
-18.37062
-19.86826
-21.04374
-22.08218
-23.25172
-24.84341
-27.04663
-29.80351
-32.83293
-35.59243
-37.39997
-37.56214
-35.62773
-31.51535
-25.56833
-18.51228
-11.19563
-4.35751
1.544895
6.362114
10.16821
13.06393
15.08667
16.2238
16.47345
15.94581
14.9177
13.76279
12.83998
12.37823
12.46228
13.00974
13.84843
14.77968
15.63346
16.33677
16.84902
17.18718
17.32148
17.20742
16.75539
15.92171
14.71616
13.23828
11.68856
10.18663
8.831444
7.616711
6.478188
5.318245
4.126419
2.906055
1.673904
0.4423943
-0.8812904
-2.398758
-4.194489
-6.308155
-8.686516
-11.16771
-13.57762
-15.79271
-17.77271
-19.62749
-21.52597
-23.64901
-26.18005
-29.18102
-32.56768
-36.06687
-39.14589
-41.10856
-41.24945
-39.04695
-34.35307
-27.50909
-19.24286
-10.48837
-2.124264
5.232883
11.27431
15.89756
19.10903
20.97722
21.58995
21.13956
19.94235
18.40064
16.9717
16.02518
15.71441
15.99512
16.68231
17.54816
18.44336
19.27811
19.96968
20.41512
20.45474
19.94416
18.86417
17.33533
15.60512
13.96805
12.62934
11.61224
10.77095
9.884998
8.752064
7.303833
5.572769
3.666172
1.720192
-0.143116
-1.87635
-3.518745
-5.155354
-6.918037
-8.902927
-11.13998
-13.5443
-15.94942
-18.14256
-20.00159
-21.55091
-22.96041
-24.52642
-26.54099
-29.20277
-32.48579
-36.10039
-39.4587
-41.80053
-42.34185
-40.48781
-36.09654
-29.49975
-21.46679
-12.96063
-4.876009
2.164787
7.879534
12.20708
15.24759
17.13153
18.0388
18.18735
17.85809
17.38207
17.05706
17.12661
17.67222
18.6791
19.99674
21.42819
22.78444
23.8933
24.68263
25.12061
25.22116
24.94997
24.27077
23.13694
21.59667
19.75589
17.81398
16.00477
14.4987
13.33075
12.41297
11.57033
10.62403
9.446933
7.993257
6.316223
4.4955
2.634334
0.8138642
-0.8762116
-2.400018
-3.733279
-4.968737
-6.261716
-7.811293
-9.786944
-12.1994
-14.89761
-17.56147
-19.9261
-21.86116
-23.49401
-25.12539
-27.1235
-29.80153
-33.2594
-37.34111
-41.63298
-45.51047
-48.25637
-49.15197
-47.66575
-43.58538
-37.15559
-28.97569
-19.89382
-10.79132
-2.374042
4.893028
10.84074
15.47528
18.89849
21.15815
22.31089
22.46832
21.86841
20.89863
20.01775
19.60791
19.87068
20.78482
22.10161
23.53283
24.84826
25.92055
26.74464
27.31383
27.58828
27.48203
26.89052
25.79062
24.22997
22.341
20.30503
18.29762
16.45364
14.88493
13.62564
12.64703
11.84081
11.04648
10.04027
8.688498
6.992573
5.082825
3.147177
1.356461
-0.2408314
-1.734661
-3.22518
-4.853779
-6.652548
-8.569754
-10.56789
-12.62464
-14.73694
-16.92892
-19.18628
-21.42424
-23.62595
-25.81705
-28.13236
-30.78126
-33.9031
-37.46629
-41.15284
-44.37061
-46.33732
-46.32468
-43.8277
-38.76926
-31.54102
-22.89357
-13.76337
-5.022221
2.712322
9.167709
14.32066
18.30558
21.21594
23.01772
23.68605
23.29466
22.16344
20.82078
19.84828
19.62461
20.23726
21.44623
22.83142
24.02911
24.87114
25.39847
25.75617
26.0531
26.26592
26.2878
26.0001
25.32417
24.28984
22.95554
21.42493
19.76801
18.02884
16.21294
14.36903
12.56039
10.87385
9.402649
8.162193
7.131649
6.232037
5.370911
4.457504
3.458858
2.350914
1.134541
-0.2082367
-1.688271
-3.318104
-5.088722
-6.955276
-8.915714
-10.95853
-13.12987
-15.46141
-17.95979
-20.56347
-23.16445
-25.67527
-28.05904
-30.42601
-32.93392
-35.77372
-38.89861
-42.00985
-44.49905
-45.59257
-44.60198
-41.1671
-35.4215
-27.91241
-19.45844
-10.88977
-2.868599
4.181087
10.08377
14.75867
18.14457
20.22245
21.04037
20.79771
19.86501
18.7152
17.78012
17.36012
17.49139
18.03079
18.74229
19.40333
19.90909
20.27533
20.56987
20.76383
20.76735
20.39985
19.57401
18.32434
16.83503
15.36826
14.13514
13.23329
12.55081
11.89073
11.02347
9.81897
8.302933
6.5872
4.867485
3.329956
2.027901
0.8854637
-0.2727089
-1.64669
-3.300148
-5.170307
-7.100067
-8.959839
-10.71851
-12.50916
-14.54477
-16.98284
-19.81194
-22.86445
-25.92141
-28.83924
-31.58218
-34.12306
-36.29296
-37.68117
-37.69592
-35.76949
-31.63889
-25.52348
-18.08964
-10.2014
-2.675041
3.968941
9.552078
14.10209
17.66633
20.19933
21.60127
21.84035
21.10935
19.82284
18.54044
17.73903
17.66927
18.25269
19.2016
20.18162
20.99571
21.59642
22.03279
22.33743
22.45387
22.26022
21.6083
20.46336
18.87577
16.98238
14.99432
13.07175
11.36454
9.929829
8.766884
7.766243
6.782291
5.665005
4.336308
2.817612
1.199478
-0.4541969
-2.121193
-3.833893
-5.705349
-7.809578
-10.16249
-12.69995
-15.28775
-17.75209
-19.93986
-21.79459
-23.38089
-24.91601
-26.69672
-28.99651
-31.99081
-35.61149
-39.58588
-43.37274
-46.27587
-47.54985
-46.55601
-42.9852
-36.95256
-29.07725
-20.24569
-11.41861
-3.333591
3.635212
9.426212
14.12465
17.80952
20.48359
22.08495
22.68343
22.54
22.09286
21.80695
22.01199
22.77074
23.89034
25.08552
26.08065
26.78416
27.26177
27.66447
28.05355
28.33817
28.26653
27.56798
26.11711
24.04678
21.71376
19.57555
17.93913
16.86704
16.11684
15.36447
14.36209
13.02599
11.47684
9.874458
8.307014
6.731068
5.072868
3.279648
1.364201
-0.6106529
-2.607021
-4.619373
-6.740269
-9.016838
-11.44985
-13.94014
-16.33524
-18.5153
-20.4481
-22.17756
-23.80577
-25.46901
-27.28865
-29.3388
-31.67644
-34.32769
-37.25157
-40.30277
-43.13865
-45.17445
-45.70426
-44.06788
-39.9127
-33.46152
-25.44901
-16.89839
-8.766403
-1.666843
4.232201
9.092785
13.11621
16.39493
18.7932
20.17363
20.55589
20.25612
19.77823
19.62716
20.09927
21.15915
22.54963
23.90929
25.01141
25.78337
26.28882
26.62043
26.81225
26.81796
26.54456
25.9558
25.09834
24.02681
22.8076
21.50645
20.17445
18.86983
17.62886
16.45082
15.31713
14.20015
13.07918
12.00352
11.008
10.12082
9.279064
8.345665
7.146622
5.617416
3.795876
1.831528
-0.1102409
-1.948139
-3.681339
-5.407909
-7.249985
-9.317978
-11.63353
-14.16425
-16.79828
-19.40054
-21.86406
-24.10691
-26.07571
-27.84198
-29.52716
-31.32657
-33.47108
-36.10624
-39.2101
-42.52305
-45.45032
-47.16486
-46.86883
-44.01301
-38.57787
-31.10313
-22.49575
-13.74351
-5.671417
1.281525
6.990677
11.53004
15.03262
17.61744
19.33904
20.30636
20.6689
20.63119
20.47637
20.45207
20.74035
21.40139
22.3455
23.36938
24.28755
24.93847
25.24548
25.21218
24.88477
24.2938
23.45696
22.39314
21.12603
19.75183
18.39696
17.1762
16.16093
15.31734
14.50073
13.55646
12.34311
10.81872
9.092884
7.346815
5.76041
4.472378
3.452818
2.593729
1.769142
0.8775673
-0.09345818
-1.103159
-2.101528
-3.107128
-4.193977
-5.491329
-7.090133
-9.006812
-11.19043
-13.5641
-16.0297
-18.48786
-20.83341
-22.90699
-24.61357
-25.98017
-27.1764
-28.5177
-30.33772
-32.80635
-35.86329
-39.11293
-41.88968
-43.43945
-43.06973
-40.39333
-35.42715
-28.58897
-20.61411
-12.34863
-4.54055
2.340394
8.070137
12.62134
16.00599
18.21778
19.27957
19.3222
18.65963
17.75597
17.12213
17.09303
17.76697
18.98074
20.37283
21.61073
22.51851
23.10651
23.48384
23.76961
23.96421
23.96429
23.63654
22.90053
21.81753
20.54529
19.29317
18.16884
17.1694
16.16202
15.00175
13.60776
11.99334
10.30311
8.717397
7.373719
6.309235
5.454985
4.629938
3.623243
2.315262
0.6680574
-1.190345
-3.050233
-4.737791
-6.164841
-7.409477
-8.663391
-10.14349
-11.98522
-14.21251
-16.73331
-19.37867
-21.9887
-24.44355
-26.68392
-28.74946
-30.74708
-32.83258
-35.18783
-37.92514
-40.95948
-43.9202
-46.16465
-46.87573
-45.35123
-41.24719
-34.79568
-26.72124
-18.04581
-9.723212
-2.369596
3.851821
9.080265
13.51448
17.21906
20.07543
21.93721
22.79786
22.86484
22.52465
22.17003
22.05687
22.22631
22.57389
22.9407
23.25084
23.50968
23.74821
23.99881
24.22811
24.33966
24.2036
23.68652
22.71608
21.30262
19.54777
17.61997
15.75219
14.09977
12.74696
11.68593
10.80078
9.972878
9.114623
8.188884
7.216771
6.25519
5.306507
4.353626
3.347549
2.203701
0.8843212
-0.543787
-1.960819
-3.212133
-4.222292
-5.078882
-5.988371
-7.219263
-8.973265
-11.28315
-13.96159
-16.73814
-19.3281
-21.5812
-23.50461
-25.2304
-26.92372
-28.73203
-30.75349
-33.04494
-35.62946
-38.41428
-41.14121
-43.34004
-44.35179
-43.50419
-40.35044
-34.87247
-27.58261
-19.36207
-11.19206
-3.868217
2.202045
7.014841
10.77332
13.72782
16.0046
17.6009
18.52163
18.83698
18.75029
18.55281
18.54966
18.91478
19.64413
20.57133
21.45992
22.09408
22.38616
22.38311
22.21874
22.02847
21.84618
21.5996
21.17274
20.45796
19.46485
18.29191
17.05374
15.82845
14.58774
13.23716
11.73582
10.14457
8.590557
7.261309
6.242662
5.487318
4.830967
4.054689
2.97801
1.561119
-0.1007214
-1.850494
-3.498932
-4.943924
-6.157654
-7.240194
-8.32085
-9.566629
-11.07641
-12.85641
-14.82763
-16.88372
-18.95736
-21.0434
-23.18233
-25.46523
-27.96676
-30.71728
-33.7038
-36.7942
-39.70531
-41.99807
-43.10342
-42.41414
-39.53703
-34.4122
-27.43132
-19.33618
-11.0546
-3.371956
3.202681
8.516167
12.66108
15.79986
18.05136
19.47959
20.13632
20.13754
19.75451
19.28836
19.06354
19.24852
19.81532
20.60112
21.38414
21.94146
22.15474
21.97739
21.42024
20.56319
19.52276
18.41742
17.36936
16.4345
15.56044
14.65793
13.63273
12.45773
11.19705
9.997646
8.949616
8.027639
7.106549
6.019123
4.698132
3.238144
1.830484
0.6693225
-0.1891966
-0.9036551
-1.704351
-2.831701
-4.374904
-6.270902
-8.394687
-10.63079
-12.89946
-15.16429
-17.37026
-19.46975
-21.45201
-23.42791
-25.63892
-28.30399
-31.4752
-34.87848
-37.90557
-39.75231
-39.7049
-37.35701
-32.77032
-26.46235
-19.15436
-11.59379
-4.380384
2.092331
7.580966
11.88913
14.87062
16.49359
16.85806
16.29652
15.31081
14.43722
14.09436
14.49147
15.55744
17.02885
18.59697
19.95994
20.96383
21.53668
21.6787
21.41442
20.7766
19.78375
18.49689
17.04111
15.54491
14.17854
12.99565
11.95939
10.96769
9.873187
8.591297
7.147104
5.631359
4.151624
2.786669
1.52369
0.2493219
-1.143958
-2.731302
-4.537266
-6.502225
-8.546945
-10.59976
-12.59739
-14.47305
-16.22407
-17.88642
-19.59081
-21.55992
-24.03213
-27.1462
-30.85523
-34.79918
-38.34409
-40.74827
-41.28571
-39.48212
-35.23339
-28.8527
-21.00389
-12.54316
-4.304447
3.074568
9.242062
14.1193
17.80639
20.43624
22.09017
22.84105
22.82973
22.3167
21.65836
21.2178
21.1564
21.41797
21.75938
21.93985
21.84537
21.55154
21.22117
20.99862
20.87913
20.71752
20.33313
19.58913
18.54113
17.35159
16.22738
15.2976
14.59523
14.03104
13.47651
12.83067
12.01513
11.01272
9.786095
8.313499
6.563614
4.581028
2.427101
0.1875534
-2.067614
-4.343498
-6.714149
-9.250399
-11.96825
-14.77971
-17.52055
-20.00863
-22.13433
-23.89025
-25.40357
-26.90191
-28.62264
-30.76901
-33.41635
-36.50655
-39.7448
-42.64646
-44.5742
-44.88382
-43.11693
-39.15217
-33.26856
-26.04828
-18.27882
-10.65412
-3.649632
2.553288
8.002449
12.8185
17.03636
20.53447
23.13705
24.69548
25.25201
25.05075
24.49859
24.01039
23.88715
24.27254
25.12614
26.32346
27.69191
29.03086
30.11658
30.7435
30.74412
30.0606
28.77972
27.10229
25.24094
23.35954
21.55767
19.86576
18.30646
16.94438
15.86523
15.11325
14.65773
14.34785
13.98318
13.39603
12.53887
11.44786
10.26903
9.114655
8.039677
7.014294
5.958115
4.82683
3.595665
2.29985
0.9467964
-0.4594727
-1.946289
-3.513395
-5.11076
-6.634331
-8.006557
-9.248297
-10.52905
-12.07771
-14.09605
-16.62486
-19.49527
-22.40075
-25.03341
-27.21033
-28.94355
-30.43592
-31.94297
-33.78632
-36.20646
-39.26902
-42.7866
-46.27237
-48.94488
-49.93884
-48.56471
-44.54597
-38.12986
-30.02806
-21.18998
-12.52473
-4.706671
1.923585
7.324781
11.63062
15.02084
17.65723
19.61372
20.9468
21.71261
22.06284
22.27279
22.66055
23.45352
24.66784
26.11448
27.47007
28.47519
29.01825
29.2173
29.28135
29.34317
29.35397
29.12347
28.41598
27.10267
25.29638
23.2603
21.29998
19.63801
18.32082
17.23055
16.2099
15.14708
14.03457
12.97218
12.06814
11.37434
10.83393
10.30771
9.637856
8.729508
7.582309
6.275197
4.909361
3.594798
2.359916
1.183247
0.01665688
-1.211819
-2.571667
-4.115507
-5.833712
-7.681351
-9.548313
-11.3317
-12.97558
-14.51806
-16.04314
-17.61538
-19.26883
-20.9398
-22.5542
-24.06073
-25.50195
-26.99798
-28.72366
-30.8381
-33.41496
-36.43715
-39.69858
-42.76304
-44.97833
-45.58297
-43.92332
-39.654
-32.99518
-24.63999
-15.62043
-6.972107
0.5453415
6.596779
11.21348
14.60891
17.06474
18.70881
19.59286
19.74384
19.268
18.41479
17.49268
16.83661
16.62463
16.90876
17.55346
18.38711
19.23346
19.97065
20.61644
21.16683
21.63582
21.92554
21.88951
21.37456
20.31121
18.7906
16.98983
15.1498
13.40774
11.83184
10.33292
8.849186
7.361507
5.954914
4.789101
3.933716
3.355564
2.879005
2.313736
1.47892
0.3166733
-1.130714
-2.723961
-4.331772
-5.878952
-7.339798
-8.74762
-10.15838
-11.60165
-13.11861
-14.68096
-16.27446
-17.8663
-19.43993
-20.96746
-22.41521
-23.81202
-25.23225
-26.82423
-28.73166
-31.06037
-33.69125
-36.24013
-38.08727
-38.50334
-36.91607
-33.10253
-27.30627
-20.12856
-12.37198
-4.789001
2.077545
7.935585
12.669
16.26207
18.70932
20.03742
20.32652
19.78436
18.71391
17.46252
16.33728
15.5244
15.09027
14.96848
15.04008
15.20027
15.40958
15.68304
16.06618
16.53255
16.99297
17.3033
17.32126
17.00344
16.36662
15.48809
14.41545
13.15066
11.62193
9.807968
7.81263
5.871117
4.282661
3.201057
2.599442
2.241234
1.796211
1.001633
-0.23172
-1.763321
-3.391281
-4.903976
-6.266785
-7.607033
-9.142593
-11.05917
-13.43459
-16.15588
-18.95857
-21.58405
-23.79715
-25.55962
-26.99741
-28.35186
-29.91319
-31.89952
-34.39529
-37.28951
-40.25496
-42.78339
-44.25529
-44.08742
-41.88908
-37.60168
-31.50916
-24.22299
-16.46291
-8.88179
-1.912521
4.235817
9.49205
13.85158
17.23927
19.55356
20.73342
20.882
20.27195
19.35955
18.56633
18.1861
18.34492
18.95313
19.85394
20.86942
21.87556
22.79169
23.55751
24.07831
24.24916
23.96989
23.22774
22.08462
20.65911
19.09737
17.52202
16.02736
14.66207
13.45847
12.38669
11.42467
10.52055
9.644409
8.740234
7.786865
6.759399
5.620941
4.342445
2.881752
1.239235
-0.5162888
-2.284645
-3.97876
-5.572754
-7.143143
-8.840538
-10.80138
-13.10094
-15.66842
-18.29675
-20.73333
-22.78539
-24.3964
-25.69451
-26.96627
-28.55654
-30.78676
-33.83386
-37.60824
-41.76439
-45.63727
-48.40686
-49.24862
-47.58105
-43.1965
-36.41801
-27.95808
-18.77965
-9.848209
-1.872402
4.786819
10.12939
14.35126
17.67917
20.2416
22.04845
23.07006
23.39362
23.28028
23.1248
23.29837
23.98189
25.10097
26.39383
27.55115
28.36675
28.78397
28.8565
28.66926
28.24153
27.54342
26.54043
25.24667
23.72988
22.08991
20.43364
18.85496
17.39765
16.11427
15.03528
14.16278
13.4385
12.74748
11.96152
11.02264
9.94841
8.834738
7.794989
6.882359
6.081799
5.275629
4.315966
3.084501
1.573309
-0.1553764
-1.978365
-3.747904
-5.394531
-6.918125
-8.421028
-10.04363
-11.93204
-14.14578
-16.65451
-19.33063
-21.95304
-24.35551
-26.49162
-28.48363
-30.61391
-33.20652
-36.49691
-40.45099
-44.66143
-48.39496
-50.72719
-50.82906
-48.1924
-42.8045
-35.21128
-26.30523
-17.10305
-8.477436
-0.9703579
5.205021
10.13248
13.99433
16.93882
19.02927
20.29292
20.79156
20.75111
20.50448
20.37223
20.59097
21.17936
22.00795
22.88999
23.71902
24.46737
25.20074
25.94747
26.62656
27.06206
27.06572
26.55013
25.54338
24.1867
22.64162
21.04561
19.49114
17.9782
16.47884
14.95507
13.42819
11.97006
10.66019
9.570152
8.71295
7.997261
7.285643
6.398684
5.221652
3.73658
2.039853
0.246069
-1.51625
-3.241133
-4.972383
-6.79212
-8.75835
-10.87462
-13.08436
-15.26873
-17.32861
-19.21484
-20.95382
-22.62037
-24.35431
-26.31279
-28.6394
-31.40605
-34.5504
-37.80691
-40.69312
-42.59647
-42.88119
-41.10269
-37.13139
-31.19126
-23.83294
-15.80718
-7.819415
-0.4693022
5.880901
11.04494
14.98622
17.70835
19.27865
19.81939
19.54522
18.81388
18.01366
17.52538
17.5295
18.04956
18.92522
19.96461
21.00464
21.96171
22.81968
23.51307
23.92566
23.90112
23.30026
22.0688
20.32037
18.2379
16.10283
14.15989
12.57386
11.40931
10.62675
10.10676
9.684734
9.186474
8.444571
7.337569
5.82432
3.994357
1.977679
-0.04814053
-2.007565
-3.926636
-5.935163
-8.154631
-10.62723
-13.25008
-15.8278
-18.16234
-20.13999
-21.78448
-23.2213
-24.63375
-26.25179
-28.28017
-30.83799
-33.9328
-37.31647
-40.47375
-42.66885
-43.13772
-41.32969
-37.08265
-30.71489
-22.87298
-14.36021
-5.93561
1.805653
8.466829
13.80737
17.73531
20.26033
21.51961
21.78349
21.39925
20.74677
20.15554
19.83927
19.88754
20.32897
21.12379
22.18339
23.38335
24.54794
25.48756
26.06273
26.16066
25.78005
24.93739
23.68574
22.05409
20.10778
17.97656
15.85837
14.01869
12.63245
11.75148
11.22955
10.81401
10.2557
9.441277
8.405029
7.276161
6.151985
5.017977
3.797211
2.389523
0.7857857
-0.9368057
-2.63855
-4.247448
-5.826092
-7.535818
-9.576565
-12.03183
-14.8338
-17.76441
-20.54816
-23.00504
-25.07818
-26.90893
-28.70778
-30.72942
-33.16296
-36.10709
-39.5349
-43.24106
-46.8243
-49.64732
-50.95131
-50.03894
-46.50085
-40.41376
-32.3565
-23.20409
-13.92472
-5.255058
2.404652
8.941383
14.4264
18.90142
22.35683
24.75709
26.14222
26.64876
26.54532
26.16903
25.79596
25.61636
25.69378
25.97014
26.34376
26.72549
27.05325
27.30416
27.45333
27.45757
27.23248
26.67178
25.71677
24.39827
22.91011
21.48689
20.3567
19.61147
19.15079
18.77032
18.24781
17.48509
16.51071
15.44679
14.3696
13.28204
12.1119
10.75981
9.215046
7.582409
6.023293
4.670082
3.548531
2.504475
1.322044
-0.1765556
-2.05127
-4.213326
-6.447758
-8.566628
-10.50755
-12.31254
-14.10255
-15.95497
-17.82289
-19.57623
-21.0918
-22.34715
-23.51678
-24.88906
-26.70242
-29.10179
-32.06845
-35.45962
-39.09485
-42.75989
-46.12046
-48.69144
-49.82722
-48.83681
-45.30951
-39.27514
-31.29294
-22.28597
-13.24343
-4.966278
2.141682
7.991272
12.73297
16.49184
19.32517
21.22291
22.19149
22.3648
22.01675
21.52674
21.23652
21.40284
22.03012
22.94292
23.88041
24.6168
25.05186
25.22856
25.25296
25.16997
24.99319
24.64554
24.0562
23.22622
22.20124
21.07653
19.96053
18.92872
17.9991
17.17812
16.43963
15.69908
14.90722
13.97471
12.85851
11.55942
10.09956
8.542038
6.964661
5.440887
3.994907
2.621582
1.24482
-0.1885643
-1.686909
-3.19862
-4.617092
-5.842581
-6.909092
-7.933609
-9.093527
-10.58025
-12.44099
-14.60229
-16.92306
-19.24405
-21.44353
-23.55456
-25.67437
-27.98515
-30.68042
-33.84389
-37.36649
-40.91583
-43.91515
-45.66153
-45.50311
-43.0169
-38.16971
-31.34493
-23.25508
-14.74535
-6.609266
0.5852757
6.569548
11.30681
14.90976
17.48268
19.0661
19.71521
19.5869
18.97717
18.32357
18.05058
18.40445
19.39975
20.80274
22.2372
23.38547
24.09628
24.38007
24.33408
24.03697
23.4796
22.59541
21.34743
19.76992
17.99122
16.24727
14.70149
13.44533
12.45551
11.57971
10.64818
9.568954
8.314423
6.940191
5.556202
4.191727
2.871048
1.574867
0.2458324
-1.112036
-2.473009
-3.826756
-5.182423
-6.619162
-8.254034
-10.14816
-12.28143
-14.55337
-16.82518
-18.98356
-21.02535
-23.03839
-25.18529
-27.6544
-30.50191
-33.60991
-36.61663
-38.93585
-39.90544
-38.99507
-35.92367
-30.79612
-24.09165
-16.49305
-8.738994
-1.443084
5.010757
10.38914
14.56071
17.47571
19.12283
19.60716
19.19046
18.26357
17.29505
16.69268
16.69122
17.27355
18.24544
19.27766
20.11182
20.61897
20.8011
20.77535
20.63171
20.36114
19.83804
18.88577
17.37041
15.32922
12.98708
10.69414
8.770768
7.368174
6.425671
5.71726
4.966093
3.994513
2.729424
1.24012
-0.3292704
-1.866737
-3.32452
-4.732337
-6.192126
-7.813159
-9.648018
-11.7248
-14.00507
-16.42393
-18.90179
-21.42478
-24.01372
-26.73948
-29.68696
-32.8849
-36.3419
-39.88419
-43.16241
-45.64072
-46.67977
-45.70538
-42.42845
-36.96306
-29.77792
-21.62264
-13.24821
-5.26261
1.92135
8.11357
13.22775
17.23655
20.12625
21.92868
22.72384
22.71294
22.20572
21.58637
21.26652
21.52722
22.4094
23.70534
25.03223
26.00893
26.45966
26.43472
26.1553
25.86008
25.60174
25.27071
24.62287
23.48
21.86685
20.0004
18.19293
16.67466
15.51826
14.6156
13.78037
12.8236
11.68061
10.38377
8.952297
7.380449
5.542521
3.310268
0.6191673
-2.43412
-5.579149
-8.495104
-10.91788
-12.81678
-14.35804
-15.81801
-17.42592
-19.2297
-21.12356
-22.92773
-24.5495
-26.06888
-27.75171
-29.89778
-32.71768
-36.20309
-40.05299
-43.74258
-46.58135
-47.85885
-47.03509
-43.8636
-38.4543
-31.28676
-23.0753
-14.57294
-6.438208
0.8997517
7.221889
12.46398
16.61677
19.6938
21.78818
23.03933
23.72243
24.15818
24.62994
25.33685
26.29856
27.44523
28.58834
29.53633
30.15951
30.38972
30.25486
29.80665
29.10673
28.20288
27.12729
25.89203
24.52218
23.04383
21.50463
19.96597
18.46743
17.03911
15.67231
14.333
12.96846
11.51082
9.945902
8.32551
6.789518
5.473162
4.434689
3.602156
2.789019
1.783161
0.4501591
-1.2031
-3.092531
-5.108665
-7.218559
-9.463218
-11.88062
-14.43703
-16.97934
-19.30524
-21.24648
-22.76895
-24.00831
-25.23658
-26.73951
-28.79283
-31.56322
-35.04821
-38.99367
-42.83264
-45.76231
-46.9292
-45.66682
-41.76614
-35.508
-27.59415
-18.89133
-10.18543
-2.044662
5.181458
11.2824
16.1308
19.62905
21.76939
22.68577
22.64975
22.02688
21.19646
20.44517
19.97591
19.88817
20.19465
20.81984
21.66793
22.60315
23.48147
24.16687
24.53655
24.53788
24.17716
23.49934
22.54256
21.35958
20.0006
18.55392
17.10771
15.7494
14.51171
13.3663
12.23384
11.01412
9.708936
8.372382
7.118671
5.983863
4.898411
3.718066
2.294809
0.5735829
-1.353456
-3.290366
-5.116579
-6.837534
-8.615634
-10.66419
-13.03996
-15.63005
-18.13326
-20.22589
-21.73958
-22.77371
-23.62412
-24.67353
-26.25263
-28.52306
-31.45313
-34.76074
-37.91463
-40.18089
-40.82122
-39.23721
-35.19623
-28.96992
-21.23414
-12.84285
-4.60535
2.906601
9.333467
14.45935
18.16309
20.38708
21.2616
21.10158
20.36773
19.53504
18.9043
18.58252
18.50944
18.62554
18.88414
19.31378
19.94335
20.70297
21.47919
22.10252
22.44788
22.41814
21.99083
21.13288
19.83719
18.151
16.19633
14.14638
12.25035
10.67294
9.456825
8.556797
7.825825
7.093872
6.205383
5.103226
3.823128
2.4515
1.133503
-0.03984833
-1.035919
-1.914337
-2.82201
-3.949238
-5.446289
-7.37207
-9.706249
-12.34139
-15.1056
-17.81409
-20.29971
-22.49647
-24.42097
-26.25003
-28.20923
-30.4864
-33.12765
-35.94918
-38.45935
-40.02162
-39.94818
-37.72835
-33.20986
-26.67316
-18.73339
-10.2052
-1.905746
5.541428
11.76248
16.56016
19.84979
21.62018
21.90095
20.8946
19.01041
16.76759
14.71764
13.27679
12.60648
12.647
13.189
13.98599
14.82444
15.55025
16.02648
16.13913
15.8299
15.1162
14.11929
13.01829
11.98796
11.09604
10.30988
9.489838
8.504532
7.291985
5.875374
4.328514
2.710464
1.039322
-0.677536
-2.436356
-4.182823
-5.808266
-7.237717
-8.509537
-9.759796
-11.19376
-12.95985
-15.04553
-17.3155
-19.58223
-21.70928
-23.71614
-25.78432
-28.11971
-30.79599
-33.67269
-36.28038
-37.96462
-38.07225
-36.09577
-31.88083
-25.67463
-18.03163
-9.699844
-1.461037
6.037613
12.31969
17.11
20.31863
21.9814
22.28172
21.50054
20.00519
18.18891
16.44528
15.09441
14.33817
14.24002
14.67532
15.44905
16.34393
17.17842
17.84322
18.28689
18.48801
18.39279
17.95644
17.1126
15.8669
14.28751
12.42772
10.34106
8.073082
5.698456
3.30648
1.023407
-1.045555
-2.83432
-4.357834
-5.734352
-7.103065
-8.589981
-10.2773
-12.17895
-14.25044
-16.39359
-18.50072
-20.51059
-22.44532
-24.40937
-26.58518
-29.12727
-32.0724
-35.24613
-38.25005
-40.54506
-41.56423
-40.80563
-37.9998
-33.17804
-26.68481
-19.12746
-11.19289
-3.523064
3.404388
9.290337
14.02081
17.53019
19.84294
21.0145
21.20613
20.67776
19.7663
18.83048
18.18445
18.05119
18.49725
19.43975
20.69565
21.98146
22.98657
23.47537
23.33688
22.61523
21.44936
20.00139
18.41411
16.78075
15.18088
13.66264
12.25379
10.94957
9.706932
8.406654
6.947098
5.287003
3.44072
1.524147
-0.3228035
-2.005299
-3.498623
-4.910992
-6.410973
-8.175953
-10.26913
-12.63659
-15.11929
-17.5436
-19.77183
-21.80049
-23.70992
-25.64737
-27.80993
-30.35129
-33.34009
-36.63644
-39.84623
-42.3056
-43.19997
-41.82468
-37.83067
-31.40332
-23.20105
-14.17876
-5.23452
2.943996
9.984386
15.77992
20.30588
23.5342
25.41331
25.93119
25.23037
23.65491
21.72012
19.99802
18.92462
18.7058
19.2499
20.28014
21.4778
22.5824
23.48903
24.18701
24.69316
24.98921
24.96991
24.5233
23.59216
22.22364
20.54274
18.74221
16.98866
15.38339
13.94408
12.60031
11.28132
9.938347
8.598988
7.307938
6.137222
5.098633
4.128761
3.105366
1.925835
0.5383568
-1.063194
-2.814018
-4.704975
-6.761433
-9.044975
-11.59889
-14.38897
-17.23917
-19.89417
-22.1226
-23.82924
-25.1086
-26.24473
-27.58038
-29.44005
-32.00218
-35.25354
-38.92283
-42.53105
-45.41157
-46.80125
-46.03141
-42.69178
-36.83471
-28.95747
-19.92358
-10.69298
-2.101246
5.318977
11.37002
16.05779
19.51293
21.83141
23.08578
23.39431
22.94973
22.05692
21.09354
20.38219
20.11796
20.33496
20.93229
21.77937
22.7678
23.80959
24.81684
25.64484
26.11276
26.03923
25.31425
23.96454
22.1535
20.12933
18.1071
16.24069
14.58972
13.13838
11.79512
10.46961
9.060741
7.51984
5.869667
4.15567
2.459068
0.8642635
-0.5807953
-1.851841
-2.960262
-3.968086
-4.998596
-6.21302
-7.782005
-9.812447
-12.28666
-15.01784
-17.73899
-20.16329
-22.1269
-23.68665
-25.08895
-26.67286
-28.69327
-31.24467
-34.16789
-37.05221
-39.30893
-40.2933
-39.41023
-36.26385
-30.81335
-23.40364
-14.7525
-5.749491
2.73909
10.03797
15.76018
19.80225
22.21795
23.19041
22.96219
21.86781
20.30028
18.68583
17.39821
16.6561
16.49354
16.80161
17.38328
18.09617
18.86293
19.64268
20.40706
21.05527
21.42409
21.33923
20.66002
19.35512
17.55375
15.428
13.14789
10.86074
8.645472
6.53923
4.569818
2.770756
1.168228
-0.2317429
-1.489426
-2.712484
-4.0065
-5.459606
-7.127916
-9.01807
-11.09939
-13.2882
-15.46432
-17.47898
-19.24601
-20.73421
-22.06555
-23.46853
-25.19567
-27.45592
-30.24944
-33.31004
-36.04588
-37.66119
-37.33498
-34.5322
-29.16308
-21.70244
-13.06201
-4.332182
3.545
9.982737
14.77554
18.02756
19.93513
20.66562
20.374
19.25637
17.63831
15.95919
14.67329
14.09521
14.32887
15.2477
16.58552
18.07067
19.45721
20.52571
21.09213
21.03403
20.33393
19.11872
17.66019
16.22561
14.99652
13.95753
12.90168
11.57874
9.856533
7.746791
5.409731
3.067627
0.8985739
-1.000682
-2.643654
-4.114134
-5.535206
-7.050077
-8.773621
-10.78085
-13.07271
-15.58364
-18.18642
-20.79638
-23.36389
-25.92635
-28.58711
-31.46864
-34.63092
-38.00408
-41.3187
-44.04907
-45.52111
-45.02945
-42.08139
-36.61241
-29.01134
-20.07827
-10.79653
-2.064579
5.506729
11.63352
16.29896
19.62585
21.77831
22.90904
23.17943
22.82483
22.16156
21.51589
21.16045
21.23694
21.71331
22.43318
23.20862
23.8592
24.29646
24.5008
24.48323
24.21961
23.64725
22.65869
21.14365
19.15722
16.87465
14.62288
12.71596
11.29879
10.27122
9.340736
8.124204
6.356127
4.068697
1.51375
-0.925705
-2.936893
-4.448416
-5.632309
-6.822556
-8.339222
-10.35917
-12.83891
-15.58729
-18.35692
-20.96287
-23.35044
-25.59769
-27.88725
-30.43089
-33.40637
-36.84672
-40.58443
-44.19016
-46.98885
-48.2083
-47.16294
-43.48899
-37.24898
-28.99619
-19.59663
-9.998552
-1.012131
6.846344
13.35176
18.48676
22.30339
24.86043
26.25945
26.68502
26.4551
25.98917
25.68407
25.7592
26.20866
26.84785
27.41285
27.74171
27.81887
27.72911
27.56191
27.34869
27.02776
26.47478
25.61999
24.44707
22.9992
21.3617
19.62906
17.88322
16.21593
14.68301
13.26573
11.91416
10.53408
9.051937
7.418495
5.709389
4.00843
2.407574
0.9337349
-0.48909
-2.02636
-3.910789
-6.307549
-9.311192
-12.80893
-16.52845
-20.07368
-23.07246
-25.30511
-26.81086
-27.90812
-29.06809
-30.77272
-33.34613
-36.83089
-40.88797
-44.80888
-47.62569
-48.32436
-46.1422
-40.8233
-32.73789
-22.79126
-12.18312
-2.045227
6.828667
14.04743
19.56259
23.48463
25.94932
27.08107
27.07241
26.2188
24.89491
23.52465
22.43427
21.82476
21.74096
22.13071
22.84495
23.72058
24.60679
25.35293
25.83341
25.98655
25.77932
25.20595
24.28712
23.04898
21.54145
19.85316
18.10277
16.39771
14.8356
13.45254
12.24815
11.20239
10.26051
9.373459
8.476673
7.523159
6.468517
5.275784
3.918732
2.402515
0.7854805
-0.8592033
-2.402302
-3.820068
-5.20039
-6.733952
-8.663429
-11.14541
-14.12359
-17.33567
-20.42128
-23.02961
-25.02086
-26.47779
-27.67565
-28.94992
-30.62687
-32.94903
-35.97369
-39.51681
-43.03936
-45.70963
-46.56953
-44.8441
-40.2303
-33.05653
-24.19183
-14.7429
-5.715225
2.271954
8.962349
14.37256
18.56161
21.51602
23.20787
23.69386
23.23686
22.2985
21.41378
20.98735
21.21404
22.00542
23.1142
24.26486
25.24539
25.99472
26.49999
26.77614
26.81834
26.57323
25.94678
24.87638
23.36451
21.55317
19.7019
18.06826
16.79204
15.83778
15.02417
14.08964
12.86099
11.36515
9.768555
8.324589
7.185863
6.352333
5.671928
4.948181
3.968025
2.61014
0.8504829
-1.233009
-3.466082
-5.674423
-7.69577
-9.472448
-11.06746
-12.6402
-14.32726
-16.18791
-18.19077
-20.2033
-22.11512
-23.8672
-25.54576
-27.33837
-29.49047
-32.16021
-35.36697
-38.92377
-42.38905
-45.17884
-46.60656
-46.0798
-43.20929
-37.93538
-30.5593
-21.72054
-12.27404
-3.101781
5.045377
11.71578
16.71481
20.08943
22.02135
22.70187
22.35434
21.27307
19.84801
18.51345
17.63906
17.42899
17.86061
18.73576
19.77485
20.7179
21.4287
21.88382
22.10045
22.12714
21.97817
21.64618
21.10901
20.29059
19.144
17.65187
15.87632
13.95152
12.05168
10.33735
8.939552
7.909087
7.189609
6.655789
6.099884
5.283425
4.021208
2.269422
0.1404653
-2.094504
-4.138968
-5.803233
-7.056739
-8.048825
-9.023473
-10.17919
-11.63175
-13.39699
-15.43641
-17.66973
-20.04393
-22.46849
-24.88411
-27.28641
-29.70469
-32.24244
-35.01284
-38.00198
-40.97038
-43.40435
-44.55236
-43.65691
-40.191
-34.06807
-25.75058
-16.16024
-6.423479
2.449193
9.773205
15.29919
19.0758
21.29111
22.16636
21.88209
20.63436
18.73848
16.61757
14.72275
13.45245
13.01652
13.39636
14.41817
15.79545
17.232
18.51822
19.48054
20.04555
20.20566
19.9899
19.46821
18.69147
17.67431
16.41683
14.93005
13.24455
11.46276
9.713262
8.121889
6.740182
5.556312
4.460015
3.322082
2.053573
0.638463
-0.8283253
-2.208146
-3.413966
-4.4781
-5.541196
-6.838416
-8.546183
-10.71246
-13.23299
-15.87883
-18.40601
-20.65735
-22.59887
-24.33041
-26.0237
-27.88996
-30.15208
-32.96825
-36.34267
-40.04554
-43.54389
-46.03857
-46.66291
-44.75386
-40.1029
-33.04023
-24.34332
-14.98494
-5.912286
2.191586
8.976803
14.33199
18.26402
20.7963
21.96994
21.93235
21.01774
19.69961
18.50551
17.87872
18.02481
18.90377
20.2902
21.89372
23.45962
24.81107
25.82308
26.40607
26.52093
26.18352
25.4798
24.52331
23.3932
22.12095
20.69905
19.10957
17.41571
15.73235
14.19151
12.87896
11.77974
10.80036
9.834398
8.832045
7.806064
6.83627
5.966784
5.142731
4.238909
3.051249
1.432275
-0.6116495
-2.941763
-5.371415
-7.712422
-9.903984
-12.04264
-14.2551
-16.65461
-19.24402
-21.92797
-24.59609
-27.21608
-29.81252
-32.49671
-35.38765
-38.53865
-41.93755
-45.42371
-48.64175
-51.07112
-52.05373
-50.95538
-47.39051
-41.3474
-33.24255
-23.84574
-14.08658
-4.793142
3.451651
10.36197
15.89997
20.13925
23.20042
25.20698
26.22239
26.34431
25.74133
24.68599
23.54963
22.74887
22.56956
23.11164
24.25339
25.68597
27.02992
27.95604
28.2743
27.94287
27.06073
25.77377
24.24479
22.61547
21.02181
19.59762
18.43408
17.57814
16.99745
16.61372
16.29309
15.91687
15.39415
14.68669
13.82409
12.90099
11.97344
11.10361
10.24863
9.255165
7.942329
6.142597
3.792561
1.025627
-1.873333
-4.606003
-6.950008
-8.847237
-10.45601
-12.00459
-13.69851
-15.64295
-17.83223
-20.14812
-22.46121
-24.6408
-26.62503
-28.44096
-30.20335
-32.11411
-34.39555
-37.21991
-40.63823
-44.41834
-48.05826
-50.83003
-51.91995
-50.62043
-46.5914
-39.99525
-31.44751
-21.89229
-12.30102
-3.451153
4.208561
10.53037
15.57268
19.41916
22.0955
23.66953
24.22948
24.00737
23.3674
22.7778
22.62978
23.1334
24.23038
25.62368
26.95382
27.93248
28.43494
28.53422
28.36335
28.03797
27.52422
26.74571
25.63549
24.23373
22.68721
21.15985
19.79023
18.6178
17.62593
16.7603
16.00702
15.34508
14.74268
14.13013
13.44699
12.62718
11.6272
10.43547
9.051285
7.496235
5.765049
3.864353
1.856571
-0.1333389
-1.984035
-3.589195
-4.93531
-6.130901
-7.382786
-8.898888
-10.81121
-13.06906
-15.47092
-17.74776
-19.71152
-21.33552
-22.751
-24.19264
-25.87801
-27.96785
-30.54245
-33.62849
-37.18057
-40.9808
-44.58524
-47.32993
-48.39724
-47.10531
-43.11944
-36.61067
-28.2498
-18.98145
-9.787079
-1.419559
5.682564
11.41941
15.82331
18.97409
20.97581
21.93202
22.03538
21.55857
20.89215
20.41162
20.39485
20.97281
22.03508
23.31782
24.48447
25.26434
25.52522
25.3123
24.73785
23.93164
22.96819
21.869
20.63178
19.25799
17.82778
16.46192
15.28121
14.34718
13.64232
13.08029
12.53128
11.87728
11.0341
10.04461
8.995594
7.97472
7.020184
6.052643
4.937378
3.530174
1.806599
-0.09416962
-1.919636
-3.453045
-4.621746
-5.558784
-6.550037
-7.857143
-9.616497
-11.78928
-14.17147
-16.54472
-18.77851
-20.84761
-22.81419
-24.77668
-26.80715
-28.95071
-31.26571
-33.74333
-36.27611
-38.54678
-40.0324
-40.13295
-38.36366
-34.52364
-28.83817
-21.87232
-14.35297
-6.985668
-0.2810974
5.462597
10.09087
13.50986
15.69704
16.69619
16.69694
16.07272
15.26434
14.70904
14.72883
15.39524
16.57256
17.97969
19.27306
20.23761
20.80737
21.0327
21.02297
20.86418
20.54353
19.98859
19.12443
17.93664
16.52545
15.04897
13.65405
12.41874
11.28121
10.08197
8.676483
7.032242
5.268501
3.595978
2.203655
1.145992
0.3085594
-0.5362015
-1.660316
-3.209591
-5.210052
-7.549057
-10.06251
-12.61502
-15.08838
-17.39974
-19.49284
-21.36125
-23.07408
-24.82609
-26.83308
-29.23896
-31.9701
-34.66862
-36.71823
-37.42445
-36.22776
-32.86728
-27.49856
-20.60892
-12.86563
-4.96822
2.503925
9.156597
14.73518
19.08691
22.12674
23.80719
24.17148
23.44709
22.0224
20.38824
19.02327
18.25099
18.17086
18.65387
19.43631
20.24444
20.89545
21.31402
21.4723
21.39239
21.0686
20.45876
19.51678
18.20842
16.56624
14.69007
12.72183
10.78565
8.963245
7.265785
5.660053
4.080116
2.511154
1.000698
-0.4138985
-1.697571
-2.894054
-4.110302
-5.515778
-7.213928
-9.23457
-11.47812
-13.77062
-15.92754
-17.81375
-19.4166
-20.84487
-22.33876
-24.18492
-26.65219
-29.88902
-33.80717
-38.02949
-41.88388
-44.51409
-45.09462
-43.08946
-38.40477
-31.45807
-23.04417
-14.09861
-5.423496
2.451756
9.245636
14.83786
19.18767
22.26141
24.09046
24.81838
24.72615
24.15693
23.43908
22.80537
22.37059
22.17621
22.20134
22.38532
22.67661
23.01795
23.35088
23.65775
23.90457
24.03469
23.99036
23.70354
23.12193
22.28082
21.26645
20.161
19.01761
17.80934
16.48499
14.98516
13.33999
11.62821
9.954445
8.397711
6.96368
5.622581
4.309143
2.954262
1.515112
0.002454758
-1.540752
-3.040695
-4.464972
-5.849796
-7.273243
-8.919157
-10.93644
-13.39087
-16.22195
-19.23703
-22.18789
-24.85382
-27.12386
-28.99739
-30.64867
-32.30989
-34.237
-36.63373
-39.52729
-42.70612
-45.65476
-47.63837
-47.81401
-45.55241
-40.64187
-33.42437
-24.7116
-15.51609
-6.7191
1.119776
7.771324
13.24298
17.56759
20.73957
22.75421
23.69065
23.79261
23.45589
23.0927
22.9672
23.18405
23.65494
24.19323
24.64817
24.94015
25.08093
25.14412
25.20175
25.24857
25.22681
24.98951
24.3894
23.354
21.95519
20.35839
18.80652
17.47855
16.42632
15.59026
14.80445
13.89838
12.77904
11.46782
10.06664
8.716414
7.49762
6.3862
5.320945
4.181517
2.872675
1.407814
-0.1544309
-1.72353
-3.221375
-4.674845
-6.171425
-7.797276
-9.603815
-11.56646
-13.60393
-15.67246
-17.71581
-19.70179
-21.63741
-23.55668
-25.52544
-27.69632
-30.21159
-33.12115
-36.35995
-39.6484
-42.54117
-44.47359
-44.91822
-43.42727
-39.81199
-34.21778
-27.10218
-19.18402
-11.24635
-3.93564
2.397327
7.680311
12.03892
15.59536
18.3387
20.17999
21.03731
20.992
20.33843
19.49958
18.86239
18.64232
18.85493
19.36423
20.02967
20.70386
21.33957
21.91503
22.38174
22.68764
22.72276
22.40796
21.68258
20.59121
19.20455
17.65522
16.07864
14.57662
13.1562
11.74446
10.26863
8.657089
6.928574
5.149895
3.424103
1.861446
0.5363998
-0.5326462
-1.414303
-2.202831
-3.051544
-4.108646
-5.500816
-7.300915
-9.467716
-11.91041
-14.44395
-16.91598
-19.19345
-21.25745
-23.19622
-25.19868
-27.52341
-30.3287
-33.60373
-37.02605
-40.01388
-41.81882
-41.75985
-39.45258
-34.87025
-28.44064
-20.86405
-12.90565
-5.221451
1.720947
7.675243
12.46835
15.99913
18.22187
19.1461
18.93254
17.91871
16.54846
15.2733
14.46021
14.27559
14.67844
15.51251
16.50813
17.43035
18.11708
18.49903
18.5936
18.43561
18.05441
17.42638
16.51529
15.26879
13.67014
11.75043
9.585606
7.327377
5.142403
3.177639
1.543179
0.2631264
-0.7747803
-1.721958
-2.763756
-4.008533
-5.448303
-7.020897
-8.688007
-10.43434
-12.29419
-14.30786
-16.46016
-18.72327
-21.09387
-23.64396
-26.52936
-29.84273
-33.42426
-36.77446
-39.09969
-39.5479
-37.57012
-33.09296
-26.58325
-18.85649
-10.77708
-3.024445
3.972942
9.984528
14.85832
18.4213
20.54183
21.21278
20.64161
19.23982
17.51045
15.88693
14.65076
13.90702
13.59325
13.58326
13.74873
13.9946
14.28984
14.63448
15.02701
15.4159
15.68175
15.62812
15.06657
13.8765
12.07374
9.836651
7.434063
5.136024
3.071266
1.235497
-0.5519791
-2.512524
-4.791069
-7.378387
-10.10014
-12.7349
-15.10651
-17.21758
-19.1586
-21.11517
-23.20493
-25.50154
-28.03232
-30.81312
-33.83713
-36.96415
-39.82899
-41.79889
-42.16695
-40.33285
-36.09547
-29.76438
-22.06372
-13.88217
-5.989563
1.103493
7.200832
12.26161
16.29661
19.29146
21.17712
21.96243
21.78788
20.99701
20.04883
19.39067
19.27475
19.7132
20.46383
21.1811
21.58692
21.537
21.08144
20.36324
19.56331
18.79839
18.06966
17.30211
16.3618
15.1512
13.60203
11.74835
9.679106
7.533772
5.409429
3.353246
1.362846
-0.5628443
-2.407378
-4.157914
-5.799407
-7.423833
-9.14986
-11.09906
-13.302
-15.67058
-18.07716
-20.40675
-22.69062
-25.06559
-27.76594
-30.97705
-34.73111
-38.78241
-42.56017
-45.31367
-46.18015
-44.52284
-40.09801
-33.20678
-24.61146
-15.32711
-6.283575
1.888926
8.92201
14.79131
19.5191
23.05614
25.29462
26.23902
26.09403
25.27853
24.33587
23.70854
23.60142
23.96105
24.58211
25.2716
25.91869
26.51863
27.05336
27.42762
27.47282
27.03524
26.05233
24.59639
22.85408
21.00769
19.20173
17.48742
15.87243
14.3107
12.77444
11.19895
9.539097
7.73967
5.842995
3.924721
2.111603
0.4466629
-1.17474
-2.954655
-5.137722
-7.835873
-10.96515
-14.25795
-17.42487
-20.28321
-22.83999
-25.26761
-27.83332
-30.72846
-34.00618
-37.54373
-41.03811
-44.00489
-45.84531
-45.86755
-43.52658
-38.56583
-31.18139
-22.01774
-12.01031
-2.165112
6.758461
14.2601
20.18212
24.48227
27.22163
28.45489
28.36988
27.29161
25.7066
24.19901
23.2438
23.08234
23.63146
24.6022
25.61737
26.43705
27.01017
27.43157
27.79044
28.06119
28.09951
27.69273
26.73666
25.32457
23.72429
22.23801
21.03168
20.07944
19.16159
18.0233
16.5338
14.70208
12.71619
10.79313
9.071884
7.56488
6.190987
4.761982
3.145752
1.306698
-0.6843414
-2.68008
-4.532635
-6.170803
-7.621483
-9.021049
-10.5489
-12.355
-14.48378
-16.90998
-19.53014
-22.2113
-24.82682
-27.29058
-29.66016
-32.09724
-34.84876
-38.06854
-41.78324
-45.6929
-49.22787
-51.63873
-52.14104
-50.13946
-45.38036
-38.05806
-28.79149
-18.5448
-8.353806
0.8674088
8.565929
14.57433
19.02488
22.14689
24.11615
25.04388
25.06159
24.42126
23.52564
22.8166
22.63221
23.0935
24.07847
25.31484
26.50737
27.43944
28.00699
28.23518
28.18401
27.93758
27.49538
26.77321
25.65268
24.04745
22.00439
19.7331
17.55286
15.7077
14.28793
13.1791
12.19285
11.16748
10.10891
9.082596
8.185787
7.392727
6.522152
5.375835
3.837315
1.979031
-0.009700775
-1.885235
-3.546169
-5.043461
-6.538914
-8.228325
-10.1866
-12.39919
-14.77067
-17.24016
-19.77862
-22.39931
-25.08512
-27.74832
-30.31151
-32.72942
-35.12773
-37.745
-40.75866
-44.07106
-47.1681
-49.16762
-49.11712
-46.35766
-40.77377
-32.91896
-23.75843
-14.33157
-5.451513
2.411573
9.106819
14.59595
18.84218
21.80695
23.46267
23.92745
23.5359
22.76284
22.09621
21.89141
22.25475
23.07077
24.10895
25.15386
26.07439
26.88245
27.60769
28.23611
28.68549
28.77672
28.38224
27.4799
26.16178
24.58621
22.90181
21.17265
19.3987
17.55949
15.67723
13.83199
12.1323
10.65821
9.387714
8.197443
6.91605
5.431797
3.742886
1.948473
0.2105274
-1.380196
-2.818928
-4.227762
-5.792545
-7.675142
-9.939196
-12.50529
-15.22286
-17.89325
-20.36746
-22.54962
-24.41848
-26.05753
-27.60415
-29.25228
-31.20414
-33.66224
-36.68467
-40.14009
-43.58837
-46.33701
-47.55644
-46.53518
-42.92681
-36.85467
-28.9419
-20.0689
-11.17152
-2.943383
4.22621
10.22379
15.10048
18.8687
21.50137
22.92016
23.1341
22.29858
20.81141
19.20755
18.0307
17.65558
18.16261
19.36905
20.96088
22.61848
24.13811
25.39295
26.32119
26.81436
26.7561
26.05239
24.69553
22.82536
20.65051
18.40147
16.2366
14.24316
12.42952
10.80523
9.378258
8.150298
7.097198
6.127559
5.158712
4.083511
2.864676
1.493967
0.01086235
-1.592308
-3.323217
-5.249884
-7.453785
-9.926453
-12.60579
-15.34957
-17.9764
-20.29583
-22.1565
-23.52345
-24.48916
-25.3156
-26.32264
-27.84436
-30.11758
-33.14697
-36.67744
-40.15636
-42.81187
-43.84591
-42.6598
-38.97519
-32.99253
-25.31937
-16.7958
-8.287796
-0.4584007
6.319714
11.90961
16.27657
19.41941
21.31465
21.9883
21.62533
20.55427
19.23867
18.15052
17.62427
17.7571
18.4116
19.30019
20.09541
20.59919
20.71946
20.50773
20.06381
19.46741
18.73244
17.82058
16.6783
15.3417
13.93653
12.61137
11.48178
10.5032
9.52203
8.310116
6.699444
4.659679
2.350803
0.06020737
-1.927387
-3.493244
-4.676872
-5.692024
-6.794003
-8.174782
-9.872787
-11.79954
-13.81822
-15.83669
-17.84179
-19.90862
-22.15603
-24.68373
-27.54281
-30.70785
-34.02977
-37.22202
-39.83052
-41.24107
-40.84256
-38.19274
-33.21214
-26.24406
-18.00442
-9.392193
-1.250031
5.780674
11.37374
15.43539
18.02505
19.23616
19.24602
18.28475
16.73899
15.11875
13.92001
13.47958
13.82918
14.75952
15.88596
16.87679
17.54325
17.8708
17.93676
17.7971
17.43931
16.74624
15.63362
14.09639
12.18673
10.03989
7.800396
5.617134
3.605011
1.870258
0.4226913
-0.8134575
-1.984489
-3.31752
-4.959797
-6.985622
-9.284325
-11.69505
-13.98674
-16.04477
-17.86419
-19.56593
-21.38091
-23.53514
-26.23498
-29.52759
-33.28105
-37.08139
-40.27351
-42.04726
-41.64234
-38.6338
-33.03551
-25.34937
-16.43751
-7.232866
1.470793
9.12887
15.43766
20.26624
23.4959
25.11909
25.22979
24.10907
22.22793
20.1636
18.43793
17.39124
17.14281
17.55014
18.36632
19.26032
19.97082
20.31767
20.25098
19.79162
19.01155
18.01692
16.85647
15.55027
14.05408
12.35677
10.48175
8.550087
6.675457
4.980327
3.472974
2.034898
0.5191064
-1.253351
-3.375953
-5.789396
-8.347943
-10.87128
-13.22777
-15.38879
-17.46786
-19.63404
-22.07565
-24.92074
-28.22429
-31.95136
-35.9465
-39.89062
-43.29102
-45.51899
-45.89029
-43.90676
-39.41448
-32.70256
-24.45347
-15.51285
-6.667771
1.473558
8.572931
14.49212
19.14872
22.51532
24.59258
25.48294
25.44513
24.87234
24.15865
23.64094
23.50945
23.80651
24.47725
25.41374
26.47808
27.48982
28.25284
28.56275
28.28429
27.38424
25.92313
24.05713
21.95216
19.76889
17.64942
15.72683
14.08906
12.77592
11.69779
10.65575
9.453213
7.944115
6.129768
4.146236
2.178917
0.3249245
-1.433216
-3.220192
-5.208664
-7.497917
-10.0641
-12.75294
-15.37479
-17.7928
-20.00876
-22.15591
-24.43901
-27.0895
-30.23577
-33.90702
-37.93241
-41.97588
-45.52036
-47.88884
-48.37221
-46.41025
-41.80349
-34.80034
-26.1114
-16.68096
-7.453201
0.8710442
7.929615
13.64
18.07886
21.31331
23.43768
24.52074
24.76034
24.43724
23.89656
23.46574
23.33228
23.54842
24.02962
24.65939
25.31108
25.93697
26.49429
26.9169
27.12844
27.0233
26.54847
25.72375
24.65353
23.43583
22.15168
20.7988
19.29824
17.60703
15.80023
14.03806
12.50095
11.28942
10.31791
9.392216
8.309181
6.937862
5.315224
3.554222
1.760017
-0.04087067
-1.903702
-3.908661
-6.088062
-8.394264
-10.73625
-13.01555
-15.20744
-17.33459
-19.42661
-21.49813
-23.53187
-25.52346
-27.52895
-29.70287
-32.22269
-35.24144
-38.72603
-42.34359
-45.43452
-47.16775
-46.77819
-43.84724
-38.48099
-31.24303
-22.9977
-14.55791
-6.504356
0.8931694
7.56641
13.43766
18.34138
22.02749
24.29306
25.15789
24.89471
24.00819
23.06406
22.5638
22.79086
23.78152
25.31815
27.02806
28.47647
29.32014
29.43594
28.89223
27.9095
26.70436
25.36299
23.86572
22.15371
20.23482
18.25059
16.43632
14.96068
13.85416
12.9703
12.09142
11.07513
9.925438
8.802067
7.857681
7.15448
6.590858
5.931778
5.00481
3.720257
2.161926
0.4553185
-1.290989
-3.090691
-5.032272
-7.246433
-9.748413
-12.36979
-14.88673
-17.06582
-18.82153
-20.24739
-21.55178
-23.00864
-24.839
-27.15873
-29.91512
-32.98163
-36.09465
-38.84176
-40.68196
-41.01294
-39.31315
-35.31615
-29.16373
-21.37272
-12.76899
-4.239653
3.490696
9.9242
14.86962
18.28811
20.26743
20.928
20.49792
19.32335
17.87855
16.68688
16.12973
16.39796
17.36201
18.70101
20.01223
21.0162
21.61612
21.86938
21.91006
21.78022
21.49117
20.97078
20.12663
18.89905
17.28599
15.35178
13.22409
11.08165
9.079628
7.325623
5.826071
4.495948
3.23521
1.974738
0.7184076
-0.5302973
-1.769733
-3.104606
-4.675122
-6.580265
-8.818211
-11.2084
-13.5518
-15.66181
-17.50739
-19.16755
-20.84835
-22.73195
-24.96385
-27.62896
-30.67656
-33.92622
-36.96526
-39.19233
-39.89865
-38.51705
-34.79865
-28.94727
-21.58038
-13.52839
-5.568614
1.769451
8.217027
13.68814
18.09521
21.31984
23.22926
23.82788
23.34804
22.21263
20.90142
19.79891
19.0835
18.78374
18.86449
19.26412
19.93719
20.76966
21.55728
22.07375
22.17808
21.88133
21.33739
20.70792
20.0727
19.34988
18.40608
17.19851
15.8188
14.48094
13.4111
12.67286
12.14678
11.59597
10.76843
9.523561
7.872396
5.93611
3.892813
1.904034
0.09531021
-1.474205
-2.812481
-3.976807
-5.039494
-6.068081
-7.095718
-8.141113
-9.209766
-10.32647
-11.55244
-12.98093
-14.70435
-16.72605
-18.97488
-21.30866
-23.60262
-25.79784
-27.96442
-30.22543
-32.72823
-35.61745
-38.89297
-42.41373
-45.82994
-48.5958
-50.01883
-49.43954
-46.41751
-40.91251
-33.374
-24.63386
-15.68595
-7.343281
-0.06878281
6.049923
11.14476
15.36161
18.72557
21.11438
22.41719
22.67248
22.17346
21.37789
20.72975
20.49575
20.68985
21.13604
21.66301
22.18015
22.70963
23.30252
23.93316
24.42501
24.54004
24.0954
23.10337
21.70872
20.16754
18.6794
17.32381
16.11715
15.02833
14.06734
13.26887
12.65042
12.14117
11.61551
10.92862
9.999863
8.881699
7.719902
6.681381
5.840195
5.131065
4.387581
3.402863
2.073441
0.4243927
-1.413841
-3.246651
-4.960648
-6.554573
-8.154976
-9.932663
-11.98503
-14.26364
-16.60638
-18.78385
-20.64973
-22.17834
-23.4878
-24.7692
-26.23817
-28.04813
-30.32294
-33.12851
-36.38976
-39.82249
-42.87158
-44.75166
-44.61757
-41.89516
-36.51579
-29.01598
-20.3614
-11.61461
-3.594757
3.287148
8.982262
13.61823
17.28646
19.98689
21.63306
22.23813
21.98795
21.24982
20.43291
19.86832
19.69949
19.88454
20.27934
20.75628
21.24442
21.76288
22.33227
22.90125
23.30798
23.31009
22.72038
21.48959
19.75892
17.77502
15.8325
14.13795
12.784
11.7289
10.87701
10.12318
9.342461
8.446335
7.35331
6.044479
4.580734
3.11721
1.822151
0.8247986
0.1338882
-0.3876648
-0.9232483
-1.659264
-2.69281
-4.018234
-5.545525
-7.137115
-8.70607
-10.23564
-11.79146
-13.43883
-15.22498
-17.11772
-19.04256
-20.88672
-22.54698
-24.0506
-25.5126
-27.13669
-29.1425
-31.68683
-34.70421
-37.86235
-40.53313
-41.89377
-41.18846
-37.96997
-32.33153
-24.89484
-16.67026
-8.662628
-1.580719
4.250824
8.851151
12.36902
14.92499
16.52414
17.16245
16.93634
16.12506
15.1468
14.39296
14.12244
14.37276
15.01767
15.82964
16.63477
17.31744
17.84248
18.22595
18.4554
18.53783
18.40817
18.04243
17.37677
16.40372
15.13339
13.63622
12.0443
10.50154
9.153183
8.020721
7.055542
6.110123
5.041092
3.759674
2.268311
0.644577
-0.988678
-2.520676
-3.89476
-5.141113
-6.329636
-7.546066
-8.908142
-10.4686
-12.2395
-14.16588
-16.13828
-18.02713
-19.75359
-21.25716
-22.60268
-23.97102
-25.63425
-27.86591
-30.75223
-34.05655
-37.11441
-38.99562
-38.78641
-35.95184
-30.5412
-23.18295
-14.84677
-6.515244
1.080963
7.576492
12.87831
16.96922
19.79695
21.26834
21.37915
20.32431
18.52573
16.53738
14.8589
13.80705
13.41187
13.49988
13.83383
14.22472
14.59776
14.97392
15.39474
15.82939
16.17801
16.28914
16.01093
15.27081
14.10744
12.68178
11.18897
9.785278
8.483963
7.175499
5.698624
3.948494
1.950943
-0.1135635
-1.992561
-3.473221
-4.484238
-5.124619
-5.687263
-6.50312
-7.840981
-9.778732
-12.18401
-14.75847
-17.15966
-19.17671
-20.79447
-22.24252
-23.84978
-25.91003
-28.57292
-31.79878
-35.34843
-38.79683
-41.56747
-42.96912
-42.36096
-39.31576
-33.81711
-26.3268
-17.66261
-8.809273
-0.6054306
6.417168
12.03587
16.27367
19.27081
21.17207
22.09886
22.24372
21.82092
21.1051
20.35712
19.78333
19.4845
19.44518
19.57541
19.7946
20.06733
20.42609
20.88667
21.43534
21.9605
22.24112
22.02962
21.16788
19.65269
17.68334
15.57885
13.64912
12.0796
10.88204
9.930939
9.035301
8.008438
6.717804
5.149567
3.364822
1.521942
-0.1922836
-1.660355
-2.862549
-3.929634
-5.086922
-6.583725
-8.58754
-11.10066
-13.96844
-16.95493
-19.78548
-22.27064
-24.36137
-26.1664
-27.95302
-30.02707
-32.63151
-35.82967
-39.387
-42.82442
-45.45419
-46.57552
-45.60158
-42.23091
-36.51775
-28.90544
-20.14581
-11.12858
-2.694836
4.538029
10.29038
14.62028
17.75742
20.00563
21.57389
22.5843
23.12589
23.33132
23.3734
23.44397
23.66505
24.01742
24.41413
24.75271
24.99363
25.19606
25.4363
25.74228
26.00043
26.00268
25.55745
24.55973
23.09998
21.38927
19.69223
18.20671
17.01643
16.06115
15.24625
14.4627
13.66124
12.82741
11.93104
10.90646
9.649313
8.071173
6.116146
3.855696
1.43133
-0.9376183
-3.056433
-4.814804
-6.228617
-7.454807
-8.686562
-10.14729
-11.94063
-14.05979
-16.39893
-18.77463
-21.07642
-23.28088
-25.4897
-27.87772
-30.63684
-33.89783
-37.64489
-41.62762
-45.30091
-47.91567
-48.62407
-46.76702
-42.08406
-34.86568
-25.89551
-16.23826
-6.942641
1.245852
7.941483
13.15332
17.06489
19.91781
21.89107
23.09957
23.65207
23.74559
23.66642
23.7146
24.10561
24.86691
25.83614
26.77158
27.46354
27.86823
28.06158
28.18026
28.29599
28.35565
28.18748
27.60872
26.50952
24.93888
23.08921
21.18379
19.46287
18.05133
16.96064
16.10067
15.34556
14.55557
13.64626
12.6163
11.51544
10.4202
9.392355
8.465727
7.619099
6.811012
5.988187
5.089034
4.053954
2.860763
1.479461
-0.09331131
-1.848713
-3.729748
-5.686609
-7.714903
-9.818803
-12.06634
-14.51396
-17.16721
-19.9789
-22.82487
-25.53499
-27.991
-30.17773
-32.2031
-34.31868
-36.78642
-39.71518
-42.94469
-45.97309
-48.04633
-48.34539
-46.25006
-41.55336
-34.54208
-25.91741
-16.57448
-7.412895
0.8509798
7.763911
13.17724
17.1606
19.88562
21.5368
22.29288
22.33389
21.84336
21.08404
20.34692
19.92529
20.00904
20.64474
21.71062
22.96129
24.14104
25.03386
25.53694
25.64194
25.39525
24.82502
23.92927
22.70494
21.17096
19.43892
17.72
16.24395
15.19291
14.59706
14.31637
14.11317
13.75433
13.08177
12.06901
10.78194
9.323891
7.785118
6.195645
4.522877
2.743348
0.8712769
-1.036669
-2.842664
-4.439385
-5.791102
-6.958405
-8.132435
-9.542679
-11.3075
-13.38578
-15.60561
-17.74304
-19.66137
-21.38034
-23.03686
-24.80774
-26.85797
-29.27578
-32.06026
-35.12024
-38.22143
-40.91916
-42.60214
-42.59258
-40.35583
-35.724
-28.95116
-20.69054
-11.80158
-3.116301
4.68955
11.17287
16.11532
19.44556
21.24824
21.72056
21.15401
19.95174
18.58007
17.46785
16.90977
16.999
17.63133
18.56538
19.52171
20.3068
20.85816
21.20191
21.38523
21.39453
21.18441
20.69441
19.91335
18.85728
17.55889
16.08723
14.48513
12.80209
11.11304
9.446087
7.826437
6.257674
4.687684
3.083706
1.459919
-0.1516557
-1.708478
-3.199594
-4.722837
-6.404201
-8.320925
-10.46372
-12.73023
-14.95723
-17.00473
-18.81241
-20.42663
-22.00165
-23.75449
-25.87284
-28.49195
-31.63846
-35.15847
-38.69806
-41.69428
-43.46823
-43.38818
-41.0309
-36.30663
-29.5355
-21.34544
-12.56343
-4.029682
3.565755
9.780408
14.44672
17.62855
19.49925
20.26861
20.18154
19.50775
18.56674
17.72591
17.29225
17.44853
18.17987
19.29053
20.48499
21.50571
22.18853
22.48424
22.43233
22.08165
21.45637
20.58717
19.51722
18.2765
16.93425
15.543
14.1634
12.87521
11.70601
10.60583
9.474771
8.152121
6.538785
4.632867
2.546087
0.4604588
-1.447334
-3.121706
-4.638748
-6.172638
-7.947242
-10.09937
-12.61757
-15.35579
-18.08865
-20.60271
-22.80976
-24.75889
-26.6313
-28.68145
-31.12905
-34.10723
-37.59047
-41.35225
-44.95735
-47.79986
-49.15984
-48.37484
-45.07058
-39.26472
-31.46966
-22.53608
-13.38864
-4.803343
2.746481
9.128754
14.40224
18.63609
21.841
23.91022
24.74306
24.43792
23.34132
21.98273
20.91888
20.53225
20.91646
21.91256
23.17706
24.4039
25.41985
26.18723
26.76583
27.18256
27.39168
27.30059
26.82939
25.92686
24.63312
23.09797
21.47067
19.93269
18.56984
17.38154
16.28551
15.21275
14.12234
13.03508
12.03823
11.13274
10.27964
9.314507
8.042408
6.321144
4.141582
1.676174
-0.8366623
-3.194214
-5.336468
-7.332584
-9.377804
-11.66475
-14.27739
-17.15731
-20.08919
-22.82421
-25.19103
-27.1978
-29.02876
-30.93757
-33.17983
-35.91753
-39.20462
-42.94153
-46.86522
-50.47298
-53.05297
-53.74233
-51.81892
-46.9972
-39.58353
-30.4453
-20.70351
-11.3596
-2.97274
4.348858
10.761
16.40474
21.20714
24.92399
27.30449
28.31167
28.16906
27.38137
26.51178
25.99085
25.99042
26.46496
27.20709
28.0416
28.84159
29.52734
30.07925
30.46978
30.59562
30.35189
29.67486
28.56885
27.13597
25.55778
23.98559
22.53264
21.20844
19.92816
18.59921
17.14433
15.56553
13.93867
12.39433
11.05327
9.983376
9.154427
8.414028
7.592735
6.479527
4.940891
2.929634
0.5366096
-2.054993
-4.58971
-6.868256
-8.836838
-10.57177
-12.26183
-14.12351
-16.24208
-18.55655
-20.91786
-23.1309
-25.08598
-26.84608
-28.54755
-30.39253
-32.57619
-35.2216
-38.33852
-41.78421
-45.18515
-47.91821
-49.19617
-48.29532
-44.80317
-38.8176
-30.93267
-22.07547
-13.19614
-4.989803
2.27404
8.601784
14.10998
18.76365
22.3739
24.70691
25.69419
25.55104
24.77743
23.96782
23.56674
23.7676
24.4525
25.36411
26.22734
26.88272
27.28635
27.45587
27.40153
27.06742
26.39781
25.35047
23.95569
22.31328
20.58184
18.9395
17.51379
16.36103
15.44812
14.67253
13.91823
13.10463
12.20247
11.23713
10.22846
9.142406
7.935173
6.53397
4.93782
3.22905
1.529926
-0.03881454
-1.435593
-2.765888
-4.211777
-5.92757
-7.994877
-10.35085
-12.85452
-15.35899
-17.76086
-20.01994
-22.12528
-24.11245
-26.02413
-27.95779
-30.06329
-32.47292
-35.14909
-37.80822
-39.82844
-40.44275
-38.98481
-35.15684
-29.20071
-21.82158
-13.93137
-6.35919
0.3685417
6.070965
10.76184
14.50066
17.3199
19.15583
19.96185
19.78112
18.83514
17.49747
16.19917
15.34102
15.14779
15.6793
16.7802
18.19755
19.6281
20.83196
21.64186
21.9824
21.85614
21.285
20.32304
18.98542
17.3237
15.36202
13.1558
10.79933
8.425747
6.213682
4.291754
2.736614
1.521166
0.5587597
-0.256176
-1.022062
-1.805492
-2.667353
-3.677409
-4.992395
-6.718792
-8.89258
-11.42711
-14.09469
-16.68036
-19.05161
-21.25142
-23.43102
-25.85049
-28.66742
-31.91442
-35.40949
-38.71822
-41.22384
-42.19411
-41.04819
-37.49597
-31.72853
-24.3388
-16.14658
-7.935375
-0.2416053
6.6298
12.5536
17.36693
20.8893
22.94158
23.54072
22.93794
21.59078
20.05215
18.74357
17.93773
17.70141
17.98023
18.66318
19.59759
20.60742
21.49179
22.07602
22.21248
21.8562
21.04683
19.88729
18.49364
16.96804
15.39402
13.82016
12.27024
10.73469
9.182495
7.55759
5.799406
3.878155
1.812113
-0.3013027
-2.326794
-4.135877
-5.666022
-6.994692
-8.326982
-9.915436
-11.94662
-14.46838
-17.33037
-20.27257
-23.00101
-25.34024
-27.31191
-29.13191
-31.1001
-33.52877
-36.60235
-40.27025
-44.11646
-47.38106
-49.09791
-48.36264
-44.68668
-38.18339
-29.57877
-19.94935
-10.38113
-1.638467
5.918063
12.22125
17.31691
21.22739
23.90923
25.34956
25.70568
25.26785
24.40862
23.50027
22.78706
22.3812
22.33199
22.57371
23.00904
23.52824
24.02866
24.40704
24.60076
24.55703
24.22343
23.54757
22.49747
21.09295
19.45451
17.76675
16.19219
14.81502
13.6047
12.42871
11.17517
9.812198
8.395496
7.076334
5.935994
4.926235
3.919145
2.757391
1.384812
-0.1562862
-1.761063
-3.359114
-4.971722
-6.767686
-8.927633
-11.5222
-14.46107
-17.47301
-20.2813
-22.69228
-24.68065
-26.37075
-27.99342
-29.79198
-31.94466
-34.62629
-37.89479
-41.69331
-45.73499
-49.48375
-52.11993
-52.78821
-50.78016
-45.79931
-38.17353
-28.68646
-18.41117
-8.417751
0.4642248
7.7798
13.40351
17.46331
20.18877
21.81441
22.59502
22.78958
22.65664
22.42419
22.24201
22.20093
22.30555
22.51883
22.81643
23.22008
23.75207
24.42186
25.16786
25.83091
26.2367
26.22951
25.71288
24.67742
23.21209
21.45097
19.58106
17.81645
16.32006
15.17982
14.36942
13.73932
13.04834
12.09687
10.73937
8.979643
6.925117
4.757563
2.678419
0.8183274
-0.7746006
-2.191083
-3.621617
-5.289317
-7.358057
-9.82631
-12.57146
-15.35508
-18.00817
-20.45746
-22.76428
-25.03506
-27.3635
-29.81119
-32.44453
-35.40191
-38.81391
-42.64979
-46.56882
-49.84423
-51.51451
-50.69675
-46.93135
-40.34239
-31.63267
-21.82291
-11.94153
-2.801719
5.103756
11.59346
16.68737
20.48183
23.09226
24.61659
25.1615
24.90167
24.09681
23.12367
22.3888
22.2149
22.66471
23.55494
24.53553
25.26318
25.61593
25.67153
25.63855
25.65488
25.65651
25.39774
24.6401
23.29794
21.50488
19.6079
17.93584
16.64061
15.59315
14.50265
13.08173
11.23614
9.075521
6.824526
4.719904
2.908495
1.406145
0.108264
-1.112631
-2.402928
-3.841514
-5.494482
-7.391643
-9.52054
-11.82607
-14.20352
-16.52938
-18.69545
-20.70285
-22.65501
-24.76355
-27.244
-30.27655
-33.88006
-37.80675
-41.54365
-44.33043
-45.36298
-43.99627
-39.98057
-33.5607
-25.42619
-16.50235
-7.682586
0.419548
7.50405
13.47652
18.30133
21.89272
24.11845
24.93488
24.50712
23.22823
21.62042
20.19458
19.26523
18.93301
19.14581
19.75724
20.64789
21.72098
22.84225
23.82125
24.43787
24.47677
23.83228
22.55795
20.82867
18.90475
17.02592
15.36127
13.91957
12.6236
11.31343
9.855263
8.174955
6.317493
4.402248
2.556135
0.8309746
-0.8321152
-2.57317
-4.531915
-6.797977
-9.345654
-12.08368
-14.86067
-17.51469
-19.94916
-22.14055
-24.15844
-26.1493
-28.34911
-30.96399
-34.11634
-37.72033
-41.38667
-44.42448
-45.9907
-45.29111
-41.83255
-35.64061
-27.26229
-17.64788
-7.884145
1.113939
8.794552
14.9181
19.47843
22.52001
24.06557
24.18567
23.11066
21.22998
19.15588
17.48711
16.66302
16.82449
17.78741
19.18224
20.56997
21.64847
22.24797
22.40405
22.21691
21.7594
21.03583
19.94834
18.38566
16.29397
13.76105
10.95374
8.116722
5.442787
3.057648
0.9830742
-0.8642101
-2.637716
-4.496309
-6.547678
-8.84222
-11.3106
-13.82589
-16.24477
-18.44707
-20.43888
-22.37071
-24.46936
-26.97822
-30.07887
-33.73867
-37.67673
-41.37103
-44.06242
-44.95705
-43.44312
-39.23618
-32.52109
-23.89699
-14.21887
-4.389853
4.790268
12.77657
19.24247
24.04111
27.16525
28.72102
28.89598
28.00859
26.49905
24.83485
23.45299
22.63624
22.43085
22.70499
23.22538
23.73621
24.09562
24.25351
24.19863
23.95302
23.46693
22.65514
21.46417
19.9002
18.04003
16.01531
13.97005
11.97403
10.06076
8.205765
6.350044
4.446445
2.49408
0.5493774
-1.274513
-2.908192
-4.403801
-5.917339
-7.682983
-9.89085
-12.59279
-15.62223
-18.6942
-21.51317
-23.98228
-26.21806
-28.48791
-31.07591
-34.15768
-37.77425
-41.79912
-45.93423
-49.64994
-52.20482
-52.76542
-50.60371
-45.41848
-37.49379
-27.68912
-17.17295
-7.079887
1.8134
9.182518
15.0812
19.71309
23.2458
25.73967
27.20839
27.723
27.46822
26.73858
25.89977
25.27315
25.05245
25.30068
25.93416
26.76047
27.59123
28.26104
28.70627
28.91917
28.91306
28.70102
28.24874
27.51284
26.46323
25.10299
23.4768
21.65525
19.72262
17.72974
15.73661
13.80254
11.9867
10.29637
8.691933
7.058559
5.251064
3.182026
0.8532104
-1.622345
-4.042847
-6.238888
-8.136566
-9.792904
-11.41893
-13.22959
-15.36944
-17.86081
-20.59484
-23.40609
-26.14542
-28.74672
-31.23869
-33.74268
-36.40119
-39.39804
-42.81007
-46.56326
-50.32705
-53.46811
-55.16724
-54.60419
-51.21363
-44.89429
-36.11868
-25.80676
-15.0887
-5.032383
3.609097
10.46157
15.52421
19.01508
21.25275
22.50273
23.00887
22.99564
22.71786
22.47998
22.57204
23.17129
24.2813
25.71423
27.16341
28.36785
29.20035
29.67717
29.93006
30.04737
30.01434
29.72733
29.08537
28.05697
26.75874
25.33597
23.94814
22.65173
21.42542
20.1876
18.87933
17.47178
15.98558
14.49702
13.03921
11.65071
10.32688
9.029961
7.673283
6.189049
4.507179
2.622051
0.6135368
-1.392544
-3.248253
-4.885246
-6.350456
-7.840565
-9.58659
-11.77527
-14.43359
-17.39878
-20.38829
-23.14998
-25.57071
-27.79502
-30.12288
-32.96623
-36.63937
-41.24908
-46.58318
-52.07301
-56.86901
-59.97932
-60.49107
-57.81525
-51.90817
-43.27941
-32.91385
-21.9995
-11.61364
-2.498024
5.018219
10.93216
15.40134
18.63234
20.81454
22.10855
22.73209
22.95288
23.09247
23.42987
24.09346
25.04713
26.1548
27.2399
28.16551
28.85694
29.28445
29.45108
29.33556
28.88828
28.07677
26.90852
25.47301
23.92094
22.43288
21.13562
20.05146
19.09896
18.11759
16.95087
15.54039
13.91095
12.19823
10.58712
9.170231
7.943542
6.811543
5.623585
4.26461
2.664997
0.8388329
-1.126583
-3.141949
-5.168518
-7.201332
-9.275421
-11.43667
-13.68079
-15.97318
-18.24654
-20.4242
-22.46885
-24.39202
-26.24265
-28.11679
-30.178
-32.55091
-35.3812
-38.71674
-42.41499
-46.06446
-48.99431
-50.32471
-49.26663
-45.41122
-38.86388
-30.31557
-20.73122
-11.11041
-2.177197
5.667877
12.27825
17.59893
21.56509
24.12884
25.32666
25.43602
24.86134
24.10749
23.58788
23.52882
23.95509
24.71167
25.61517
26.46897
27.16558
27.61748
27.76169
27.5214
26.82029
25.63935
24.06261
22.30634
20.57846
19.06038
17.74302
16.51982
15.25202
13.86482
12.39287
10.91619
9.502556
8.100502
6.576954
4.810505
2.807434
0.738739
-1.171852
-2.733292
-3.961285
-5.07486
-6.375305
-8.13414
-10.39907
-13.01865
-15.69012
-18.15549
-20.3127
-22.29499
-24.39045
-26.87608
-29.91303
-33.46447
-37.36609
-41.34142
-45.05033
-48.02523
-49.71494
-49.51247
-46.9189
-41.76659
-34.3647
-25.4872
-16.18383
-7.431126
0.07867432
6.060345
10.48998
13.49355
15.14268
15.48737
14.65797
12.93082
10.77168
8.73024
7.317429
6.823631
7.306122
8.5578
10.22318
11.88876
13.19802
13.93562
14.04635
13.64282
12.87724
11.841
10.4775
8.619438
6.141052
3.036819
-0.4761429
-4.046921
-7.330856
-10.09322
-12.28347
-13.92882
-15.14214
-16.00187
-16.62449
-17.16855
-17.82224
-18.77432
-20.11177
-21.81028
-23.73341
-25.74001
-27.73594
-29.75478
-31.91603
-34.35632
-37.21211
-40.50198
-44.03084
-47.33484
-49.71149
-50.34082
-48.56416
-44.07996
-37.05089
-28.09282
-18.0504
-7.785019
2.001907
10.79907
18.26085
24.14793
28.30379
30.7182
31.60402
31.41486
30.75896
30.24019
30.30891
31.10277
32.44466
33.98216
35.34325
36.28714
36.77814
36.91556
36.77783
36.41614
35.77391
34.76585
33.36191
31.6226
29.6716
27.65059
25.64651
23.63237
21.53845
19.30927
16.95567
14.55696
12.21596
10.01649
7.986099
6.065842
4.155746
2.08934
-0.2710419
-3.006073
-6.098175
-9.461365
-12.90686
-16.25128
-19.37695
-22.27158
-25.07153
-27.98895
-31.24408
-34.90536
-38.87732
-42.80438
-46.12195
-48.16956
-48.30222
-46.0509
-41.24402
-34.06607
-25.03284
-14.92731
-4.643646
4.970459
13.26443
19.89151
24.81238
28.20282
30.34604
31.50232
31.88474
31.67355
31.09195
30.45773
30.12146
30.35898
31.24918
32.62204
34.14063
35.45438
36.33591
36.7193
36.70929
36.41345
35.88162
35.06839
33.90323
32.3559
30.49362
28.45871
26.39618
24.39459
22.46945
20.56296
18.61621
16.5885
14.47095
12.30359
10.13776
8.044342
6.102448
4.336273
2.735413
1.228546
-0.3370667
-2.095795
-4.137543
-6.452148
-8.931244
-11.39786
-13.74387
-15.94479
-18.05878
-20.25775
-22.68771
-25.47171
-28.70786
-32.42957
-36.57541
-40.94699
-45.10028
-48.32819
-49.7981
-48.76364
-44.85077
-38.24091
-29.62009
-19.99094
-10.35431
-1.457001
6.339661
12.94382
18.40753
22.72495
25.8118
27.57578
28.07266
27.59064
26.63348
25.77789
25.43851
25.76959
26.65002
27.77798
28.86517
29.73132
30.33127
30.7486
31.05142
31.24103
31.24023
30.93942
30.2337
29.10904
27.6246
25.95389
24.25467
22.67206
21.25098
19.97409
18.76874
17.52325
16.14926
14.57355
12.80365
10.84985
8.786591
6.691467
4.669891
2.775421
1.017853
-0.6504211
-2.348602
-4.202515
-6.329651
-8.72226
-11.26862
-13.80511
-16.18729
-18.36386
-20.3905
-22.42047
-24.64017
-27.20694
-30.22174
-33.69449
-37.48831
-41.22302
-44.28622
-45.88423
-45.31012
-42.14447
-36.48117
-28.89626
-20.28203
-11.58275
-3.494492
3.608292
9.629211
14.59007
18.5547
21.50993
23.44487
24.42944
24.65309
24.4066
24.01355
23.72173
23.67558
23.88698
24.30342
24.8418
25.42276
25.97023
26.38383
26.54651
26.37961
25.8439
24.98611
23.85941
22.53938
21.04944
19.41478
17.68004
15.9371
14.35939
13.11319
12.26799
11.69998
11.17484
10.39136
9.167297
7.506958
5.591583
3.688293
1.978043
0.4966583
-0.8585205
-2.264175
-3.863373
-5.673889
-7.654892
-9.721466
-11.79648
-13.83292
-15.78998
-17.61534
-19.29814
-20.8689
-22.45129
-24.22887
-26.39394
-29.01164
-31.95757
-34.85673
-37.1438
-38.20361
-37.57069
-35.02502
-30.67635
-24.89008
-18.16446
-11.09116
-4.218567
1.968925
7.101326
10.95953
13.50246
14.79116
15.0394
14.51425
13.49445
12.28257
11.17387
10.45674
10.31224
10.83185
11.89294
13.25709
14.63053
15.7559
16.49017
16.78704
16.69501
16.24982
15.48957
14.43861
13.09874
11.52743
9.806831
8.090714
6.509323
5.142193
3.975712
2.939064
1.93326
0.8729
-0.2927227
-1.564213
-2.894281
-4.255204
-5.620262
-7.01863
-8.469066
-9.979551
-11.50221
-12.96399
-14.27906
-15.41866
-16.44573
-17.50873
-18.79401
-20.41399
-22.39304
-24.63577
-26.91138
-28.87838
-30.11883
-30.21474
-28.82421
-25.82001
-21.33832
-15.8126
-9.845268
-4.013844
1.240906
5.687222
9.245785
11.91329
13.65308
14.43343
14.25512
13.24463
11.69799
9.989029
8.515625
7.53273
7.113789
7.140404
7.396175
7.657921
7.794823
7.776085
7.632927
7.434578
7.191162
6.886612
6.446457
5.825111
5.027267
4.092369
3.108055
2.121376
1.165771
0.2279205
-0.7223206
-1.715279
-2.804573
-4.048531
-5.535927
-7.313744
-9.360748
-11.51491
-13.53482
-15.20005
-16.41257
-17.2889
-18.09542
-19.15235
-20.6948
-22.79662
-25.3269
-27.94344
-30.17079
-31.46046
-31.31481
-29.41622
-25.74408
-20.58928
-14.51568
-8.189049
-2.199066
3.025017
7.276161
10.50582
12.73405
14.00304
14.38488
13.98715
12.97208
11.57597
10.08046
8.733383
7.738373
7.188736
7.076355
7.330246
7.855209
8.542099
9.281097
9.96489
10.45912
10.63416
10.36569
9.608185
8.397583
6.825745
5.053314
3.221481
1.46077
-0.1467438
-1.590637
-2.883759
-4.05159
-5.129211
-6.180481
-7.243179
-8.332321
-9.462189
-10.64063
-11.85191
-13.06332
-14.20552
-15.17616
-15.93861
-16.53171
-17.15445
-18.09413
-19.67116
-22.06467
-25.16023
-28.51901
-31.45647
-33.24214
-33.29488
-31.38283
-27.61183
-22.38882
-16.28076
-9.835052
-3.538834
2.262451
7.353073
11.56885
14.79771
16.97682
18.11374
18.3302
17.83115
16.89583
15.81403
14.82399
14.05145
13.52184
13.19197
13.03142
13.0616
13.31351
13.79207
14.42445
15.0665
15.46857
15.42354
14.81921
13.69421
12.22496
10.65366
9.198654
7.985016
7.035889
6.236115
5.414154
4.394943
3.077454
1.477905
-0.2709503
-2.003754
-3.605652
-5.079132
-6.531845
-8.100098
-9.862503
-11.7968
-13.78647
-15.71045
-17.50975
-19.25462
-21.09729
-23.17667
-25.56859
-28.24225
-31.1042
-33.93834
-36.47578
-38.28084
-38.83095
-37.62863
-34.3297
-28.99478
-22.09135
-14.40067
-6.777618
0.1025238
5.892944
10.55603
14.2085
16.94336
18.7271
19.49037
19.20639
18.03221
16.31531
14.5166
13.08617
12.32048
12.32617
13.04126
14.3103
15.8972
17.54202
18.92877
19.78372
19.92827
19.3382
18.17548
16.66159
15.01364
13.3403
11.65097
9.935715
8.242599
6.670593
5.301559
4.144775
3.09761
1.980423
0.658493
-0.8757324
-2.509613
-4.090378
-5.555313
-6.955154
-8.43631
-10.11864
-12.04434
-14.13321
-16.27525
-18.42422
-20.67827
-23.2663
-26.39365
-30.09808
-34.08601
-37.73146
-40.18677
-40.64424
-38.63042
-34.14874
-27.6929
-20.06837
-12.13234
-4.574448
2.162491
7.868057
12.44556
15.79851
17.9099
18.80933
18.71847
18.01038
17.10029
16.36933
16.03773
16.13354
16.54844
17.17738
17.89889
18.66542
19.40339
20.0258
20.42816
20.50231
20.17951
19.462
18.44771
17.24344
15.91595
14.46716
12.82653
10.93986
8.834473
6.622551
4.485207
2.566582
0.8970947
-0.6061707
-2.093941
-3.708801
-5.481117
-7.330742
-9.151604
-10.83068
-12.33758
-13.74355
-15.17091
-16.76197
-18.66143
-20.9801
-23.74117
-26.85717
-30.03613
-32.73298
-34.26044
-33.94045
-31.35025
-26.48959
-19.81651
-12.12897
-4.299667
2.93364
9.084167
13.89175
17.25704
19.16103
19.70496
19.09656
17.70724
16.03593
14.59428
13.75681
13.65177
14.14584
14.92259
15.62895
15.99323
15.92593
15.49008
14.82847
14.04279
13.15532
12.10694
10.8308
9.321747
7.63871
5.902267
4.183022
2.483948
0.7118607
-1.207672
-3.292816
-5.459427
-7.569756
-9.496277
-11.18234
-12.67703
-14.13087
-15.72176
-17.60378
-19.93417
-22.82352
-26.24879
-29.99756
-33.57552
-36.25932
-37.28934
-36.10546
-32.52859
-26.85604
-19.74705
-11.97233
-4.255684
2.858887
9.01115
13.92548
17.41953
19.39607
19.90394
19.19348
17.70478
15.95351
14.40813
13.37544
12.96051
13.1021
13.61408
14.28951
14.97519
15.55956
15.96529
16.15263
16.07602
15.70494
15.02566
14.02107
12.6639
10.93468
8.879436
6.579311
4.18766
1.831947
-0.4500885
-2.686438
-4.939032
-7.245638
-9.54203
-11.69082
-13.61203
-15.3472
-17.13717
-19.32698
-22.21238
-25.90066
-30.17385
-34.55078
-38.38092
-40.99123
-41.81538
-40.49049
-36.914
-31.23588
-23.89229
-15.49321
-6.775176
1.51995
8.767399
14.61672
18.91051
21.72602
23.26817
23.78516
23.55282
22.85248
21.94021
21.07607
20.50757
20.37975
20.69999
21.34035
22.09915
22.73841
23.08322
23.05278
22.62741
21.83192
20.69517
19.22449
17.44252
15.39141
13.14633
10.80659
8.449387
6.110529
3.77512
1.385845
-1.095119
-3.626945
-6.144077
-8.527161
-10.71003
-12.6916
-14.57622
-16.54469
-18.85149
-21.71495
-25.23187
-29.29496
-33.47024
-37.03451
-39.10955
-38.92963
-36.06395
-30.5914
-23.09332
-14.44032
-5.616402
2.58831
9.625011
15.23722
19.36673
22.10456
23.63567
24.20186
24.09249
23.53317
22.75055
21.87407
21.01888
20.29364
19.80052
19.57
19.54296
19.63477
19.69776
19.65858
19.48421
19.14375
18.57428
17.66993
16.29345
14.39304
12.08594
9.567749
7.080124
4.755119
2.554367
0.3299789
-2.062988
-4.633308
-7.289063
-9.849136
-12.22397
-14.44402
-16.66017
-19.08865
-21.89047
-25.13762
-28.71452
-32.34108
-35.5053
-37.58908
-37.92656
-36.00663
-31.67551
-25.21605
-17.33424
-8.962135
-0.9883957
5.986275
11.67027
16.02679
19.09111
20.88217
21.39801
20.73338
19.19569
17.28281
15.59385
14.60375
14.4875
15.09716
16.07222
17.04605
17.78336
18.23329
18.41479
18.35646
18.04469
17.46676
16.69134
15.78889
14.86971
13.90131
12.75454
11.22293
9.124229
6.432877
3.253334
-0.226265
-3.875969
-7.615845
-11.47187
-15.46543
-19.59064
-23.70848
-27.55057
-30.75061
-32.84044
-33.42918
-32.23422
-29.1816
-24.45888
-18.45798
-11.70116
-4.718719
2.022781
8.155884
13.36511
17.38359
19.99576
21.123
20.9005
19.65862
17.95784
16.39622
15.48549
15.47273
16.26869
17.56024
18.90289
19.95293
20.46095
20.34277
19.60733
18.35388
16.70712
14.78369
12.71663
10.54887
8.306
5.934509
3.393753
0.7101288
-2.00502
-4.583176
-6.92807
-9.021835
-10.99014
-13.00455
-15.20433
-17.67853
-20.42804
-23.4351
-26.52911
-29.45361
-31.74506
-32.8717
-32.30603
-29.70616
-25.07426
-18.7316
-11.33565
-3.591446
3.799011
10.3028
15.57188
19.4536
21.96161
23.19189
23.38217
22.77257
21.71355
20.54572
19.61296
19.15727
19.29016
19.95369
20.92107
21.90111
22.57462
22.73161
22.29987
21.39275
20.22578
19.00172
17.82393
16.63263
15.26932
13.55112
11.43665
9.049942
6.641907
4.461914
2.615852
1.038124
-0.4720917
-2.136635
-4.10479
-6.394081
-8.919044
-11.58855
-14.30907
-17.03975
-19.74983
-22.44718
-25.1424
-27.89297
-30.76093
-33.70442
-36.53531
-38.80051
-39.85532
-39.01955
-35.84727
-30.29825
-22.84202
-14.31503
-5.692947
2.248299
9.051422
14.5883
18.93661
22.17465
24.35404
25.45982
25.52787
24.75543
23.52058
22.29563
21.53667
21.49981
22.18504
23.36765
24.68146
25.78542
26.45887
26.60144
26.22242
25.39238
24.2049
22.78928
21.27525
19.78442
18.37334
17.04502
15.74067
14.4043
13.00372
11.58736
10.17334
8.797874
7.447395
6.08181
4.668228
3.213516
1.743446
0.2867508
-1.134331
-2.548065
-3.971657
-5.437866
-6.948608
-8.550194
-10.2657
-12.10966
-14.06239
-16.07875
-18.09036
-20.02957
-21.88822
-23.73753
-25.70324
-27.94609
-30.60204
-33.6605
-36.9497
-40.06832
-42.44162
-43.43427
-42.49203
-39.32257
-33.99911
-26.96693
-18.91843
-10.62284
-2.771446
4.143431
9.849796
14.22765
17.25006
18.97426
19.5369
19.18185
18.30086
17.28082
16.52233
16.27581
16.62757
17.48338
18.61996
19.756
20.66993
21.22415
21.36398
21.16717
20.73918
20.18748
19.52894
18.699
17.54491
15.96606
13.99755
11.8247
9.7395
7.98933
6.664936
5.66322
4.767362
3.764578
2.6323
1.485578
0.5065336
-0.24863
-0.9049492
-1.725015
-2.950826
-4.695839
-6.889034
-9.328411
-11.77153
-14.0555
-16.1088
-17.99293
-19.83511
-21.79618
-24.03545
-26.64314
-29.62473
-32.81209
-35.90214
-38.38544
-39.67023
-39.16232
-36.45542
-31.5041
-24.68627
-16.76659
-8.647278
-1.114532
5.386887
10.71428
14.92685
18.08449
20.12265
20.9698
20.63666
19.39841
17.71965
16.15551
15.13302
14.78708
15.04539
15.66609
16.46369
17.28826
18.10016
18.86386
19.51162
19.95774
20.07394
19.78134
19.01239
17.77532
16.11861
14.19663
12.23678
10.46162
9.040863
8.013359
7.295502
6.717125
6.119576
5.397835
4.519066
3.496437
2.327103
1.021248
-0.4260559
-1.945625
-3.427002
-4.756882
-5.856781
-6.79882
-7.735237
-8.888184
-10.40234
-12.34122
-14.64509
-17.14071
-19.67279
-22.07454
-24.28842
-26.29307
-28.18955
-30.12219
-32.28601
-34.83102
-37.73176
-40.77241
-43.4761
-45.18202
-45.19812
-43.0172
-38.47379
-31.83325
-23.7598
-15.1341
-6.839447
0.4587326
6.409195
10.97324
14.26259
16.42499
17.5604
17.75401
17.21236
16.27561
15.39293
14.95977
15.16092
15.92184
16.99688
18.145
19.2233
20.24501
21.22626
22.11787
22.762
22.97284
22.63588
21.8086
20.69311
19.50806
18.38847
17.31407
16.14874
14.75595
13.09132
11.21791
9.332336
7.651505
6.301208
5.299469
4.501404
3.716675
2.78154
1.680817
0.5094299
-0.5659332
-1.434082
-2.164749
-2.953354
-4.040543
-5.607346
-7.673325
-10.09879
-12.66641
-15.16222
-17.45583
-19.53119
-21.42479
-23.20918
-24.98274
-26.82881
-28.8521
-31.15601
-33.78496
-36.64946
-39.45386
-41.62405
-42.43674
-41.24783
-37.70221
-31.97064
-24.66742
-16.68451
-8.826996
-1.698257
4.442642
9.525696
13.5121
16.39458
18.12801
18.76271
18.49554
17.68425
16.69138
15.85953
15.42146
15.48065
16.03845
16.96948
18.06915
19.1124
19.91444
20.38689
20.55569
20.50677
20.30937
19.97725
19.44446
18.61417
17.46768
16.04858
14.505
12.99829
11.69429
10.61693
9.724274
8.880646
7.947449
6.89006
5.695618
4.46666
3.25679
2.09581
0.9276276
-0.289444
-1.581451
-2.938202
-4.287521
-5.626114
-6.958984
-8.376541
-10.01054
-11.93904
-14.15475
-16.57138
-19.04111
-21.39645
-23.54007
-25.40715
-27.03162
-28.57664
-30.267
-32.31433
-34.80238
-37.54152
-40.03197
-41.56285
-41.35942
-38.91615
-34.1689
-27.51859
-19.73163
-11.6675
-4.040298
2.664703
8.193954
12.45807
15.43103
17.13335
17.68599
17.32898
16.45293
15.47917
14.76382
14.46709
14.59985
15.01649
15.53915
16.05771
16.53975
17.0071
17.47603
17.89525
18.13788
18.10936
17.73694
17.05043
16.14662
15.11259
13.99171
12.75775
11.3633
9.776855
8.009415
6.088806
4.086578
2.064423
0.08854675
-1.748322
-3.338882
-4.590561
-5.508804
-6.20076
-6.869064
-7.700409
-8.785202
-10.11259
-11.59885
-13.15919
-14.7914
-16.59381
-18.71312
-21.26402
-24.2471
-27.49319
-30.65399
-33.21796
-34.61349
-34.32523
-32.03384
-27.714
-21.67722
-14.52937
-7.006836
0.1600647
6.433624
11.47426
15.15942
17.50696
18.61478
18.60501
17.66919
16.07973
14.16927
12.32132
10.87355
10.05652
9.947906
10.47345
11.4176
12.52187
13.53622
14.26982
14.59984
14.5034
13.9863
13.05966
11.7113
9.920135
7.753418
5.343796
2.919327
0.6683502
-1.310089
-3.08728
-4.828751
-6.700745
-8.747269
-10.86836
-12.92421
-14.74399
-16.28238
-17.59996
-18.84897
-20.21631
-21.84807
-23.8382
-26.12132
-28.44127
-30.31483
-31.11295
-30.24863
-27.3848
-22.59702
-16.33464
-9.328506
-2.313187
4.102478
9.527359
13.72072
16.50912
17.7962
17.57742
16.07341
13.70558
11.0742
8.770767
7.226952
6.562004
6.626091
7.116524
7.657417
8.023529
8.101723
7.893921
7.452156
6.816315
5.999435
4.949692
3.618187
1.931488
-0.1539917
-2.604874
-5.326523
-8.153831
-10.89108
-13.34992
-15.46983
-17.2991
-19.04475
-20.99246
-23.37657
-26.25969
-29.40866
-32.26913
-34.08523
-34.11646
-31.82905
-27.13128
-20.35394
-12.2195
-3.621826
4.565483
11.66043
17.26747
21.22041
23.57825
24.49512
24.20834
23.00107
21.23948
19.34576
17.76349
16.79404
16.48307
16.60513
16.75581
16.57088
15.92834
14.95826
13.95233
13.14923
12.53983
11.87039
10.75088
8.869576
6.143463
2.764526
-0.932785
-4.579382
-7.931732
-10.90997
-13.57874
-16.09743
-18.67646
-21.54472
-24.89539
-28.85291
-33.36977
-38.14095
-42.56413
-45.83193
-47.07202
-45.62899
-41.28338
-34.35252
-25.61283
-16.04874
-6.602186
2.064884
9.61636
15.93555
20.99904
24.75784
27.12049
28.10555
27.90119
26.89895
25.61143
24.47837
23.76202
23.50319
23.58181
23.81604
24.08506
24.28167
24.34379
24.20502
23.74274
22.85341
21.47539
19.64685
17.48818
15.15598
12.75262
10.2851
7.700989
4.901314
1.823891
-1.504128
-4.948669
-8.34211
-11.52678
-14.44033
-17.14032
-19.78601
-22.59782
-25.78791
-29.4042
-33.31104
-37.06993
-39.97036
-41.19244
-40.04825
-36.18198
-29.76934
-21.44557
-12.13277
-2.766853
5.948334
13.63498
20.18121
25.59029
29.87095
32.98851
34.9175
35.7259
35.63944
35.02359
34.27885
33.75188
33.58437
33.78531
34.25693
34.83434
35.42226
35.94872
36.34941
36.56836
36.49826
36.0358
35.11092
33.75285
32.04324
30.16725
28.29498
26.55022
24.98912
23.56175
22.17191
20.70851
19.09805
17.30766
15.39561
13.46249
11.64331
10.05728
8.736549
7.592476
6.431541
5.041901
3.271706
1.180466
-1.065292
-3.208405
-5.06279
-6.655525
-8.197357
-10.00232
-12.33189
-15.25557
-18.57078
-21.94466
-25.05283
-27.67746
-29.83836
-31.74847
-33.7338
-36.15289
-39.28307
-43.167
-47.55382
-51.83016
-55.05421
-56.17627
-54.33694
-49.17809
-41.03794
-30.89896
-20.0289
-9.624893
-0.4553146
7.25441
13.64204
18.97655
23.37943
26.7939
29.05803
30.14056
30.22564
29.73238
29.14747
28.83702
28.92316
29.2982
29.73051
30.01735
30.09308
29.99368
29.81528
29.63654
29.45309
29.17177
28.67361
27.83752
26.61943
25.06407
23.27837
21.42315
19.66372
18.09995
16.7731
15.65903
14.68574
13.74093
12.7338
11.63603
10.47453
9.331505
8.265816
7.269775
6.269295
5.147121
3.772297
2.127758
0.2843323
-1.600197
-3.369484
-4.947361
-6.40736
-7.890335
-9.549896
-11.45223
-13.53459
-15.64403
-17.63145
-19.43162
-21.05774
-22.63303
-24.25144
-26.03318
-28.07578
-30.47977
-33.29928
-36.42907
-39.51894
-41.90882
-42.82237
-41.55083
-37.78907
-31.71264
-23.95578
-15.40197
-6.964522
0.6353197
6.962921
11.84043
15.30285
17.48656
18.60582
18.9204
18.72565
18.29567
17.8628
17.59384
17.56354
17.79175
18.22128
18.73696
19.20644
19.52282
19.63024
19.51087
19.24373
18.91673
18.58776
18.25832
17.85389
17.24525
16.32966
15.11838
13.72545
12.3766
11.28068
10.54388
10.11206
9.825779
9.506081
9.029919
8.366417
7.550995
6.610744
5.522942
4.219467
2.653786
0.8633881
-1.035347
-2.865372
-4.50808
-5.906509
-7.123695
-8.265297
-9.430374
-10.66189
-11.96426
-13.33535
-14.73717
-16.1776
-17.63043
-19.07868
-20.48701
-21.87109
-23.30105
-24.8956
-26.78382
-28.96862
-31.22947
-33.08392
-33.92923
-33.19169
-30.5873
-26.22778
-20.57932
-14.3027
-8.026169
-2.190781
2.968285
7.328941
10.80329
13.30627
14.79613
15.36669
15.23283
14.69145
14.01073
13.37981
12.88835
12.56523
12.42494
12.4628
12.67656
12.99323
13.3373
13.61252
13.73451
13.64285
13.31787
12.73645
11.92502
10.96758
9.964203
9.010529
8.128769
7.247986
6.267319
5.122513
3.81842
2.477753
1.28299
0.4080353
-0.06661987
-0.1677551
-0.05619812
0.04258728
-0.08331299
-0.5853729
-1.487045
-2.708954
-4.112091
-5.518463
-6.83931
-8.09584
-9.37825
-10.78835
-12.37637
-14.04488
-15.61942
-16.94244
-17.9543
-18.79608
-19.74393
-21.07329
-22.92847
-25.22462
-27.61633
-29.63142
-30.77205
-30.63281
-29.00894
-25.88995
-21.48743
-16.18712
-10.51233
-4.947586
0.08428955
4.312317
7.655441
10.10376
11.71272
12.52223
12.54842
11.86497
10.6637
9.233551
7.916641
7.011551
6.647018
6.798523
7.319
8.035416
8.797577
9.521851
10.12717
10.55663
10.74716
10.66962
10.3636
9.91568
9.414459
8.874573
8.230103
7.373383
6.326859
5.19986
4.164536
3.369843
2.805389
2.318115
1.706619
0.8282623
-0.3118134
-1.565872
-2.76503
-3.811127
-4.717468
-5.602203
-6.593323
-7.776062
-9.146515
-10.66043
-12.22684
-13.76352
-15.20685
-16.51773
-17.70322
-18.79678
-19.87094
-21.02011
-22.28146
-23.67883
-25.19724
-26.73288
-28.06177
-28.85739
-28.66486
-27.08499
-23.92947
-19.30402
-13.66833
-7.695435
-2.05484
2.787689
6.609619
9.436615
11.35501
12.41431
12.62091
12.01508
10.74905
9.1427
7.615265
6.519226
6.021301
6.11618
6.653137
7.460754
8.421051
9.449463
10.46088
11.30389
11.80032
11.80148
11.28159
10.34351
9.199097
8.069885
7.130341
6.456818
6.017822
5.702667
5.369019
4.853302
4.022614
2.841064
1.388123
-0.1574402
-1.605225
-2.814606
-3.804138
-4.67215
-5.568176
-6.619965
-7.856903
-9.217377
-10.64206
-12.07758
-13.5303
-15.06689
-16.73788
-18.57202
-20.57858
-22.77213
-25.15277
-27.73294
-30.46805
-33.19122
-35.59097
-37.19601
-37.46494
-35.95215
-32.44568
-27.08789
-20.37357
-13.01251
-5.747406
0.819458
6.312653
10.58488
13.61102
15.47028
16.26361
16.13466
15.27298
13.937
12.41501
11.02484
10.04034
9.616898
9.810944
10.56021
11.71266
13.07939
14.48634
15.76802
16.78168
17.40143
17.53114
17.1777
16.43033
15.44879
14.41985
13.4359
12.52898
11.6297
10.62935
9.455521
8.108322
6.664444
5.26709
4.036636
2.992538
2.066437
1.095871
-0.0617981
-1.43515
-2.914352
-4.349258
-5.601715
-6.660828
-7.653717
-8.77594
-10.17693
-11.90572
-13.90506
-16.07417
-18.34059
-20.62535
-22.85324
-24.9377
-26.84065
-28.63319
-30.54333
-32.86488
-35.81886
-39.3185
-42.88472
-45.70178
-46.87639
-45.72949
-42.04507
-36.10146
-28.55336
-20.19652
-11.78513
-3.890152
3.083145
8.878387
13.37964
16.56102
18.51297
19.41959
19.53171
19.14279
18.55589
18.01367
17.69919
17.72397
18.11845
18.85785
19.85638
21.03839
22.33263
23.65823
24.87953
25.80441
26.25345
26.10051
25.34918
24.15094
22.74501
21.3822
20.2128
19.22115
18.27879
17.22738
15.95631
14.46361
12.86661
11.3204
9.907982
8.661507
7.500633
6.326668
5.058434
3.666046
2.177658
0.6240463
-0.9957275
-2.721214
-4.600121
-6.665771
-8.903305
-11.26704
-13.70096
-16.15679
-18.58625
-20.95723
-23.21308
-25.29021
-27.19814
-29.0661
-31.13145
-33.6814
-36.89135
-40.6391
-44.46626
-47.60329
-49.17771
-48.45322
-45.09033
-39.17191
-31.23714
-22.07807
-12.5237
-3.321278
4.969593
12.00939
17.60506
21.69262
24.33084
25.65363
25.8967
25.37494
24.44038
23.45143
22.70023
22.37778
22.56181
23.22871
24.2817
25.60262
27.04827
28.46729
29.70346
30.56228
30.89059
30.59634
29.71777
28.40787
26.87865
25.32093
23.84393
22.46171
21.1312
19.78688
18.38676
16.94726
15.49892
14.09257
12.74837
11.4328
10.0929
8.659731
7.088674
5.380109
3.593714
1.8348
0.1842184
-1.334048
-2.768799
-4.2518
-5.883397
-7.738837
-9.821968
-12.09771
-14.4856
-16.93101
-19.40043
-21.92387
-24.60195
-27.57429
-31.00497
-34.95557
-39.36155
-43.93087
-48.14686
-51.30382
-52.64622
-51.54331
-47.67052
-41.15023
-32.52825
-22.69196
-12.58456
-3.019653
5.452019
12.57345
18.25938
22.5257
25.37299
26.87376
27.19475
26.63
25.58873
24.46339
23.56193
23.04986
22.9829
23.33145
24.03065
25.01186
26.15586
27.34089
28.34717
28.98106
29.07471
28.56881
27.50872
26.01054
24.22609
22.27398
20.2961
18.37821
16.60413
14.9734
13.45381
11.94659
10.36158
8.678322
6.936485
5.305855
3.931541
2.896172
2.101189
1.316269
0.2429276
-1.335968
-3.461472
-6.058029
-8.914047
-11.82108
-14.62314
-17.24946
-19.71633
-22.08385
-24.4752
-27.00586
-29.82597
-32.97899
-36.36581
-39.63857
-42.21999
-43.43582
-42.67915
-39.62878
-34.32488
-27.18934
-18.84088
-9.976875
-1.228233
6.880447
13.90056
19.44171
23.1997
25.03316
25.04322
23.62829
21.39709
19.02761
17.11049
16.00195
15.79749
16.37991
17.50489
18.91978
20.40686
21.80122
22.96244
23.76471
24.06313
23.76789
22.87527
21.50388
19.84214
18.06238
16.28078
14.5242
12.77582
11.00615
9.236366
7.539772
6.005936
4.664108
3.477989
2.330261
1.075829
-0.3940125
-2.132881
-4.118919
-6.27404
-8.518669
-10.78342
-13.01783
-15.20702
-17.39929
-19.65959
-22.09676
-24.77693
-27.75739
-31.01897
-34.41412
-37.57989
-39.95527
-40.87309
-39.70609
-36.13737
-30.25953
-22.60393
-14.00321
-5.353241
2.623047
9.44754
14.89067
18.89216
21.42277
22.54399
22.403
21.32061
19.74358
18.17623
17.03166
16.56081
16.81689
17.68559
18.97829
20.49545
22.03316
23.40018
24.39783
24.84471
24.61842
23.69489
22.14268
20.10199
17.75514
15.26154
12.76548
10.3691
8.135178
6.110718
4.309311
2.727074
1.330452
0.06645966
-1.147591
-2.409935
-3.873917
-5.675682
-7.892609
-10.50829
-13.37585
-16.27959
-18.99032
-21.36967
-23.44362
-25.42628
-27.64253
-30.3768
-33.73236
-37.53658
-41.31679
-44.37518
-45.94955
-45.41041
-42.388
-36.91303
-29.40044
-20.56479
-11.24078
-2.202133
5.998093
13.06157
18.82909
23.26245
26.28441
27.83548
28.00443
27.10732
25.65533
24.27353
23.46324
23.43318
24.14063
25.31009
26.58754
27.70479
28.49461
28.90009
28.95198
28.71925
28.2598
27.6254
26.78735
25.68425
24.32024
22.73137
21.03893
19.42307
18.01253
16.83995
15.85149
14.91959
13.90973
12.77853
11.50905
10.16451
8.826263
7.525162
6.276161
5.043533
3.744423
2.275726
0.6061249
-1.228203
-3.095886
-4.827118
-6.351883
-7.751556
-9.211136
-10.98921
-13.25308
-15.97458
-18.97092
-21.97272
-24.72155
-27.10619
-29.13746
-30.91692
-32.64467
-34.52059
-36.76926
-39.5673
-42.98067
-46.81288
-50.57749
-53.52318
-54.81516
-53.76793
-50.02766
-43.70677
-35.33798
-25.73892
-15.78936
-6.260643
2.296928
9.578423
15.49422
20.08521
23.44946
25.68513
26.91222
27.29464
27.08308
26.60227
26.18045
26.04239
26.257
26.75786
27.39543
28.03889
28.60968
29.0769
29.39737
29.52876
29.39912
28.9711
28.24823
27.27312
26.1188
24.85754
23.53815
22.1914
20.84598
19.49472
18.11799
16.70972
15.28812
13.92017
12.68819
11.642
10.74684
9.884575
8.90612
7.660408
6.117996
4.34539
2.461929
0.5710678
-1.297241
-3.187637
-5.155617
-7.223274
-9.359978
-11.50268
-13.59808
-15.66753
-17.78207
-20.00682
-22.33808
-24.65502
-26.78943
-28.62972
-30.23582
-31.85481
-33.85556
-36.5494
-39.99895
-43.87154
-47.45514
-49.82177
-50.09866
-47.72771
-42.65273
-35.29885
-26.41617
-16.93269
-7.668869
0.7471237
7.949738
13.79254
18.26154
21.39265
23.27917
24.0881
24.06573
23.53333
22.83281
22.24204
21.93736
21.94196
22.20295
22.63824
23.21014
23.91884
24.72778
25.55255
26.23502
26.60398
26.51211
25.89822
24.77686
23.232
21.42587
19.52902
17.70741
16.08658
14.71237
13.52877
12.45299
11.37279
10.22175
8.991447
7.727211
6.460526
5.212154
3.958836
2.650715
1.249603
-0.2487335
-1.834633
-3.458069
-5.093967
-6.754803
-8.5257
-10.53703
-12.86559
-15.50592
-18.31528
-21.06626
-23.55085
-25.66977
-27.49743
-29.2326
-31.15535
-33.47547
-36.27092
-39.39862
-42.49775
-45.04865
-46.47358
-46.22314
-43.91917
-39.45952
-33.07088
-25.28582
-16.84192
-8.479656
-0.7800407
5.902802
11.45125
15.87285
19.16496
21.29256
22.20275
21.94993
20.77628
19.13177
17.55003
16.50284
16.21806
16.68573
17.68266
18.91372
20.13275
21.19964
22.07544
22.71823
23.05489
22.96374
22.33931
21.14816
19.46186
17.47637
15.42382
13.54589
11.971
10.69973
9.611347
8.545727
7.389206
6.10177
4.757772
3.461529
2.290676
1.226746
0.1628342
-1.067776
-2.601192
-4.476873
-6.646858
-8.951746
-11.25181
-13.43513
-15.43375
-17.27132
-19.00698
-20.74983
-22.58702
-24.62159
-26.90511
-29.51439
-32.43324
-35.49094
-38.35096
-40.48849
-41.35151
-40.46288
-37.58678
-32.80576
-26.51134
-19.28649
-11.75646
-4.465189
2.227486
8.079956
12.93448
16.62528
19.04017
20.12874
20.05061
19.14346
17.87291
16.73855
16.08374
16.01727
16.43977
17.12584
17.88138
18.5968
19.25642
19.83376
20.27037
20.43771
20.18678
19.42923
18.17834
16.59462
14.86857
13.15091
11.51352
9.934723
8.362185
6.738527
5.084286
3.417515
1.762127
0.1194057
-1.5574
-3.30084
-5.110741
-6.924509
-8.694361
-10.40076
-12.12604
-13.96188
-15.97622
-18.15542
-20.38563
-22.57297
-24.69167
-26.86529
-29.30235
-32.16885
-35.44283
-38.82767
-41.75432
-43.5263
-43.49855
-41.23681
-36.65629
-30.04233
-21.99872
-13.29759
-4.722416
3.094795
9.728333
14.95203
18.67701
20.91659
21.77929
21.52378
20.55071
19.38179
18.51151
18.23549
18.62161
19.52287
20.69193
21.89929
23.04001
24.04798
24.90714
25.56023
25.90113
25.83255
25.2939
24.32567
23.0126
21.47781
19.78032
17.94856
15.99461
13.95091
11.90813
9.989758
8.318264
6.940071
5.80167
4.745235
3.594048
2.240494
0.6603661
-1.050976
-2.790188
-4.507988
-6.203011
-7.960037
-9.90519
-12.1185
-14.60666
-17.30596
-20.05367
-22.70234
-25.14477
-27.36621
-29.45071
-31.56803
-33.90975
-36.64225
-39.86579
-43.4575
-47.05227
-49.99475
-51.47802
-50.75209
-47.39447
-41.44493
-33.42008
-24.17443
-14.59156
-5.432182
2.821632
9.908119
15.7003
20.13364
23.20866
24.98964
25.70136
25.69979
25.36399
25.07581
25.06344
25.38029
25.95253
26.62857
27.24731
27.74268
28.12199
28.4219
28.67773
28.8512
28.81334
28.40965
27.53901
26.16006
24.37746
22.40545
20.47744
18.82787
17.60892
16.82873
16.39125
16.09052
15.68244
14.96893
13.86189
12.42582
10.83523
9.243217
7.69606
6.113754
4.306885
2.147972
-0.300499
-2.809341
-5.071182
-6.882614
-8.300865
-9.62146
-11.19724
-13.25301
-15.73796
-18.38843
-20.88857
-23.06667
-24.94342
-26.74631
-28.72885
-31.08573
-33.92754
-37.26064
-40.97322
-44.76091
-48.07739
-50.14122
-50.15486
-47.53307
-42.17844
-34.54227
-25.47076
-15.95364
-6.851219
1.298065
8.2724
14.07005
18.77242
22.45074
25.10555
26.73096
27.36179
27.10493
26.21262
25.0261
23.90312
23.14888
22.91517
23.17249
23.76025
24.45258
25.02384
25.38049
25.52493
25.543
25.50721
25.42035
25.20772
24.786
24.1244
23.28905
22.41732
21.6403
20.95612
20.26678
19.38977
18.16479
16.55179
14.6761
12.73209
10.95676
9.470108
8.255203
7.196701
6.0933
4.795414
3.252293
1.529102
-0.2489052
-1.959583
-3.537491
-4.993282
-6.385654
-7.811153
-9.369991
-11.12797
-13.10685
-15.2924
-17.6201
-19.98978
-22.30758
-24.49814
-26.56237
-28.58034
-30.70298
-33.11599
-35.98807
-39.31568
-42.82436
-45.94715
-47.88033
-47.82401
-45.23782
-40.0658
-32.74727
-24.11463
-15.08779
-6.418304
1.403725
8.165497
13.79365
18.25941
21.50229
23.50074
24.31073
24.18448
23.51317
22.72909
22.19304
22.05717
22.27157
22.66314
23.04769
23.29834
23.40956
23.44194
23.43124
23.38758
23.26229
22.98708
22.53102
21.91459
21.15125
20.27411
19.29364
18.17835
16.94953
15.64806
14.34257
13.10959
11.96261
10.87392
9.792246
8.684422
7.546961
6.42676
5.327883
4.197021
2.916805
1.37014
-0.458457
-2.454622
-4.417594
-6.169105
-7.655904
-9.014814
-10.45472
-12.15146
-14.13843
-16.30319
-18.48672
-20.58409
-22.62389
-24.72617
-27.05139
-29.69922
-32.644
-35.71389
-38.60191
-40.88532
-42.08705
-41.70372
-39.34668
-34.87571
-28.47295
-20.67982
-12.25774
-4.026601
3.366698
9.519661
14.3056
17.79707
20.10366
21.31593
21.47512
20.67873
19.15132
17.25889
15.48956
14.27708
13.9074
14.39249
15.49953
16.84054
18.03096
18.81801
19.13778
19.1031
18.84966
18.50759
18.06796
17.4412
16.47324
15.11388
13.43296
11.62503
9.958237
8.601511
7.615187
6.914055
6.360317
5.776737
5.06163
4.1558
3.029236
1.724171
0.2785454
-1.213425
-2.683014
-4.093433
-5.484444
-6.953644
-8.580166
-10.37247
-12.22767
-14.02245
-15.66325
-17.19096
-18.74995
-20.47788
-22.45916
-24.68148
-27.08601
-29.56287
-31.97564
-34.08035
-35.45031
-35.57546
-33.96499
-30.38583
-25.00934
-18.39546
-11.28523
-4.409939
1.7201
6.863323
10.90683
13.79972
15.49405
15.97565
15.3829
14.06129
12.49377
11.18903
10.49642
10.53221
11.19678
12.24755
13.40334
14.44666
15.26253
15.81729
16.12127
16.18084
15.9483
15.34699
14.31449
12.84041
11.03782
9.140579
7.375549
5.901863
4.726677
3.702202
2.670746
1.518661
0.2591629
-1.012222
-2.2033
-3.359871
-4.615234
-6.147209
-8.047501
-10.25489
-12.61356
-14.91376
-17.02834
-18.96985
-20.8483
-22.80414
-24.92351
-27.20559
-29.53674
-31.71645
-33.44391
-34.3474
-34.03365
-32.17293
-28.60966
-23.46251
-17.14421
-10.23337
-3.352753
2.960793
8.336227
12.56281
15.54513
17.24846
17.74349
17.21062
15.992
14.54067
13.30157
12.62516
12.66271
13.37842
14.56267
15.94344
17.23187
18.20103
18.67966
18.60055
17.97263
16.89617
15.52199
13.99332
12.44358
10.90574
9.360313
7.725021
5.951393
4.032303
2.040543
0.1007385
-1.640831
-3.092003
-4.279144
-5.323265
-6.403564
-7.690582
-9.24157
-11.00896
-12.87193
-14.69346
-16.43806
-18.15985
-19.98219
-22.03684
-24.41773
-27.16415
-30.25637
-33.58028
-36.90506
-39.77905
-41.62491
-41.78836
-39.80713
-35.61509
-29.56933
-22.32034
-14.62355
-7.101189
-0.1397934
6.061241
11.38172
15.69255
18.84997
20.74757
21.46073
21.21545
20.39537
19.42038
18.66643
18.36589
18.59673
19.28879
20.2414
21.24084
22.06341
22.6004
22.81121
22.74077
22.4417
21.95079
21.28515
20.42672
19.35121
18.0311
16.51208
14.90914
13.37267
12.05666
11.01326
10.20112
9.412533
8.419662
7.059517
5.324871
3.403782
1.543804
-0.05664063
-1.387672
-2.600945
-3.961548
-5.657444
-7.754673
-10.1577
-12.70795
-15.22534
-17.5602
-19.64318
-21.43586
-22.99514
-24.40109
-25.7915
-27.3241
-29.20076
-31.5602
-34.4016
-37.50974
-40.36445
-42.22972
-42.29699
-40.00084
-35.22981
-28.43093
-20.47718
-12.36107
-4.874054
1.577766
6.994793
11.57835
15.51231
18.7915
21.25642
22.75187
23.26815
23.02341
22.44461
21.96479
21.88771
22.27973
23.00852
23.86505
24.67565
25.38688
26.03764
26.67041
27.24826
27.62397
27.61494
27.07092
25.95377
24.35477
22.48281
20.55525
18.75084
17.15704
15.75649
14.46144
13.20696
11.94749
10.72108
9.616293
8.725227
8.084129
7.612232
7.149055
6.493416
5.492422
4.108147
2.412722
0.5351944
-1.362928
-3.16778
-4.75596
-6.052519
-7.064564
-7.898643
-8.798916
-10.05059
-11.86426
-14.25778
-17.01555
-19.75639
-22.15075
-24.03287
-25.48669
-26.77672
-28.24868
-30.18011
-32.72994
-35.84859
-39.26323
-42.46751
-44.78611
-45.46854
-43.92086
-39.92413
-33.72657
-25.99873
-17.62545
-9.455515
-2.078234
4.207806
9.410732
13.62253
16.93779
19.35307
20.81609
21.35388
21.11292
20.43125
19.69915
19.26682
19.29181
19.73491
20.41064
21.10785
21.6821
22.10217
22.39516
22.59002
22.67111
22.56341
22.18692
21.5242
20.59742
19.5085
18.37491
17.33028
16.45382
15.73906
15.07341
14.29661
13.29751
12.05142
10.6756
9.342436
8.193277
7.234417
6.327213
5.266052
3.882799
2.159866
0.1958237
-1.842981
-3.825981
-5.70845
-7.512627
-9.26524
-10.96098
-12.56084
-13.99333
-15.26103
-16.42032
-17.6023
-18.95457
-20.59991
-22.65512
-25.16972
-28.17683
-31.61069
-35.24049
-38.60786
-41.09975
-42.04536
-40.91646
-37.49679
-31.96712
-24.8712
-16.9197
-8.860838
-1.306847
5.320324
10.73597
14.79324
17.47866
18.91307
19.34415
19.0909
18.48316
17.7926
17.24635
16.96412
16.9969
17.32562
17.885
18.60947
19.41024
20.21435
20.92715
21.4425
21.59161
21.205
20.17691
18.55241
16.57568
14.57448
12.84025
11.49138
10.49334
9.674644
8.876122
7.998348
7.023018
5.958401
4.815203
3.571056
2.204029
0.7289734
-0.8199749
-2.414108
-4.04096
-5.702234
-7.381588
-9.055716
-10.71852
-12.37502
-14.06165
-15.81115
-17.63152
-19.51087
-21.45815
-23.53949
-25.84312
-28.38278
-30.99198
-33.25815
-34.58735
-34.42176
-32.37813
-28.41822
-22.87084
-16.28128
-9.28537
-2.460594
3.755798
9.095955
13.37727
16.4811
18.3004
18.79119
18.05369
16.44576
14.51369
12.89619
12.11925
12.38658
13.49307
14.96719
16.26133
17.01859
17.17591
16.89379
16.41705
15.89485
15.33349
14.65072
13.74968
12.60559
11.28373
9.883101
8.508528
7.204597
5.963692
4.716652
3.405773
2.001356
0.5057716
-1.052139
-2.640299
-4.249828
-5.903555
-7.632946
-9.485395
-11.43855
-13.4211
-15.34364
-17.17486
-18.94362
-20.81903
-23.00509
-25.65793
-28.7584
-32.0246
-34.94616
-36.87653
-37.23807
-35.64918
-32.02895
-26.6181
-19.85903
-12.35328
-4.725534
2.480986
8.80044
13.94462
17.75373
