1570289692.06452
1570289692.08014
1570289692.09577
1570289692.1114
1570289692.12702
1570289692.14265
1570289692.15827
1570289692.1739
1570289692.18952
1570289692.20515
1570289692.22078
1570289692.2364
1570289692.25203
1570289692.26765
1570289692.28328
1570289692.2989
1570289692.31453
1570289692.33016
1570289692.34578
1570289692.36141
1570289692.37703
1570289692.39266
1570289692.40829
1570289692.42391
1570289692.43954
1570289692.45516
1570289692.47079
1570289692.48641
1570289692.50204
1570289692.51767
1570289692.53329
1570289692.54892
1570289692.56454
1570289692.58017
1570289692.59579
1570289692.61142
1570289692.62705
1570289692.64267
1570289692.6583
1570289692.67392
1570289692.68955
1570289692.70517
1570289692.7208
1570289692.73643
1570289692.75205
1570289692.76768
1570289692.7833
1570289692.79893
1570289692.81455
1570289692.83018
1570289692.84581
1570289692.86143
1570289692.87706
1570289692.89268
1570289692.90831
1570289692.92393
1570289692.93956
1570289692.95519
1570289692.97081
1570289692.98644
1570289693.00206
1570289693.01769
1570289693.03331
1570289693.04894
1570289693.06457
1570289693.08019
1570289693.09582
1570289693.11144
1570289693.12707
1570289693.14269
1570289693.15832
1570289693.17395
1570289693.18957
1570289693.2052
1570289693.22082
1570289693.23645
1570289693.25207
1570289693.2677
1570289693.28333
1570289693.29895
1570289693.31458
1570289693.3302
1570289693.34583
1570289693.36145
1570289693.37708
1570289693.39271
1570289693.40833
1570289693.42396
1570289693.43958
1570289693.45521
1570289693.47083
1570289693.48646
1570289693.50209
1570289693.51771
1570289693.53334
1570289693.54896
1570289693.56459
1570289693.58021
1570289693.59584
1570289693.61147
1570289693.62709
1570289693.64272
1570289693.65834
1570289693.67397
1570289693.68959
1570289693.70522
1570289693.72085
1570289693.73647
1570289693.7521
1570289693.76772
1570289693.78335
1570289693.79897
1570289693.8146
1570289693.83023
1570289693.84585
1570289693.86148
1570289693.8771
1570289693.89273
1570289693.90835
1570289693.92398
1570289693.93961
1570289693.95523
1570289693.97086
1570289693.98648
1570289694.00211
1570289694.01773
1570289694.03336
1570289694.04899
1570289694.06461
1570289694.08024
1570289694.09586
1570289694.11149
1570289694.12711
1570289694.14274
1570289694.15837
1570289694.17399
1570289694.18962
1570289694.20524
1570289694.22087
1570289694.23649
1570289694.25212
1570289694.26775
1570289694.28337
1570289694.299
1570289694.31462
1570289694.33025
1570289694.34587
1570289694.3615
1570289694.37713
1570289694.39275
1570289694.40838
1570289694.424
1570289694.43963
1570289694.45525
1570289694.47088
1570289694.48651
1570289694.50213
1570289694.51776
1570289694.53338
1570289694.54901
1570289694.56464
1570289694.58026
1570289694.59589
1570289694.61151
1570289694.62714
1570289694.64276
1570289694.65839
1570289694.67402
1570289694.68964
1570289694.70527
1570289694.72089
1570289694.73652
1570289694.75214
1570289694.76777
1570289694.7834
1570289694.79902
1570289694.81465
1570289694.83027
1570289694.8459
1570289694.86152
1570289694.87715
1570289694.89278
1570289694.9084
1570289694.92403
1570289694.93965
1570289694.95528
1570289694.9709
1570289694.98653
1570289695.00216
1570289695.01778
1570289695.03341
1570289695.04903
1570289695.06466
1570289695.08028
1570289695.09591
1570289695.11154
1570289695.12716
1570289695.14279
1570289695.15841
1570289695.17404
1570289695.18966
1570289695.20529
1570289695.22092
1570289695.23654
1570289695.25217
1570289695.26779
1570289695.28342
1570289695.29904
1570289695.31467
1570289695.3303
1570289695.34592
1570289695.36155
1570289695.37717
1570289695.3928
1570289695.40842
1570289695.42405
1570289695.43968
1570289695.4553
1570289695.47093
1570289695.48655
1570289695.50218
1570289695.5178
1570289695.53343
1570289695.54906
1570289695.56468
1570289695.58031
1570289695.59593
1570289695.61156
1570289695.62718
1570289695.64281
1570289695.65844
1570289695.67406
1570289695.68969
1570289695.70531
1570289695.72094
1570289695.73656
1570289695.75219
1570289695.76782
1570289695.78344
1570289695.79907
1570289695.81469
1570289695.83032
1570289695.84594
1570289695.86157
1570289695.8772
1570289695.89282
1570289695.90845
1570289695.92407
1570289695.9397
1570289695.95532
1570289695.97095
1570289695.98658
1570289696.0022
1570289696.01783
1570289696.03345
1570289696.04908
1570289696.0647
1570289696.08033
1570289696.09596
1570289696.11158
1570289696.12721
1570289696.14283
1570289696.15846
1570289696.17408
1570289696.18971
1570289696.20534
1570289696.22096
1570289696.23659
1570289696.25221
1570289696.26784
1570289696.28346
1570289696.29909
1570289696.31472
1570289696.33034
1570289696.34597
1570289696.36159
1570289696.37722
1570289696.39284
1570289696.40847
1570289696.4241
1570289696.43972
1570289696.45535
1570289696.47097
1570289696.4866
1570289696.50222
1570289696.51785
1570289696.53348
1570289696.5491
1570289696.56473
1570289696.58035
1570289696.59598
1570289696.6116
1570289696.62723
1570289696.64286
1570289696.65848
1570289696.67411
1570289696.68973
1570289696.70536
1570289696.72098
1570289696.73661
1570289696.75224
1570289696.76786
1570289696.78349
1570289696.79911
1570289696.81474
1570289696.83036
1570289696.84599
1570289696.86162
1570289696.87724
1570289696.89287
1570289696.90849
1570289696.92412
1570289696.93974
1570289696.95537
1570289696.971
1570289696.98662
1570289697.00225
1570289697.01787
1570289697.0335
1570289697.04912
1570289697.06475
1570289697.08038
1570289697.096
1570289697.11163
1570289697.12725
1570289697.14288
1570289697.1585
1570289697.17413
1570289697.18976
1570289697.20538
1570289697.22101
1570289697.23663
1570289697.25226
1570289697.26789
1570289697.28351
1570289697.29914
1570289697.31476
1570289697.33039
1570289697.34601
1570289697.36164
1570289697.37727
1570289697.39289
1570289697.40852
1570289697.42414
1570289697.43977
1570289697.45539
1570289697.47102
1570289697.48665
1570289697.50227
1570289697.5179
1570289697.53352
1570289697.54915
1570289697.56477
1570289697.5804
1570289697.59603
1570289697.61165
1570289697.62728
1570289697.6429
1570289697.65853
1570289697.67415
1570289697.68978
1570289697.70541
1570289697.72103
1570289697.73666
1570289697.75228
1570289697.76791
1570289697.78353
1570289697.79916
1570289697.81479
1570289697.83041
1570289697.84604
1570289697.86166
1570289697.87729
1570289697.89291
1570289697.90854
1570289697.92417
1570289697.93979
1570289697.95542
1570289697.97104
1570289697.98667
1570289698.00229
1570289698.01792
1570289698.03355
1570289698.04917
1570289698.0648
1570289698.08042
1570289698.09605
1570289698.11167
1570289698.1273
1570289698.14293
1570289698.15855
1570289698.17418
1570289698.1898
1570289698.20543
1570289698.22105
1570289698.23668
1570289698.25231
1570289698.26793
1570289698.28356
1570289698.29918
1570289698.31481
1570289698.33043
1570289698.34606
1570289698.36169
1570289698.37731
1570289698.39294
1570289698.40856
1570289698.42419
1570289698.43981
1570289698.45544
1570289698.47107
1570289698.48669
1570289698.50232
1570289698.51794
1570289698.53357
1570289698.54919
1570289698.56482
1570289698.58045
1570289698.59607
1570289698.6117
1570289698.62732
1570289698.64295
1570289698.65857
1570289698.6742
1570289698.68983
1570289698.70545
1570289698.72108
1570289698.7367
1570289698.75233
1570289698.76795
1570289698.78358
1570289698.79921
1570289698.81483
1570289698.83046
1570289698.84608
1570289698.86171
1570289698.87733
1570289698.89296
1570289698.90859
1570289698.92421
1570289698.93984
1570289698.95546
1570289698.97109
1570289698.98671
1570289699.00234
1570289699.01797
1570289699.03359
1570289699.04922
1570289699.06484
1570289699.08047
1570289699.09609
1570289699.11172
1570289699.12735
1570289699.14297
1570289699.1586
1570289699.17422
1570289699.18985
1570289699.20547
1570289699.2211
1570289699.23673
1570289699.25235
1570289699.26798
1570289699.2836
1570289699.29923
1570289699.31485
1570289699.33048
1570289699.34611
1570289699.36173
1570289699.37736
1570289699.39298
1570289699.40861
1570289699.42424
1570289699.43986
1570289699.45549
1570289699.47111
1570289699.48674
1570289699.50236
1570289699.51799
1570289699.53362
1570289699.54924
1570289699.56487
1570289699.58049
1570289699.59612
1570289699.61174
1570289699.62737
1570289699.643
1570289699.65862
1570289699.67425
1570289699.68987
1570289699.7055
1570289699.72112
1570289699.73675
1570289699.75238
1570289699.768
1570289699.78363
1570289699.79925
1570289699.81488
1570289699.8305
1570289699.84613
1570289699.86176
1570289699.87738
1570289699.89301
1570289699.90863
1570289699.92426
1570289699.93988
1570289699.95551
1570289699.97114
1570289699.98676
1570289700.00239
1570289700.01801
1570289700.03364
1570289700.04926
1570289700.06489
1570289700.08052
1570289700.09614
1570289700.11177
1570289700.12739
1570289700.14302
1570289700.15864
1570289700.17427
1570289700.1899
1570289700.20552
1570289700.22115
1570289700.23677
1570289700.2524
1570289700.26802
1570289700.28365
1570289700.29928
1570289700.3149
1570289700.33053
1570289700.34615
1570289700.36178
1570289700.3774
1570289700.39303
1570289700.40866
1570289700.42428
1570289700.43991
1570289700.45553
1570289700.47116
1570289700.48678
1570289700.50241
1570289700.51804
1570289700.53366
1570289700.54929
1570289700.56491
1570289700.58054
1570289700.59616
1570289700.61179
1570289700.62742
1570289700.64304
1570289700.65867
1570289700.67429
1570289700.68992
1570289700.70554
1570289700.72117
1570289700.7368
1570289700.75242
1570289700.76805
1570289700.78367
1570289700.7993
1570289700.81492
1570289700.83055
1570289700.84618
1570289700.8618
1570289700.87743
1570289700.89305
1570289700.90868
1570289700.9243
1570289700.93993
1570289700.95556
1570289700.97118
1570289700.98681
1570289701.00243
1570289701.01806
1570289701.03368
1570289701.04931
1570289701.06494
1570289701.08056
1570289701.09619
1570289701.11181
1570289701.12744
1570289701.14306
1570289701.15869
1570289701.17432
1570289701.18994
1570289701.20557
1570289701.22119
1570289701.23682
1570289701.25244
1570289701.26807
1570289701.2837
1570289701.29932
1570289701.31495
1570289701.33057
1570289701.3462
1570289701.36182
1570289701.37745
1570289701.39308
1570289701.4087
1570289701.42433
1570289701.43995
1570289701.45558
1570289701.4712
1570289701.48683
1570289701.50246
1570289701.51808
1570289701.53371
1570289701.54933
1570289701.56496
1570289701.58058
1570289701.59621
1570289701.61184
1570289701.62746
1570289701.64309
1570289701.65871
1570289701.67434
1570289701.68997
1570289701.70559
1570289701.72122
1570289701.73684
1570289701.75247
1570289701.76809
1570289701.78372
1570289701.79935
1570289701.81497
1570289701.8306
1570289701.84622
1570289701.86185
1570289701.87747
1570289701.8931
1570289701.90873
1570289701.92435
1570289701.93998
1570289701.9556
1570289701.97123
1570289701.98685
1570289702.00248
1570289702.01811
1570289702.03373
1570289702.04936
1570289702.06498
1570289702.08061
1570289702.09623
1570289702.11186
1570289702.12749
1570289702.14311
1570289702.15874
1570289702.17436
1570289702.18999
1570289702.20561
1570289702.22124
1570289702.23687
1570289702.25249
1570289702.26812
1570289702.28374
1570289702.29937
1570289702.31499
1570289702.33062
1570289702.34625
1570289702.36187
1570289702.3775
1570289702.39312
1570289702.40875
1570289702.42437
1570289702.44
1570289702.45563
1570289702.47125
1570289702.48688
1570289702.5025
1570289702.51813
1570289702.53375
1570289702.54938
1570289702.56501
1570289702.58063
1570289702.59626
1570289702.61188
1570289702.62751
1570289702.64313
1570289702.65876
1570289702.67439
1570289702.69001
1570289702.70564
1570289702.72126
1570289702.73689
1570289702.75251
1570289702.76814
1570289702.78377
1570289702.79939
1570289702.81502
1570289702.83064
1570289702.84627
1570289702.86189
1570289702.87752
1570289702.89315
1570289702.90877
1570289702.9244
1570289702.94002
1570289702.95565
1570289702.97127
1570289702.9869
1570289703.00253
1570289703.01815
1570289703.03378
1570289703.0494
1570289703.06503
1570289703.08065
1570289703.09628
1570289703.11191
1570289703.12753
1570289703.14316
1570289703.15878
1570289703.17441
1570289703.19003
1570289703.20566
1570289703.22129
1570289703.23691
1570289703.25254
1570289703.26816
1570289703.28379
1570289703.29941
1570289703.31504
1570289703.33067
1570289703.34629
1570289703.36192
1570289703.37754
1570289703.39317
1570289703.40879
1570289703.42442
1570289703.44005
1570289703.45567
1570289703.4713
1570289703.48692
1570289703.50255
1570289703.51817
1570289703.5338
1570289703.54943
1570289703.56505
1570289703.58068
1570289703.5963
1570289703.61193
1570289703.62755
1570289703.64318
1570289703.65881
1570289703.67443
1570289703.69006
1570289703.70568
1570289703.72131
1570289703.73693
1570289703.75256
1570289703.76819
1570289703.78381
1570289703.79944
1570289703.81506
1570289703.83069
1570289703.84631
1570289703.86194
1570289703.87757
1570289703.89319
1570289703.90882
1570289703.92444
1570289703.94007
1570289703.95569
1570289703.97132
1570289703.98695
1570289704.00257
1570289704.0182
1570289704.03382
1570289704.04945
1570289704.06507
1570289704.0807
1570289704.09633
1570289704.11195
1570289704.12758
1570289704.1432
1570289704.15883
1570289704.17445
1570289704.19008
1570289704.20571
1570289704.22133
1570289704.23696
1570289704.25258
1570289704.26821
1570289704.28384
1570289704.29946
1570289704.31509
1570289704.33071
1570289704.34634
1570289704.36196
1570289704.37759
1570289704.39322
1570289704.40884
1570289704.42447
1570289704.44009
1570289704.45572
1570289704.47134
1570289704.48697
1570289704.5026
1570289704.51822
1570289704.53385
1570289704.54947
1570289704.5651
1570289704.58072
1570289704.59635
1570289704.61198
1570289704.6276
1570289704.64323
1570289704.65885
1570289704.67448
1570289704.6901
1570289704.70573
1570289704.72136
1570289704.73698
1570289704.75261
1570289704.76823
1570289704.78386
1570289704.79948
1570289704.81511
1570289704.83074
1570289704.84636
1570289704.86199
1570289704.87761
1570289704.89324
1570289704.90886
1570289704.92449
1570289704.94012
1570289704.95574
1570289704.97137
1570289704.98699
1570289705.00262
1570289705.01824
1570289705.03387
1570289705.0495
1570289705.06512
1570289705.08075
1570289705.09637
1570289705.112
1570289705.12762
1570289705.14325
1570289705.15888
1570289705.1745
1570289705.19013
1570289705.20575
1570289705.22138
1570289705.237
1570289705.25263
1570289705.26826
1570289705.28388
1570289705.29951
1570289705.31513
1570289705.33076
1570289705.34638
1570289705.36201
1570289705.37764
1570289705.39326
1570289705.40889
1570289705.42451
1570289705.44014
1570289705.45576
1570289705.47139
1570289705.48702
1570289705.50264
1570289705.51827
1570289705.53389
1570289705.54952
1570289705.56514
1570289705.58077
1570289705.5964
1570289705.61202
1570289705.62765
1570289705.64327
1570289705.6589
1570289705.67452
1570289705.69015
1570289705.70578
1570289705.7214
1570289705.73703
1570289705.75265
1570289705.76828
1570289705.7839
1570289705.79953
1570289705.81516
1570289705.83078
1570289705.84641
1570289705.86203
1570289705.87766
1570289705.89328
1570289705.90891
1570289705.92454
1570289705.94016
1570289705.95579
1570289705.97141
1570289705.98704
1570289706.00266
1570289706.01829
1570289706.03392
1570289706.04954
1570289706.06517
1570289706.08079
1570289706.09642
1570289706.11204
1570289706.12767
1570289706.1433
1570289706.15892
1570289706.17455
1570289706.19017
1570289706.2058
1570289706.22142
1570289706.23705
1570289706.25268
1570289706.2683
1570289706.28393
1570289706.29955
1570289706.31518
1570289706.3308
1570289706.34643
1570289706.36206
1570289706.37768
1570289706.39331
1570289706.40893
1570289706.42456
1570289706.44018
1570289706.45581
1570289706.47144
1570289706.48706
1570289706.50269
1570289706.51831
1570289706.53394
1570289706.54957
1570289706.56519
1570289706.58082
1570289706.59644
1570289706.61207
1570289706.62769
1570289706.64332
1570289706.65895
1570289706.67457
1570289706.6902
1570289706.70582
1570289706.72145
1570289706.73707
1570289706.7527
1570289706.76833
1570289706.78395
1570289706.79958
1570289706.8152
1570289706.83083
1570289706.84645
1570289706.86208
1570289706.87771
1570289706.89333
1570289706.90896
1570289706.92458
1570289706.94021
1570289706.95583
1570289706.97146
1570289706.98709
1570289707.00271
1570289707.01834
1570289707.03396
1570289707.04959
1570289707.06521
1570289707.08084
1570289707.09647
1570289707.11209
1570289707.12772
1570289707.14334
1570289707.15897
1570289707.17459
1570289707.19022
1570289707.20585
1570289707.22147
1570289707.2371
1570289707.25272
1570289707.26835
1570289707.28397
1570289707.2996
1570289707.31523
1570289707.33085
1570289707.34648
1570289707.3621
1570289707.37773
1570289707.39335
1570289707.40898
1570289707.42461
1570289707.44023
1570289707.45586
1570289707.47148
1570289707.48711
1570289707.50273
1570289707.51836
1570289707.53399
1570289707.54961
1570289707.56524
1570289707.58086
1570289707.59649
1570289707.61211
1570289707.62774
1570289707.64337
1570289707.65899
1570289707.67462
1570289707.69024
1570289707.70587
1570289707.72149
1570289707.73712
1570289707.75275
1570289707.76837
1570289707.784
1570289707.79962
1570289707.81525
1570289707.83087
1570289707.8465
1570289707.86213
1570289707.87775
1570289707.89338
1570289707.909
1570289707.92463
1570289707.94025
1570289707.95588
1570289707.97151
1570289707.98713
1570289708.00276
1570289708.01838
1570289708.03401
1570289708.04963
1570289708.06526
1570289708.08089
1570289708.09651
1570289708.11214
1570289708.12776
1570289708.14339
1570289708.15901
1570289708.17464
1570289708.19027
1570289708.20589
1570289708.22152
1570289708.23714
1570289708.25277
1570289708.26839
1570289708.28402
1570289708.29965
1570289708.31527
1570289708.3309
1570289708.34652
1570289708.36215
1570289708.37777
1570289708.3934
1570289708.40903
1570289708.42465
1570289708.44028
1570289708.4559
1570289708.47153
1570289708.48715
1570289708.50278
1570289708.51841
1570289708.53403
1570289708.54966
1570289708.56528
1570289708.58091
1570289708.59653
1570289708.61216
1570289708.62779
1570289708.64341
1570289708.65904
1570289708.67466
1570289708.69029
1570289708.70591
1570289708.72154
1570289708.73717
1570289708.75279
1570289708.76842
1570289708.78404
1570289708.79967
1570289708.81529
1570289708.83092
1570289708.84655
1570289708.86217
1570289708.8778
1570289708.89342
1570289708.90905
1570289708.92467
1570289708.9403
1570289708.95593
1570289708.97155
1570289708.98718
1570289709.0028
1570289709.01843
1570289709.03405
1570289709.04968
1570289709.06531
1570289709.08093
1570289709.09656
1570289709.11218
1570289709.12781
1570289709.14344
1570289709.15906
1570289709.17469
1570289709.19031
1570289709.20594
1570289709.22156
1570289709.23719
1570289709.25282
1570289709.26844
1570289709.28407
1570289709.29969
1570289709.31532
1570289709.33094
1570289709.34657
1570289709.3622
1570289709.37782
1570289709.39345
1570289709.40907
1570289709.4247
1570289709.44032
1570289709.45595
1570289709.47158
1570289709.4872
1570289709.50283
1570289709.51845
1570289709.53408
1570289709.5497
1570289709.56533
1570289709.58096
1570289709.59658
1570289709.61221
1570289709.62783
1570289709.64346
1570289709.65908
1570289709.67471
1570289709.69034
1570289709.70596
1570289709.72159
1570289709.73721
1570289709.75284
1570289709.76846
1570289709.78409
1570289709.79972
1570289709.81534
1570289709.83097
1570289709.84659
1570289709.86222
1570289709.87784
1570289709.89347
1570289709.9091
1570289709.92472
1570289709.94035
1570289709.95597
1570289709.9716
1570289709.98722
1570289710.00285
1570289710.01848
1570289710.0341
1570289710.04973
1570289710.06535
1570289710.08098
1570289710.0966
1570289710.11223
1570289710.12786
1570289710.14348
1570289710.15911
1570289710.17473
1570289710.19036
1570289710.20598
1570289710.22161
1570289710.23724
1570289710.25286
1570289710.26849
1570289710.28411
1570289710.29974
1570289710.31536
1570289710.33099
1570289710.34662
1570289710.36224
1570289710.37787
1570289710.39349
1570289710.40912
1570289710.42474
1570289710.44037
1570289710.456
1570289710.47162
1570289710.48725
1570289710.50287
1570289710.5185
1570289710.53412
1570289710.54975
1570289710.56538
1570289710.581
1570289710.59663
1570289710.61225
1570289710.62788
1570289710.6435
1570289710.65913
1570289710.67476
1570289710.69038
1570289710.70601
1570289710.72163
1570289710.73726
1570289710.75288
1570289710.76851
1570289710.78414
1570289710.79976
1570289710.81539
1570289710.83101
1570289710.84664
1570289710.86226
1570289710.87789
1570289710.89352
1570289710.90914
1570289710.92477
1570289710.94039
1570289710.95602
1570289710.97164
1570289710.98727
1570289711.0029
1570289711.01852
1570289711.03415
1570289711.04977
1570289711.0654
1570289711.08102
1570289711.09665
1570289711.11228
1570289711.1279
1570289711.14353
1570289711.15915
1570289711.17478
1570289711.1904
1570289711.20603
1570289711.22166
1570289711.23728
1570289711.25291
1570289711.26853
1570289711.28416
1570289711.29978
1570289711.31541
1570289711.33104
1570289711.34666
1570289711.36229
1570289711.37791
1570289711.39354
1570289711.40917
1570289711.42479
1570289711.44042
1570289711.45604
1570289711.47167
1570289711.48729
1570289711.50292
1570289711.51855
1570289711.53417
1570289711.5498
1570289711.56542
1570289711.58105
1570289711.59667
1570289711.6123
1570289711.62793
1570289711.64355
1570289711.65918
1570289711.6748
1570289711.69043
1570289711.70605
1570289711.72168
1570289711.73731
1570289711.75293
1570289711.76856
1570289711.78418
1570289711.79981
1570289711.81543
1570289711.83106
1570289711.84669
1570289711.86231
1570289711.87794
1570289711.89356
1570289711.90919
1570289711.92481
1570289711.94044
1570289711.95607
1570289711.97169
1570289711.98732
1570289712.00294
1570289712.01857
1570289712.03419
1570289712.04982
1570289712.06545
1570289712.08107
1570289712.0967
1570289712.11232
1570289712.12795
1570289712.14357
1570289712.1592
1570289712.17483
1570289712.19045
1570289712.20608
1570289712.2217
1570289712.23733
1570289712.25295
1570289712.26858
1570289712.28421
1570289712.29983
1570289712.31546
1570289712.33108
1570289712.34671
1570289712.36233
1570289712.37796
1570289712.39359
1570289712.40921
1570289712.42484
1570289712.44046
1570289712.45609
1570289712.47171
1570289712.48734
1570289712.50297
1570289712.51859
1570289712.53422
1570289712.54984
1570289712.56547
1570289712.58109
1570289712.59672
1570289712.61235
1570289712.62797
1570289712.6436
1570289712.65922
1570289712.67485
1570289712.69047
1570289712.7061
1570289712.72173
1570289712.73735
1570289712.75298
1570289712.7686
1570289712.78423
1570289712.79985
1570289712.81548
1570289712.83111
1570289712.84673
1570289712.86236
1570289712.87798
1570289712.89361
1570289712.90923
1570289712.92486
1570289712.94049
1570289712.95611
1570289712.97174
1570289712.98736
1570289713.00299
1570289713.01861
1570289713.03424
1570289713.04987
1570289713.06549
1570289713.08112
1570289713.09674
1570289713.11237
1570289713.12799
1570289713.14362
1570289713.15925
1570289713.17487
1570289713.1905
1570289713.20612
1570289713.22175
1570289713.23737
1570289713.253
1570289713.26863
1570289713.28425
1570289713.29988
1570289713.3155
1570289713.33113
1570289713.34675
1570289713.36238
1570289713.37801
1570289713.39363
1570289713.40926
1570289713.42488
1570289713.44051
1570289713.45613
1570289713.47176
1570289713.48739
1570289713.50301
1570289713.51864
1570289713.53426
1570289713.54989
1570289713.56551
1570289713.58114
1570289713.59677
1570289713.61239
1570289713.62802
1570289713.64364
1570289713.65927
1570289713.6749
1570289713.69052
1570289713.70615
1570289713.72177
1570289713.7374
1570289713.75302
1570289713.76865
1570289713.78428
1570289713.7999
1570289713.81553
1570289713.83115
1570289713.84678
1570289713.8624
1570289713.87803
1570289713.89366
1570289713.90928
1570289713.92491
1570289713.94053
1570289713.95616
1570289713.97178
1570289713.98741
1570289714.00304
1570289714.01866
1570289714.03429
1570289714.04991
1570289714.06554
1570289714.08116
1570289714.09679
1570289714.11242
1570289714.12804
1570289714.14367
1570289714.15929
1570289714.17492
1570289714.19054
1570289714.20617
1570289714.2218
1570289714.23742
1570289714.25305
1570289714.26867
1570289714.2843
1570289714.29992
1570289714.31555
1570289714.33118
1570289714.3468
1570289714.36243
1570289714.37805
1570289714.39368
1570289714.4093
1570289714.42493
1570289714.44056
1570289714.45618
1570289714.47181
1570289714.48743
1570289714.50306
1570289714.51868
1570289714.53431
1570289714.54994
1570289714.56556
1570289714.58119
1570289714.59681
1570289714.61244
1570289714.62806
1570289714.64369
1570289714.65932
1570289714.67494
1570289714.69057
1570289714.70619
1570289714.72182
1570289714.73744
1570289714.75307
1570289714.7687
1570289714.78432
1570289714.79995
1570289714.81557
1570289714.8312
1570289714.84682
1570289714.86245
1570289714.87808
1570289714.8937
1570289714.90933
1570289714.92495
1570289714.94058
1570289714.9562
1570289714.97183
1570289714.98746
1570289715.00308
1570289715.01871
1570289715.03433
1570289715.04996
1570289715.06558
1570289715.08121
1570289715.09684
1570289715.11246
1570289715.12809
1570289715.14371
1570289715.15934
1570289715.17496
1570289715.19059
1570289715.20622
1570289715.22184
1570289715.23747
1570289715.25309
1570289715.26872
1570289715.28434
1570289715.29997
1570289715.3156
1570289715.33122
1570289715.34685
1570289715.36247
1570289715.3781
1570289715.39372
1570289715.40935
1570289715.42498
1570289715.4406
1570289715.45623
1570289715.47185
1570289715.48748
1570289715.5031
1570289715.51873
1570289715.53436
1570289715.54998
1570289715.56561
1570289715.58123
1570289715.59686
1570289715.61248
1570289715.62811
1570289715.64374
1570289715.65936
1570289715.67499
1570289715.69061
1570289715.70624
1570289715.72186
1570289715.73749
1570289715.75312
1570289715.76874
1570289715.78437
1570289715.79999
1570289715.81562
1570289715.83124
1570289715.84687
1570289715.8625
1570289715.87812
1570289715.89375
1570289715.90937
1570289715.925
1570289715.94062
1570289715.95625
1570289715.97188
1570289715.9875
1570289716.00313
1570289716.01875
1570289716.03438
1570289716.05
1570289716.06563
1570289716.08126
1570289716.09688
1570289716.11251
1570289716.12813
1570289716.14376
1570289716.15938
1570289716.17501
1570289716.19064
1570289716.20626
1570289716.22189
1570289716.23751
1570289716.25314
1570289716.26877
1570289716.28439
1570289716.30002
1570289716.31564
1570289716.33127
1570289716.34689
1570289716.36252
1570289716.37815
1570289716.39377
1570289716.4094
1570289716.42502
1570289716.44065
1570289716.45627
1570289716.4719
1570289716.48753
1570289716.50315
1570289716.51878
1570289716.5344
1570289716.55003
1570289716.56565
1570289716.58128
1570289716.59691
1570289716.61253
1570289716.62816
1570289716.64378
1570289716.65941
1570289716.67503
1570289716.69066
1570289716.70629
1570289716.72191
1570289716.73754
1570289716.75316
1570289716.76879
1570289716.78441
1570289716.80004
1570289716.81567
1570289716.83129
1570289716.84692
1570289716.86254
1570289716.87817
1570289716.89379
1570289716.90942
1570289716.92505
1570289716.94067
1570289716.9563
1570289716.97192
1570289716.98755
1570289717.00317
1570289717.0188
1570289717.03443
1570289717.05005
1570289717.06568
1570289717.0813
1570289717.09693
1570289717.11255
1570289717.12818
1570289717.14381
1570289717.15943
1570289717.17506
1570289717.19068
1570289717.20631
1570289717.22193
1570289717.23756
1570289717.25319
1570289717.26881
1570289717.28444
1570289717.30006
1570289717.31569
1570289717.33131
1570289717.34694
1570289717.36257
1570289717.37819
1570289717.39382
1570289717.40944
1570289717.42507
1570289717.44069
1570289717.45632
1570289717.47195
1570289717.48757
1570289717.5032
1570289717.51882
1570289717.53445
1570289717.55007
1570289717.5657
1570289717.58133
1570289717.59695
1570289717.61258
1570289717.6282
1570289717.64383
1570289717.65945
1570289717.67508
1570289717.69071
1570289717.70633
1570289717.72196
1570289717.73758
1570289717.75321
1570289717.76883
1570289717.78446
1570289717.80009
1570289717.81571
1570289717.83134
1570289717.84696
1570289717.86259
1570289717.87821
1570289717.89384
1570289717.90947
1570289717.92509
1570289717.94072
1570289717.95634
1570289717.97197
1570289717.98759
1570289718.00322
1570289718.01885
1570289718.03447
1570289718.0501
1570289718.06572
1570289718.08135
1570289718.09697
1570289718.1126
1570289718.12823
1570289718.14385
1570289718.15948
1570289718.1751
1570289718.19073
1570289718.20635
1570289718.22198
1570289718.23761
1570289718.25323
1570289718.26886
1570289718.28448
1570289718.30011
1570289718.31573
1570289718.33136
1570289718.34699
1570289718.36261
1570289718.37824
1570289718.39386
1570289718.40949
1570289718.42511
1570289718.44074
1570289718.45637
1570289718.47199
1570289718.48762
1570289718.50324
1570289718.51887
1570289718.5345
1570289718.55012
1570289718.56575
1570289718.58137
1570289718.597
1570289718.61262
1570289718.62825
1570289718.64388
1570289718.6595
1570289718.67513
1570289718.69075
1570289718.70638
1570289718.722
1570289718.73763
1570289718.75326
1570289718.76888
1570289718.78451
1570289718.80013
1570289718.81576
1570289718.83138
1570289718.84701
1570289718.86264
1570289718.87826
1570289718.89389
1570289718.90951
1570289718.92514
1570289718.94076
1570289718.95639
1570289718.97202
1570289718.98764
1570289719.00327
1570289719.01889
1570289719.03452
1570289719.05014
1570289719.06577
1570289719.0814
1570289719.09702
1570289719.11265
1570289719.12827
1570289719.1439
1570289719.15952
1570289719.17515
1570289719.19078
1570289719.2064
1570289719.22203
1570289719.23765
1570289719.25328
1570289719.2689
1570289719.28453
1570289719.30016
1570289719.31578
1570289719.33141
1570289719.34703
1570289719.36266
1570289719.37828
1570289719.39391
1570289719.40954
1570289719.42516
1570289719.44079
1570289719.45641
1570289719.47204
1570289719.48766
1570289719.50329
1570289719.51892
1570289719.53454
1570289719.55017
1570289719.56579
1570289719.58142
1570289719.59704
1570289719.61267
1570289719.6283
1570289719.64392
1570289719.65955
1570289719.67517
1570289719.6908
1570289719.70642
1570289719.72205
1570289719.73768
1570289719.7533
1570289719.76893
1570289719.78455
1570289719.80018
1570289719.8158
1570289719.83143
1570289719.84706
1570289719.86268
1570289719.87831
1570289719.89393
1570289719.90956
1570289719.92518
1570289719.94081
1570289719.95644
1570289719.97206
1570289719.98769
1570289720.00331
1570289720.01894
1570289720.03456
1570289720.05019
1570289720.06582
1570289720.08144
1570289720.09707
1570289720.11269
1570289720.12832
1570289720.14394
1570289720.15957
1570289720.1752
1570289720.19082
1570289720.20645
1570289720.22207
1570289720.2377
1570289720.25332
1570289720.26895
1570289720.28458
1570289720.3002
1570289720.31583
1570289720.33145
1570289720.34708
1570289720.3627
1570289720.37833
1570289720.39396
1570289720.40958
1570289720.42521
1570289720.44083
1570289720.45646
1570289720.47208
1570289720.48771
1570289720.50334
1570289720.51896
1570289720.53459
1570289720.55021
1570289720.56584
1570289720.58146
1570289720.59709
1570289720.61272
1570289720.62834
1570289720.64397
1570289720.65959
1570289720.67522
1570289720.69085
1570289720.70647
1570289720.7221
1570289720.73772
1570289720.75335
1570289720.76897
1570289720.7846
1570289720.80023
1570289720.81585
1570289720.83148
1570289720.8471
1570289720.86273
1570289720.87835
1570289720.89398
1570289720.90961
1570289720.92523
1570289720.94086
1570289720.95648
1570289720.97211
1570289720.98773
1570289721.00336
1570289721.01899
1570289721.03461
1570289721.05024
1570289721.06586
1570289721.08149
1570289721.09711
1570289721.11274
1570289721.12837
1570289721.14399
1570289721.15962
1570289721.17524
1570289721.19087
1570289721.20649
1570289721.22212
1570289721.23775
1570289721.25337
1570289721.269
1570289721.28462
1570289721.30025
1570289721.31587
1570289721.3315
1570289721.34713
1570289721.36275
1570289721.37838
1570289721.394
1570289721.40963
1570289721.42525
1570289721.44088
1570289721.45651
1570289721.47213
1570289721.48776
1570289721.50338
1570289721.51901
1570289721.53463
1570289721.55026
1570289721.56589
1570289721.58151
1570289721.59714
1570289721.61276
1570289721.62839
1570289721.64401
1570289721.65964
1570289721.67527
1570289721.69089
1570289721.70652
1570289721.72214
1570289721.73777
1570289721.75339
1570289721.76902
1570289721.78465
1570289721.80027
1570289721.8159
1570289721.83152
1570289721.84715
1570289721.86277
1570289721.8784
1570289721.89403
1570289721.90965
1570289721.92528
1570289721.9409
1570289721.95653
1570289721.97215
1570289721.98778
1570289722.00341
1570289722.01903
1570289722.03466
1570289722.05028
1570289722.06591
1570289722.08153
1570289722.09716
1570289722.11279
1570289722.12841
1570289722.14404
1570289722.15966
1570289722.17529
1570289722.19091
1570289722.20654
1570289722.22217
1570289722.23779
1570289722.25342
1570289722.26904
1570289722.28467
1570289722.30029
1570289722.31592
1570289722.33155
1570289722.34717
1570289722.3628
1570289722.37842
1570289722.39405
1570289722.40967
1570289722.4253
1570289722.44093
1570289722.45655
1570289722.47218
1570289722.4878
1570289722.50343
1570289722.51905
1570289722.53468
1570289722.55031
1570289722.56593
1570289722.58156
1570289722.59718
1570289722.61281
1570289722.62843
1570289722.64406
1570289722.65969
1570289722.67531
1570289722.69094
1570289722.70656
1570289722.72219
1570289722.73781
1570289722.75344
1570289722.76907
1570289722.78469
1570289722.80032
1570289722.81594
1570289722.83157
1570289722.84719
1570289722.86282
1570289722.87845
1570289722.89407
1570289722.9097
1570289722.92532
1570289722.94095
1570289722.95657
1570289722.9722
1570289722.98783
1570289723.00345
1570289723.01908
1570289723.0347
1570289723.05033
1570289723.06595
1570289723.08158
1570289723.09721
1570289723.11283
1570289723.12846
1570289723.14408
1570289723.15971
1570289723.17533
1570289723.19096
1570289723.20659
1570289723.22221
1570289723.23784
1570289723.25346
1570289723.26909
1570289723.28471
1570289723.30034
1570289723.31597
1570289723.33159
1570289723.34722
1570289723.36284
1570289723.37847
1570289723.3941
1570289723.40972
1570289723.42535
1570289723.44097
1570289723.4566
1570289723.47222
1570289723.48785
1570289723.50348
1570289723.5191
1570289723.53473
1570289723.55035
1570289723.56598
1570289723.5816
1570289723.59723
1570289723.61286
1570289723.62848
1570289723.64411
1570289723.65973
1570289723.67536
1570289723.69098
1570289723.70661
1570289723.72224
1570289723.73786
1570289723.75349
1570289723.76911
1570289723.78474
1570289723.80036
1570289723.81599
1570289723.83162
1570289723.84724
1570289723.86287
1570289723.87849
1570289723.89412
1570289723.90974
1570289723.92537
1570289723.941
1570289723.95662
1570289723.97225
1570289723.98787
1570289724.0035
1570289724.01912
1570289724.03475
1570289724.05038
1570289724.066
1570289724.08163
1570289724.09725
1570289724.11288
1570289724.1285
1570289724.14413
1570289724.15976
1570289724.17538
1570289724.19101
1570289724.20663
1570289724.22226
1570289724.23788
1570289724.25351
1570289724.26914
1570289724.28476
1570289724.30039
1570289724.31601
1570289724.33164
1570289724.34726
1570289724.36289
1570289724.37852
1570289724.39414
1570289724.40977
1570289724.42539
1570289724.44102
1570289724.45664
1570289724.47227
1570289724.4879
1570289724.50352
1570289724.51915
1570289724.53477
1570289724.5504
1570289724.56602
1570289724.58165
1570289724.59728
1570289724.6129
1570289724.62853
1570289724.64415
1570289724.65978
1570289724.6754
1570289724.69103
1570289724.70666
1570289724.72228
1570289724.73791
1570289724.75353
1570289724.76916
1570289724.78478
1570289724.80041
1570289724.81604
1570289724.83166
1570289724.84729
1570289724.86291
1570289724.87854
1570289724.89416
1570289724.90979
1570289724.92542
1570289724.94104
1570289724.95667
1570289724.97229
1570289724.98792
1570289725.00354
1570289725.01917
1570289725.0348
1570289725.05042
1570289725.06605
1570289725.08167
1570289725.0973
1570289725.11292
1570289725.12855
1570289725.14418
1570289725.1598
1570289725.17543
1570289725.19105
1570289725.20668
1570289725.2223
1570289725.23793
1570289725.25356
1570289725.26918
1570289725.28481
1570289725.30043
1570289725.31606
1570289725.33168
1570289725.34731
1570289725.36294
1570289725.37856
1570289725.39419
1570289725.40981
1570289725.42544
1570289725.44106
1570289725.45669
1570289725.47232
1570289725.48794
1570289725.50357
1570289725.51919
1570289725.53482
1570289725.55045
1570289725.56607
1570289725.5817
1570289725.59732
1570289725.61295
1570289725.62857
1570289725.6442
1570289725.65983
1570289725.67545
1570289725.69108
1570289725.7067
1570289725.72233
1570289725.73795
1570289725.75358
1570289725.76921
1570289725.78483
1570289725.80046
1570289725.81608
1570289725.83171
1570289725.84733
1570289725.86296
1570289725.87859
1570289725.89421
1570289725.90984
1570289725.92546
1570289725.94109
1570289725.95671
1570289725.97234
1570289725.98797
1570289726.00359
1570289726.01922
1570289726.03484
1570289726.05047
1570289726.06609
1570289726.08172
1570289726.09735
1570289726.11297
1570289726.1286
1570289726.14422
1570289726.15985
1570289726.17547
1570289726.1911
1570289726.20673
1570289726.22235
1570289726.23798
1570289726.2536
1570289726.26923
1570289726.28485
1570289726.30048
1570289726.31611
1570289726.33173
1570289726.34736
1570289726.36298
1570289726.37861
1570289726.39423
1570289726.40986
1570289726.42549
1570289726.44111
1570289726.45674
1570289726.47236
1570289726.48799
1570289726.50361
1570289726.51924
1570289726.53487
1570289726.55049
1570289726.56612
1570289726.58174
1570289726.59737
1570289726.61299
1570289726.62862
1570289726.64425
1570289726.65987
1570289726.6755
1570289726.69112
1570289726.70675
1570289726.72237
1570289726.738
1570289726.75363
1570289726.76925
1570289726.78488
1570289726.8005
1570289726.81613
1570289726.83175
1570289726.84738
1570289726.86301
1570289726.87863
1570289726.89426
1570289726.90988
1570289726.92551
1570289726.94113
1570289726.95676
1570289726.97239
1570289726.98801
1570289727.00364
1570289727.01926
1570289727.03489
1570289727.05051
1570289727.06614
1570289727.08177
1570289727.09739
1570289727.11302
1570289727.12864
1570289727.14427
1570289727.15989
1570289727.17552
1570289727.19115
1570289727.20677
1570289727.2224
1570289727.23802
1570289727.25365
1570289727.26927
1570289727.2849
1570289727.30053
1570289727.31615
1570289727.33178
1570289727.3474
1570289727.36303
1570289727.37865
1570289727.39428
1570289727.40991
1570289727.42553
1570289727.44116
1570289727.45678
1570289727.47241
1570289727.48803
1570289727.50366
1570289727.51929
1570289727.53491
1570289727.55054
1570289727.56616
1570289727.58179
1570289727.59741
1570289727.61304
1570289727.62867
1570289727.64429
1570289727.65992
1570289727.67554
1570289727.69117
1570289727.70679
1570289727.72242
1570289727.73805
1570289727.75367
1570289727.7693
1570289727.78492
1570289727.80055
1570289727.81617
1570289727.8318
1570289727.84743
1570289727.86305
1570289727.87868
1570289727.8943
1570289727.90993
1570289727.92555
1570289727.94118
1570289727.95681
1570289727.97243
1570289727.98806
1570289728.00368
1570289728.01931
1570289728.03494
1570289728.05056
1570289728.06619
1570289728.08181
1570289728.09744
1570289728.11306
1570289728.12869
1570289728.14432
1570289728.15994
1570289728.17557
1570289728.19119
1570289728.20682
1570289728.22244
1570289728.23807
1570289728.2537
1570289728.26932
1570289728.28495
1570289728.30057
1570289728.3162
1570289728.33182
1570289728.34745
1570289728.36308
1570289728.3787
1570289728.39433
1570289728.40995
1570289728.42558
1570289728.4412
1570289728.45683
1570289728.47246
1570289728.48808
1570289728.50371
1570289728.51933
1570289728.53496
1570289728.55058
1570289728.56621
1570289728.58184
1570289728.59746
1570289728.61309
1570289728.62871
1570289728.64434
1570289728.65996
1570289728.67559
1570289728.69122
1570289728.70684
1570289728.72247
1570289728.73809
1570289728.75372
1570289728.76934
1570289728.78497
1570289728.8006
1570289728.81622
1570289728.83185
1570289728.84747
1570289728.8631
1570289728.87872
1570289728.89435
1570289728.90998
1570289728.9256
1570289728.94123
1570289728.95685
1570289728.97248
1570289728.9881
1570289729.00373
1570289729.01936
1570289729.03498
1570289729.05061
1570289729.06623
1570289729.08186
1570289729.09748
1570289729.11311
1570289729.12874
1570289729.14436
1570289729.15999
1570289729.17561
1570289729.19124
1570289729.20686
1570289729.22249
1570289729.23812
1570289729.25374
1570289729.26937
1570289729.28499
1570289729.30062
1570289729.31624
1570289729.33187
1570289729.3475
1570289729.36312
1570289729.37875
1570289729.39437
1570289729.41
1570289729.42562
1570289729.44125
1570289729.45688
1570289729.4725
1570289729.48813
1570289729.50375
1570289729.51938
1570289729.535
1570289729.55063
1570289729.56626
1570289729.58188
1570289729.59751
1570289729.61313
1570289729.62876
1570289729.64438
1570289729.66001
1570289729.67564
1570289729.69126
1570289729.70689
1570289729.72251
1570289729.73814
1570289729.75376
1570289729.76939
1570289729.78502
1570289729.80064
1570289729.81627
1570289729.83189
1570289729.84752
1570289729.86314
1570289729.87877
1570289729.8944
1570289729.91002
1570289729.92565
1570289729.94127
1570289729.9569
1570289729.97252
1570289729.98815
1570289730.00378
1570289730.0194
1570289730.03503
1570289730.05065
1570289730.06628
1570289730.0819
1570289730.09753
1570289730.11316
1570289730.12878
1570289730.14441
1570289730.16003
1570289730.17566
1570289730.19128
1570289730.20691
1570289730.22254
1570289730.23816
1570289730.25379
1570289730.26941
1570289730.28504
1570289730.30066
1570289730.31629
1570289730.33192
1570289730.34754
1570289730.36317
1570289730.37879
1570289730.39442
1570289730.41005
1570289730.42567
1570289730.4413
1570289730.45692
1570289730.47255
1570289730.48817
1570289730.5038
1570289730.51943
1570289730.53505
1570289730.55068
1570289730.5663
1570289730.58193
1570289730.59755
1570289730.61318
1570289730.62881
1570289730.64443
1570289730.66006
1570289730.67568
1570289730.69131
1570289730.70693
1570289730.72256
1570289730.73819
1570289730.75381
1570289730.76944
1570289730.78506
1570289730.80069
1570289730.81631
1570289730.83194
1570289730.84757
1570289730.86319
1570289730.87882
1570289730.89444
1570289730.91007
1570289730.92569
1570289730.94132
1570289730.95695
1570289730.97257
1570289730.9882
1570289731.00382
1570289731.01945
1570289731.03507
1570289731.0507
1570289731.06633
1570289731.08195
1570289731.09758
1570289731.1132
1570289731.12883
1570289731.14445
1570289731.16008
1570289731.17571
1570289731.19133
1570289731.20696
1570289731.22258
1570289731.23821
1570289731.25383
1570289731.26946
1570289731.28509
1570289731.30071
1570289731.31634
1570289731.33196
1570289731.34759
1570289731.36321
1570289731.37884
1570289731.39447
1570289731.41009
1570289731.42572
1570289731.44134
1570289731.45697
1570289731.47259
1570289731.48822
1570289731.50385
1570289731.51947
1570289731.5351
1570289731.55072
1570289731.56635
1570289731.58197
1570289731.5976
1570289731.61323
1570289731.62885
1570289731.64448
1570289731.6601
1570289731.67573
1570289731.69135
1570289731.70698
1570289731.72261
1570289731.73823
1570289731.75386
1570289731.76948
1570289731.78511
1570289731.80073
1570289731.81636
1570289731.83199
1570289731.84761
1570289731.86324
1570289731.87886
1570289731.89449
1570289731.91011
1570289731.92574
1570289731.94137
1570289731.95699
1570289731.97262
1570289731.98824
1570289732.00387
1570289732.01949
1570289732.03512
1570289732.05075
1570289732.06637
1570289732.082
1570289732.09762
1570289732.11325
1570289732.12887
1570289732.1445
1570289732.16013
1570289732.17575
1570289732.19138
1570289732.207
1570289732.22263
1570289732.23825
1570289732.25388
1570289732.26951
1570289732.28513
1570289732.30076
1570289732.31638
1570289732.33201
1570289732.34763
1570289732.36326
1570289732.37889
1570289732.39451
1570289732.41014
1570289732.42576
1570289732.44139
1570289732.45701
1570289732.47264
1570289732.48827
1570289732.50389
1570289732.51952
1570289732.53514
1570289732.55077
1570289732.56639
1570289732.58202
1570289732.59765
1570289732.61327
1570289732.6289
1570289732.64452
1570289732.66015
1570289732.67578
1570289732.6914
1570289732.70703
1570289732.72265
1570289732.73828
1570289732.7539
1570289732.76953
1570289732.78516
1570289732.80078
1570289732.81641
1570289732.83203
1570289732.84766
1570289732.86328
1570289732.87891
1570289732.89454
1570289732.91016
1570289732.92579
1570289732.94141
1570289732.95704
1570289732.97266
1570289732.98829
1570289733.00392
1570289733.01954
1570289733.03517
1570289733.05079
1570289733.06642
1570289733.08204
1570289733.09767
1570289733.1133
1570289733.12892
1570289733.14455
1570289733.16017
1570289733.1758
1570289733.19142
1570289733.20705
1570289733.22268
1570289733.2383
1570289733.25393
1570289733.26955
1570289733.28518
1570289733.3008
1570289733.31643
1570289733.33206
1570289733.34768
1570289733.36331
1570289733.37893
1570289733.39456
1570289733.41018
1570289733.42581
1570289733.44144
1570289733.45706
1570289733.47269
1570289733.48831
1570289733.50394
1570289733.51956
1570289733.53519
1570289733.55082
1570289733.56644
1570289733.58207
1570289733.59769
1570289733.61332
1570289733.62894
1570289733.64457
1570289733.6602
1570289733.67582
1570289733.69145
1570289733.70707
1570289733.7227
1570289733.73832
1570289733.75395
1570289733.76958
1570289733.7852
1570289733.80083
1570289733.81645
1570289733.83208
1570289733.8477
1570289733.86333
1570289733.87896
1570289733.89458
1570289733.91021
1570289733.92583
1570289733.94146
1570289733.95708
1570289733.97271
1570289733.98834
1570289734.00396
1570289734.01959
1570289734.03521
1570289734.05084
1570289734.06646
1570289734.08209
1570289734.09772
1570289734.11334
1570289734.12897
1570289734.14459
1570289734.16022
1570289734.17584
1570289734.19147
1570289734.2071
1570289734.22272
1570289734.23835
1570289734.25397
1570289734.2696
1570289734.28522
1570289734.30085
1570289734.31648
1570289734.3321
1570289734.34773
1570289734.36335
1570289734.37898
1570289734.3946
1570289734.41023
1570289734.42586
1570289734.44148
1570289734.45711
1570289734.47273
1570289734.48836
1570289734.50398
1570289734.51961
1570289734.53524
1570289734.55086
1570289734.56649
1570289734.58211
1570289734.59774
1570289734.61336
1570289734.62899
1570289734.64462
1570289734.66024
1570289734.67587
1570289734.69149
1570289734.70712
1570289734.72274
1570289734.73837
1570289734.754
1570289734.76962
1570289734.78525
1570289734.80087
1570289734.8165
1570289734.83212
1570289734.84775
1570289734.86338
1570289734.879
1570289734.89463
1570289734.91025
1570289734.92588
1570289734.9415
1570289734.95713
1570289734.97276
1570289734.98838
1570289735.00401
1570289735.01963
1570289735.03526
1570289735.05088
1570289735.06651
1570289735.08214
1570289735.09776
1570289735.11339
1570289735.12901
1570289735.14464
1570289735.16026
1570289735.17589
1570289735.19152
1570289735.20714
1570289735.22277
1570289735.23839
1570289735.25402
1570289735.26965
1570289735.28527
1570289735.3009
1570289735.31652
1570289735.33215
1570289735.34777
1570289735.3634
1570289735.37903
1570289735.39465
1570289735.41028
1570289735.4259
1570289735.44153
1570289735.45715
1570289735.47278
1570289735.48841
1570289735.50403
1570289735.51966
1570289735.53528
1570289735.55091
1570289735.56653
1570289735.58216
1570289735.59779
1570289735.61341
1570289735.62904
1570289735.64466
1570289735.66029
1570289735.67591
1570289735.69154
1570289735.70717
1570289735.72279
1570289735.73842
1570289735.75404
1570289735.76967
1570289735.78529
1570289735.80092
1570289735.81655
1570289735.83217
1570289735.8478
1570289735.86342
1570289735.87905
1570289735.89467
1570289735.9103
1570289735.92593
1570289735.94155
1570289735.95718
1570289735.9728
1570289735.98843
1570289736.00405
1570289736.01968
1570289736.03531
1570289736.05093
1570289736.06656
1570289736.08218
1570289736.09781
1570289736.11343
1570289736.12906
1570289736.14469
1570289736.16031
1570289736.17594
1570289736.19156
1570289736.20719
1570289736.22281
1570289736.23844
1570289736.25407
1570289736.26969
1570289736.28532
1570289736.30094
1570289736.31657
1570289736.33219
1570289736.34782
1570289736.36345
1570289736.37907
1570289736.3947
1570289736.41032
1570289736.42595
1570289736.44157
1570289736.4572
1570289736.47283
1570289736.48845
1570289736.50408
1570289736.5197
1570289736.53533
1570289736.55095
1570289736.56658
1570289736.58221
1570289736.59783
1570289736.61346
1570289736.62908
1570289736.64471
1570289736.66033
1570289736.67596
1570289736.69159
1570289736.70721
1570289736.72284
1570289736.73846
1570289736.75409
1570289736.76971
1570289736.78534
1570289736.80097
1570289736.81659
1570289736.83222
1570289736.84784
1570289736.86347
1570289736.87909
1570289736.89472
1570289736.91035
1570289736.92597
1570289736.9416
1570289736.95722
1570289736.97285
1570289736.98847
1570289737.0041
1570289737.01973
1570289737.03535
1570289737.05098
1570289737.0666
1570289737.08223
1570289737.09785
1570289737.11348
1570289737.12911
1570289737.14473
1570289737.16036
1570289737.17598
1570289737.19161
1570289737.20723
1570289737.22286
1570289737.23849
1570289737.25411
1570289737.26974
1570289737.28536
1570289737.30099
1570289737.31661
1570289737.33224
1570289737.34787
1570289737.36349
1570289737.37912
1570289737.39474
1570289737.41037
1570289737.42599
1570289737.44162
1570289737.45725
1570289737.47287
1570289737.4885
1570289737.50412
1570289737.51975
1570289737.53538
1570289737.551
1570289737.56663
1570289737.58225
1570289737.59788
1570289737.6135
1570289737.62913
1570289737.64476
1570289737.66038
1570289737.67601
1570289737.69163
1570289737.70726
1570289737.72288
1570289737.73851
1570289737.75414
1570289737.76976
1570289737.78539
1570289737.80101
1570289737.81664
1570289737.83226
1570289737.84789
1570289737.86352
1570289737.87914
1570289737.89477
1570289737.91039
1570289737.92602
1570289737.94164
1570289737.95727
1570289737.9729
1570289737.98852
1570289738.00415
1570289738.01977
1570289738.0354
1570289738.05102
1570289738.06665
1570289738.08228
1570289738.0979
1570289738.11353
1570289738.12915
1570289738.14478
1570289738.1604
1570289738.17603
1570289738.19166
1570289738.20728
1570289738.22291
1570289738.23853
1570289738.25416
1570289738.26978
1570289738.28541
1570289738.30104
1570289738.31666
1570289738.33229
1570289738.34791
1570289738.36354
1570289738.37916
1570289738.39479
1570289738.41042
1570289738.42604
1570289738.44167
1570289738.45729
1570289738.47292
1570289738.48854
1570289738.50417
1570289738.5198
1570289738.53542
1570289738.55105
1570289738.56667
1570289738.5823
1570289738.59792
1570289738.61355
1570289738.62918
1570289738.6448
1570289738.66043
1570289738.67605
1570289738.69168
1570289738.7073
1570289738.72293
1570289738.73856
1570289738.75418
1570289738.76981
1570289738.78543
1570289738.80106
1570289738.81668
1570289738.83231
1570289738.84794
1570289738.86356
1570289738.87919
1570289738.89481
1570289738.91044
1570289738.92606
1570289738.94169
1570289738.95732
1570289738.97294
1570289738.98857
1570289739.00419
1570289739.01982
1570289739.03544
1570289739.05107
1570289739.0667
1570289739.08232
1570289739.09795
1570289739.11357
1570289739.1292
1570289739.14482
1570289739.16045
1570289739.17608
1570289739.1917
1570289739.20733
1570289739.22295
1570289739.23858
1570289739.2542
1570289739.26983
1570289739.28546
1570289739.30108
1570289739.31671
1570289739.33233
1570289739.34796
1570289739.36358
1570289739.37921
1570289739.39484
1570289739.41046
1570289739.42609
1570289739.44171
1570289739.45734
1570289739.47296
1570289739.48859
1570289739.50422
1570289739.51984
1570289739.53547
1570289739.55109
1570289739.56672
1570289739.58234
1570289739.59797
1570289739.6136
1570289739.62922
1570289739.64485
1570289739.66047
1570289739.6761
1570289739.69173
1570289739.70735
1570289739.72298
1570289739.7386
1570289739.75423
1570289739.76985
1570289739.78548
1570289739.80111
1570289739.81673
1570289739.83236
1570289739.84798
1570289739.86361
1570289739.87923
1570289739.89486
1570289739.91049
1570289739.92611
1570289739.94174
1570289739.95736
1570289739.97299
1570289739.98861
1570289740.00424
1570289740.01987
1570289740.03549
1570289740.05112
1570289740.06674
1570289740.08237
1570289740.09799
1570289740.11362
1570289740.12925
1570289740.14487
1570289740.1605
1570289740.17612
1570289740.19175
1570289740.20737
1570289740.223
1570289740.23863
1570289740.25425
1570289740.26988
1570289740.2855
1570289740.30113
1570289740.31675
1570289740.33238
1570289740.34801
1570289740.36363
1570289740.37926
1570289740.39488
1570289740.41051
1570289740.42613
1570289740.44176
1570289740.45739
1570289740.47301
1570289740.48864
1570289740.50426
1570289740.51989
1570289740.53551
1570289740.55114
1570289740.56677
1570289740.58239
1570289740.59802
1570289740.61364
1570289740.62927
1570289740.64489
1570289740.66052
1570289740.67615
1570289740.69177
1570289740.7074
1570289740.72302
1570289740.73865
1570289740.75427
1570289740.7699
1570289740.78553
1570289740.80115
1570289740.81678
1570289740.8324
1570289740.84803
1570289740.86365
1570289740.87928
1570289740.89491
1570289740.91053
1570289740.92616
1570289740.94178
1570289740.95741
1570289740.97303
1570289740.98866
1570289741.00429
1570289741.01991
1570289741.03554
1570289741.05116
1570289741.06679
1570289741.08241
1570289741.09804
1570289741.11367
1570289741.12929
1570289741.14492
1570289741.16054
1570289741.17617
1570289741.19179
1570289741.20742
1570289741.22305
1570289741.23867
1570289741.2543
1570289741.26992
1570289741.28555
1570289741.30117
1570289741.3168
1570289741.33243
1570289741.34805
1570289741.36368
1570289741.3793
1570289741.39493
1570289741.41055
1570289741.42618
1570289741.44181
1570289741.45743
1570289741.47306
1570289741.48868
1570289741.50431
1570289741.51993
1570289741.53556
1570289741.55119
1570289741.56681
1570289741.58244
1570289741.59806
1570289741.61369
1570289741.62931
1570289741.64494
1570289741.66057
1570289741.67619
1570289741.69182
1570289741.70744
1570289741.72307
1570289741.73869
1570289741.75432
1570289741.76995
1570289741.78557
1570289741.8012
1570289741.81682
1570289741.83245
1570289741.84807
1570289741.8637
1570289741.87933
1570289741.89495
1570289741.91058
1570289741.9262
1570289741.94183
1570289741.95745
1570289741.97308
1570289741.98871
1570289742.00433
1570289742.01996
1570289742.03558
1570289742.05121
1570289742.06683
1570289742.08246
1570289742.09809
1570289742.11371
1570289742.12934
1570289742.14496
1570289742.16059
1570289742.17621
1570289742.19184
1570289742.20747
1570289742.22309
1570289742.23872
1570289742.25434
1570289742.26997
1570289742.28559
1570289742.30122
1570289742.31685
1570289742.33247
1570289742.3481
1570289742.36372
1570289742.37935
1570289742.39498
1570289742.4106
1570289742.42623
1570289742.44185
1570289742.45748
1570289742.4731
1570289742.48873
1570289742.50436
1570289742.51998
1570289742.53561
1570289742.55123
1570289742.56686
1570289742.58248
1570289742.59811
1570289742.61374
1570289742.62936
1570289742.64499
1570289742.66061
1570289742.67624
1570289742.69186
1570289742.70749
1570289742.72312
1570289742.73874
1570289742.75437
1570289742.76999
1570289742.78562
1570289742.80124
1570289742.81687
1570289742.8325
1570289742.84812
1570289742.86375
1570289742.87937
1570289742.895
1570289742.91062
1570289742.92625
1570289742.94188
1570289742.9575
1570289742.97313
1570289742.98875
1570289743.00438
1570289743.02
1570289743.03563
1570289743.05126
1570289743.06688
1570289743.08251
1570289743.09813
1570289743.11376
1570289743.12938
1570289743.14501
1570289743.16064
1570289743.17626
1570289743.19189
1570289743.20751
1570289743.22314
1570289743.23876
1570289743.25439
1570289743.27002
1570289743.28564
1570289743.30127
1570289743.31689
1570289743.33252
1570289743.34814
1570289743.36377
1570289743.3794
1570289743.39502
1570289743.41065
1570289743.42627
1570289743.4419
1570289743.45752
1570289743.47315
1570289743.48878
1570289743.5044
1570289743.52003
1570289743.53565
1570289743.55128
1570289743.5669
1570289743.58253
1570289743.59816
1570289743.61378
1570289743.62941
1570289743.64503
1570289743.66066
1570289743.67628
1570289743.69191
1570289743.70754
1570289743.72316
1570289743.73879
1570289743.75441
1570289743.77004
1570289743.78566
1570289743.80129
1570289743.81692
1570289743.83254
1570289743.84817
1570289743.86379
1570289743.87942
1570289743.89504
1570289743.91067
1570289743.9263
1570289743.94192
1570289743.95755
1570289743.97317
1570289743.9888
1570289744.00442
1570289744.02005
1570289744.03568
1570289744.0513
1570289744.06693
1570289744.08255
1570289744.09818
1570289744.1138
1570289744.12943
1570289744.14506
1570289744.16068
1570289744.17631
1570289744.19193
1570289744.20756
1570289744.22318
1570289744.23881
1570289744.25444
1570289744.27006
1570289744.28569
1570289744.30131
1570289744.31694
1570289744.33256
1570289744.34819
1570289744.36382
1570289744.37944
1570289744.39507
1570289744.41069
1570289744.42632
1570289744.44194
1570289744.45757
1570289744.4732
1570289744.48882
1570289744.50445
1570289744.52007
1570289744.5357
1570289744.55132
1570289744.56695
1570289744.58258
1570289744.5982
1570289744.61383
1570289744.62945
1570289744.64508
1570289744.66071
1570289744.67633
1570289744.69196
1570289744.70758
1570289744.72321
1570289744.73883
1570289744.75446
1570289744.77009
1570289744.78571
1570289744.80134
1570289744.81696
1570289744.83259
1570289744.84821
1570289744.86384
1570289744.87947
1570289744.89509
1570289744.91072
1570289744.92634
1570289744.94197
1570289744.95759
1570289744.97322
1570289744.98885
1570289745.00447
1570289745.0201
1570289745.03572
1570289745.05135
1570289745.06697
1570289745.0826
1570289745.09823
1570289745.11385
1570289745.12948
1570289745.1451
1570289745.16073
1570289745.17635
1570289745.19198
1570289745.20761
1570289745.22323
1570289745.23886
1570289745.25448
1570289745.27011
1570289745.28573
1570289745.30136
1570289745.31699
1570289745.33261
1570289745.34824
1570289745.36386
1570289745.37949
1570289745.39511
1570289745.41074
1570289745.42637
1570289745.44199
1570289745.45762
1570289745.47324
1570289745.48887
1570289745.50449
1570289745.52012
1570289745.53575
1570289745.55137
1570289745.567
1570289745.58262
1570289745.59825
1570289745.61387
1570289745.6295
1570289745.64513
1570289745.66075
1570289745.67638
1570289745.692
1570289745.70763
1570289745.72325
1570289745.73888
1570289745.75451
1570289745.77013
1570289745.78576
1570289745.80138
1570289745.81701
1570289745.83263
1570289745.84826
1570289745.86389
1570289745.87951
1570289745.89514
1570289745.91076
1570289745.92639
1570289745.94201
1570289745.95764
1570289745.97327
1570289745.98889
1570289746.00452
1570289746.02014
1570289746.03577
1570289746.05139
1570289746.06702
1570289746.08265
1570289746.09827
1570289746.1139
1570289746.12952
1570289746.14515
1570289746.16077
1570289746.1764
1570289746.19203
1570289746.20765
1570289746.22328
1570289746.2389
1570289746.25453
1570289746.27015
1570289746.28578
1570289746.30141
1570289746.31703
1570289746.33266
1570289746.34828
1570289746.36391
1570289746.37953
1570289746.39516
1570289746.41079
1570289746.42641
1570289746.44204
1570289746.45766
1570289746.47329
1570289746.48891
1570289746.50454
1570289746.52017
1570289746.53579
1570289746.55142
1570289746.56704
1570289746.58267
1570289746.59829
1570289746.61392
1570289746.62955
1570289746.64517
1570289746.6608
1570289746.67642
1570289746.69205
1570289746.70767
1570289746.7233
1570289746.73893
1570289746.75455
1570289746.77018
1570289746.7858
1570289746.80143
1570289746.81705
1570289746.83268
1570289746.84831
1570289746.86393
1570289746.87956
1570289746.89518
1570289746.91081
1570289746.92643
1570289746.94206
1570289746.95769
1570289746.97331
1570289746.98894
1570289747.00456
1570289747.02019
1570289747.03582
1570289747.05144
1570289747.06707
1570289747.08269
1570289747.09832
1570289747.11394
1570289747.12957
1570289747.1452
1570289747.16082
1570289747.17645
1570289747.19207
1570289747.2077
1570289747.22332
1570289747.23895
1570289747.25458
1570289747.2702
1570289747.28583
1570289747.30145
1570289747.31708
1570289747.3327
1570289747.34833
1570289747.36396
1570289747.37958
1570289747.39521
1570289747.41083
1570289747.42646
1570289747.44208
1570289747.45771
1570289747.47334
1570289747.48896
1570289747.50459
1570289747.52021
1570289747.53584
1570289747.55146
1570289747.56709
1570289747.58272
1570289747.59834
1570289747.61397
1570289747.62959
1570289747.64522
1570289747.66084
1570289747.67647
1570289747.6921
1570289747.70772
1570289747.72335
1570289747.73897
1570289747.7546
1570289747.77022
1570289747.78585
1570289747.80148
1570289747.8171
1570289747.83273
1570289747.84835
1570289747.86398
1570289747.8796
1570289747.89523
1570289747.91086
1570289747.92648
1570289747.94211
1570289747.95773
1570289747.97336
1570289747.98898
1570289748.00461
1570289748.02024
1570289748.03586
1570289748.05149
1570289748.06711
1570289748.08274
1570289748.09836
1570289748.11399
1570289748.12962
1570289748.14524
1570289748.16087
1570289748.17649
1570289748.19212
1570289748.20774
1570289748.22337
1570289748.239
1570289748.25462
1570289748.27025
1570289748.28587
1570289748.3015
1570289748.31712
1570289748.33275
1570289748.34838
1570289748.364
1570289748.37963
1570289748.39525
1570289748.41088
1570289748.4265
1570289748.44213
1570289748.45776
1570289748.47338
1570289748.48901
1570289748.50463
1570289748.52026
1570289748.53588
1570289748.55151
1570289748.56714
1570289748.58276
1570289748.59839
1570289748.61401
1570289748.62964
1570289748.64526
1570289748.66089
1570289748.67652
1570289748.69214
1570289748.70777
1570289748.72339
1570289748.73902
1570289748.75464
1570289748.77027
1570289748.7859
1570289748.80152
1570289748.81715
1570289748.83277
1570289748.8484
1570289748.86402
1570289748.87965
1570289748.89528
1570289748.9109
1570289748.92653
1570289748.94215
1570289748.95778
1570289748.9734
1570289748.98903
1570289749.00466
1570289749.02028
1570289749.03591
1570289749.05153
1570289749.06716
1570289749.08278
1570289749.09841
1570289749.11404
1570289749.12966
1570289749.14529
1570289749.16091
1570289749.17654
1570289749.19216
1570289749.20779
1570289749.22342
1570289749.23904
1570289749.25467
1570289749.27029
1570289749.28592
1570289749.30154
1570289749.31717
1570289749.3328
1570289749.34842
1570289749.36405
1570289749.37967
1570289749.3953
1570289749.41092
1570289749.42655
1570289749.44218
1570289749.4578
1570289749.47343
1570289749.48905
1570289749.50468
1570289749.52031
1570289749.53593
1570289749.55156
1570289749.56718
1570289749.58281
1570289749.59843
1570289749.61406
1570289749.62969
1570289749.64531
1570289749.66094
1570289749.67656
1570289749.69219
1570289749.70781
1570289749.72344
1570289749.73907
1570289749.75469
1570289749.77032
1570289749.78594
1570289749.80157
1570289749.81719
1570289749.83282
1570289749.84845
1570289749.86407
1570289749.8797
1570289749.89532
1570289749.91095
1570289749.92657
1570289749.9422
1570289749.95783
1570289749.97345
1570289749.98908
1570289750.0047
1570289750.02033
1570289750.03595
1570289750.05158
1570289750.06721
1570289750.08283
1570289750.09846
1570289750.11408
1570289750.12971
1570289750.14533
1570289750.16096
1570289750.17659
1570289750.19221
1570289750.20784
1570289750.22346
1570289750.23909
1570289750.25471
1570289750.27034
1570289750.28597
1570289750.30159
1570289750.31722
1570289750.33284
1570289750.34847
1570289750.36409
1570289750.37972
1570289750.39535
1570289750.41097
1570289750.4266
1570289750.44222
1570289750.45785
1570289750.47347
1570289750.4891
1570289750.50473
1570289750.52035
1570289750.53598
1570289750.5516
1570289750.56723
1570289750.58285
1570289750.59848
1570289750.61411
1570289750.62973
1570289750.64536
1570289750.66098
1570289750.67661
1570289750.69223
1570289750.70786
1570289750.72349
1570289750.73911
1570289750.75474
1570289750.77036
1570289750.78599
1570289750.80161
1570289750.81724
1570289750.83287
1570289750.84849
1570289750.86412
1570289750.87974
1570289750.89537
1570289750.91099
1570289750.92662
1570289750.94225
1570289750.95787
1570289750.9735
1570289750.98912
1570289751.00475
1570289751.02037
1570289751.036
1570289751.05163
1570289751.06725
1570289751.08288
1570289751.0985
1570289751.11413
1570289751.12975
1570289751.14538
1570289751.16101
1570289751.17663
1570289751.19226
1570289751.20788
1570289751.22351
1570289751.23913
1570289751.25476
1570289751.27039
1570289751.28601
1570289751.30164
1570289751.31726
1570289751.33289
1570289751.34851
1570289751.36414
1570289751.37977
1570289751.39539
1570289751.41102
1570289751.42664
1570289751.44227
1570289751.45789
1570289751.47352
1570289751.48915
1570289751.50477
1570289751.5204
1570289751.53602
1570289751.55165
1570289751.56727
1570289751.5829
1570289751.59853
1570289751.61415
1570289751.62978
1570289751.6454
1570289751.66103
1570289751.67666
1570289751.69228
1570289751.70791
1570289751.72353
1570289751.73916
1570289751.75478
1570289751.77041
1570289751.78604
1570289751.80166
1570289751.81729
1570289751.83291
1570289751.84854
1570289751.86416
1570289751.87979
1570289751.89542
1570289751.91104
1570289751.92667
1570289751.94229
1570289751.95792
1570289751.97354
1570289751.98917
1570289752.0048
1570289752.02042
1570289752.03605
1570289752.05167
1570289752.0673
1570289752.08292
1570289752.09855
1570289752.11418
1570289752.1298
1570289752.14543
1570289752.16105
1570289752.17668
1570289752.1923
1570289752.20793
1570289752.22356
1570289752.23918
1570289752.25481
1570289752.27043
1570289752.28606
1570289752.30168
1570289752.31731
1570289752.33294
1570289752.34856
1570289752.36419
1570289752.37981
1570289752.39544
1570289752.41106
1570289752.42669
1570289752.44232
1570289752.45794
1570289752.47357
1570289752.48919
1570289752.50482
1570289752.52044
1570289752.53607
1570289752.5517
1570289752.56732
1570289752.58295
1570289752.59857
1570289752.6142
1570289752.62982
1570289752.64545
1570289752.66108
1570289752.6767
1570289752.69233
1570289752.70795
1570289752.72358
1570289752.7392
1570289752.75483
1570289752.77046
1570289752.78608
1570289752.80171
1570289752.81733
1570289752.83296
1570289752.84858
1570289752.86421
1570289752.87984
1570289752.89546
1570289752.91109
1570289752.92671
1570289752.94234
1570289752.95796
1570289752.97359
1570289752.98922
1570289753.00484
1570289753.02047
1570289753.03609
1570289753.05172
1570289753.06734
1570289753.08297
1570289753.0986
1570289753.11422
1570289753.12985
1570289753.14547
1570289753.1611
1570289753.17672
1570289753.19235
1570289753.20798
1570289753.2236
1570289753.23923
1570289753.25485
1570289753.27048
1570289753.2861
1570289753.30173
1570289753.31736
1570289753.33298
1570289753.34861
1570289753.36423
1570289753.37986
1570289753.39548
1570289753.41111
1570289753.42674
1570289753.44236
1570289753.45799
1570289753.47361
1570289753.48924
1570289753.50486
1570289753.52049
1570289753.53612
1570289753.55174
1570289753.56737
1570289753.58299
1570289753.59862
1570289753.61424
1570289753.62987
1570289753.6455
1570289753.66112
1570289753.67675
1570289753.69237
1570289753.708
1570289753.72362
1570289753.73925
1570289753.75488
1570289753.7705
1570289753.78613
1570289753.80175
1570289753.81738
1570289753.833
1570289753.84863
1570289753.86426
1570289753.87988
1570289753.89551
1570289753.91113
1570289753.92676
1570289753.94238
1570289753.95801
1570289753.97364
1570289753.98926
1570289754.00489
1570289754.02051
1570289754.03614
1570289754.05176
1570289754.06739
1570289754.08302
1570289754.09864
1570289754.11427
1570289754.12989
1570289754.14552
1570289754.16114
1570289754.17677
1570289754.1924
1570289754.20802
1570289754.22365
1570289754.23927
1570289754.2549
1570289754.27052
1570289754.28615
1570289754.30178
1570289754.3174
1570289754.33303
1570289754.34865
1570289754.36428
1570289754.37991
1570289754.39553
1570289754.41116
1570289754.42678
1570289754.44241
1570289754.45803
1570289754.47366
1570289754.48929
1570289754.50491
1570289754.52054
1570289754.53616
1570289754.55179
1570289754.56741
1570289754.58304
1570289754.59867
1570289754.61429
1570289754.62992
1570289754.64554
1570289754.66117
1570289754.67679
1570289754.69242
1570289754.70805
1570289754.72367
1570289754.7393
1570289754.75492
1570289754.77055
1570289754.78617
1570289754.8018
1570289754.81743
1570289754.83305
1570289754.84868
1570289754.8643
1570289754.87993
1570289754.89555
1570289754.91118
1570289754.92681
1570289754.94243
1570289754.95806
1570289754.97368
1570289754.98931
1570289755.00493
1570289755.02056
1570289755.03619
1570289755.05181
1570289755.06744
1570289755.08306
1570289755.09869
1570289755.11431
1570289755.12994
1570289755.14557
1570289755.16119
1570289755.17682
1570289755.19244
1570289755.20807
1570289755.22369
1570289755.23932
1570289755.25495
1570289755.27057
1570289755.2862
1570289755.30182
1570289755.31745
1570289755.33307
1570289755.3487
1570289755.36433
1570289755.37995
1570289755.39558
1570289755.4112
1570289755.42683
1570289755.44245
1570289755.45808
1570289755.47371
1570289755.48933
1570289755.50496
1570289755.52058
1570289755.53621
1570289755.55183
1570289755.56746
1570289755.58309
1570289755.59871
1570289755.61434
1570289755.62996
1570289755.64559
1570289755.66121
1570289755.67684
1570289755.69247
1570289755.70809
1570289755.72372
1570289755.73934
1570289755.75497
1570289755.77059
1570289755.78622
1570289755.80185
1570289755.81747
1570289755.8331
1570289755.84872
1570289755.86435
1570289755.87997
1570289755.8956
1570289755.91123
1570289755.92685
1570289755.94248
1570289755.9581
1570289755.97373
1570289755.98935
1570289756.00498
1570289756.02061
1570289756.03623
1570289756.05186
1570289756.06748
1570289756.08311
1570289756.09873
1570289756.11436
1570289756.12999
1570289756.14561
1570289756.16124
1570289756.17686
1570289756.19249
1570289756.20811
1570289756.22374
1570289756.23937
1570289756.25499
1570289756.27062
1570289756.28624
1570289756.30187
1570289756.31749
1570289756.33312
1570289756.34875
1570289756.36437
1570289756.38
1570289756.39562
1570289756.41125
1570289756.42687
1570289756.4425
1570289756.45813
1570289756.47375
1570289756.48938
1570289756.505
1570289756.52063
1570289756.53626
1570289756.55188
1570289756.56751
1570289756.58313
1570289756.59876
1570289756.61438
1570289756.63001
1570289756.64564
1570289756.66126
1570289756.67689
1570289756.69251
1570289756.70814
1570289756.72376
1570289756.73939
1570289756.75502
1570289756.77064
1570289756.78627
1570289756.80189
1570289756.81752
1570289756.83314
1570289756.84877
1570289756.8644
1570289756.88002
1570289756.89565
1570289756.91127
1570289756.9269
1570289756.94252
1570289756.95815
1570289756.97378
1570289756.9894
1570289757.00503
1570289757.02065
1570289757.03628
1570289757.0519
1570289757.06753
1570289757.08316
1570289757.09878
1570289757.11441
1570289757.13003
1570289757.14566
1570289757.16128
1570289757.17691
1570289757.19254
1570289757.20816
1570289757.22379
1570289757.23941
1570289757.25504
1570289757.27066
1570289757.28629
1570289757.30192
1570289757.31754
1570289757.33317
1570289757.34879
1570289757.36442
1570289757.38004
1570289757.39567
1570289757.4113
1570289757.42692
1570289757.44255
1570289757.45817
1570289757.4738
1570289757.48942
1570289757.50505
1570289757.52068
1570289757.5363
1570289757.55193
1570289757.56755
1570289757.58318
1570289757.5988
1570289757.61443
1570289757.63006
1570289757.64568
1570289757.66131
1570289757.67693
1570289757.69256
1570289757.70818
1570289757.72381
1570289757.73944
1570289757.75506
1570289757.77069
1570289757.78631
1570289757.80194
1570289757.81756
1570289757.83319
1570289757.84882
1570289757.86444
1570289757.88007
1570289757.89569
1570289757.91132
1570289757.92694
1570289757.94257
1570289757.9582
1570289757.97382
1570289757.98945
1570289758.00507
1570289758.0207
1570289758.03632
1570289758.05195
1570289758.06758
1570289758.0832
1570289758.09883
1570289758.11445
1570289758.13008
1570289758.1457
1570289758.16133
1570289758.17696
1570289758.19258
1570289758.20821
1570289758.22383
1570289758.23946
1570289758.25508
1570289758.27071
1570289758.28634
1570289758.30196
1570289758.31759
1570289758.33321
1570289758.34884
1570289758.36446
1570289758.38009
1570289758.39572
1570289758.41134
1570289758.42697
1570289758.44259
1570289758.45822
1570289758.47384
1570289758.48947
1570289758.5051
1570289758.52072
1570289758.53635
1570289758.55197
1570289758.5676
1570289758.58322
1570289758.59885
1570289758.61448
1570289758.6301
1570289758.64573
1570289758.66135
1570289758.67698
1570289758.6926
1570289758.70823
1570289758.72386
1570289758.73948
1570289758.75511
1570289758.77073
1570289758.78636
1570289758.80199
1570289758.81761
1570289758.83324
1570289758.84886
1570289758.86449
1570289758.88011
1570289758.89574
1570289758.91137
1570289758.92699
1570289758.94262
1570289758.95824
1570289758.97387
1570289758.98949
1570289759.00512
1570289759.02075
1570289759.03637
1570289759.052
1570289759.06762
1570289759.08325
1570289759.09887
1570289759.1145
1570289759.13013
1570289759.14575
1570289759.16138
1570289759.177
1570289759.19263
1570289759.20825
1570289759.22388
1570289759.23951
1570289759.25513
1570289759.27076
1570289759.28638
1570289759.30201
1570289759.31763
1570289759.33326
1570289759.34889
1570289759.36451
1570289759.38014
1570289759.39576
1570289759.41139
1570289759.42701
1570289759.44264
1570289759.45827
1570289759.47389
1570289759.48952
1570289759.50514
1570289759.52077
1570289759.53639
1570289759.55202
1570289759.56765
1570289759.58327
1570289759.5989
1570289759.61452
1570289759.63015
1570289759.64577
1570289759.6614
1570289759.67703
1570289759.69265
1570289759.70828
1570289759.7239
1570289759.73953
1570289759.75515
1570289759.77078
1570289759.78641
1570289759.80203
1570289759.81766
1570289759.83328
1570289759.84891
1570289759.86453
1570289759.88016
1570289759.89579
1570289759.91141
1570289759.92704
1570289759.94266
1570289759.95829
1570289759.97391
1570289759.98954
1570289760.00517
1570289760.02079
1570289760.03642
1570289760.05204
1570289760.06767
1570289760.08329
1570289760.09892
1570289760.11455
1570289760.13017
1570289760.1458
1570289760.16142
1570289760.17705
1570289760.19267
1570289760.2083
1570289760.22393
1570289760.23955
1570289760.25518
1570289760.2708
1570289760.28643
1570289760.30205
1570289760.31768
1570289760.33331
1570289760.34893
1570289760.36456
1570289760.38018
1570289760.39581
1570289760.41143
1570289760.42706
1570289760.44269
1570289760.45831
1570289760.47394
1570289760.48956
1570289760.50519
1570289760.52081
1570289760.53644
1570289760.55207
1570289760.56769
1570289760.58332
1570289760.59894
1570289760.61457
1570289760.63019
1570289760.64582
1570289760.66145
1570289760.67707
1570289760.6927
1570289760.70832
1570289760.72395
1570289760.73957
1570289760.7552
1570289760.77083
1570289760.78645
1570289760.80208
1570289760.8177
1570289760.83333
1570289760.84895
1570289760.86458
1570289760.88021
1570289760.89583
1570289760.91146
1570289760.92708
1570289760.94271
1570289760.95833
1570289760.97396
1570289760.98959
1570289761.00521
1570289761.02084
1570289761.03646
1570289761.05209
1570289761.06771
1570289761.08334
1570289761.09897
1570289761.11459
1570289761.13022
1570289761.14584
1570289761.16147
1570289761.17709
1570289761.19272
1570289761.20835
1570289761.22397
1570289761.2396
1570289761.25522
1570289761.27085
1570289761.28647
1570289761.3021
1570289761.31773
1570289761.33335
1570289761.34898
1570289761.3646
1570289761.38023
1570289761.39586
1570289761.41148
1570289761.42711
1570289761.44273
1570289761.45836
1570289761.47398
1570289761.48961
1570289761.50524
1570289761.52086
1570289761.53649
1570289761.55211
1570289761.56774
1570289761.58336
1570289761.59899
1570289761.61462
1570289761.63024
1570289761.64587
1570289761.66149
1570289761.67712
1570289761.69274
1570289761.70837
1570289761.724
1570289761.73962
1570289761.75525
1570289761.77087
1570289761.7865
1570289761.80212
1570289761.81775
1570289761.83338
1570289761.849
1570289761.86463
1570289761.88025
1570289761.89588
1570289761.9115
1570289761.92713
1570289761.94276
1570289761.95838
1570289761.97401
1570289761.98963
1570289762.00526
1570289762.02088
1570289762.03651
1570289762.05214
1570289762.06776
1570289762.08339
1570289762.09901
1570289762.11464
1570289762.13026
1570289762.14589
1570289762.16152
1570289762.17714
1570289762.19277
1570289762.20839
1570289762.22402
1570289762.23964
1570289762.25527
1570289762.2709
1570289762.28652
1570289762.30215
1570289762.31777
1570289762.3334
1570289762.34902
1570289762.36465
1570289762.38028
1570289762.3959
1570289762.41153
1570289762.42715
1570289762.44278
1570289762.4584
1570289762.47403
1570289762.48966
1570289762.50528
1570289762.52091
1570289762.53653
1570289762.55216
1570289762.56778
1570289762.58341
1570289762.59904
1570289762.61466
1570289762.63029
1570289762.64591
1570289762.66154
1570289762.67716
1570289762.69279
1570289762.70842
1570289762.72404
1570289762.73967
1570289762.75529
1570289762.77092
1570289762.78654
1570289762.80217
1570289762.8178
1570289762.83342
1570289762.84905
1570289762.86467
1570289762.8803
1570289762.89592
1570289762.91155
1570289762.92718
1570289762.9428
1570289762.95843
1570289762.97405
1570289762.98968
1570289763.0053
1570289763.02093
1570289763.03656
1570289763.05218
1570289763.06781
1570289763.08343
1570289763.09906
1570289763.11468
1570289763.13031
1570289763.14594
1570289763.16156
1570289763.17719
1570289763.19281
1570289763.20844
1570289763.22406
1570289763.23969
1570289763.25532
1570289763.27094
1570289763.28657
1570289763.30219
1570289763.31782
1570289763.33344
1570289763.34907
1570289763.3647
1570289763.38032
1570289763.39595
1570289763.41157
1570289763.4272
1570289763.44282
1570289763.45845
1570289763.47408
1570289763.4897
1570289763.50533
1570289763.52095
1570289763.53658
1570289763.5522
1570289763.56783
1570289763.58346
1570289763.59908
1570289763.61471
1570289763.63033
1570289763.64596
1570289763.66159
1570289763.67721
1570289763.69284
1570289763.70846
1570289763.72409
1570289763.73971
1570289763.75534
1570289763.77097
1570289763.78659
1570289763.80222
1570289763.81784
1570289763.83347
1570289763.84909
1570289763.86472
1570289763.88035
1570289763.89597
1570289763.9116
1570289763.92722
1570289763.94285
1570289763.95847
1570289763.9741
1570289763.98973
1570289764.00535
1570289764.02098
1570289764.0366
1570289764.05223
1570289764.06785
1570289764.08348
1570289764.09911
1570289764.11473
1570289764.13036
1570289764.14598
1570289764.16161
1570289764.17723
1570289764.19286
1570289764.20849
1570289764.22411
1570289764.23974
1570289764.25536
1570289764.27099
1570289764.28661
1570289764.30224
1570289764.31787
1570289764.33349
1570289764.34912
1570289764.36474
1570289764.38037
1570289764.39599
1570289764.41162
1570289764.42725
1570289764.44287
1570289764.4585
1570289764.47412
1570289764.48975
1570289764.50537
1570289764.521
1570289764.53663
1570289764.55225
1570289764.56788
1570289764.5835
1570289764.59913
1570289764.61475
1570289764.63038
1570289764.64601
1570289764.66163
1570289764.67726
1570289764.69288
1570289764.70851
1570289764.72413
1570289764.73976
1570289764.75539
1570289764.77101
1570289764.78664
1570289764.80226
1570289764.81789
1570289764.83351
1570289764.84914
1570289764.86477
1570289764.88039
1570289764.89602
1570289764.91164
1570289764.92727
1570289764.94289
1570289764.95852
1570289764.97415
1570289764.98977
1570289765.0054
1570289765.02102
1570289765.03665
1570289765.05227
1570289765.0679
1570289765.08353
1570289765.09915
1570289765.11478
1570289765.1304
1570289765.14603
1570289765.16165
1570289765.17728
1570289765.19291
1570289765.20853
1570289765.22416
1570289765.23978
1570289765.25541
1570289765.27103
1570289765.28666
1570289765.30229
1570289765.31791
1570289765.33354
1570289765.34916
1570289765.36479
1570289765.38041
1570289765.39604
1570289765.41167
1570289765.42729
1570289765.44292
1570289765.45854
1570289765.47417
1570289765.48979
1570289765.50542
1570289765.52105
1570289765.53667
1570289765.5523
1570289765.56792
1570289765.58355
1570289765.59917
1570289765.6148
1570289765.63043
1570289765.64605
1570289765.66168
1570289765.6773
1570289765.69293
1570289765.70855
1570289765.72418
1570289765.73981
1570289765.75543
1570289765.77106
1570289765.78668
1570289765.80231
1570289765.81793
1570289765.83356
1570289765.84919
1570289765.86481
1570289765.88044
1570289765.89606
1570289765.91169
1570289765.92732
1570289765.94294
1570289765.95857
1570289765.97419
1570289765.98982
1570289766.00544
1570289766.02107
1570289766.0367
1570289766.05232
1570289766.06795
1570289766.08357
1570289766.0992
1570289766.11482
1570289766.13045
1570289766.14608
1570289766.1617
1570289766.17733
1570289766.19295
1570289766.20858
1570289766.2242
1570289766.23983
1570289766.25546
1570289766.27108
1570289766.28671
1570289766.30233
1570289766.31796
1570289766.33358
1570289766.34921
1570289766.36484
1570289766.38046
1570289766.39609
1570289766.41171
1570289766.42734
1570289766.44296
1570289766.45859
1570289766.47422
1570289766.48984
1570289766.50547
1570289766.52109
1570289766.53672
1570289766.55234
1570289766.56797
1570289766.5836
1570289766.59922
1570289766.61485
1570289766.63047
1570289766.6461
1570289766.66172
1570289766.67735
1570289766.69298
1570289766.7086
1570289766.72423
1570289766.73985
1570289766.75548
1570289766.7711
1570289766.78673
1570289766.80236
1570289766.81798
1570289766.83361
1570289766.84923
1570289766.86486
1570289766.88048
1570289766.89611
1570289766.91174
1570289766.92736
1570289766.94299
1570289766.95861
1570289766.97424
1570289766.98986
1570289767.00549
1570289767.02112
1570289767.03674
1570289767.05237
1570289767.06799
1570289767.08362
1570289767.09924
1570289767.11487
1570289767.1305
1570289767.14612
1570289767.16175
1570289767.17737
1570289767.193
1570289767.20862
1570289767.22425
1570289767.23988
1570289767.2555
1570289767.27113
1570289767.28675
1570289767.30238
1570289767.318
1570289767.33363
1570289767.34926
1570289767.36488
1570289767.38051
1570289767.39613
1570289767.41176
1570289767.42738
1570289767.44301
1570289767.45864
1570289767.47426
1570289767.48989
1570289767.50551
1570289767.52114
1570289767.53676
1570289767.55239
1570289767.56802
1570289767.58364
1570289767.59927
1570289767.61489
1570289767.63052
1570289767.64614
1570289767.66177
1570289767.6774
1570289767.69302
1570289767.70865
1570289767.72427
1570289767.7399
1570289767.75552
1570289767.77115
1570289767.78678
1570289767.8024
1570289767.81803
1570289767.83365
1570289767.84928
1570289767.8649
1570289767.88053
1570289767.89616
1570289767.91178
1570289767.92741
1570289767.94303
1570289767.95866
1570289767.97428
1570289767.98991
1570289768.00554
1570289768.02116
1570289768.03679
1570289768.05241
1570289768.06804
1570289768.08366
1570289768.09929
1570289768.11492
1570289768.13054
1570289768.14617
1570289768.16179
1570289768.17742
1570289768.19304
1570289768.20867
1570289768.2243
1570289768.23992
1570289768.25555
1570289768.27117
1570289768.2868
1570289768.30242
1570289768.31805
1570289768.33368
1570289768.3493
1570289768.36493
1570289768.38055
1570289768.39618
1570289768.4118
1570289768.42743
1570289768.44306
1570289768.45868
1570289768.47431
1570289768.48993
1570289768.50556
1570289768.52119
1570289768.53681
1570289768.55244
1570289768.56806
1570289768.58369
1570289768.59931
1570289768.61494
1570289768.63057
1570289768.64619
1570289768.66182
1570289768.67744
1570289768.69307
1570289768.70869
1570289768.72432
1570289768.73995
1570289768.75557
1570289768.7712
1570289768.78682
1570289768.80245
1570289768.81807
1570289768.8337
1570289768.84933
1570289768.86495
1570289768.88058
1570289768.8962
1570289768.91183
1570289768.92745
1570289768.94308
1570289768.95871
1570289768.97433
1570289768.98996
1570289769.00558
1570289769.02121
1570289769.03683
1570289769.05246
1570289769.06809
1570289769.08371
1570289769.09934
1570289769.11496
1570289769.13059
1570289769.14621
1570289769.16184
1570289769.17747
1570289769.19309
1570289769.20872
1570289769.22434
1570289769.23997
1570289769.25559
1570289769.27122
1570289769.28685
1570289769.30247
1570289769.3181
1570289769.33372
1570289769.34935
1570289769.36497
1570289769.3806
1570289769.39623
1570289769.41185
1570289769.42748
1570289769.4431
1570289769.45873
1570289769.47435
1570289769.48998
1570289769.50561
1570289769.52123
1570289769.53686
1570289769.55248
1570289769.56811
1570289769.58373
1570289769.59936
1570289769.61499
1570289769.63061
1570289769.64624
1570289769.66186
1570289769.67749
1570289769.69311
1570289769.70874
1570289769.72437
1570289769.73999
1570289769.75562
1570289769.77124
1570289769.78687
1570289769.80249
1570289769.81812
1570289769.83375
1570289769.84937
1570289769.865
1570289769.88062
1570289769.89625
1570289769.91187
1570289769.9275
1570289769.94313
1570289769.95875
1570289769.97438
1570289769.99
1570289770.00563
1570289770.02125
1570289770.03688
1570289770.05251
1570289770.06813
1570289770.08376
1570289770.09938
1570289770.11501
1570289770.13063
1570289770.14626
1570289770.16189
1570289770.17751
1570289770.19314
1570289770.20876
1570289770.22439
1570289770.24001
1570289770.25564
1570289770.27127
1570289770.28689
1570289770.30252
1570289770.31814
1570289770.33377
1570289770.34939
1570289770.36502
1570289770.38065
1570289770.39627
1570289770.4119
1570289770.42752
1570289770.44315
1570289770.45877
1570289770.4744
1570289770.49003
1570289770.50565
1570289770.52128
1570289770.5369
1570289770.55253
1570289770.56815
1570289770.58378
1570289770.59941
1570289770.61503
1570289770.63066
1570289770.64628
1570289770.66191
1570289770.67753
1570289770.69316
1570289770.70879
1570289770.72441
1570289770.74004
1570289770.75566
1570289770.77129
1570289770.78692
1570289770.80254
1570289770.81817
1570289770.83379
1570289770.84942
1570289770.86504
1570289770.88067
1570289770.8963
1570289770.91192
1570289770.92755
1570289770.94317
1570289770.9588
1570289770.97442
1570289770.99005
1570289771.00568
1570289771.0213
1570289771.03693
1570289771.05255
1570289771.06818
1570289771.0838
1570289771.09943
1570289771.11506
1570289771.13068
1570289771.14631
1570289771.16193
1570289771.17756
1570289771.19318
1570289771.20881
1570289771.22444
1570289771.24006
1570289771.25569
1570289771.27131
1570289771.28694
1570289771.30256
1570289771.31819
1570289771.33382
1570289771.34944
1570289771.36507
1570289771.38069
1570289771.39632
1570289771.41194
1570289771.42757
1570289771.4432
1570289771.45882
1570289771.47445
1570289771.49007
1570289771.5057
1570289771.52132
1570289771.53695
1570289771.55258
1570289771.5682
1570289771.58383
1570289771.59945
1570289771.61508
1570289771.6307
1570289771.64633
1570289771.66196
1570289771.67758
1570289771.69321
1570289771.70883
1570289771.72446
1570289771.74008
1570289771.75571
1570289771.77134
1570289771.78696
1570289771.80259
1570289771.81821
1570289771.83384
1570289771.84946
1570289771.86509
1570289771.88072
1570289771.89634
1570289771.91197
1570289771.92759
1570289771.94322
1570289771.95884
1570289771.97447
1570289771.9901
1570289772.00572
1570289772.02135
1570289772.03697
1570289772.0526
1570289772.06822
1570289772.08385
1570289772.09948
1570289772.1151
1570289772.13073
1570289772.14635
1570289772.16198
1570289772.1776
1570289772.19323
1570289772.20886
1570289772.22448
1570289772.24011
1570289772.25573
1570289772.27136
1570289772.28698
1570289772.30261
1570289772.31824
1570289772.33386
1570289772.34949
1570289772.36511
1570289772.38074
1570289772.39636
1570289772.41199
1570289772.42762
1570289772.44324
1570289772.45887
1570289772.47449
1570289772.49012
1570289772.50574
1570289772.52137
1570289772.537
1570289772.55262
1570289772.56825
1570289772.58387
1570289772.5995
1570289772.61512
1570289772.63075
1570289772.64638
1570289772.662
1570289772.67763
1570289772.69325
1570289772.70888
1570289772.7245
1570289772.74013
1570289772.75576
1570289772.77138
1570289772.78701
1570289772.80263
1570289772.81826
1570289772.83388
1570289772.84951
1570289772.86514
1570289772.88076
1570289772.89639
1570289772.91201
1570289772.92764
1570289772.94326
1570289772.95889
1570289772.97452
1570289772.99014
1570289773.00577
1570289773.02139
1570289773.03702
1570289773.05264
1570289773.06827
1570289773.0839
1570289773.09952
1570289773.11515
1570289773.13077
1570289773.1464
1570289773.16202
1570289773.17765
1570289773.19328
1570289773.2089
1570289773.22453
1570289773.24015
1570289773.25578
1570289773.2714
1570289773.28703
1570289773.30266
1570289773.31828
1570289773.33391
1570289773.34953
1570289773.36516
1570289773.38079
1570289773.39641
1570289773.41204
1570289773.42766
1570289773.44329
1570289773.45891
1570289773.47454
1570289773.49017
1570289773.50579
1570289773.52142
1570289773.53704
1570289773.55267
1570289773.56829
1570289773.58392
1570289773.59955
1570289773.61517
1570289773.6308
1570289773.64642
1570289773.66205
1570289773.67767
1570289773.6933
1570289773.70893
1570289773.72455
1570289773.74018
1570289773.7558
1570289773.77143
1570289773.78705
1570289773.80268
1570289773.81831
1570289773.83393
1570289773.84956
1570289773.86518
1570289773.88081
1570289773.89643
1570289773.91206
1570289773.92769
1570289773.94331
1570289773.95894
1570289773.97456
1570289773.99019
1570289774.00581
1570289774.02144
1570289774.03707
1570289774.05269
1570289774.06832
1570289774.08394
1570289774.09957
1570289774.11519
1570289774.13082
1570289774.14645
1570289774.16207
1570289774.1777
1570289774.19332
1570289774.20895
1570289774.22457
1570289774.2402
1570289774.25583
1570289774.27145
1570289774.28708
1570289774.3027
1570289774.31833
1570289774.33395
1570289774.34958
1570289774.36521
1570289774.38083
1570289774.39646
1570289774.41208
1570289774.42771
1570289774.44333
1570289774.45896
1570289774.47459
1570289774.49021
1570289774.50584
1570289774.52146
1570289774.53709
1570289774.55271
1570289774.56834
1570289774.58397
1570289774.59959
1570289774.61522
1570289774.63084
1570289774.64647
1570289774.66209
1570289774.67772
1570289774.69335
1570289774.70897
1570289774.7246
1570289774.74022
1570289774.75585
1570289774.77147
1570289774.7871
1570289774.80273
1570289774.81835
1570289774.83398
1570289774.8496
1570289774.86523
1570289774.88085
1570289774.89648
1570289774.91211
1570289774.92773
1570289774.94336
1570289774.95898
1570289774.97461
1570289774.99023
1570289775.00586
1570289775.02149
1570289775.03711
1570289775.05274
1570289775.06836
1570289775.08399
1570289775.09961
1570289775.11524
1570289775.13087
1570289775.14649
1570289775.16212
1570289775.17774
1570289775.19337
1570289775.20899
1570289775.22462
1570289775.24025
1570289775.25587
1570289775.2715
1570289775.28712
1570289775.30275
1570289775.31837
1570289775.334
1570289775.34963
1570289775.36525
1570289775.38088
1570289775.3965
1570289775.41213
1570289775.42775
1570289775.44338
1570289775.45901
1570289775.47463
1570289775.49026
1570289775.50588
1570289775.52151
1570289775.53713
1570289775.55276
1570289775.56839
1570289775.58401
1570289775.59964
1570289775.61526
1570289775.63089
1570289775.64652
1570289775.66214
1570289775.67777
1570289775.69339
1570289775.70902
1570289775.72464
1570289775.74027
1570289775.7559
1570289775.77152
1570289775.78715
1570289775.80277
1570289775.8184
1570289775.83402
1570289775.84965
1570289775.86528
1570289775.8809
1570289775.89653
1570289775.91215
1570289775.92778
1570289775.9434
1570289775.95903
1570289775.97466
1570289775.99028
1570289776.00591
1570289776.02153
1570289776.03716
1570289776.05278
1570289776.06841
1570289776.08404
1570289776.09966
1570289776.11529
1570289776.13091
1570289776.14654
1570289776.16216
1570289776.17779
1570289776.19342
1570289776.20904
1570289776.22467
1570289776.24029
1570289776.25592
1570289776.27154
1570289776.28717
1570289776.3028
1570289776.31842
1570289776.33405
1570289776.34967
1570289776.3653
1570289776.38092
1570289776.39655
1570289776.41218
1570289776.4278
1570289776.44343
1570289776.45905
1570289776.47468
1570289776.4903
1570289776.50593
1570289776.52156
1570289776.53718
1570289776.55281
1570289776.56843
1570289776.58406
1570289776.59968
1570289776.61531
1570289776.63094
1570289776.64656
1570289776.66219
1570289776.67781
1570289776.69344
1570289776.70906
1570289776.72469
1570289776.74032
1570289776.75594
1570289776.77157
1570289776.78719
1570289776.80282
1570289776.81844
1570289776.83407
1570289776.8497
1570289776.86532
1570289776.88095
1570289776.89657
1570289776.9122
1570289776.92782
1570289776.94345
1570289776.95908
1570289776.9747
1570289776.99033
1570289777.00595
1570289777.02158
1570289777.0372
1570289777.05283
1570289777.06846
1570289777.08408
1570289777.09971
1570289777.11533
1570289777.13096
1570289777.14658
1570289777.16221
1570289777.17784
1570289777.19346
1570289777.20909
1570289777.22471
1570289777.24034
1570289777.25596
1570289777.27159
1570289777.28722
1570289777.30284
1570289777.31847
1570289777.33409
1570289777.34972
1570289777.36534
1570289777.38097
1570289777.3966
1570289777.41222
1570289777.42785
1570289777.44347
1570289777.4591
1570289777.47472
1570289777.49035
1570289777.50598
1570289777.5216
1570289777.53723
1570289777.55285
1570289777.56848
1570289777.5841
1570289777.59973
1570289777.61536
1570289777.63098
1570289777.64661
1570289777.66223
1570289777.67786
1570289777.69348
1570289777.70911
1570289777.72474
1570289777.74036
1570289777.75599
1570289777.77161
1570289777.78724
1570289777.80287
1570289777.81849
1570289777.83412
1570289777.84974
1570289777.86537
1570289777.88099
1570289777.89662
1570289777.91225
1570289777.92787
1570289777.9435
1570289777.95912
1570289777.97475
1570289777.99037
1570289778.006
1570289778.02163
1570289778.03725
1570289778.05288
1570289778.0685
1570289778.08413
1570289778.09975
1570289778.11538
1570289778.13101
1570289778.14663
1570289778.16226
1570289778.17788
1570289778.19351
1570289778.20913
1570289778.22476
1570289778.24039
1570289778.25601
1570289778.27164
1570289778.28726
1570289778.30289
1570289778.31851
1570289778.33414
1570289778.34977
1570289778.36539
1570289778.38102
1570289778.39664
1570289778.41227
1570289778.42789
1570289778.44352
1570289778.45915
1570289778.47477
1570289778.4904
1570289778.50602
1570289778.52165
1570289778.53727
1570289778.5529
1570289778.56853
1570289778.58415
1570289778.59978
1570289778.6154
1570289778.63103
1570289778.64665
1570289778.66228
1570289778.67791
1570289778.69353
1570289778.70916
1570289778.72478
1570289778.74041
1570289778.75603
1570289778.77166
1570289778.78729
1570289778.80291
1570289778.81854
1570289778.83416
1570289778.84979
1570289778.86541
1570289778.88104
1570289778.89667
1570289778.91229
1570289778.92792
1570289778.94354
1570289778.95917
1570289778.97479
1570289778.99042
1570289779.00605
1570289779.02167
1570289779.0373
1570289779.05292
1570289779.06855
1570289779.08417
1570289779.0998
1570289779.11543
1570289779.13105
1570289779.14668
1570289779.1623
1570289779.17793
1570289779.19355
1570289779.20918
1570289779.22481
1570289779.24043
1570289779.25606
1570289779.27168
1570289779.28731
1570289779.30293
1570289779.31856
1570289779.33419
1570289779.34981
1570289779.36544
1570289779.38106
1570289779.39669
1570289779.41231
1570289779.42794
1570289779.44357
1570289779.45919
1570289779.47482
1570289779.49044
1570289779.50607
1570289779.52169
1570289779.53732
1570289779.55295
1570289779.56857
1570289779.5842
1570289779.59982
1570289779.61545
1570289779.63107
1570289779.6467
1570289779.66233
1570289779.67795
1570289779.69358
1570289779.7092
1570289779.72483
1570289779.74045
1570289779.75608
1570289779.77171
1570289779.78733
1570289779.80296
1570289779.81858
1570289779.83421
1570289779.84983
1570289779.86546
1570289779.88109
1570289779.89671
1570289779.91234
1570289779.92796
1570289779.94359
1570289779.95921
1570289779.97484
1570289779.99047
1570289780.00609
1570289780.02172
1570289780.03734
1570289780.05297
1570289780.06859
1570289780.08422
1570289780.09985
1570289780.11547
1570289780.1311
1570289780.14672
1570289780.16235
1570289780.17797
1570289780.1936
1570289780.20923
1570289780.22485
1570289780.24048
1570289780.2561
1570289780.27173
1570289780.28735
1570289780.30298
1570289780.31861
1570289780.33423
1570289780.34986
1570289780.36548
1570289780.38111
1570289780.39673
1570289780.41236
1570289780.42799
1570289780.44361
1570289780.45924
1570289780.47486
1570289780.49049
1570289780.50612
1570289780.52174
1570289780.53737
1570289780.55299
1570289780.56862
1570289780.58424
1570289780.59987
1570289780.6155
1570289780.63112
1570289780.64675
1570289780.66237
1570289780.678
1570289780.69362
1570289780.70925
1570289780.72488
1570289780.7405
1570289780.75613
1570289780.77175
1570289780.78738
1570289780.803
1570289780.81863
1570289780.83426
1570289780.84988
1570289780.86551
1570289780.88113
1570289780.89676
1570289780.91238
1570289780.92801
1570289780.94364
1570289780.95926
1570289780.97489
1570289780.99051
1570289781.00614
1570289781.02176
1570289781.03739
1570289781.05302
1570289781.06864
1570289781.08427
1570289781.09989
1570289781.11552
1570289781.13114
1570289781.14677
1570289781.1624
1570289781.17802
1570289781.19365
1570289781.20927
1570289781.2249
1570289781.24052
1570289781.25615
1570289781.27178
1570289781.2874
1570289781.30303
1570289781.31865
1570289781.33428
1570289781.3499
1570289781.36553
1570289781.38116
1570289781.39678
1570289781.41241
1570289781.42803
1570289781.44366
1570289781.45928
1570289781.47491
1570289781.49054
1570289781.50616
1570289781.52179
1570289781.53741
1570289781.55304
1570289781.56866
1570289781.58429
1570289781.59992
1570289781.61554
1570289781.63117
1570289781.64679
1570289781.66242
1570289781.67804
1570289781.69367
1570289781.7093
1570289781.72492
1570289781.74055
1570289781.75617
1570289781.7718
1570289781.78742
1570289781.80305
1570289781.81868
1570289781.8343
1570289781.84993
1570289781.86555
1570289781.88118
1570289781.8968
1570289781.91243
1570289781.92806
1570289781.94368
1570289781.95931
1570289781.97493
1570289781.99056
1570289782.00618
1570289782.02181
1570289782.03744
1570289782.05306
1570289782.06869
1570289782.08431
1570289782.09994
1570289782.11556
1570289782.13119
1570289782.14682
1570289782.16244
1570289782.17807
1570289782.19369
1570289782.20932
1570289782.22494
1570289782.24057
1570289782.2562
1570289782.27182
1570289782.28745
1570289782.30307
1570289782.3187
1570289782.33432
1570289782.34995
1570289782.36558
1570289782.3812
1570289782.39683
1570289782.41245
1570289782.42808
1570289782.4437
1570289782.45933
1570289782.47496
1570289782.49058
1570289782.50621
1570289782.52183
1570289782.53746
1570289782.55308
1570289782.56871
1570289782.58434
1570289782.59996
1570289782.61559
1570289782.63121
1570289782.64684
1570289782.66247
1570289782.67809
1570289782.69372
1570289782.70934
1570289782.72497
1570289782.74059
1570289782.75622
1570289782.77185
1570289782.78747
1570289782.8031
1570289782.81872
1570289782.83435
1570289782.84997
1570289782.8656
1570289782.88123
1570289782.89685
1570289782.91248
1570289782.9281
1570289782.94373
1570289782.95935
1570289782.97498
1570289782.99061
1570289783.00623
1570289783.02186
1570289783.03748
1570289783.05311
1570289783.06873
1570289783.08436
1570289783.09999
1570289783.11561
1570289783.13124
1570289783.14686
1570289783.16249
1570289783.17811
1570289783.19374
1570289783.20937
1570289783.22499
1570289783.24062
1570289783.25624
1570289783.27187
1570289783.28749
1570289783.30312
1570289783.31875
1570289783.33437
1570289783.35
1570289783.36562
1570289783.38125
1570289783.39687
1570289783.4125
1570289783.42813
1570289783.44375
1570289783.45938
1570289783.475
1570289783.49063
1570289783.50625
1570289783.52188
1570289783.53751
1570289783.55313
1570289783.56876
1570289783.58438
1570289783.60001
1570289783.61563
1570289783.63126
1570289783.64689
1570289783.66251
1570289783.67814
1570289783.69376
1570289783.70939
1570289783.72501
1570289783.74064
1570289783.75627
1570289783.77189
1570289783.78752
1570289783.80314
1570289783.81877
1570289783.83439
1570289783.85002
1570289783.86565
1570289783.88127
1570289783.8969
1570289783.91252
1570289783.92815
1570289783.94377
1570289783.9594
1570289783.97503
1570289783.99065
1570289784.00628
1570289784.0219
1570289784.03753
1570289784.05315
1570289784.06878
1570289784.08441
1570289784.10003
1570289784.11566
1570289784.13128
1570289784.14691
1570289784.16253
1570289784.17816
1570289784.19379
1570289784.20941
1570289784.22504
1570289784.24066
1570289784.25629
1570289784.27191
1570289784.28754
1570289784.30317
1570289784.31879
1570289784.33442
1570289784.35004
1570289784.36567
1570289784.38129
1570289784.39692
1570289784.41255
1570289784.42817
1570289784.4438
1570289784.45942
1570289784.47505
1570289784.49067
1570289784.5063
1570289784.52193
1570289784.53755
1570289784.55318
1570289784.5688
1570289784.58443
1570289784.60005
1570289784.61568
1570289784.63131
1570289784.64693
1570289784.66256
1570289784.67818
1570289784.69381
1570289784.70943
1570289784.72506
1570289784.74069
1570289784.75631
1570289784.77194
1570289784.78756
1570289784.80319
1570289784.81881
1570289784.83444
1570289784.85007
1570289784.86569
1570289784.88132
1570289784.89694
1570289784.91257
1570289784.9282
1570289784.94382
1570289784.95945
1570289784.97507
1570289784.9907
1570289785.00632
1570289785.02195
1570289785.03758
1570289785.0532
1570289785.06883
1570289785.08445
1570289785.10008
1570289785.1157
1570289785.13133
1570289785.14696
1570289785.16258
1570289785.17821
1570289785.19383
1570289785.20946
1570289785.22508
1570289785.24071
1570289785.25634
1570289785.27196
1570289785.28759
1570289785.30321
1570289785.31884
1570289785.33446
1570289785.35009
1570289785.36572
1570289785.38134
1570289785.39697
1570289785.41259
1570289785.42822
1570289785.44384
1570289785.45947
1570289785.4751
1570289785.49072
1570289785.50635
1570289785.52197
1570289785.5376
1570289785.55322
1570289785.56885
1570289785.58448
1570289785.6001
1570289785.61573
1570289785.63135
1570289785.64698
1570289785.6626
1570289785.67823
1570289785.69386
1570289785.70948
1570289785.72511
1570289785.74073
1570289785.75636
1570289785.77198
1570289785.78761
1570289785.80324
1570289785.81886
1570289785.83449
1570289785.85011
1570289785.86574
1570289785.88136
1570289785.89699
1570289785.91262
1570289785.92824
1570289785.94387
1570289785.95949
1570289785.97512
1570289785.99074
1570289786.00637
1570289786.022
1570289786.03762
1570289786.05325
1570289786.06887
1570289786.0845
1570289786.10012
1570289786.11575
1570289786.13138
1570289786.147
1570289786.16263
1570289786.17825
1570289786.19388
1570289786.2095
1570289786.22513
1570289786.24076
1570289786.25638
1570289786.27201
1570289786.28763
1570289786.30326
1570289786.31888
1570289786.33451
1570289786.35014
1570289786.36576
1570289786.38139
1570289786.39701
1570289786.41264
1570289786.42826
1570289786.44389
1570289786.45952
1570289786.47514
1570289786.49077
1570289786.50639
1570289786.52202
1570289786.53764
1570289786.55327
1570289786.5689
1570289786.58452
1570289786.60015
1570289786.61577
1570289786.6314
1570289786.64702
1570289786.66265
1570289786.67828
1570289786.6939
1570289786.70953
1570289786.72515
1570289786.74078
1570289786.7564
1570289786.77203
1570289786.78766
1570289786.80328
1570289786.81891
1570289786.83453
1570289786.85016
1570289786.86578
1570289786.88141
1570289786.89704
1570289786.91266
1570289786.92829
1570289786.94391
1570289786.95954
1570289786.97516
1570289786.99079
1570289787.00642
1570289787.02204
1570289787.03767
1570289787.05329
1570289787.06892
1570289787.08454
1570289787.10017
1570289787.1158
1570289787.13142
1570289787.14705
1570289787.16267
1570289787.1783
1570289787.19392
1570289787.20955
1570289787.22518
1570289787.2408
1570289787.25643
1570289787.27205
1570289787.28768
1570289787.3033
1570289787.31893
1570289787.33456
1570289787.35018
1570289787.36581
1570289787.38143
1570289787.39706
1570289787.41268
1570289787.42831
1570289787.44394
1570289787.45956
1570289787.47519
1570289787.49081
1570289787.50644
1570289787.52207
1570289787.53769
1570289787.55332
1570289787.56894
1570289787.58457
1570289787.60019
1570289787.61582
1570289787.63145
1570289787.64707
1570289787.6627
1570289787.67832
1570289787.69395
1570289787.70957
1570289787.7252
1570289787.74083
1570289787.75645
1570289787.77208
1570289787.7877
1570289787.80333
1570289787.81895
1570289787.83458
1570289787.85021
1570289787.86583
1570289787.88146
1570289787.89708
1570289787.91271
1570289787.92833
1570289787.94396
1570289787.95959
1570289787.97521
1570289787.99084
1570289788.00646
1570289788.02209
1570289788.03771
1570289788.05334
1570289788.06897
1570289788.08459
1570289788.10022
1570289788.11584
1570289788.13147
1570289788.14709
1570289788.16272
1570289788.17835
1570289788.19397
1570289788.2096
1570289788.22522
1570289788.24085
1570289788.25647
1570289788.2721
1570289788.28773
1570289788.30335
1570289788.31898
1570289788.3346
1570289788.35023
1570289788.36585
1570289788.38148
1570289788.39711
1570289788.41273
1570289788.42836
1570289788.44398
1570289788.45961
1570289788.47523
1570289788.49086
1570289788.50649
1570289788.52211
1570289788.53774
1570289788.55336
1570289788.56899
1570289788.58461
1570289788.60024
1570289788.61587
1570289788.63149
1570289788.64712
1570289788.66274
1570289788.67837
1570289788.69399
1570289788.70962
1570289788.72525
1570289788.74087
1570289788.7565
1570289788.77212
1570289788.78775
1570289788.80337
1570289788.819
1570289788.83463
1570289788.85025
1570289788.86588
1570289788.8815
1570289788.89713
1570289788.91275
1570289788.92838
1570289788.94401
1570289788.95963
1570289788.97526
1570289788.99088
1570289789.00651
1570289789.02213
1570289789.03776
1570289789.05339
1570289789.06901
1570289789.08464
1570289789.10026
1570289789.11589
1570289789.13151
1570289789.14714
1570289789.16277
1570289789.17839
1570289789.19402
1570289789.20964
1570289789.22527
1570289789.24089
1570289789.25652
1570289789.27215
1570289789.28777
1570289789.3034
1570289789.31902
1570289789.33465
1570289789.35027
1570289789.3659
1570289789.38153
1570289789.39715
1570289789.41278
1570289789.4284
1570289789.44403
1570289789.45965
1570289789.47528
1570289789.49091
1570289789.50653
1570289789.52216
1570289789.53778
1570289789.55341
1570289789.56903
1570289789.58466
1570289789.60029
1570289789.61591
1570289789.63154
1570289789.64716
1570289789.66279
1570289789.67841
1570289789.69404
1570289789.70967
1570289789.72529
1570289789.74092
1570289789.75654
1570289789.77217
1570289789.7878
1570289789.80342
1570289789.81905
1570289789.83467
1570289789.8503
1570289789.86592
1570289789.88155
1570289789.89718
1570289789.9128
1570289789.92843
1570289789.94405
1570289789.95968
1570289789.9753
1570289789.99093
1570289790.00656
1570289790.02218
1570289790.03781
1570289790.05343
1570289790.06906
1570289790.08468
1570289790.10031
1570289790.11594
1570289790.13156
1570289790.14719
1570289790.16281
1570289790.17844
1570289790.19406
1570289790.20969
1570289790.22532
1570289790.24094
1570289790.25657
1570289790.27219
1570289790.28782
1570289790.30344
1570289790.31907
1570289790.3347
1570289790.35032
1570289790.36595
1570289790.38157
1570289790.3972
1570289790.41282
1570289790.42845
1570289790.44408
1570289790.4597
1570289790.47533
1570289790.49095
1570289790.50658
1570289790.5222
1570289790.53783
1570289790.55346
1570289790.56908
1570289790.58471
1570289790.60033
1570289790.61596
1570289790.63158
1570289790.64721
1570289790.66284
1570289790.67846
1570289790.69409
1570289790.70971
1570289790.72534
1570289790.74096
1570289790.75659
1570289790.77222
1570289790.78784
1570289790.80347
1570289790.81909
1570289790.83472
1570289790.85034
1570289790.86597
1570289790.8816
1570289790.89722
1570289790.91285
1570289790.92847
1570289790.9441
1570289790.95972
1570289790.97535
1570289790.99098
1570289791.0066
1570289791.02223
1570289791.03785
1570289791.05348
1570289791.0691
1570289791.08473
1570289791.10036
1570289791.11598
1570289791.13161
1570289791.14723
1570289791.16286
1570289791.17848
1570289791.19411
1570289791.20974
1570289791.22536
1570289791.24099
1570289791.25661
1570289791.27224
1570289791.28786
1570289791.30349
1570289791.31912
1570289791.33474
1570289791.35037
1570289791.36599
1570289791.38162
1570289791.39724
1570289791.41287
1570289791.4285
1570289791.44412
1570289791.45975
1570289791.47537
1570289791.491
1570289791.50662
1570289791.52225
1570289791.53788
1570289791.5535
1570289791.56913
1570289791.58475
1570289791.60038
1570289791.616
1570289791.63163
1570289791.64726
1570289791.66288
1570289791.67851
1570289791.69413
1570289791.70976
1570289791.72538
1570289791.74101
1570289791.75664
1570289791.77226
1570289791.78789
1570289791.80351
1570289791.81914
1570289791.83476
1570289791.85039
1570289791.86602
1570289791.88164
1570289791.89727
1570289791.91289
1570289791.92852
1570289791.94414
1570289791.95977
1570289791.9754
1570289791.99102
1570289792.00665
1570289792.02227
1570289792.0379
1570289792.05352
1570289792.06915
1570289792.08478
1570289792.1004
1570289792.11603
1570289792.13165
1570289792.14728
1570289792.1629
1570289792.17853
1570289792.19416
1570289792.20978
1570289792.22541
1570289792.24103
1570289792.25666
1570289792.27228
1570289792.28791
1570289792.30354
1570289792.31916
1570289792.33479
1570289792.35041
1570289792.36604
1570289792.38167
1570289792.39729
1570289792.41292
1570289792.42854
1570289792.44417
1570289792.45979
1570289792.47542
1570289792.49105
1570289792.50667
1570289792.5223
1570289792.53792
1570289792.55355
1570289792.56917
1570289792.5848
1570289792.60043
1570289792.61605
1570289792.63168
1570289792.6473
1570289792.66293
1570289792.67855
1570289792.69418
1570289792.70981
1570289792.72543
1570289792.74106
1570289792.75668
1570289792.77231
1570289792.78793
1570289792.80356
1570289792.81919
1570289792.83481
1570289792.85044
1570289792.86606
1570289792.88169
1570289792.89731
1570289792.91294
1570289792.92857
1570289792.94419
1570289792.95982
1570289792.97544
1570289792.99107
1570289793.00669
1570289793.02232
1570289793.03795
1570289793.05357
1570289793.0692
1570289793.08482
1570289793.10045
1570289793.11607
1570289793.1317
1570289793.14733
1570289793.16295
1570289793.17858
1570289793.1942
1570289793.20983
1570289793.22545
1570289793.24108
1570289793.25671
1570289793.27233
1570289793.28796
1570289793.30358
1570289793.31921
1570289793.33483
1570289793.35046
1570289793.36609
1570289793.38171
1570289793.39734
1570289793.41296
1570289793.42859
1570289793.44421
1570289793.45984
1570289793.47547
1570289793.49109
1570289793.50672
1570289793.52234
1570289793.53797
1570289793.55359
1570289793.56922
1570289793.58485
1570289793.60047
1570289793.6161
1570289793.63172
1570289793.64735
1570289793.66297
1570289793.6786
1570289793.69423
1570289793.70985
1570289793.72548
1570289793.7411
1570289793.75673
1570289793.77235
1570289793.78798
1570289793.80361
1570289793.81923
1570289793.83486
1570289793.85048
1570289793.86611
1570289793.88173
1570289793.89736
1570289793.91299
1570289793.92861
1570289793.94424
1570289793.95986
1570289793.97549
1570289793.99111
1570289794.00674
1570289794.02237
1570289794.03799
1570289794.05362
1570289794.06924
1570289794.08487
1570289794.10049
1570289794.11612
1570289794.13175
1570289794.14737
1570289794.163
1570289794.17862
1570289794.19425
1570289794.20987
1570289794.2255
1570289794.24113
1570289794.25675
1570289794.27238
1570289794.288
1570289794.30363
1570289794.31925
1570289794.33488
1570289794.35051
1570289794.36613
1570289794.38176
1570289794.39738
1570289794.41301
1570289794.42863
1570289794.44426
1570289794.45989
1570289794.47551
1570289794.49114
1570289794.50676
1570289794.52239
1570289794.53801
1570289794.55364
1570289794.56927
1570289794.58489
1570289794.60052
1570289794.61614
1570289794.63177
1570289794.6474
1570289794.66302
1570289794.67865
1570289794.69427
1570289794.7099
1570289794.72552
1570289794.74115
1570289794.75678
1570289794.7724
1570289794.78803
1570289794.80365
1570289794.81928
1570289794.8349
1570289794.85053
1570289794.86616
1570289794.88178
1570289794.89741
1570289794.91303
1570289794.92866
1570289794.94428
1570289794.95991
1570289794.97554
1570289794.99116
1570289795.00679
1570289795.02241
1570289795.03804
1570289795.05366
1570289795.06929
1570289795.08492
1570289795.10054
1570289795.11617
1570289795.13179
1570289795.14742
1570289795.16304
1570289795.17867
1570289795.1943
1570289795.20992
1570289795.22555
1570289795.24117
1570289795.2568
1570289795.27242
1570289795.28805
1570289795.30368
1570289795.3193
1570289795.33493
1570289795.35055
1570289795.36618
1570289795.3818
1570289795.39743
1570289795.41306
1570289795.42868
1570289795.44431
1570289795.45993
1570289795.47556
1570289795.49118
1570289795.50681
1570289795.52244
1570289795.53806
1570289795.55369
1570289795.56931
1570289795.58494
1570289795.60056
1570289795.61619
1570289795.63182
1570289795.64744
1570289795.66307
1570289795.67869
1570289795.69432
1570289795.70994
1570289795.72557
1570289795.7412
1570289795.75682
1570289795.77245
1570289795.78807
1570289795.8037
1570289795.81932
1570289795.83495
1570289795.85058
1570289795.8662
1570289795.88183
1570289795.89745
1570289795.91308
1570289795.9287
1570289795.94433
1570289795.95996
1570289795.97558
1570289795.99121
1570289796.00683
1570289796.02246
1570289796.03808
1570289796.05371
1570289796.06934
1570289796.08496
1570289796.10059
1570289796.11621
1570289796.13184
1570289796.14746
1570289796.16309
1570289796.17872
1570289796.19434
1570289796.20997
1570289796.22559
1570289796.24122
1570289796.25684
1570289796.27247
1570289796.2881
1570289796.30372
1570289796.31935
1570289796.33497
1570289796.3506
1570289796.36622
1570289796.38185
1570289796.39748
1570289796.4131
1570289796.42873
1570289796.44435
1570289796.45998
1570289796.4756
1570289796.49123
1570289796.50686
1570289796.52248
1570289796.53811
1570289796.55373
1570289796.56936
1570289796.58498
1570289796.60061
1570289796.61624
1570289796.63186
1570289796.64749
1570289796.66311
1570289796.67874
1570289796.69436
1570289796.70999
1570289796.72562
1570289796.74124
1570289796.75687
1570289796.77249
1570289796.78812
1570289796.80375
1570289796.81937
1570289796.835
1570289796.85062
1570289796.86625
1570289796.88187
1570289796.8975
1570289796.91313
1570289796.92875
1570289796.94438
1570289796.96
1570289796.97563
1570289796.99125
1570289797.00688
1570289797.02251
1570289797.03813
1570289797.05376
1570289797.06938
1570289797.08501
1570289797.10063
1570289797.11626
1570289797.13189
1570289797.14751
1570289797.16314
1570289797.17876
1570289797.19439
1570289797.21001
1570289797.22564
1570289797.24127
1570289797.25689
1570289797.27252
1570289797.28814
1570289797.30377
1570289797.31939
1570289797.33502
1570289797.35065
1570289797.36627
1570289797.3819
1570289797.39752
1570289797.41315
1570289797.42877
1570289797.4444
1570289797.46003
1570289797.47565
1570289797.49128
1570289797.5069
1570289797.52253
1570289797.53815
1570289797.55378
1570289797.56941
1570289797.58503
1570289797.60066
1570289797.61628
1570289797.63191
1570289797.64753
1570289797.66316
1570289797.67879
1570289797.69441
1570289797.71004
1570289797.72566
1570289797.74129
1570289797.75691
1570289797.77254
1570289797.78817
1570289797.80379
1570289797.81942
1570289797.83504
1570289797.85067
1570289797.86629
1570289797.88192
1570289797.89755
1570289797.91317
1570289797.9288
1570289797.94442
1570289797.96005
1570289797.97567
1570289797.9913
1570289798.00693
1570289798.02255
1570289798.03818
1570289798.0538
1570289798.06943
1570289798.08505
1570289798.10068
1570289798.11631
1570289798.13193
1570289798.14756
1570289798.16318
1570289798.17881
1570289798.19443
1570289798.21006
1570289798.22569
1570289798.24131
1570289798.25694
1570289798.27256
1570289798.28819
1570289798.30381
1570289798.31944
1570289798.33507
1570289798.35069
1570289798.36632
1570289798.38194
1570289798.39757
1570289798.41319
1570289798.42882
1570289798.44445
1570289798.46007
1570289798.4757
1570289798.49132
1570289798.50695
1570289798.52257
1570289798.5382
1570289798.55383
1570289798.56945
1570289798.58508
1570289798.6007
1570289798.61633
1570289798.63195
1570289798.64758
1570289798.66321
1570289798.67883
1570289798.69446
1570289798.71008
1570289798.72571
1570289798.74133
1570289798.75696
1570289798.77259
1570289798.78821
1570289798.80384
1570289798.81946
1570289798.83509
1570289798.85071
1570289798.86634
1570289798.88197
1570289798.89759
1570289798.91322
1570289798.92884
1570289798.94447
1570289798.96009
1570289798.97572
1570289798.99135
1570289799.00697
1570289799.0226
1570289799.03822
1570289799.05385
1570289799.06947
1570289799.0851
1570289799.10073
1570289799.11635
1570289799.13198
1570289799.1476
1570289799.16323
1570289799.17885
1570289799.19448
1570289799.21011
1570289799.22573
1570289799.24136
1570289799.25698
1570289799.27261
1570289799.28823
1570289799.30386
1570289799.31949
1570289799.33511
1570289799.35074
1570289799.36636
1570289799.38199
1570289799.39761
1570289799.41324
1570289799.42887
1570289799.44449
1570289799.46012
1570289799.47574
1570289799.49137
1570289799.507
1570289799.52262
1570289799.53825
1570289799.55387
1570289799.5695
1570289799.58512
1570289799.60075
1570289799.61638
1570289799.632
1570289799.64763
1570289799.66325
1570289799.67888
1570289799.6945
1570289799.71013
1570289799.72576
1570289799.74138
1570289799.75701
1570289799.77263
1570289799.78826
1570289799.80388
1570289799.81951
1570289799.83514
1570289799.85076
1570289799.86639
1570289799.88201
1570289799.89764
1570289799.91326
1570289799.92889
1570289799.94452
1570289799.96014
1570289799.97577
1570289799.99139
1570289800.00702
1570289800.02264
1570289800.03827
1570289800.0539
1570289800.06952
1570289800.08515
1570289800.10077
1570289800.1164
1570289800.13202
1570289800.14765
1570289800.16328
1570289800.1789
1570289800.19453
1570289800.21015
1570289800.22578
1570289800.2414
1570289800.25703
1570289800.27266
1570289800.28828
1570289800.30391
1570289800.31953
1570289800.33516
1570289800.35078
1570289800.36641
1570289800.38204
1570289800.39766
1570289800.41329
1570289800.42891
1570289800.44454
1570289800.46016
1570289800.47579
1570289800.49142
1570289800.50704
1570289800.52267
1570289800.53829
1570289800.55392
1570289800.56954
1570289800.58517
1570289800.6008
1570289800.61642
1570289800.63205
1570289800.64767
1570289800.6633
1570289800.67892
1570289800.69455
1570289800.71018
1570289800.7258
1570289800.74143
1570289800.75705
1570289800.77268
1570289800.7883
1570289800.80393
1570289800.81956
1570289800.83518
1570289800.85081
1570289800.86643
1570289800.88206
1570289800.89768
1570289800.91331
1570289800.92894
1570289800.94456
1570289800.96019
1570289800.97581
1570289800.99144
1570289801.00706
1570289801.02269
1570289801.03832
1570289801.05394
1570289801.06957
1570289801.08519
1570289801.10082
1570289801.11644
1570289801.13207
1570289801.1477
1570289801.16332
1570289801.17895
1570289801.19457
1570289801.2102
1570289801.22582
1570289801.24145
1570289801.25708
1570289801.2727
1570289801.28833
1570289801.30395
1570289801.31958
1570289801.3352
1570289801.35083
1570289801.36646
1570289801.38208
1570289801.39771
1570289801.41333
1570289801.42896
1570289801.44458
1570289801.46021
1570289801.47584
1570289801.49146
1570289801.50709
1570289801.52271
1570289801.53834
1570289801.55396
1570289801.56959
1570289801.58522
1570289801.60084
1570289801.61647
1570289801.63209
1570289801.64772
1570289801.66334
1570289801.67897
1570289801.6946
1570289801.71022
1570289801.72585
1570289801.74147
1570289801.7571
1570289801.77273
1570289801.78835
1570289801.80398
1570289801.8196
1570289801.83523
1570289801.85085
1570289801.86648
1570289801.88211
1570289801.89773
1570289801.91336
1570289801.92898
1570289801.94461
1570289801.96023
1570289801.97586
1570289801.99149
1570289802.00711
1570289802.02274
1570289802.03836
1570289802.05399
1570289802.06961
1570289802.08524
1570289802.10087
1570289802.11649
1570289802.13212
1570289802.14774
1570289802.16337
1570289802.17899
1570289802.19462
1570289802.21025
1570289802.22587
1570289802.2415
1570289802.25712
1570289802.27275
1570289802.28837
1570289802.304
1570289802.31963
1570289802.33525
1570289802.35088
1570289802.3665
1570289802.38213
1570289802.39775
1570289802.41338
1570289802.42901
1570289802.44463
1570289802.46026
1570289802.47588
1570289802.49151
1570289802.50713
1570289802.52276
1570289802.53839
1570289802.55401
1570289802.56964
1570289802.58526
1570289802.60089
1570289802.61651
1570289802.63214
1570289802.64777
1570289802.66339
1570289802.67902
1570289802.69464
1570289802.71027
1570289802.72589
1570289802.74152
1570289802.75715
1570289802.77277
1570289802.7884
1570289802.80402
1570289802.81965
1570289802.83527
1570289802.8509
1570289802.86653
1570289802.88215
1570289802.89778
1570289802.9134
1570289802.92903
1570289802.94465
1570289802.96028
1570289802.97591
1570289802.99153
1570289803.00716
1570289803.02278
1570289803.03841
1570289803.05403
1570289803.06966
