-22.63127
-16.9596
-11.10823
-5.684402
-1.094494
2.510784
5.135677
6.901463
7.989727
8.615059
8.971191
9.199657
9.385979
9.543507
9.682915
9.82486
10.00976
10.26984
10.63585
11.07766
11.5438
11.97073
12.3032
12.52305
12.6179
12.54414
12.21893
11.58593
10.64595
9.511627
8.381653
7.431908
6.735031
6.228157
5.720356
5.019638
4.017643
2.758297
1.408211
0.1518326
-0.9082031
-1.80624
-2.694115
-3.751175
-5.068977
-6.605957
-8.214462
-9.696808
-10.9025
-11.80162
-12.51131
-13.2621
-14.32547
-15.93024
-18.12563
-20.78168
-23.56698
-26.01307
-27.63174
-27.99892
-26.85577
-24.15441
-20.08691
-15.02558
-9.502533
-4.070644
0.7945862
4.799393
7.830669
9.907146
11.11206
11.54025
11.3174
10.63667
9.773502
9.04285
8.693436
8.81345
9.291725
9.903717
10.42536
10.7373
10.84017
10.81078
10.71989
10.54203
10.19398
9.576782
8.627552
7.374466
5.928303
4.449352
3.079716
1.906422
0.9365883
0.09283829
-0.763237
-1.760395
-3.022785
-4.604431
-6.45702
-8.460056
-10.4397
-12.22755
-13.76527
-15.13522
-16.56234
-18.31764
-20.59681
-23.39931
-26.47053
-29.35273
-31.44775
-32.19494
-31.20115
-28.34301
-23.8322
-18.14115
-11.92168
-5.832115
-0.4037552
4.061497
7.499149
10.00005
11.75919
12.91333
13.59027
13.88606
13.90923
13.79552
13.69475
13.71549
13.88081
14.13661
14.34573
14.42529
14.36247
14.2344
14.13993
14.13371
14.16005
14.07588
13.73216
13.00653
11.91252
10.53841
9.04156
7.571529
6.240916
5.063648
3.975878
2.831528
1.449902
-0.2982159
-2.426146
-4.810909
-7.212015
-9.391484
-11.20787
-12.69975
-14.04522
-15.53661
-17.45551
-19.98248
-23.12579
-26.67839
-30.23687
-33.24999
-35.10963
-35.28735
-33.48484
-29.72362
-24.37804
-18.07275
-11.50752
-5.292809
0.2083168
4.877928
8.76647
11.94649
14.45717
16.25361
17.29366
17.61411
17.37672
16.82365
16.20185
15.67331
15.30979
15.09886
15.01564
15.02568
15.14277
15.36253
15.63918
15.86637
15.88558
15.53818
14.73714
13.52654
12.05451
10.54853
9.238007
8.281471
7.718697
7.480831
7.428993
7.386021
7.17543
6.630741
5.615028
4.06646
2.033997
-0.3309402
-2.826935
-5.30859
-7.737362
-10.17695
-12.7455
-15.48946
-18.37791
-21.33409
-24.27988
-27.16232
-29.85
-32.06452
-33.32468
-33.06007
-30.82899
-26.55247
-20.62536
-13.7896
-6.872383
-0.5327454
4.874245
9.280884
12.76839
15.424
17.31432
18.50129
19.11602
19.32771
19.30894
19.19732
19.05013
18.91174
18.8445
18.94386
19.27929
19.87414
20.61395
21.30908
21.7859
21.93475
21.72092
21.14642
20.23392
19.00124
17.51795
15.92905
14.43196
13.19676
12.26284
11.49561
10.63402
9.424751
7.7472
5.668373
3.392075
1.159241
-0.8768616
-2.719841
-4.449135
-6.194687
-8.035606
-9.97097
-11.92712
-13.79257
-15.45246
-16.86592
-18.10572
-19.32327
-20.77184
-22.69817
-25.23865
-28.29769
-31.48988
-34.17049
-35.57935
-35.06906
-32.3035
-27.38905
-20.86646
-13.54488
-6.269745
0.2827148
5.747894
10.03823
13.25298
15.54568
17.03782
17.83022
18.05506
17.93049
17.73515
17.75318
18.15977
18.9596
19.98344
21.00284
21.8025
22.2863
22.46553
22.41292
22.20234
21.88379
21.42728
20.80138
19.98561
18.9884
17.8755
16.70707
15.51879
14.33374
13.17474
12.03753
10.94524
9.904625
8.901436
7.928711
6.94355
5.917343
4.834282
3.712738
2.552567
1.345558
0.04811096
-1.409782
-3.045776
-4.828812
-6.682899
-8.532578
-10.33363
-12.09106
-13.82153
-15.52873
-17.21094
-18.8372
-20.41011
-21.97908
-23.67496
-25.64341
-27.96004
-30.48563
-32.83215
-34.40407
-34.56104
-32.87466
-29.28038
-24.13697
-18.07126
-11.76455
-5.738541
-0.2801285
4.501831
8.577019
11.85728
14.22057
15.59011
16.04849
15.86235
15.41492
15.08353
15.12389
15.58766
16.34259
17.17226
17.84703
18.28781
18.52622
18.67913
18.85484
19.06136
19.20432
19.11318
18.63126
17.68221
16.33881
14.79135
13.27409
11.98189
10.97456
10.16122
9.340714
8.319878
6.988571
5.394783
3.720383
2.173676
0.8859711
-0.1482697
-1.074417
-2.081429
-3.308334
-4.795219
-6.47995
-8.255852
-10.02357
-11.72853
-13.38719
-15.04427
-16.75089
-18.54021
-20.44774
-22.49542
-24.71873
-27.10602
-29.5324
-31.70186
-33.10966
-33.16906
-31.40022
-27.66824
-22.26138
-15.86711
-9.298065
-3.214256
2.030289
6.386826
9.950554
12.79316
14.86606
16.09931
16.4855
16.21918
15.64536
15.13721
14.98352
15.26178
15.87495
16.61137
17.27
17.72146
17.95467
18.0529
18.09601
18.13474
18.11515
17.93277
17.45329
16.61907
15.47493
14.14981
12.79872
11.49573
10.26211
9.058258
7.866394
6.695202
5.588375
4.573212
3.633778
2.709339
1.71172
0.6090164
-0.5916977
-1.841389
-3.145721
-4.572071
-6.215641
-8.133682
-10.25959
-12.40644
-14.33405
-15.88374
-17.08252
-18.14898
-19.42686
-21.211
-23.68679
-26.80564
-30.30452
-33.73267
-36.51828
-38.02503
-37.70589
-35.25788
-30.72602
-24.56395
-17.51205
-10.38868
-3.868908
1.63995
6.053867
9.453583
12.00729
13.84425
15.0482
15.68594
15.84013
15.65414
15.31705
15.06003
15.07167
15.45052
16.15137
17.00904
17.81851
18.43253
18.8195
19.04831
19.22741
19.35673
19.3324
18.94686
18.03436
16.58961
14.81745
13.0098
11.44792
10.26946
9.397182
8.647778
7.805412
6.745302
5.505405
4.215132
3.015417
1.974245
1.05814
0.1595345
-0.8347588
-1.985888
-3.288792
-4.701128
-6.184731
-7.760977
-9.444434
-11.24635
-13.12048
-14.93583
-16.53356
-17.82229
-18.81627
-19.69156
-20.74342
-22.26283
-24.44411
-27.2438
-30.30753
-33.03026
-34.71323
-34.74367
-32.80132
-28.94317
-23.5671
-17.32149
-10.92812
-4.990217
0.1317739
4.308761
7.620491
10.2134
12.18069
13.54319
14.27532
14.40705
14.10921
13.66772
13.42411
13.61376
14.2675
15.21472
16.18552
16.95706
17.41902
17.60219
17.60196
17.52003
17.35917
17.05448
16.5001
15.62222
14.44713
13.08305
11.7135
10.49551
9.501904
8.687279
7.920473
7.076738
6.084126
4.957246
3.782043
2.65673
1.660426
0.7989368
0.03047276
-0.7339411
-1.581676
-2.596156
-3.824788
-5.268025
-6.87947
-8.592279
-10.32478
-11.99945
-13.57658
-15.0571
-16.49054
-17.97878
-19.66651
-21.69282
-24.12059
-26.85638
-29.60134
-31.92258
-33.30006
-33.27126
-31.55607
-28.12618
-23.22742
-17.35032
-11.11093
-5.129969
0.1072598
4.330797
7.510923
9.755514
11.26228
12.20855
12.74851
13.01414
13.15798
13.3135
13.57874
13.93848
14.29787
14.54523
14.63123
14.63427
14.70759
14.96103
15.36894
15.78467
15.97306
15.7525
15.1003
14.10856
12.94128
11.7669
10.682
9.713026
8.881645
8.18832
7.605022
7.051245
6.400343
5.516399
4.33497
2.884939
1.267056
-0.3824806
-1.925623
-3.294046
-4.46393
-5.498075
-6.521429
-7.676907
-9.073704
-10.71323
-12.48567
-14.23142
-15.80651
-17.19554
-18.53704
-20.04939
-21.94697
-24.34558
-27.16413
-30.14945
-32.85918
-34.7126
-35.10606
-33.57089
-29.96523
-24.56444
-18.03774
-11.26093
-5.019018
0.1888428
4.22393
7.251869
9.512976
11.19419
12.35028
12.95282
13.02277
12.6994
12.27936
12.06821
12.27443
12.90291
13.7606
14.56898
15.11077
15.32761
15.29674
15.17423
15.05303
14.9139
14.64959
14.14398
13.3604
12.38189
11.36604
10.45985
9.702433
9.003994
8.224211
7.214111
5.952374
4.51214
3.049915
1.71958
0.5737152
-0.4365749
-1.468166
-2.648209
-4.084219
-5.776489
-7.669846
-9.670893
-11.69532
-13.65309
-15.46922
-17.13102
-18.67298
-20.2191
-21.92681
-23.91881
-26.19226
-28.54652
-30.57735
-31.75138
-31.54373
-29.60184
-25.88552
-20.69088
-14.58278
-8.269407
-2.372249
2.683324
6.724859
9.775788
11.95636
13.39293
14.19705
14.49319
14.42945
14.20903
14.02638
14.03661
14.2979
14.79199
15.40698
16.01604
16.48704
16.72357
16.69524
16.41544
15.95826
15.43278
14.90801
14.40347
13.85101
13.13851
12.17674
10.94732
9.508707
7.948236
6.349074
4.765277
3.234569
1.772197
0.3731306
-0.992671
-2.378027
-3.822943
-5.351248
-6.938144
-8.515026
-9.990062
-11.32006
-12.53345
-13.73012
-15.06874
-16.73719
-18.84949
-21.4405
-24.34807
-27.20821
-29.47636
-30.56278
-29.96962
-27.51793
-23.37149
-17.99994
-12.02527
-6.02315
-0.4356432
4.468235
8.566252
11.8072
14.18165
15.69636
16.40764
16.42517
15.90068
15.0335
14.07285
13.27006
12.85883
12.97904
13.6412
14.70531
15.91215
16.98654
17.69865
17.9484
17.75097
17.18733
16.34973
15.29117
14.0238
12.5274
10.81392
8.922911
6.98576
5.155437
3.552467
2.237316
1.157965
0.1812
-0.8497276
-2.042803
-3.417795
-4.912146
-6.458885
-8.023476
-9.632225
-11.30257
-13.03586
-14.79244
-16.51574
-18.23812
-20.07939
-22.23156
-24.82602
-27.78576
-30.7464
-33.08187
-34.05191
-33.04864
-29.83687
-24.65308
-18.1714
-11.26979
-4.753292
0.9009743
5.585587
9.451736
12.69764
15.38246
17.38837
18.57662
18.92116
18.6186
18.05736
17.62405
17.56208
17.89159
18.42254
18.93058
19.25549
19.3784
19.38527
19.34832
19.26643
19.0644
18.64304
17.95679
17.04183
15.99682
14.93838
13.93957
13.02479
12.16308
11.32256
10.48028
9.616039
8.695915
7.661205
6.415752
4.916721
3.202274
1.409348
-0.2677422
-1.682777
-2.828178
-3.861031
-5.038754
-6.588039
-8.578396
-10.87014
-13.16249
-15.18287
-16.81696
-18.18186
-19.57047
-21.29074
-23.54865
-26.35078
-29.46972
-32.47169
-34.78545
-35.80602
-35.02785
-32.20598
-27.46731
-21.31961
-14.48866
-7.725266
-1.581863
3.695488
8.063858
11.61265
14.40576
16.45517
17.73772
18.30048
18.31559
18.04391
17.76877
17.71611
17.9824
18.51712
19.2132
19.92431
20.53661
20.97226
21.17288
21.10379
20.76086
20.15309
19.32417
18.3225
17.22198
16.1078
15.04064
14.055
13.14434
12.26635
11.37331
10.42247
9.4072
8.371986
7.350376
6.358059
5.377022
4.356865
3.28252
2.184803
1.130962
0.1856518
-0.6459293
-1.443968
-2.358253
-3.573187
-5.214577
-7.316847
-9.743969
-12.25248
-14.5462
-16.39343
-17.74749
-18.76473
-19.72601
-20.96884
-22.69254
-24.90178
-27.42061
-29.89021
-31.81734
-32.69924
-32.08254
-29.69901
-25.59071
-20.12761
-13.92079
-7.694645
-2.031132
2.734888
6.515749
9.408014
11.56118
13.09739
14.1122
14.67892
14.90247
14.91416
14.84992
14.80768
14.87686
15.08754
15.43578
15.88043
16.36417
16.82969
17.21855
17.47798
17.56015
17.4236
17.08031
16.59216
16.06871
15.60139
15.19824
14.73545
14.04636
12.98954
11.57237
9.935556
8.294157
6.812801
5.532326
4.400154
3.341625
2.321945
1.362356
0.4771652
-0.3618784
-1.233201
-2.205359
-3.30743
-4.487639
-5.682066
-6.86464
-8.068398
-9.3671
-10.80405
-12.34727
-13.90215
-15.36935
-16.70629
-17.97417
-19.32488
-20.95965
-23.01729
-25.46124
-28.00807
-30.13117
-31.19878
-30.66216
-28.27758
-24.18564
-18.86605
-12.99679
-7.225296
-2.03867
2.301983
5.71965
8.250956
9.98122
11.01813
11.49774
11.58538
11.49386
11.45699
11.66469
12.2031
12.99949
13.86309
14.55049
14.89674
14.88293
14.67406
14.48872
14.50229
14.70957
14.95631
15.01513
14.71481
14.01826
13.00463
11.85149
10.70475
9.659794
8.756279
7.978539
7.291759
6.649227
6.015247
5.326973
4.531044
3.563118
2.407463
1.110493
-0.2250748
-1.455593
-2.488327
-3.294258
-3.978821
-4.72237
-5.717991
-7.050297
-8.661404
-10.37637
-11.97235
-13.3263
-14.4396
-15.46877
-16.62166
-18.09337
-19.95215
-22.16761
-24.59921
-26.97236
-28.90159
-29.89785
-29.47821
-27.30882
-23.39884
-18.13564
-12.23338
-6.506721
-1.602394
2.160339
4.841858
6.716003
8.09314
9.155655
9.921707
10.35588
10.46558
10.39052
10.32729
10.46625
10.87126
11.46716
12.09349
12.62131
13.01183
13.32044
13.64984
14.01539
14.35521
14.51526
14.35104
13.78897
12.88088
11.77126
10.63493
9.609406
8.745148
8.033585
7.409805
6.808884
6.166237
5.433319
4.590073
3.642326
2.636299
1.63765
0.6988373
-0.1627426
-1.000893
-1.922066
-3.040291
-4.42643
-6.056488
-7.831192
-9.600624
-11.23555
-12.64926
-13.84147
-14.86656
-15.85029
-16.9512
-18.32185
-20.07396
-22.22159
-24.6243
-26.96913
-28.79362
-29.58886
-28.93882
-26.65264
-22.87383
-18.01382
-12.65154
-7.358711
-2.537529
1.614471
5.05706
7.818954
9.91156
11.32287
12.07362
12.24942
12.03287
11.61891
11.18636
10.83704
10.62818
10.57071
10.69583
11.0229
11.56597
12.25942
12.96788
13.51814
13.73782
13.53963
12.92657
11.97798
10.82339
9.605324
8.419014
7.334999
6.372513
5.496025
4.630333
3.667809
2.556023
1.316452
0.06034088
-1.068031
-1.929611
-2.490189
-2.858788
-3.226067
-3.812653
-4.751083
-6.036613
-7.559776
-9.163734
-10.6986
-12.09301
-13.37372
-14.64194
-16.04622
-17.70096
-19.64505
-21.78162
-23.85429
-25.47081
-26.18566
-25.60368
-23.52882
-20.05389
-15.57288
-10.64917
-5.826256
-1.480545
2.242706
5.371368
7.94738
9.942017
11.23099
11.68811
11.34153
10.40397
9.262444
8.293892
7.749519
7.667221
7.927193
8.353821
8.792038
9.174934
9.499794
9.786888
10.00923
10.10819
9.98732
9.566826
8.864029
7.940018
6.933342
5.948471
5.024269
4.13707
3.211319
2.181183
1.009109
-0.3141174
-1.814987
-3.487389
-5.334221
-7.274429
-9.169952
-10.86522
-12.25873
-13.4124
-14.5081
-15.82035
-17.56172
-19.79737
-22.3773
-24.95351
-27.0458
-28.16254
-27.91698
-26.14011
-22.93331
-18.61235
-13.6258
-8.450386
-3.461418
1.033485
4.831764
7.797981
9.860512
11.07111
11.5774
11.59896
11.35965
11.02948
10.70107
10.43093
10.26428
10.25314
10.4072
10.66907
10.92072
11.04499
10.99992
10.83484
10.66277
10.53165
10.36027
9.967361
9.199409
8.004578
6.502518
4.897385
3.383499
2.044006
0.8224335
-0.3893356
-1.705299
-3.172989
-4.769455
-6.429382
-8.09771
-9.715561
-11.27055
-12.7645
-14.21778
-15.70834
-17.33489
-19.20696
-21.4097
-23.92667
-26.60955
-29.1144
-30.97274
-31.632
-30.6657
-27.92363
-23.6086
-18.22409
-12.39728
-6.687225
-1.425564
3.228016
7.231815
10.50174
12.90468
14.3388
14.81722
14.56337
13.95752
13.41725
13.23126
13.47197
14.03
14.70846
15.3298
15.80389
16.13604
16.34945
16.45418
16.41511
16.19728
15.81081
15.28135
14.66076
13.94963
13.10052
12.0632
10.80477
9.361858
7.843944
6.33748
4.850623
3.341146
1.703721
-0.1160278
-2.090201
-4.113067
-6.058501
-7.851709
-9.505457
-11.11856
-12.78425
-14.58811
-16.58093
-18.79403
-21.25679
-23.9804
-26.87349
-29.66178
-31.88928
-32.93423
-32.25006
-29.52271
-24.83965
-18.73262
-12.00258
-5.472929
0.2760029
5.013887
8.817528
11.86122
14.328
16.2774
17.7223
18.67883
19.2342
19.53642
19.73669
19.93866
20.17305
20.4295
20.66233
20.83854
20.95264
20.99947
20.99595
20.95186
20.8848
20.7448
20.45061
19.88489
18.98837
17.83195
16.56437
15.37265
14.36603
13.52322
12.71909
11.78866
10.6162
9.181103
7.57869
5.94371
4.428146
3.129128
2.069271
1.14785
0.1628494
-1.145664
-2.961849
-5.30381
-7.98267
-10.65342
-12.98998
-14.82874
-16.21861
-17.38422
-18.62686
-20.2099
-22.28494
-24.87902
-27.8558
-30.88329
-33.44545
-34.91215
-34.72925
-32.58125
-28.51037
-22.91595
-16.40939
-9.668499
-3.267551
2.383114
7.072475
10.74145
13.43845
15.30038
16.5071
17.23158
17.63354
17.83255
17.95527
18.12785
18.4743
19.06265
19.87863
20.81325
21.68768
22.32391
22.57442
22.38351
21.79233
20.93814
19.9917
19.12659
18.44601
17.95315
17.54913
17.06332
16.35808
15.37876
14.19502
12.94645
11.78318
10.77652
9.879372
8.971939
7.907379
6.603424
5.088104
3.491333
1.991249
0.7282715
-0.256916
-1.068707
-1.88427
-2.906723
-4.280521
-6.035599
-8.074753
-10.19247
-12.17941
-13.87034
-15.21848
-16.31929
-17.39141
-18.69826
-20.45857
-22.76747
-25.55907
-28.58254
-31.44423
-33.66663
-34.74438
-34.27954
-32.04874
-28.12988
-22.88624
-16.90857
-10.82298
-5.134693
-0.09376526
4.283089
8.093441
11.40059
14.13196
16.12645
17.24821
17.54258
17.28148
16.88214
16.73937
17.03875
17.68722
18.39933
18.88484
19.01054
18.87819
18.72165
18.76259
19.03116
19.34062
19.38829
18.94185
17.98389
16.70987
15.45697
14.49666
13.9215
13.6025
13.29422
12.76033
11.88472
10.73724
9.476959
8.273655
7.210941
6.234741
5.241364
4.145832
2.956734
1.76387
0.6502762
-0.355175
-1.329231
-2.399521
-3.663086
-5.128448
-6.692745
-8.221418
-9.640863
-10.96278
-12.28637
-13.70053
-15.23269
-16.83793
-18.44668
-20.04975
-21.7242
-23.63464
-25.85816
-28.31744
-30.65752
-32.32223
-32.67807
-31.24743
-27.88929
-22.873
-16.83861
-10.59787
-4.880085
-0.1136894
3.619881
6.508274
8.801741
10.63811
11.9936
12.7474
12.87118
12.5172
12.04304
11.84464
12.17532
13.04105
14.19895
15.32868
16.18714
16.69174
16.87861
16.84021
16.60028
16.14103
15.45241
14.55721
13.58469
12.66257
11.87573
11.20222
10.57165
9.910404
9.215852
8.565275
8.027187
7.626151
7.273344
6.817117
6.1126
5.100281
3.836221
2.484083
1.229712
0.1705937
-0.6963491
-1.502842
-2.393064
-3.454465
-4.671168
-5.946073
-7.195281
-8.391409
-9.624037
-10.99107
-12.55002
-14.22676
-15.8295
-17.1698
-18.19339
-19.02811
-19.95197
-21.2297
-22.91753
-24.7831
-26.3243
-26.92892
-26.1186
-23.67897
-19.76528
-14.80121
-9.359716
-4.000769
0.7887459
4.672028
7.46023
9.135075
9.840992
9.850677
9.48214
9.0257
8.667217
8.496159
8.55299
8.857548
9.415051
10.18012
11.03117
11.80825
12.35051
12.6263
12.70019
12.69992
12.68821
12.62202
12.36513
11.79503
10.89128
9.766846
8.616734
7.598167
6.766033
6.039501
5.272934
4.355984
3.248199
1.995113
0.700161
-0.5317459
-1.642696
-2.625992
-3.549824
-4.495895
-5.5452
-6.745869
-8.086914
-9.51263
-10.93657
-12.3094
-13.64782
-15.00914
-16.49052
-18.16
-20.07866
-22.2578
-24.66535
-27.15859
-29.43282
-31.04841
-31.48904
-30.33991
-27.45692
-23.06586
-17.68309
-11.97824
-6.540928
-1.736408
2.294422
5.58688
8.217461
10.22644
11.60018
12.35376
12.52231
12.22999
11.65499
11.02572
10.56945
10.43269
10.68956
11.29123
12.10769
12.97213
13.74487
14.34652
14.73182
14.88029
14.72924
14.20951
13.28406
12.02072
10.55524
9.091911
7.786736
6.701958
5.783051
4.912453
4.018391
3.097157
2.188503
1.325893
0.4927559
-0.3862457
-1.37101
-2.470036
-3.640362
-4.795952
-5.910553
-7.028072
-8.236237
-9.592384
-11.07761
-12.60689
-14.10035
-15.56681
-17.14068
-19.03864
-21.43775
-24.34872
-27.4914
-30.32307
-32.17346
-32.43608
-30.78513
-27.28398
-22.35224
-16.61748
-10.73754
-5.248264
-0.4748116
3.475773
6.613338
9.010742
10.72672
11.79539
12.27245
12.25665
11.91366
11.46696
11.15771
11.1487
11.47953
12.05656
12.70964
13.29741
13.7383
14.04496
14.26543
14.41247
14.4395
14.26263
13.81302
13.0873
12.18448
11.23004
10.35103
9.59269
8.909477
8.183506
7.300694
6.184956
4.836388
3.354145
1.885464
0.5748901
-0.5171394
-1.464268
-2.466537
-3.717285
-5.339275
-7.29837
-9.387104
-11.33694
-12.9319
-14.11319
-15.01389
-15.91341
-17.10122
-18.8088
-21.08927
-23.78476
-26.54252
-28.88716
-30.26942
-30.22698
-28.49123
-25.08358
-20.33099
-14.77843
-9.043875
-3.66259
1.012398
4.824936
7.779034
9.949135
11.42638
12.29443
12.63561
12.57805
12.30693
12.02957
11.9483
12.18044
12.72954
13.51133
14.37938
15.18167
15.81787
16.2359
16.46396
16.52665
16.4475
16.21594
15.80969
15.18471
14.34112
13.31079
12.16846
11.00445
9.895963
8.879646
7.917164
6.956841
5.945695
4.877676
3.778087
2.693519
1.640643
0.6063824
-0.4699917
-1.687627
-3.126958
-4.859653
-6.889148
-9.152912
-11.49823
-13.73063
-15.6788
-17.27763
-18.63316
-20.00574
-21.71483
-24.00516
-26.90121
-30.11083
-33.07696
-35.06971
-35.38839
-33.62217
-29.74551
-24.19623
-17.71791
-11.12576
-5.05332
0.1683507
4.497178
8.030605
10.80603
12.77628
13.84399
14.03689
13.56125
12.77645
12.07278
11.70275
11.73894
12.09279
12.64094
13.293
13.99572
14.72326
15.40711
15.96708
16.31654
16.41435
16.23311
15.77091
15.00835
13.94027
12.64226
11.23003
9.871147
8.675034
7.658768
6.715315
5.725452
4.627232
3.473223
2.397217
1.504669
0.7818031
0.08560562
-0.8051739
-2.096203
-3.859213
-6.018883
-8.370201
-10.68371
-12.81168
-14.7342
-16.57335
-18.53225
-20.72045
-23.09519
-25.40121
-27.20486
-27.98798
-27.31201
-24.92352
-20.87854
-15.55614
-9.541389
-3.519157
1.922989
6.40173
9.808907
12.22652
13.8214
14.74092
15.07217
14.89581
14.35038
13.67178
13.15015
13.02476
13.36804
14.08928
14.96012
15.73374
16.23134
16.38052
16.21217
15.82367
15.28548
14.60592
13.75652
12.65169
11.23282
9.492107
7.512344
5.458221
3.54945
1.955795
0.7315826
-0.1839943
-0.9653282
-1.817513
-2.896767
-4.274193
-5.923492
-7.748466
-9.634888
-11.4931
-13.29388
-15.08735
-16.9968
-19.15426
-21.66011
-24.48105
-27.38786
-29.93779
-31.54701
-31.65616
-29.9245
-26.3726
-21.35744
-15.47614
-9.390839
-3.635544
1.472328
5.814133
9.382797
12.19733
14.27264
15.65367
16.44193
16.83154
17.04816
17.28822
17.64642
18.11564
18.63001
19.1157
19.54667
19.94443
20.36803
20.8422
21.34307
21.77038
21.97337
21.8121
21.21064
20.2075
18.92894
17.54312
16.19617
14.96428
13.84497
12.81169
11.82411
10.85577
9.9076
8.967529
7.999489
6.984756
5.899246
4.738708
3.501373
2.201935
0.8384094
-0.5596237
-1.973839
-3.410248
-4.921646
-6.582924
-8.454727
-10.52673
-12.68372
-14.77538
-16.66358
-18.30996
-19.81194
-21.34247
-23.09486
-25.20187
-27.70676
-30.52284
-33.44941
-36.15173
-38.17859
-39.01128
-38.18344
-35.43555
-30.79431
-24.66244
-17.71214
-10.71284
-4.324966
1.063026
5.351074
8.697563
11.33085
13.48792
15.27311
16.68718
17.69439
18.29718
18.55187
18.60293
18.62804
18.77659
19.13262
19.68572
20.35043
21.02155
21.60179
22.04834
22.3597
22.52581
22.51376
22.26225
21.69928
20.80921
19.64375
18.3394
17.06255
15.95358
15.06758
14.33614
13.63432
12.85103
11.92505
10.91468
9.932869
9.107452
8.491264
8.034454
7.58609
6.981316
6.091797
4.8909
3.428543
1.831795
0.2449341
-1.220078
-2.527809
-3.706734
-4.848839
-6.043266
-7.344833
-8.773315
-10.29978
-11.89678
-13.51315
-15.13354
-16.71468
-18.22991
-19.65014
-20.99649
-22.34947
-23.85915
-25.7249
-28.04795
-30.75544
-33.46984
-35.56924
-36.32034
-35.12875
-31.78996
-26.56023
-20.14862
-13.42188
-7.128643
-1.690956
2.809525
6.512012
9.584736
12.08939
14.00964
15.30873
16.0476
16.4055
16.61654
16.89721
17.3326
17.90706
18.49402
18.99611
19.36442
19.61778
19.79663
19.91902
19.93819
19.77166
19.33938
18.61885
17.70268
16.75151
15.91921
15.28817
14.80278
14.33458
13.74689
12.99342
12.12384
11.23849
10.42097
9.682899
8.994904
8.319611
7.650585
6.996815
6.356331
5.691357
4.925709
4.019712
2.930658
1.709644
0.4203682
-0.8625946
-2.078365
-3.17367
-4.098717
-4.84457
-5.460546
-6.072601
-6.856924
-7.960057
-9.421619
-11.14787
-12.9349
-14.52874
-15.77641
-16.65638
-17.30726
-17.97639
-18.93355
-20.38231
-22.38363
-24.81204
-27.3587
-29.59437
-31.01561
-31.16405
-29.71741
-26.61804
-22.08219
-16.56496
-10.67104
-4.988348
-0.0002188683
4.005564
6.941191
8.901842
10.08318
10.72256
11.0449
11.22065
11.3482
11.46052
11.57985
11.71751
11.90532
12.1802
12.56101
13.04757
13.61347
14.23355
14.87675
15.49505
15.99005
16.22402
16.05903
15.42788
14.36289
13.00125
11.54597
10.20161
9.108482
8.312046
7.765039
7.34313
6.92696
6.40601
5.723772
4.876999
3.899441
2.842155
1.747169
0.6438904
-0.4521599
-1.548889
-2.645149
-3.768116
-4.952351
-6.233643
-7.621693
-9.07626
-10.52557
-11.84995
-12.96524
-13.87333
-14.68918
-15.61048
-16.86294
-18.59808
-20.81728
-23.37897
-25.99036
-28.28042
-29.85006
-30.33427
-29.44518
-27.04619
-23.22488
-18.313
-12.84114
-7.395672
-2.478714
1.620567
4.832603
7.249409
9.014713
10.21857
10.92994
11.18039
11.03832
10.61961
10.06784
9.562378
9.260948
9.288864
9.693237
10.4327
11.35451
12.27047
12.99206
13.41006
13.50134
13.27197
12.75063
11.93875
10.88481
9.704819
8.558891
7.621964
6.985008
6.622261
6.39843
6.149544
5.726089
5.057236
4.128517
2.953812
1.594284
0.1237869
-1.339989
-2.69693
-3.870987
-4.901558
-5.909721
-7.033691
-8.376427
-9.891991
-11.42127
-12.78813
-13.88167
-14.71082
-15.44081
-16.29142
-17.48186
-19.15044
-21.31194
-23.85196
-26.51837
-28.92974
-30.62704
-31.15812
-30.19504
-27.6445
-23.68639
-18.74597
-13.37878
-8.121681
-3.404953
0.5183945
3.560661
5.753365
7.2313
8.149986
8.670998
8.928131
9.017006
9.000908
8.94593
8.919975
9.006897
9.269241
9.726189
10.36068
11.11953
11.91961
12.68626
13.32859
13.73178
13.79319
13.42933
12.63839
11.52095
10.26846
9.083015
8.104355
7.375664
6.835052
6.36602
5.868149
5.259117
4.506989
3.609337
2.598122
1.501465
0.3714371
-0.7766647
-1.955132
-3.19722
-4.56636
-6.128601
-7.894135
-9.811943
-11.75735
-13.58236
-15.17938
-16.53913
-17.7421
-18.96094
-20.40883
-22.23153
-24.44019
-26.85331
-29.08044
-30.59471
-30.85346
-29.47842
-26.36257
-21.77335
-16.25972
-10.50451
-5.13752
-0.5988388
2.944458
5.524498
7.317223
8.552231
9.443386
10.1628
10.79753
11.36911
11.85321
12.21648
12.48227
12.74148
13.10597
13.64391
14.34681
15.10535
15.79045
16.29578
16.56265
16.57509
16.33444
15.82568
15.04997
14.05564
12.94769
11.84682
10.84179
9.962986
9.161839
8.380093
7.576527
6.71624
5.791553
4.801277
3.736057
2.613102
1.447052
0.2665138
-0.9292679
-2.150852
-3.415379
-4.754795
-6.204086
-7.772987
-9.466496
-11.25061
-13.06817
-14.84053
-16.53234
-18.1708
-19.8857
-21.85854
-24.21905
-26.90136
-29.57715
-31.68142
-32.56628
-31.68869
-28.8265
-24.15976
-18.23578
-11.80752
-5.607523
-0.1745033
4.227098
7.543671
9.88723
11.41199
12.27697
12.63429
12.66743
12.56455
12.51388
12.6462
12.97857
13.48598
14.063
14.65593
15.2222
15.77591
16.34044
16.91246
17.42984
17.7601
17.74973
17.28481
16.35676
15.07162
13.64289
12.28915
11.16036
10.26953
9.53616
8.831907
8.034009
7.059827
5.874352
4.469578
2.87214
1.147352
-0.6147091
-2.347049
-4.010298
-5.649975
-7.334144
-9.080742
-10.84574
-12.49923
-13.93923
-15.12919
-16.20957
-17.43423
-19.0806
-21.30051
-24.01974
-26.90686
-29.43689
-31.00578
-31.07062
-29.32052
-25.75786
-20.72409
-14.79618
-8.638788
-2.866158
2.102744
6.061464
9.014065
11.10887
12.55136
13.56132
14.3101
14.91369
15.40576
15.82303
16.20645
16.63907
17.19089
17.85088
18.51042
19.01227
19.24561
19.20358
19.01156
18.82331
18.72207
18.63265
18.38295
17.8156
16.88359
15.70741
14.50504
13.46342
12.63106
11.88835
11.03821
9.936419
8.57247
7.044048
5.517303
4.127876
2.915741
1.809296
0.688694
-0.5538025
-1.969692
-3.548367
-5.274277
-7.121918
-9.064995
-11.0751
-13.07327
-14.94133
-16.57513
-17.98735
-19.33027
-20.88245
-22.9071
-25.48401
-28.40285
-31.12267
-32.91656
-33.13051
-31.37087
-27.6638
-22.41801
-16.26433
-9.899094
-3.900978
1.355247
5.692017
9.076176
11.58916
13.36272
14.54263
15.26337
15.62629
15.71623
15.62253
15.47518
15.41127
15.57106
16.02267
16.70818
17.4879
18.19305
18.67726
18.89972
18.91196
18.7928
18.58297
18.2304
17.61724
16.64888
15.32809
13.79762
12.27588
10.95824
9.947674
9.179382
8.500851
7.763466
6.880005
5.870743
4.806904
3.759174
2.729355
1.66946
0.4801979
-0.9278564
-2.595627
-4.494492
-6.524586
-8.543671
-10.42189
-12.10642
-13.63049
-15.11243
-16.69562
-18.48913
-20.53798
-22.80811
-25.18648
-27.4875
-29.41178
-30.5402
-30.41823
-28.67563
-25.19169
-20.21775
-14.31838
-8.238152
-2.672501
1.964672
5.559189
8.267971
10.3671
12.08014
13.4794
14.53795
15.19847
15.45534
15.4324
15.33257
15.35747
15.62331
16.11423
16.66127
17.08314
17.25391
17.14137
16.82791
16.44774
16.0857
15.76665
15.40876
14.88756
14.11897
13.10317
11.92902
10.78287
9.861668
9.263445
8.934793
8.68372
8.272758
7.548208
6.489252
5.238115
3.963739
2.79438
1.739927
0.7628403
-0.220911
-1.252193
-2.360649
-3.613243
-5.09552
-6.880068
-8.97146
-11.23297
-13.41382
-15.28573
-16.72248
-17.7631
-18.61034
-19.52718
-20.76105
-22.46907
-24.66243
-27.12885
-29.47207
-31.13864
-31.55248
-30.28582
-27.22466
-22.63241
-17.06906
-11.24195
-5.76647
-1.040905
2.810583
5.855464
8.231528
10.07987
11.46404
12.39946
12.89725
13.01942
12.93626
12.87965
13.05556
13.58103
14.44447
15.50113
16.55536
17.41204
17.93595
18.07688
17.86095
17.35565
16.64137
15.83846
15.04689
14.35039
13.76382
13.22656
12.61102
11.79245
10.70254
9.362056
7.889222
6.430519
5.135389
4.107832
3.365325
2.850588
2.44554
2.011486
1.425917
0.6178617
-0.4249783
-1.667975
-3.077309
-4.605507
-6.22525
-7.898154
-9.563513
-11.16946
-12.67826
-14.08469
-15.419
-16.71941
-18.05476
-19.49368
-21.1518
-23.15107
-25.5175
-28.09433
-30.49584
-32.14949
-32.44854
-30.98034
-27.66501
-22.79806
-16.96205
-10.85506
-5.096315
-0.09935379
3.972599
7.157709
9.551601
11.24555
12.27953
12.70598
12.6449
12.31219
11.95666
11.80081
11.92031
12.26231
12.68094
13.09141
13.4865
13.93764
14.4865
15.0802
15.57855
15.80628
15.68005
15.20205
14.47983
13.61827
12.65748
11.6028
10.4539
9.259924
8.107946
7.114544
6.309614
5.651567
5.030121
4.328142
3.482676
2.513186
1.495951
0.4995956
-0.4191265
-1.271997
-2.119535
-3.045879
-4.170256
-5.577736
-7.299673
-9.263988
-11.31328
-13.20356
-14.75305
-15.93099
-16.86405
-17.84103
-19.16952
-21.0477
-23.46261
-26.12852
-28.54639
-30.12521
-30.32571
-28.8222
-25.65333
-21.1652
-15.93436
-10.57039
-5.512211
-0.9797707
2.984306
6.380276
9.159019
11.20711
12.44454
12.89885
12.7504
12.29591
11.81808
11.49308
11.36428
11.39209
11.49691
11.67638
11.97036
12.43679
13.11175
13.93764
14.75023
15.32328
15.44485
15.00002
14.01767
12.65915
11.14364
9.687244
8.40881
7.337765
6.443619
5.647598
4.863274
4.015881
3.046734
1.941299
0.7653503
-0.3984642
-1.465183
-2.417294
-3.326107
-4.335171
-5.564247
-7.086712
-8.872768
-10.83473
-12.86477
-14.85284
-16.71218
-18.39672
-19.93395
-21.44338
-23.1166
-25.12423
-27.45132
-29.82169
-31.67193
-32.29855
-31.11534
-27.90414
-22.93846
-16.90328
-10.66485
-4.983093
-0.3199768
3.247078
5.933773
8.046883
9.80484
11.24941
12.27134
12.75465
12.70511
12.31128
11.87901
11.69333
11.89763
12.43286
13.11528
13.775
14.2902
14.68052
15.00823
15.32903
15.61218
15.75239
15.60634
15.07092
14.14792
12.91524
11.52298
10.11703
8.784126
7.505926
6.223885
4.855751
3.382469
1.874165
0.4565315
-0.7482586
-1.717928
-2.529966
-3.355095
-4.347731
-5.6271
-7.2096
-9.032839
-10.98668
-12.9233
-14.77815
-16.55448
-18.36233
-20.36075
-22.66279
-25.2286
-27.76935
-29.8286
-30.84809
-30.37929
-28.22314
-24.50141
-19.57598
-13.99532
-8.298502
-2.929144
1.768156
5.630924
8.606447
10.73806
12.13027
12.93341
13.28509
13.32986
13.23048
13.13312
13.19827
13.50296
14.03381
14.66777
15.23188
15.57802
15.6554
15.54454
15.35468
15.14786
14.86127
14.33716
13.44267
12.15292
10.59998
9.010611
7.57417
6.339692
5.244253
4.152502
2.996626
1.801266
0.6371696
-0.4488266
-1.473098
-2.542525
-3.765705
-5.167625
-6.709072
-8.292879
-9.849754
-11.38668
-12.96686
-14.70046
-16.69058
-19.01053
-21.63917
-24.44674
-27.15198
-29.30436
-30.37966
-29.89918
-27.60024
-23.58181
-18.27364
-12.32279
-6.416759
-1.07006
3.439503
7.054927
9.869818
12.02218
13.59257
14.63448
15.17683
15.27431
15.05087
14.67078
14.3203
14.15607
14.27166
14.6562
15.23757
15.90489
16.56236
17.14311
17.59617
17.84803
17.80737
17.40015
16.59806
15.44478
14.04688
12.52299
10.97374
9.439604
7.939636
6.481802
5.09676
3.829853
2.684031
1.623446
0.5343838
-0.7370338
-2.330503
-4.291121
-6.55195
-8.930016
-11.21467
-13.23531
-14.947
-16.4555
-17.9973
-19.839
-22.16939
-24.99489
-28.0842
-31.00177
-33.15808
-33.99768
-33.09583
-30.30075
-25.80517
-20.14151
-14.00451
-8.088085
-2.861389
1.49295
5.055996
7.989182
10.39977
12.27942
13.53339
14.13023
14.19489
14.00639
13.88985
14.05787
14.53694
15.20313
15.88663
16.49055
17.00214
17.42514
17.71502
17.75431
17.40054
16.57924
15.35205
13.91068
12.48742
11.24772
10.22516
9.346375
8.471378
7.472481
6.280651
4.908314
3.417015
1.903542
0.474762
-0.7948074
-1.895897
-2.889008
-3.897823
-5.059406
-6.481205
-8.183605
-10.10548
-12.15024
-14.22956
-16.31542
-18.47557
-20.80345
-23.36241
-26.09779
-28.7553
-30.86883
-31.87284
-31.25601
-28.73534
-24.39938
-18.69485
-12.31139
-5.965237
-0.2327042
4.573288
8.398857
11.31729
13.48203
15.02307
16.04969
16.65228
16.95124
17.04842
17.07227
17.1218
17.26205
17.53754
17.94238
18.45586
19.00655
19.51767
19.894
20.05565
19.94675
19.49858
18.67395
17.44938
15.88833
14.13455
12.39803
10.89749
9.753845
8.939293
8.254829
7.448212
6.331306
4.8778
3.249672
1.681198
0.3750687
-0.6451492
-1.515106
-2.492653
-3.784798
-5.45945
-7.386536
-9.340736
-11.10554
-12.60701
-13.96377
-15.40969
-17.20715
-19.49314
-22.22212
-25.14346
-27.86695
-29.90781
-30.81539
-30.23661
-28.00756
-24.21437
-19.17852
-13.40457
-7.446846
-1.802284
3.17691
7.288696
10.47365
12.76352
14.26201
15.09938
15.44313
15.4565
15.31594
15.18484
15.18813
15.44056
16.00202
16.85214
17.90549
19.01498
19.98943
20.66499
20.94603
20.80374
20.29044
19.47375
18.41418
17.16349
15.76527
14.29611
12.86227
11.57943
10.51768
9.660149
8.884987
8.024841
6.954704
5.668144
4.258049
2.848259
1.533234
0.2935257
-0.9637527
-2.356995
-3.956123
-5.727669
-7.591263
-9.422134
-11.10375
-12.59872
-13.97572
-15.38449
-17.03981
-19.12223
-21.68814
-24.59491
-27.4886
-29.8384
-31.05527
-30.6628
-28.43312
-24.46789
-19.18743
-13.21096
-7.216244
-1.7519
2.862568
6.571289
9.492355
11.80779
13.63902
15.01614
15.91565
16.33108
16.34892
16.13781
15.90687
15.83122
16.00141
16.39197
16.90022
17.37942
17.71115
17.82914
17.73002
17.42498
16.90999
16.20835
15.33899
14.35665
13.35635
12.46017
11.72746
11.15718
10.64194
10.02692
9.224812
8.233459
7.160412
6.15729
5.324139
4.622755
3.921633
3.0662
1.968435
0.6712456
-0.6892471
-1.985878
-3.177586
-4.340158
-5.62281
-7.148756
-8.900392
-10.72542
-12.36809
-13.63095
-14.49617
-15.16323
-16.00621
-17.39833
-19.54942
-22.36127
-25.41844
-28.09195
-29.7354
-29.85975
-28.27647
-25.11617
-20.78631
-15.83685
-10.8223
-6.196735
-2.189412
1.144295
3.891871
6.17457
8.070913
9.573612
10.64923
11.3017
11.5903
11.64836
11.6379
11.70176
11.94867
12.40396
13.05033
13.81012
14.56824
15.20515
15.61544
15.76922
15.70789
15.50374
15.26207
15.02904
14.78577
14.46121
13.95718
13.23864
12.29639
11.21209
10.07745
8.961143
7.893364
6.867435
5.88995
4.999741
4.251183
3.678093
3.231247
2.760605
2.072189
1.036205
-0.3532372
-1.945229
-3.478989
-4.743614
-5.629276
-6.195965
-6.623161
-7.134262
-7.903931
-9.009918
-10.42532
-12.04771
-13.71893
-15.30512
-16.71783
-17.98708
-19.2263
-20.576
-22.14841
-23.91297
-25.67055
-27.05226
-27.64266
-27.08402
-25.21889
-22.10365
-18.03142
-13.41451
-8.693649
-4.246384
-0.3403168
2.871132
5.340179
7.072701
8.132782
8.621338
8.696556
8.549133
8.375847
8.332581
8.487877
8.83857
9.314339
9.843628
10.38065
10.91591
11.43472
11.88307
12.19533
12.28531
12.10125
11.65007
11.00412
10.24456
9.437798
8.630951
7.8508
7.137901
6.53006
6.033096
5.640961
5.300766
4.961594
4.592354
4.202461
3.808228
3.417046
2.990257
2.475418
1.832924
1.0644
0.1941071
-0.7576904
-1.772446
-2.887344
-4.138458
-5.543854
-7.064789
-8.60434
-10.06439
-11.3615
-12.48204
-13.49669
-14.51636
-15.65808
-17.00607
-18.59534
-20.38011
-22.22429
-23.85756
-24.89497
-24.93027
-23.62006
-20.86937
-16.90245
-12.22388
-7.471039
-3.199432
0.2712708
2.898499
4.795822
6.124084
6.970749
7.333099
7.22583
6.753967
6.132462
5.641708
5.488937
5.725281
6.260834
6.901672
7.481812
7.941757
8.309265
8.643372
8.969696
9.223251
9.284637
9.090012
8.634308
7.986649
7.226608
6.391449
5.454483
4.392563
3.231949
2.055679
0.9824219
0.116745
-0.5370483
-1.03801
-1.517059
-2.115875
-2.92926
-4.019241
-5.420792
-7.091812
-8.951111
-10.85831
-12.63443
-14.15611
-15.39308
-16.46739
-17.58806
-18.9908
-20.80794
-22.97668
-25.22331
-27.08461
-28.0298
-27.60512
-25.60112
-22.12938
-17.60147
-12.60272
-7.716965
-3.356537
0.2804108
3.167404
5.363617
6.932419
7.900742
8.329041
8.333008
8.094986
7.84169
7.746902
7.883575
8.245026
8.749619
9.333328
9.964218
10.59636
11.18085
11.61449
11.80684
11.68256
11.22154
10.46007
9.449768
8.262466
6.965759
5.663147
4.474564
3.515747
2.830048
2.367172
1.967133
1.433472
0.6411896
-0.4498596
-1.746552
-3.134995
-4.527267
-5.914139
-7.330002
-8.800995
-10.30452
-11.76631
-13.13733
-14.38177
-15.57321
-16.82568
-18.31517
-20.15912
-22.37407
-24.80757
-27.08549
-28.69283
-29.11432
-27.98692
-25.2491
-21.18829
-16.3501
-11.36696
-6.746338
-2.738937
0.6390991
3.529312
6.03653
8.174683
9.863739
10.98143
11.48361
11.44127
11.04404
10.56854
10.28871
10.37683
10.87546
11.66023
12.50197
13.17203
13.52403
13.56873
13.41614
13.20879
13.0112
12.76454
12.31694
11.52884
10.35654
8.891525
7.309494
5.78994
4.446754
3.307175
2.33905
1.471428
0.6255646
-0.2647629
-1.282944
-2.487328
-3.912468
-5.571686
-7.440605
-9.448051
-11.5091
-13.52586
-15.41759
-17.17688
-18.86954
-20.64301
-22.61565
-24.77382
-26.87664
-28.48338
-29.09436
-28.31946
-26.03004
-22.40885
-17.83983
-12.77039
-7.608574
-2.64595
1.898949
5.85997
9.11129
11.57323
13.2492
14.20715
14.57689
14.5061
14.15556
13.70858
13.35172
13.22631
13.40333
13.82884
14.39173
14.9343
15.34133
15.5438
15.54533
15.38611
15.09334
14.69005
14.17902
13.54686
12.76635
11.80217
10.65079
9.333912
7.917076
6.486752
5.107307
3.803219
2.535118
1.252605
-0.0927124
-1.504704
-2.935814
-4.352917
-5.748577
-7.151852
-8.615059
-10.18183
-11.85737
-13.64952
-15.5497
-17.59386
-19.80661
-22.18045
-24.60227
-26.81876
-28.4371
-28.96958
-27.99818
-25.30004
-20.95507
-15.35821
-9.123468
-2.930769
2.676302
7.370634
11.0859
13.88999
15.89927
17.19737
17.81807
17.82309
17.34662
16.62251
15.94471
15.57221
15.62173
16.04816
16.68034
17.3279
17.8391
18.15854
18.30085
18.26332
18.01193
17.47013
16.56722
15.31786
13.85712
12.39776
11.13041
10.14071
9.356329
8.614812
7.728086
6.61095
5.31816
3.990775
2.786191
1.728845
0.719655
-0.4523258
-1.999589
-4.00675
-6.394902
-8.917315
-11.28397
-13.27355
-14.85052
-16.17431
-17.58759
-19.43307
-21.92319
-24.99795
-28.28645
-31.21004
-33.11365
-33.47476
-32.0104
-28.75266
-23.98318
-18.18499
-11.92933
-5.7994
-0.2605476
4.423025
8.186068
11.13943
13.44473
15.22893
16.54922
17.37103
17.69295
17.62648
17.39235
17.27798
17.48497
18.06624
18.91257
19.81993
20.58944
21.1251
21.40376
21.45525
21.29885
20.89809
20.18558
19.08208
17.60072
15.85128
14.07064
12.52144
11.38153
10.68304
10.29444
9.943645
9.336105
8.3106
6.863239
5.207947
3.61702
2.287678
1.232944
0.2696114
-0.8794594
-2.444241
-4.465923
-6.781574
-9.101055
-11.16636
-12.88372
-14.37252
-15.85444
-17.5432
-19.56705
-21.94165
-24.61509
-27.4624
-30.23099
-32.48751
-33.63485
-33.06534
-30.40547
-25.7143
-19.55673
-12.7991
-6.317841
-0.7079201
3.830959
7.427414
10.32636
12.69234
14.56239
15.88588
16.6452
16.93524
16.96164
16.96284
17.08708
17.38177
17.76115
18.11209
18.36987
18.52574
18.62185
18.73107
18.88142
19.04924
19.16063
19.1006
18.76537
18.07127
16.99939
15.60505
14.05622
12.57864
11.34632
10.41952
9.678459
8.868416
7.735718
6.15263
4.235298
2.273197
0.6019821
-0.5780754
-1.305508
-1.864864
-2.612465
-3.808422
-5.510738
-7.532524
-9.589443
-11.44564
-12.99462
-14.29541
-15.50004
-16.77755
-18.26738
-20.05112
-22.17524
-24.62672
-27.26629
-29.77707
-31.65166
-32.29406
-31.19548
-28.13767
-23.34159
-17.38652
-11.02148
-4.93763
0.4398537
4.956081
8.629025
11.50828
13.59224
14.84002
15.30676
15.17658
14.78222
14.49031
14.51887
14.90314
15.48838
16.09996
16.61098
17.04049
17.46062
17.91725
18.35674
18.62973
18.58081
18.11056
17.27925
16.21169
15.09221
14.05182
13.13433
12.31678
11.51
10.64281
9.63438
8.427834
6.982281
5.31345
3.510269
1.741707
0.2061501
-0.9732819
-1.809776
-2.484341
-3.282421
-4.445709
-6.080025
-8.0769
-10.21746
-12.23916
-13.97186
-15.39349
-16.58503
-17.70749
-18.93571
-20.43925
-22.34583
-24.69422
-27.31691
-29.8337
-31.66239
-32.1836
-30.91815
-27.73035
-22.90881
-17.06097
-10.94363
-5.224218
-0.3091316
3.67387
6.834002
9.368912
11.41035
12.98384
14.01297
14.42956
14.2841
13.77705
13.20659
12.88387
13.00513
13.57961
14.47264
15.47773
16.41874
17.18146
17.7153
17.97238
17.91829
17.55814
16.92005
16.09025
15.14934
14.13735
13.06397
11.92015
10.7404
9.586878
8.515621
7.5231
6.581352
5.625086
4.609392
3.558908
2.534041
1.582732
0.712553
-0.1254683
-0.9942007
-1.933403
-2.96536
-4.116815
-5.454911
-7.052586
-8.957759
-11.10528
-13.31921
-15.36919
-17.06353
-18.36502
-19.42612
-20.51392
-21.9376
-23.84844
-26.17703
-28.59485
-30.58341
-31.5703
-31.09735
-28.95061
-25.2175
-20.26956
-14.64736
-8.925966
-3.589448
1.038239
4.832689
7.795061
9.984112
11.485
12.37638
12.73817
12.69521
12.40079
12.03453
11.78703
11.79424
12.13541
12.80364
13.73149
14.80276
15.89442
16.8846
17.66391
18.11522
18.12654
17.63437
16.63752
15.24498
13.63883
12.04776
10.65777
9.550477
8.711666
8.065266
7.518163
7.003492
6.465572
5.859244
5.136152
4.259787
3.219172
2.05751
0.8421783
-0.3546772
-1.50033
-2.61388
-3.763224
-5.056776
-6.589369
-8.378799
-10.36597
-12.37954
-14.23599
-15.79704
-17.01017
-17.94455
-18.77507
-19.69657
-20.91868
-22.57436
-24.68602
-27.08875
-29.38791
-30.99308
-31.23626
-29.60927
-25.9935
-20.72218
-14.54229
-8.321033
-2.752399
1.788223
5.301693
7.990841
10.04423
11.53311
12.40017
12.57121
12.11253
11.29158
10.50345
10.15475
10.44184
11.33192
12.55278
13.76397
14.68273
15.2426
15.5469
15.74599
15.91936
15.99932
15.81009
15.19392
14.12289
12.71986
11.20394
9.799028
8.62166
7.688255
6.92609
6.231205
5.499416
4.645412
3.619373
2.428005
1.172684
-0.0148735
-1.032478
-1.896015
-2.759689
-3.846348
-5.311089
-7.130093
-9.115639
-10.9725
-12.49672
-13.62938
-14.52187
-15.44462
-16.67193
-18.42428
-20.71717
-23.38912
-26.05035
-28.18371
-29.22205
-28.71011
-26.44151
-22.52861
-17.40765
-11.68246
-6.028046
-0.9765167
3.158634
6.320774
8.658154
10.36745
11.62924
12.47878
12.86806
12.76149
12.23841
11.52564
10.94028
10.72712
10.94677
11.47392
12.04778
12.47723
12.70191
12.80675
12.90443
13.01744
13.0447
12.8044
12.13915
11.00223
9.527222
7.916401
6.417625
5.201954
4.3344
3.770275
3.399292
3.055092
2.579567
1.858322
0.818367
-0.5635071
-2.257931
-4.201874
-6.316368
-8.489738
-10.58435
-12.49092
-14.13312
-15.52312
-16.7291
-17.86966
-19.08915
-20.54138
-22.35695
-24.57396
-27.10526
-29.66089
-31.7906
-32.91542
-32.49809
-30.22326
-26.11422
-20.55819
-14.20106
-7.775337
-1.894764
3.049778
6.929626
9.830467
11.91971
13.35236
14.22303
14.59173
14.53062
14.1948
13.80869
13.6243
13.79208
14.34653
15.17336
16.08976
16.95809
17.70911
18.35281
18.92882
19.4259
19.75673
19.80236
19.47431
18.77685
17.8264
16.79103
15.81524
14.93309
14.08275
13.16779
12.11754
10.97945
9.8806
8.97188
8.332296
7.879938
7.423624
6.716913
5.613741
4.158873
2.535591
0.9892597
-0.3058853
-1.354675
-2.314114
-3.401745
-4.787247
-6.509235
-8.475315
-10.53561
-12.56499
-14.49158
-16.30546
-18.01488
-19.64948
-21.24221
-22.8704
-24.6325
-26.6339
-28.9613
-31.5923
-34.34953
-36.82832
-38.43823
-38.54651
-36.68667
-32.76164
-27.16639
-20.65733
-14.09776
-8.185413
-3.242994
0.7222767
3.897018
6.445648
8.425276
9.796267
10.55743
10.84154
10.89901
11.02577
11.44964
12.22006
13.22799
14.27358
15.16478
15.8079
16.23137
16.5315
16.80032
17.05541
17.22059
17.15768
16.77846
16.08881
15.21174
14.31997
13.55198
12.9796
12.5454
12.15646
11.70499
11.11503
10.37461
9.51078
8.571526
7.60707
6.654803
5.734221
4.844733
3.979619
3.13636
2.309193
1.486666
0.6569443
-0.2115641
-1.160727
-2.240732
-3.477556
-4.877705
-6.452651
-8.199636
-10.11908
-12.1598
-14.25422
-16.26919
-18.07548
-19.58718
-20.82505
-21.93822
-23.16955
-24.79672
-26.95446
-29.56245
-32.22563
-34.31591
-35.13369
-34.16084
-31.21204
-26.51797
-20.62297
-14.22585
-7.992278
-2.379393
2.371387
6.222836
9.252121
11.54965
13.20503
14.2819
14.86682
15.08396
15.09536
15.08669
15.21534
15.59341
16.22892
17.05131
17.92734
18.7426
19.37983
19.77522
19.90055
19.76189
19.40989
18.90766
18.29292
17.57772
16.77191
15.86259
14.88682
13.89717
12.95061
12.0825
11.29009
10.52647
9.743015
8.912193
8.028362
7.102949
6.1467
5.139435
4.054243
2.892086
1.66843
0.4253979
-0.8283825
-2.136501
-3.569485
-5.187271
-6.996058
-8.883894
-10.66694
-12.14342
-13.20992
-13.93362
-14.54741
-15.40059
-16.80989
-18.96857
-21.80793
-25.00297
-27.97498
-30.0099
-30.4811
-29.00744
-25.60089
-20.65773
-14.84651
-8.875713
-3.31694
1.508026
5.506308
8.704435
11.14955
12.84519
13.76881
13.94347
13.50232
12.71201
11.92533
11.45413
11.4988
12.0656
12.97804
13.99395
14.86838
15.48796
15.84412
16.02128
16.07675
16.0012
15.73333
15.20928
14.41567
13.44088
12.41236
11.44252
10.57996
9.761333
8.891548
7.876131
6.691828
5.383703
4.087658
2.908222
1.935658
1.164997
0.4560413
-0.3928337
-1.604544
-3.293234
-5.392944
-7.651215
-9.752684
-11.4373
-12.66479
-13.58875
-14.52394
-15.76497
-17.48542
-19.69831
-22.27937
-25.04862
-27.73534
-29.97627
-31.32331
-31.28388
-29.50202
-25.90363
-20.77856
-14.72775
-8.478674
-2.668179
2.293793
6.249454
9.247253
11.39969
12.82395
13.61361
13.88509
13.80563
13.59455
13.46594
13.56059
13.92064
14.49818
15.18074
15.84805
16.43441
16.87588
17.13031
17.17772
16.9983
16.59824
16.02738
15.3274
14.54346
13.69489
12.78162
11.82321
10.87793
10.05739
9.453262
9.081478
8.842476
8.514374
7.8629
6.750938
5.205376
3.4436
1.732441
0.2793922
-0.870224
-1.83942
-2.84734
-4.087811
-5.659508
-7.537838
-9.590723
-11.65822
-13.5892
-15.29943
-16.78154
-18.10301
-19.38875
-20.80574
-22.5093
-24.56145
-26.87311
-29.17035
-30.97901
-31.76092
-31.04271
-28.58985
-24.52092
-19.28111
-13.50426
-7.846655
-2.820656
1.329685
4.597057
7.167702
9.270277
11.07783
12.63783
13.85431
14.58971
14.78137
14.50508
14.00898
13.59901
13.53702
13.92083
14.68776
15.64149
16.58446
17.37661
17.9436
18.24164
18.21995
17.83973
17.0855
16.02649
14.80545
13.6174
12.65767
11.99831
11.59101
11.28483
10.89165
10.25461
9.341572
8.241055
7.111948
6.091274
5.217215
4.42625
3.589472
2.589085
1.393658
0.04553604
-1.370604
-2.811121
-4.297203
-5.889454
-7.603559
-9.369541
-11.05601
-12.51692
-13.69514
-14.69406
-15.73664
-17.07337
-18.87531
-21.16397
-23.81345
-26.5748
-29.08265
-30.9333
-31.69268
-30.9894
-28.63189
-24.68388
-19.54793
-13.82063
-8.149742
-3.033106
1.305182
4.891092
7.880505
10.36837
12.3347
13.63175
14.17556
14.04889
13.54149
13.05626
12.9235
13.28336
14.02259
14.89179
15.64339
16.15909
16.47561
16.66761
16.80323
16.86171
16.75176
16.38644
15.76301
14.95566
14.05371
13.14093
12.23198
11.32463
10.40964
9.508202
8.630815
7.772115
6.904442
5.969473
4.942522
3.832748
2.708782
1.669081
0.7830133
0.04382992
-0.6559439
-1.477327
-2.576464
-4.017144
-5.728611
-7.530892
-9.224007
-10.68542
-11.93402
-13.12542
-14.46785
-16.09154
-18.02055
-20.13624
-22.24606
-24.10315
-25.44367
-25.97286
-25.4158
-23.59982
-20.56926
-16.60202
-12.1352
-7.648674
-3.481831
0.2127452
3.433517
6.221918
8.55298
10.34141
11.5179
12.11165
12.2838
12.26829
12.26327
12.35566
12.5102
12.65425
12.75254
12.86328
13.11668
13.58639
14.24344
14.91689
15.34352
15.32588
14.79475
13.8917
12.83971
11.86817
11.06558
10.38651
9.686431
8.843527
7.828617
6.721785
5.652874
4.704817
3.875896
3.108044
2.35948
1.629045
0.9618206
0.3954582
-0.1004543
-0.6016808
-1.209116
-1.996267
-2.973358
-4.081648
-5.248299
-6.414997
-7.560978
-8.720413
-9.926662
-11.2014
-12.53033
-13.91682
-15.36658
-16.93465
-18.70372
-20.76089
-23.09586
-25.54795
-27.77026
-29.24808
-29.44928
-27.98085
-24.73976
-19.99878
-14.3587
-8.588959
-3.430252
0.6289711
3.453335
5.222504
6.302872
7.043259
7.678143
8.255627
8.725197
9.038242
9.199566
9.306671
9.490601
9.863686
10.44842
11.17191
11.92778
12.59999
13.14694
13.57377
13.9272
14.19991
14.33448
14.22843
13.78003
13.00119
12.00663
10.9924
10.13755
9.526123
9.111336
8.778065
8.398769
7.896015
7.240368
6.448608
5.554649
4.613373
3.711674
2.953156
2.40506
2.064827
1.790268
1.402802
0.7418671
-0.2461777
-1.494774
-2.861038
-4.202812
-5.437622
-6.543381
-7.568588
-8.568199
-9.608551
-10.72935
-11.93831
-13.19924
-14.46977
-15.73663
-17.03063
-18.43768
-20.02917
-21.81759
-23.71913
-25.53111
-26.95412
-27.69136
-27.45478
-26.04561
-23.38763
-19.58717
-14.9614
-10.03244
-5.351265
-1.370285
1.716934
4.00045
5.735779
7.154259
8.346313
9.233261
9.668678
9.616081
9.225662
8.814034
8.732323
9.17041
10.07621
11.16792
12.10532
12.64591
12.77497
12.65555
12.48969
12.42502
12.41921
12.31871
11.95809
11.25365
10.2832
9.225327
8.271347
7.538185
7.068634
6.798653
6.642311
6.482033
6.193848
5.67704
4.890686
3.888702
2.793831
1.769028
0.9244003
0.2969894
-0.1719818
-0.594986
-1.103645
-1.826378
-2.866913
-4.294044
-6.056282
-8.026115
-9.958572
-11.6179
-12.89594
-13.83841
-14.68658
-15.73305
-17.20502
-19.15658
-21.40723
-23.58876
-25.22422
-25.85638
-25.12856
-22.91382
-19.35661
-14.8649
-9.980774
-5.266655
-1.139099
2.209274
4.749527
6.591812
7.865433
8.691925
9.154022
9.325119
9.277763
9.095619
8.878441
8.701561
8.632729
8.703438
8.949768
9.379761
9.947975
10.5686
11.08157
11.32362
11.17669
10.61947
9.754768
8.754662
7.806549
7.03479
6.453171
5.962852
5.421989
4.70932
3.784424
2.698112
1.540405
0.4291382
-0.5879898
-1.512604
-2.410378
-3.333603
-4.317657
-5.38279
-6.520554
-7.740822
-9.030502
-10.34785
-11.63892
-12.86533
-14.05795
-15.32808
-16.85329
-18.73802
-20.95945
-23.30867
-25.3933
-26.75859
-26.97641
-25.78062
-23.11232
-19.17158
-14.37115
-9.263222
-4.409973
-0.2347717
3.079063
5.57843
7.427643
8.820831
9.836472
10.48826
10.75117
10.67166
10.41283
10.1703
10.12987
10.35001
10.74569
11.13996
11.37742
11.41199
11.32426
11.26791
11.32758
11.4726
11.54839
11.36012
10.79655
9.893097
8.836365
7.797882
6.870888
6.009727
5.08284
3.99131
2.771622
1.565826
0.5776138
-0.0871048
-0.506073
-0.9056244
-1.590973
-2.767258
-4.478027
-6.572395
-8.791084
-10.8901
-12.70941
-14.23338
-15.57317
-16.91763
-18.49418
-20.47614
-22.90538
-25.60432
-28.17637
-30.05433
-30.66422
-29.58762
-26.71993
-22.31327
-16.88547
-11.07083
-5.457878
-0.4841003
3.60508
6.748131
8.995377
10.48872
11.3914
11.86832
12.09744
12.24935
12.43451
12.73042
13.13173
13.57072
13.99277
14.36577
14.72646
15.15293
15.70134
16.34539
16.96804
17.41833
17.55335
17.32625
16.74687
15.87828
14.76357
13.47855
12.11582
10.86637
9.932419
9.430374
9.288998
9.247002
8.932114
8.057991
6.562946
4.651508
2.704865
1.054836
-0.1659698
-1.05294
-1.866489
-2.882729
-4.249205
-5.926725
-7.764423
-9.599634
-11.34963
-13.01933
-14.66469
-16.33625
-18.03939
-19.77427
-21.55648
-23.47461
-25.59903
-27.88325
-30.0405
-31.50603
-31.62518
-29.87432
-26.14268
-20.80071
-14.61042
-8.41547
-2.879139
1.698664
5.335382
8.206479
10.48703
12.22973
13.42256
14.07351
14.30956
14.34838
14.42273
14.68061
15.13436
15.68323
16.2235
16.7268
17.25478
17.89462
18.6727
19.489
20.1461
20.43322
20.25344
19.65101
18.79865
17.87956
17.02891
16.28883
15.61754
14.94656
14.24354
13.50065
12.76547
12.07543
11.44591
10.87449
10.33466
9.788293
9.192739
8.510767
7.720721
6.827843
5.858603
4.883227
3.983814
3.175668
2.404336
1.56175
0.5295944
-0.7151403
-2.078732
-3.386238
-4.474567
-5.296628
-5.969752
-6.703414
-7.670876
-8.931408
-10.39741
-11.88398
-13.22102
-14.35733
-15.33655
-16.31866
-17.4636
-18.90295
-20.71629
-22.90446
-25.40212
-28.07253
-30.66889
-32.8081
-34.03528
-33.86702
-31.99569
-28.38705
-23.32177
-17.35757
-11.16922
-5.345686
-0.2688732
3.901083
7.168806
9.605025
11.27312
12.2453
12.62209
12.55936
12.27407
12.0009
11.91622
12.12246
12.65384
13.46714
14.48898
15.62527
16.74854
17.6942
18.3037
18.46967
18.19828
17.59187
16.81532
16.01267
15.25913
14.55017
13.85134
13.14558
12.46199
11.8556
11.33498
10.86265
10.35713
9.75675
9.068021
8.362562
7.725417
7.17447
6.638162
5.968536
5.046154
3.829255
2.394036
0.8841438
-0.5488482
-1.795946
-2.854322
-3.798961
-4.768348
-5.88005
-7.197889
-8.676072
-10.21567
-11.7053
-13.06792
-14.32278
-15.55697
-16.90215
-18.47883
-20.33595
-22.40969
-24.52088
-26.42395
-27.79953
-28.32637
-27.73158
-25.84437
-22.65984
-18.35026
-13.23961
-7.774103
-2.449883
2.28501
6.104684
8.845596
10.55986
11.43092
11.72805
11.72781
11.65556
11.65509
11.77986
12.05124
12.47774
13.07336
13.78959
14.54548
15.20883
15.67476
15.9084
15.95813
15.92678
15.89321
15.87195
15.78581
15.51992
14.98296
14.13394
13.00538
11.65507
10.14317
8.538082
6.950619
5.536407
4.459162
3.813066
3.52936
3.423586
3.235735
2.755302
1.888172
0.7067184
-0.6212158
-1.929142
-3.112373
-4.167101
-5.150862
-6.162216
-7.279865
-8.559076
-10.00819
-11.58204
-13.20349
-14.72726
-16.03487
-17.07911
-17.95205
-18.87275
-20.11952
-21.89564
-24.18813
-26.6957
-28.83688
-29.91974
-29.36767
-26.91083
-22.70851
-17.2987
-11.42523
-5.776007
-0.8233833
3.250538
6.488613
9.017433
10.92056
12.19469
12.77866
12.69555
12.11671
11.32191
10.65961
10.39347
10.62009
11.26679
12.13193
13.00728
13.76515
14.36367
14.80731
15.09646
15.19085
15.01871
14.53916
13.77464
12.81184
11.80016
10.87572
10.10044
9.475491
8.951336
8.423019
7.845482
7.21027
6.573586
6.002991
5.535194
5.132618
4.705444
4.180981
3.509464
2.756275
2.011906
1.342384
0.7119598
-0.01802444
-1.027149
-2.450432
-4.27523
-6.359516
-8.455368
-10.35382
-11.92973
-13.18015
-14.20828
-15.1729
-16.21488
-17.43256
-18.89777
-20.64244
-22.68739
-24.99459
-27.38338
-29.48255
-30.77563
-30.70434
-28.87175
-25.21148
-20.07781
-14.13366
-8.163971
-2.843716
1.445408
4.619209
6.824833
8.284058
9.209522
9.745609
9.981213
9.978348
9.81398
9.640244
9.624409
9.926491
10.58662
11.52039
12.54093
13.43665
14.05454
14.37403
14.47874
14.47204
14.42845
14.33
14.09302
13.63261
12.90497
11.95543
10.85804
9.758774
8.777275
8.013206
7.50016
7.164932
6.867962
6.416241
5.701679
4.667992
3.400597
2.018616
0.6564903
-0.6301384
-1.862247
-3.118549
-4.499245
-6.050053
-7.785267
-9.622887
-11.42813
-13.04465
-14.38934
-15.48097
-16.4551
-17.51419
-18.86363
-20.65051
-22.86663
-25.39183
-27.9464
-30.11484
-31.41378
-31.36238
-29.63752
-26.17329
-21.28553
-15.54548
-9.674728
-4.312313
0.1400795
3.538982
5.985504
7.692276
8.901863
9.786186
10.46108
10.9625
11.28462
11.42566
11.40086
11.25011
11.05463
10.90416
10.86481
10.97843
11.23007
11.58847
11.98969
12.35691
12.59088
12.60008
12.31664
11.70738
10.81941
9.743382
8.567982
7.383615
6.222042
5.085915
3.983322
2.943811
2.011005
1.218323
0.5338936
-0.1362953
-0.9189568
-1.926699
-3.192358
-4.636831
-6.153536
-7.643753
-9.087772
-10.53164
-12.03793
-13.62249
-15.25602
-16.91546
-18.60804
-20.37091
-22.21068
-23.95906
-25.27739
-25.67838
-24.73272
-22.24035
-18.35411
-13.53488
-8.383457
-3.431626
0.9928708
4.7772
7.934725
10.48362
12.36003
13.45623
13.67011
13.07833
11.94904
10.71427
9.818778
9.557318
9.979497
10.90373
12.01502
13.0187
13.74525
14.1529
14.29419
14.19821
13.87647
13.29906
12.44018
11.34501
10.08779
8.803039
7.602329
6.560116
5.67104
4.883749
4.096609
3.207664
2.161755
0.9354858
-0.4533463
-1.996767
-3.721684
-5.654709
-7.817659
-10.12404
-12.42446
-14.54
-16.34794
-17.87211
-19.29424
-20.85989
-22.7597
-24.99637
-27.28619
-29.1154
-29.86578
-29.04596
-26.45551
-22.26709
-17.00161
-11.31845
-5.819355
-0.8836708
3.368088
6.98407
10.03734
12.55426
14.45514
15.65057
16.13841
16.03638
15.59044
15.10067
14.83336
14.92756
15.3768
16.05708
16.77049
17.34542
17.67619
17.73018
17.55825
17.22995
16.80928
16.30889
15.70093
14.92024
13.93016
12.71331
11.30247
9.801601
8.350685
7.065704
6.01133
5.153221
4.360069
3.470535
2.337372
0.9132233
-0.7577515
-2.573761
-4.432838
-6.273842
-8.075485
-9.851028
-11.60893
-13.36722
-15.16743
-17.03851
-19.06042
-21.30161
-23.75845
-26.33043
-28.74323
-30.55675
-31.26141
-30.42964
-27.81595
-23.51932
-17.95338
-11.7648
-5.635468
-0.1304779
4.468445
8.111671
10.90227
12.99532
14.50769
15.49786
16.01205
16.1254
15.97078
15.73452
15.6064
15.71642
16.10739
16.69348
17.3319
17.89976
18.29654
18.52668
18.62038
18.61461
18.49783
18.20971
17.6486
16.7501
15.55712
14.17583
12.77775
11.48098
10.31264
9.183189
8.010498
6.742142
5.445122
4.25647
3.272415
2.492386
1.767677
0.8927078
-0.3147125
-1.890717
-3.746941
-5.7192
-7.679611
-9.583221
-11.42168
-13.24043
-15.05373
-16.8952
-18.82293
-20.92388
-23.28065
-25.84067
-28.37036
-30.43545
-31.47659
-30.99997
-28.71205
-24.65254
-19.19949
-12.95538
-6.584305
-0.6717911
4.384331
8.402954
11.34917
13.28706
14.34586
14.71832
14.65739
14.46835
14.43446
14.73366
15.40253
16.33009
17.3036
18.10417
18.60596
18.76795
18.68454
18.48917
18.29449
18.13781
17.95436
17.62275
17.03839
16.15252
15.04616
13.89043
12.89269
12.17589
11.71436
11.32562
10.73547
9.709465
8.15567
6.183899
4.052048
2.077469
0.4527817
-0.8049316
-1.874207
-3.048897
-4.551735
-6.423203
-8.519531
-10.61636
-12.50045
-14.09809
-15.4665
-16.7558
-18.13667
-19.75082
-21.70269
-24.02321
-26.65345
-29.34396
-31.61669
-32.85664
-32.46266
-30.08221
-25.77055
-19.97839
-13.436
-6.921928
-1.056801
3.80629
7.576828
10.35216
12.27348
13.48891
14.1115
14.2832
14.18855
14.07156
14.14658
14.51189
15.11314
15.75907
16.24599
16.48789
16.54473
16.56582
16.6832
16.91418
17.1393
17.18248
16.90106
16.24203
15.24013
13.96176
12.49268
10.94461
9.448738
8.163742
7.20742
6.567398
6.111244
5.633286
4.949348
3.986305
2.788612
1.459602
0.07482147
-1.370552
-2.955177
-4.75782
-6.762535
-8.845413
-10.81967
-12.52074
-13.89959
-15.04154
-16.12498
-17.34617
-18.85393
-20.72013
-22.92052
-25.34184
-27.76048
-29.84019
-31.11963
-31.11397
-29.44486
-25.96991
-20.89174
-14.73351
-8.229355
-2.074921
3.210663
7.382393
10.44196
12.50662
13.73178
14.23586
14.13203
13.59516
12.88404
12.30625
12.13277
12.50395
13.36961
14.52339
15.6913
16.6437
17.27653
17.59146
17.6623
17.531
17.20316
16.63872
15.79945
14.72809
13.53284
12.3764
11.37975
10.57516
9.897026
9.206696
8.359772
7.248238
5.875366
4.288765
2.625488
1.027512
-0.367775
-1.498459
-2.394699
-3.200645
-4.11821
-5.30027
-6.831917
-8.644173
-10.58968
-12.49566
-14.24129
-15.81871
-17.30388
-18.83397
-20.54168
-22.51861
-24.70501
-26.85269
-28.53249
-29.20434
-28.39942
-25.90635
-21.85449
-16.71768
-11.16622
-5.808998
-1.047291
2.96656
6.288563
8.997627
11.117
12.58499
13.32372
13.31833
12.74042
11.89857
11.18077
10.9238
11.28345
12.17386
13.34346
14.4856
15.35125
15.84813
16.01307
15.94808
15.7475
15.42029
14.90837
14.1443
13.09052
11.80154
10.40478
9.076298
7.970177
7.164959
6.610142
6.154362
5.635811
4.917667
3.982258
2.860229
1.623562
0.2985954
-1.113857
-2.643841
-4.272396
-5.922829
-7.513477
-8.985458
-10.33952
-11.62943
-12.90828
-14.20229
-15.51672
-16.85686
-18.29773
-19.99086
-22.0575
-24.50286
-27.08329
-29.30429
-30.54597
-30.25423
-28.14057
-24.29419
-19.14916
-13.31475
-7.422413
-1.964725
2.741323
6.552219
9.433189
11.42024
12.58022
13.03948
12.98986
12.63861
12.2088
11.8771
11.74424
11.82865
12.10771
12.53872
13.09057
13.74435
14.43249
15.06336
15.48947
15.54573
15.13149
14.24896
13.02446
11.6552
10.33926
9.200951
8.250788
7.43627
6.655035
5.80422
4.810762
3.660816
2.394289
1.107113
-0.08164978
-1.075618
-1.871401
-2.577319
-3.387273
-4.509493
-6.046947
-7.916693
-9.877283
-11.64312
-13.01
-13.98561
-14.75422
-15.60415
-16.80536
-18.48778
-20.59778
-22.8845
-24.95607
-26.31209
-26.4571
-25.02481
-21.91921
-17.37663
-11.9398
-6.30788
-1.125117
3.16551
6.404211
8.6854
10.20669
11.16722
11.69363
11.87876
11.83129
11.67515
11.57046
11.63508
11.89185
12.25787
12.59265
12.75713
12.72416
12.55835
12.40762
12.36612
12.42233
12.45899
12.29268
11.79954
10.97382
9.925085
8.795854
7.717132
6.712691
5.746564
4.75255
3.699535
2.612599
1.554493
0.5608122
-0.4004273
-1.436858
-2.658496
-4.1312
-5.831739
-7.628797
-9.361
-10.89552
-12.19372
-13.33112
-14.4768
-15.81137
-17.46713
-19.50404
-21.88559
-24.4478
-26.88007
-28.72845
-29.43918
-28.52293
-25.7514
-21.26407
-15.59187
-9.51925
-3.795507
1.061683
4.866228
7.696388
9.739886
11.14864
11.97382
12.23296
11.99747
11.42459
10.79399
10.38605
10.4049
10.91316
11.79324
12.81089
13.70438
14.27347
14.41913
14.19004
13.70079
13.08928
12.45825
11.82305
11.15597
10.38957
9.475001
8.401675
7.185508
5.880614
4.583726
3.416226
2.480794
1.805447
1.291286
0.7220402
-0.1422997
-1.427892
-3.092562
-4.930855
-6.690117
-8.234158
-9.584198
-10.89657
-12.33674
-13.9751
-15.78045
-17.68989
-19.68979
-21.83016
-24.13766
-26.44028
-28.30476
-29.11441
-28.29483
-25.55636
-21.05333
-15.35926
-9.245296
-3.452677
1.549784
5.607172
8.774181
11.16026
12.81748
13.71996
13.85586
13.33609
12.42314
11.4967
10.90798
10.85209
11.3148
12.10991
12.97355
13.69476
14.14836
14.31419
14.21568
13.88241
13.34715
12.62318
11.72843
10.65932
9.405044
7.996082
6.466004
4.8837
3.334756
1.889913
0.5981712
-0.5647268
-1.647754
-2.716878
-3.832504
-5.034465
-6.327892
-7.677184
-9.008311
-10.23456
-11.30882
-12.26628
-13.22347
-14.37514
-15.89934
-17.90011
-20.28519
-22.77513
-24.92787
-26.22948
-26.21712
-24.60286
-21.34666
-16.75189
-11.33432
-5.72701
-0.5126047
3.949187
7.514815
10.21483
12.1286
13.30773
13.75118
13.48951
12.68685
11.6116
10.60229
9.920033
9.688138
9.850958
10.26885
10.79659
11.34434
11.87102
12.32314
12.66054
12.79871
12.64264
12.12388
11.20393
9.897573
8.285232
6.483982
4.658497
2.997835
1.615005
0.5325323
-0.3392231
-1.17327
-2.142475
-3.337434
-4.747091
-6.287259
-7.813887
-9.237906
-10.56441
-11.88677
-13.37849
-15.23436
-17.53567
-20.22854
-23.08337
-25.69881
-27.58551
-28.25062
-27.28362
-24.53573
-20.15184
-14.58432
-8.505377
-2.630003
2.469242
6.466384
9.315668
11.18904
12.32857
12.96878
13.26068
13.29303
13.13233
12.88423
12.67182
12.6189
12.78373
13.10013
13.43696
13.65428
13.69085
13.60509
13.53111
13.55291
13.6352
13.59506
13.17172
12.1859
10.62796
8.671455
6.58996
4.643915
2.998657
1.688963
0.6789494
-0.1279106
-0.8468323
-1.609636
-2.56138
-3.801636
-5.35788
-7.139324
-9.017553
-10.88479
-12.71932
-14.58311
-16.59613
-18.85416
-21.31471
-23.78712
-25.91934
-27.27014
-27.40478
-25.98713
-22.90978
-18.35617
-12.80468
-6.871311
-1.168293
3.864437
8.032967
11.33535
13.82521
15.52763
16.41474
16.4544
15.76902
14.62828
13.43378
12.60736
12.4271
12.91921
13.88793
15.00174
15.92545
16.4484
16.50364
16.18222
15.65946
15.04638
14.36132
13.53533
12.47706
11.14466
9.617191
8.037643
6.567795
5.296284
4.19878
3.190327
2.18277
1.114769
-0.03412628
-1.26823
-2.611771
-4.084728
-5.674179
-7.311493
-8.881664
-10.29316
-11.56862
-12.84432
-14.2965
-16.08847
-18.26903
-20.77149
-23.38194
-25.79882
-27.65989
-28.5672
-28.14389
-26.14212
-22.55006
-17.65056
-11.94921
-6.053478
-0.495472
4.365986
8.387142
11.54674
13.85007
15.28259
15.8503
15.64087
14.87418
13.90922
13.12352
12.82059
13.10875
13.86502
14.80841
15.65088
16.1697
16.31076
16.1418
15.78852
15.36258
14.87384
14.25157
13.41649
12.33872
11.08894
9.807312
8.636265
7.653442
6.826027
6.024097
5.093956
3.944927
2.589867
1.143059
-0.2378006
-1.444138
-2.493263
-3.497696
-4.613968
-5.947361
-7.497593
-9.163498
-10.81789
-12.3718
-13.8507
-15.39246
-17.16816
-19.33583
-21.93737
-24.83998
-27.7383
-30.15359
-31.49805
-31.21606
-28.94893
-24.70188
-18.90315
-12.31563
-5.81628
-0.1051064
4.47419
7.967541
10.65446
12.81276
14.5535
15.79318
16.38924
16.30546
15.6847
14.82794
14.0634
13.61845
13.55496
13.83037
14.33665
14.96064
15.59297
16.09926
16.34021
16.21692
15.71488
14.90362
13.92859
12.90127
11.87094
10.82083
9.730057
8.603992
7.477158
6.382877
5.309006
4.211945
3.043987
1.791908
0.485899
-0.8387966
-2.182724
-3.602825
-5.166807
-6.896774
-8.712158
-10.46666
-12.02326
-13.37594
-14.67808
-16.1721
-18.08851
-20.48348
-23.19154
-25.8177
-27.84381
-28.78863
-28.28638
-26.19611
-22.60964
-17.83719
-12.33472
-6.616695
-1.163555
3.666065
7.671051
10.80341
13.09752
14.62962
15.45455
15.63787
15.28785
14.59434
13.82788
13.29873
13.23455
13.71544
14.59708
15.59409
16.41189
16.84923
16.89153
16.65763
16.31257
15.96158
15.60123
15.15087
14.51337
13.65502
12.6102
11.4845
10.39812
9.435904
8.602804
7.843573
7.044933
6.104486
4.960216
3.643433
2.254395
0.9049492
-0.3734341
-1.665241
-3.15973
-5.045964
-7.376341
-9.988296
-12.57913
-14.82416
-16.57611
-17.95012
-19.27691
-20.96296
-23.27773
-26.19771
-29.36989
-32.22317
-34.11195
-34.53117
-33.22452
-30.23508
-25.86599
-20.60476
-14.97882
-9.453609
-4.403469
-0.0155353
3.649599
6.624897
8.991957
10.80178
12.0784
12.81845
13.06902
12.92876
12.59904
12.3172
12.26006
12.51658
13.03187
13.67142
14.27944
14.72955
14.95383
14.95868
14.77224
14.39776
13.80736
12.96721
11.85738
10.53545
9.136456
7.8429
6.80451
6.039285
5.415656
4.752341
3.871763
2.720763
1.395421
0.06489515
-1.110005
-2.071375
-2.889031
-3.724321
-4.709811
-5.936713
-7.389966
-8.986057
-10.59335
-12.10407
-13.47511
-14.76684
-16.12036
-17.71165
-19.70182
-22.11705
-24.79924
-27.38815
-29.37897
-30.21424
-29.45868
-26.91657
-22.72864
-17.34482
-11.39785
-5.552665
-0.3049507
4.070391
7.516013
10.11197
11.98864
13.24679
13.96809
14.22443
14.12435
13.80621
13.42306
13.13197
13.04846
13.23194
13.67554
14.28849
14.92606
15.44993
15.75343
15.79929
15.61528
15.23709
14.66644
13.87414
12.82361
11.53908
10.15107
8.836729
7.773326
7.027922
6.510919
5.992432
5.23072
4.108903
2.66578
1.121181
-0.3008194
-1.461831
-2.378346
-3.224752
-4.200761
-5.427994
-6.889952
-8.476236
-10.04943
-11.55085
-12.99528
-14.45076
-15.9905
-17.66786
-19.52531
-21.61513
-23.94926
-26.41829
-28.73131
-30.42159
-30.95617
-29.92915
-27.19035
-22.94341
-17.68008
-12.04712
-6.616402
-1.787481
2.275321
5.588025
8.216824
10.24636
11.67092
12.47864
12.7127
12.49754
12.04424
11.59986
11.3682
11.44132
11.82323
12.42446
13.13418
13.82925
14.38248
14.68215
14.66878
14.33483
13.74148
13.01049
12.23031
11.43711
10.59558
9.630845
8.468042
7.121755
5.680292
4.254327
2.967406
1.842605
0.8606405
-0.06065273
-1.005018
-2.047755
-3.257795
-4.672912
-6.28758
-8.024286
-9.746968
-11.29058
-12.56115
-13.61139
-14.6535
-15.97456
-17.82802
-20.30631
-23.25018
-26.2627
-28.80127
-30.27775
-30.20695
-28.31973
-24.64373
-19.51598
-13.52796
-7.367151
-1.653293
3.207631
7.049969
9.890617
11.83343
12.98164
13.43709
13.3281
12.8477
12.25296
11.81765
11.76154
12.19088
13.05087
14.15429
15.23293
16.02369
16.37033
16.24343
15.76321
15.11482
14.4631
13.87631
13.31961
12.68142
11.84897
10.77155
9.48205
8.072237
6.648212
5.300086
4.079835
3.009866
2.080477
1.229966
0.3428893
-0.7186513
-2.092968
-3.856648
-5.978425
-8.314169
-10.63291
-12.7139
-14.44073
-15.83967
-17.104
-18.49446
-20.24216
-22.45297
-25.04136
-27.71161
-30.00398
-31.38568
-31.36934
-29.64032
-26.15646
-21.19364
-15.27512
-9.070476
-3.183697
1.950014
6.127695
9.341452
11.68718
13.26643
14.16894
14.48086
14.32541
13.88622
13.39385
13.08387
13.15307
13.69454
14.64953
15.8372
16.99741
17.88489
18.34138
18.33307
17.94722
17.31386
16.54099
15.67297
14.7127
13.65335
12.53425
11.43669
10.43018
9.512354
8.635345
7.682423
6.556736
5.240751
3.7827
2.268547
0.7804585
-0.6574364
-2.069386
-3.520802
-5.074594
-6.754755
-8.563715
-10.45691
-12.36854
-14.24952
-16.07008
-17.84456
-19.65265
-21.60437
-23.81292
-26.28524
-28.84338
-31.05661
-32.33268
-32.05669
-29.83618
-25.6888
-20.04254
-13.62433
-7.212101
-1.44146
3.356247
7.09864
9.888153
11.88386
13.24557
14.09916
14.561
14.71011
14.6291
14.43937
14.31895
14.49053
15.10967
16.16484
17.43738
18.55546
19.18084
19.18287
18.69252
18.01493
17.43798
17.08733
16.85479
16.48627
15.75447
14.59116
13.12061
11.55756
10.09384
8.800209
7.592754
6.347977
4.986855
3.527287
2.10688
0.888134
-0.0562439
-0.7965622
-1.524502
-2.497799
-3.893822
-5.743084
-7.895573
-10.11324
-12.14266
-13.86069
-15.28899
-16.57269
-17.90843
-19.45911
-21.32481
-23.52934
-26.0318
-28.68776
-31.21386
-33.15643
-33.93228
-32.98617
-30.00009
-25.07713
-18.75329
-11.85202
-5.203358
0.5981941
5.296322
8.875725
11.41627
13.0002
13.69091
13.63944
13.14793
12.60847
12.38301
12.64242
13.33878
14.26073
15.19336
16.00647
16.68652
17.28858
17.81649
18.22236
18.40519
18.28322
17.82005
17.05885
16.03846
14.80563
13.42017
11.93279
10.42732
8.970596
7.61557
6.335945
5.085663
3.785954
2.420143
1.005486
-0.4097176
-1.800392
-3.188644
-4.663963
-6.317581
-8.165142
-10.12208
-12.02205
-13.72346
-15.19682
-16.5745
-18.1131
-20.08537
-22.63014
-25.64536
-28.77206
-31.45239
-33.05544
-33.04147
-31.07593
-27.16321
-21.64293
-15.11734
-8.364563
-2.094444
3.195572
7.297783
10.30698
12.4817
14.07227
15.20186
15.87447
16.05374
15.78969
15.28259
14.82344
14.66119
14.90804
15.49453
16.25404
17.01965
17.70835
18.30926
18.81652
19.16265
19.21288
18.83475
17.95144
16.62169
15.02362
13.37988
11.89722
10.65478
9.597397
8.571526
7.396202
5.982933
4.384972
2.790154
1.410576
0.3674164
-0.4149475
-1.196594
-2.286041
-3.870453
-5.931435
-8.254318
-10.52949
-12.53422
-14.20575
-15.659
-17.13542
-18.88441
-21.09186
-23.79283
-26.84106
-29.92475
-32.57516
-34.24244
-34.41801
-32.75643
-29.17284
-23.94672
-17.65222
-11.01633
-4.726128
0.7507172
5.21524
8.686188
11.30102
13.20239
14.50871
15.32194
15.77229
16.04775
16.32092
16.72053
17.24409
17.80882
18.29771
18.63634
18.85738
19.06263
19.34805
19.7373
20.16797
20.47892
20.49701
20.09447
19.2491
18.05968
16.69122
15.29826
13.98248
12.80918
11.77518
10.84964
9.970284
9.034355
7.920662
6.53904
4.887497
3.060341
1.257568
-0.3323441
-1.621284
-2.662918
-3.663086
-4.839294
-6.324562
-8.065781
-9.866089
-11.49972
-12.85522
-13.98282
-15.08061
-16.40382
-18.12159
-20.26759
-22.76871
-25.49683
-28.28963
-30.92559
-33.07398
-34.25584
-33.99049
-31.93952
-28.07503
-22.76969
-16.65951
-10.42371
-4.600044
0.5201569
4.847443
8.365913
11.05338
12.89417
13.89351
14.18624
13.99692
13.63405
13.36359
13.37166
13.72515
14.39527
15.27516
16.19548
16.99142
17.50543
17.64024
17.38775
16.81017
15.99355
15.03223
13.99872
12.94083
11.92247
10.98649
10.1553
9.429794
8.784271
8.160858
7.50576
6.758377
5.862564
4.790771
3.536987
2.137932
0.6397552
-0.9101639
-2.514694
-4.214821
-6.037125
-7.978058
-9.9352
-11.77776
-13.39346
-14.78898
-16.10956
-17.61292
-19.55563
-22.08437
-25.11538
-28.28237
-30.9776
-32.50306
-32.26537
-29.98662
-25.78418
-20.15743
-13.81369
-7.478668
-1.702824
3.215702
7.190987
10.28814
12.57733
14.12391
14.98939
15.28059
15.16405
14.87772
14.63588
14.57085
14.72192
15.01119
15.34824
15.6885
16.0462
16.45285
16.89864
17.2431
17.26602
16.77403
15.6968
14.16424
12.46641
10.93041
9.780743
9.061054
8.632946
8.251358
7.703072
6.849648
5.660301
4.221802
2.631001
1.00668
-0.5914001
-2.177097
-3.822594
-5.587124
-7.51894
-9.6021
-11.739
-13.80917
-15.68015
-17.28782
-18.65892
-19.92654
-21.27473
-22.91563
-25.01113
-27.59871
-30.55605
-33.51765
-35.91982
-37.08504
-36.42123
-33.60789
-28.74888
-22.35034
-15.18023
-8.066319
-1.629906
3.778488
8.069347
11.32691
13.65676
15.15427
15.94296
16.19439
16.112
15.93299
15.84224
15.93469
16.2451
16.77433
17.50162
18.40112
19.38863
20.3184
21.02805
21.40575
21.44452
21.20484
20.78251
20.20683
19.43732
18.40892
17.09475
15.56524
13.96627
12.47174
11.18227
10.10441
9.149387
8.185867
7.112431
5.885345
4.550457
3.189777
1.899475
0.7380905
-0.2915649
-1.274742
-2.337734
-3.614395
-5.200397
-7.096481
-9.254692
-11.57415
-13.93304
-16.19905
-18.28148
-20.10343
-21.67827
-23.11572
-24.6571
-26.57898
-29.06809
-32.04592
-35.0833
-37.47644
-38.39805
-37.23524
-33.78643
-28.36012
-21.64851
-14.49143
-7.646255
-1.622864
3.330257
7.190235
10.04636
12.05466
13.40281
14.29072
14.92243
15.45272
15.96352
16.45436
16.87774
17.17746
17.35258
17.47877
17.6475
17.9455
18.37143
18.85216
19.25973
19.48594
19.48294
19.28624
18.9569
18.53351
18.0321
17.43556
16.74292
15.98328
15.19472
14.38138
13.48309
12.4096
11.10035
9.587212
8.022171
6.605961
5.478382
4.632858
3.923714
3.118927
2.040792
0.6610928
-0.8808174
-2.357937
-3.608391
-4.620188
-5.572256
-6.696302
-8.171022
-10.01542
-12.08451
-14.17337
-16.1167
-17.83687
-19.35889
-20.76215
-22.11053
-23.47644
-24.95519
-26.67627
-28.77786
-31.27809
-33.95591
-36.32369
-37.68818
-37.39595
-35.06413
-30.73678
-24.88093
-18.22256
-11.52197
-5.375227
-0.1159763
4.14517
7.452503
9.911007
11.63321
12.75354
13.42452
13.81204
14.05618
14.28297
14.55754
14.90286
15.31271
15.74071
16.13266
16.46735
16.75289
17.0452
17.4024
17.81516
18.18484
18.32444
18.04782
17.25401
16.01085
14.51298
13.03725
11.80822
10.92841
10.34504
9.899723
9.420732
8.783251
7.972443
7.03356
6.033312
5.024258
4.017944
3.004168
1.96225
0.8581161
-0.3188791
-1.577352
-2.913507
-4.302958
-5.714971
-7.140672
-8.572811
-10.04753
-11.59374
-13.21202
-14.86361
-16.47714
-18.00369
-19.47622
-21.03232
-22.835
-24.97891
-27.36167
-29.64947
-31.31639
-31.76842
-30.54487
-27.4674
-22.72051
-16.80015
-10.40167
-4.227645
1.203086
5.616226
8.954307
11.30145
12.73749
13.34875
13.23782
12.5973
11.71896
10.96469
10.63553
10.8666
11.58925
12.56173
13.51798
14.25003
14.69829
14.9102
14.95561
14.84656
14.52721
13.90083
12.88802
11.51556
9.887248
8.198205
6.63879
5.316157
4.225023
3.2649
2.299756
1.220394
0.004628181
-1.31805
-2.693856
-4.077066
-5.489923
-6.977653
-8.554381
-10.19708
-11.843
-13.43902
-15.02141
-16.73993
-18.7799
-21.2765
-24.14788
-27.04385
-29.36668
-30.43884
-29.7114
-26.99822
-22.54741
-16.96203
-11.00988
-5.372042
-0.4965534
3.46137
6.577833
9.034138
10.98911
12.52789
13.6706
14.3851
14.68419
14.6617
14.50493
14.43641
14.6519
15.1925
15.93541
16.61339
16.94257
16.77674
16.14641
15.24406
14.29991
13.44922
12.68312
11.86272
10.8378
9.516075
7.951925
6.286711
4.682543
3.257669
2.029806
0.945116
-0.09592056
-1.212658
-2.49753
-3.990686
-5.688843
-7.520868
-9.384016
-11.18226
-12.84919
-14.39961
-15.93204
-17.62109
-19.63465
-22.07825
-24.90704
-27.88411
-30.59882
-32.50788
-33.04999
-31.81081
-28.67036
-23.8642
-17.94671
-11.61947
-5.502293
-0.01105881
4.719116
8.727753
12.10592
14.86844
16.92139
18.14522
18.52586
18.23504
17.63531
17.13736
17.03225
17.40601
18.1317
18.93338
19.57045
19.93501
20.04081
19.9908
19.85858
19.63139
19.2381
18.5871
17.65633
16.49531
15.21206
13.92406
12.70914
11.59895
10.56772
9.536602
8.417717
7.154305
5.764961
4.347301
3.022449
1.877953
0.8790398
-0.1291084
-1.368954
-3.026913
-5.123116
-7.513611
-9.919361
-12.06369
-13.7641
-15.02706
-16.01654
-16.96856
-18.1169
-19.62264
-21.58892
-24.06071
-27.00182
-30.24401
-33.38583
-35.81754
-36.80717
-35.75188
-32.43102
-27.13248
-20.60347
-13.7768
-7.449253
-2.030243
2.476902
6.32819
9.748905
12.79645
15.31438
17.08322
18.00789
18.20673
18.02398
17.85738
18.0022
18.55333
19.393
20.28136
20.97406
21.31892
21.27966
20.95014
20.47076
19.97906
19.56475
19.21242
18.83726
18.32101
17.59531
16.68539
15.67681
14.68107
13.74494
12.85503
11.95647
10.98619
9.944847
8.876751
7.811634
6.743118
5.624809
4.393154
3.027206
1.530888
-0.06103516
-1.708134
-3.400295
-5.135429
-6.901333
-8.664715
-10.36729
-11.94899
-13.36924
-14.62561
-15.78008
-16.93538
-18.19103
-19.64216
-21.34063
-23.32838
-25.60269
-28.08465
-30.53708
-32.53417
-33.49794
-32.84756
-30.22446
-25.68945
-19.76635
-13.25384
-6.963974
-1.462322
3.062254
6.711927
9.687075
12.11903
14.0139
15.31976
16.02781
16.26855
16.28627
16.36785
16.70533
17.34885
18.1976
19.05876
19.7041
19.97422
19.80766
19.27136
18.56008
17.86734
17.31361
16.88581
16.44732
15.81639
14.91464
13.77925
12.55246
11.42226
10.46023
9.619364
8.763251
7.778656
6.622711
5.360579
4.104615
2.930276
1.860254
0.8525152
-0.1608791
-1.234042
-2.414621
-3.722723
-5.167715
-6.743067
-8.403916
-10.06709
-11.63399
-13.04017
-14.28437
-15.46248
-16.72779
-18.23735
-20.09295
-22.28308
-24.64627
-26.88079
-28.57409
-29.2431
-28.48386
-26.05929
-21.99367
-16.62065
-10.51805
-4.356088
1.265709
5.932609
9.472132
11.85965
13.1685
13.4951
12.97062
11.81895
10.36916
9.041117
8.235643
8.201157
8.92816
10.16945
11.54891
12.72972
13.52122
13.91792
13.97803
13.73926
13.16494
12.16604
10.70308
8.870598
6.883362
4.981197
3.338701
1.971973
0.8143578
-0.2432022
-1.260597
-2.237894
-3.159542
-4.04414
-4.966297
-6.027842
-7.291405
-8.716078
-10.17769
-11.51521
-12.62396
-13.54047
-14.45658
-15.68639
-17.4885
-19.94304
-22.81274
-25.55489
-27.43256
-27.75406
-26.12949
-22.58407
-17.54854
-11.70937
-5.789532
-0.3671036
4.219746
7.877335
10.66179
12.6847
14.0387
14.77069
14.90645
14.51309
13.74171
12.82357
12.02713
11.57003
11.54622
11.90185
12.45214
12.96659
13.25228
13.22154
12.88841
12.34214
11.67889
10.96015
10.21502
9.42556
8.586872
7.71265
6.828236
5.955132
5.102192
4.219921
3.228046
2.081245
0.7502785
-0.7402763
-2.356464
-4.079525
-5.89875
-7.792713
-9.709351
-11.55964
-13.26697
-14.81996
-16.27213
-17.76962
-19.4849
-21.56097
-24.02698
-26.72107
-29.27642
-31.13197
-31.6937
-30.49907
-27.40115
-22.63371
-16.75657
-10.46307
-4.404907
0.9701195
5.42675
8.875118
11.33187
12.87438
13.60835
13.72509
13.44765
13.00616
12.58212
12.32344
12.31446
12.59886
13.14223
13.84694
14.54016
15.03391
15.219
15.08232
14.71283
14.2195
13.67745
13.0917
12.45169
11.74478
10.97495
10.14814
9.212536
8.093712
6.712975
5.087067
3.308949
1.541122
-0.1146507
-1.657349
-3.168556
-4.764153
-6.486576
-8.29966
-10.11191
-11.83146
-13.42196
-14.92405
-16.43203
-18.0428
-19.85827
-21.92171
-24.22532
-26.65567
-28.93327
-30.62516
-31.20868
-30.19864
-27.35095
-22.74987
-16.87308
-10.43613
-4.205029
1.229164
5.596138
8.899906
11.31601
13.02447
14.10281
14.55727
14.45203
13.94829
13.33978
12.89518
12.77718
12.99255
13.39285
13.80833
14.12946
14.32696
14.43825
14.49838
14.49001
14.35206
14.04105
13.54859
12.86115
11.9761
10.87399
9.541134
8.019005
6.423561
4.914036
3.617828
2.57119
1.67469
0.7676811
-0.2983322
-1.623505
-3.208359
-5.004105
-6.918938
-8.886036
-10.83809
-12.70715
-14.44126
-16.0205
-17.48067
-18.92691
-20.53143
-22.44354
-24.74823
-27.32146
-29.79996
-31.56071
-31.92777
-30.36945
-26.71884
-21.31578
-14.87027
-8.272713
-2.267643
2.7038
6.566967
9.440331
11.5068
12.87851
13.58581
13.65877
13.19731
12.40643
11.55427
10.90155
10.64095
10.83378
11.44698
12.32161
13.26772
14.07516
14.57621
14.66185
14.31464
13.57253
12.52707
11.2909
9.955784
8.615871
7.341812
6.17979
5.123127
4.110683
3.036228
1.781097
0.2959633
-1.389648
-3.125042
-4.750969
-6.136253
-7.240269
-8.174545
-9.108887
-10.21283
-11.60189
-13.32038
-15.3844
-17.80614
-20.60075
-23.69502
-26.88066
-29.71942
-31.61607
-31.93858
-30.25974
-26.5013
-21.04937
-14.60607
-7.988432
-1.874165
3.352482
7.58156
10.86332
13.26019
14.79177
15.46478
15.36573
14.70444
13.82379
13.06442
12.67719
12.73061
13.16296
13.82137
14.55984
15.26906
15.8664
16.29685
16.48145
16.39687
16.05021
15.50161
14.82646
14.06053
13.16652
12.0289
10.5665
8.78508
6.835198
4.972172
3.43811
2.328988
1.520709
0.7226496
-0.3946128
-2.012501
-4.055368
-6.236548
-8.179223
-9.654572
-10.65543
-11.43557
-12.35402
-13.73847
-15.75659
-18.43536
-21.6552
-25.20462
-28.78954
-31.96301
-34.18883
-34.86763
-33.55071
-30.08809
-24.74626
-18.13111
-11.02985
-4.175806
1.933356
7.027591
11.03287
13.9569
15.83306
16.72236
16.7811
16.30798
15.68414
15.279
15.2952
15.72564
16.39688
17.08121
17.64026
18.08605
18.52207
19.07041
19.77273
20.50949
21.0632
21.20868
20.79852
19.82434
18.40085
16.70253
14.89732
13.10471
11.37404
9.717051
8.121422
6.594465
5.134224
3.774284
2.49814
1.244106
-0.1048431
-1.69158
-3.596235
-5.791298
-8.12233
-10.37127
-12.36131
-14.04341
-15.5502
-17.13856
-19.08662
-21.53751
-24.41042
-27.38625
-29.97176
-31.61395
-31.8324
-30.34013
-27.07361
-22.26482
-16.3911
-10.05676
-3.853254
1.790277
6.64542
10.65643
13.79676
16.04683
17.35659
17.75961
17.41587
16.65
15.85475
15.36137
15.32755
15.69342
16.26443
16.83674
17.29065
17.62859
17.89201
18.12733
18.29711
18.31155
18.05447
17.42828
16.41125
15.09455
13.63831
12.22726
11.01431
10.037
9.229279
8.449726
7.551327
6.448441
5.163399
3.783371
2.385546
0.983902
-0.4971142
-2.158028
-4.055531
-6.122017
-8.167982
-9.987257
-11.46173
-12.64791
-13.79148
-15.2034
-17.14891
-19.72941
-22.8744
-26.32645
-29.70158
-32.48898
-34.09652
-33.9536
-31.67636
-27.22319
-21.02953
-13.89596
-6.749172
-0.3815403
4.800627
8.772022
11.73018
13.8666
15.25595
15.85898
15.68837
14.93323
13.98865
13.32062
13.27552
13.92995
15.0547
16.26926
17.22155
17.75164
17.9109
17.89313
17.84785
17.80245
17.62951
17.10546
16.08679
14.56896
12.74375
10.88561
9.225724
7.88695
6.798362
5.807807
4.761569
3.61977
2.451465
1.38732
0.4841957
-0.3469019
-1.287924
-2.579012
-4.319455
-6.461525
-8.775925
-10.99556
-12.92671
-14.50485
-15.81343
-17.01825
-18.34087
-19.96307
-22.04745
-24.62818
-27.57148
-30.50459
-32.82046
-33.81964
-32.90629
-29.86115
-24.89635
-18.67278
-12.03459
-5.737652
-0.2769859
4.194538
7.746149
10.51775
12.58603
13.99512
14.71937
14.82112
14.45775
13.88505
13.37903
13.15595
13.33406
13.88981
14.73304
15.6906
16.61245
17.36378
17.86088
18.04902
17.90646
17.40658
16.52914
15.27776
13.69512
11.91628
10.13723
8.547988
7.258886
6.259033
5.393932
4.463773
3.33961
2.031338
0.6596632
-0.639699
-1.875171
-3.181915
-4.765201
-6.751765
-9.087457
-11.51055
-13.71706
-15.51734
-16.91555
-18.12398
-19.42484
-21.07269
-23.20491
-25.8148
-28.70091
-31.47252
-33.54634
-34.24808
-32.99899
-29.5439
-24.09174
-17.30243
-10.09628
-3.352615
2.310463
6.667017
9.804754
11.93625
13.25717
13.8818
13.88931
13.42312
12.74395
12.17292
11.9864
12.29572
12.99306
13.83447
14.57216
15.06381
15.35258
15.55227
15.75969
15.97327
16.07173
15.88874
15.30726
14.31982
13.01471
11.53264
9.982447
8.404173
6.812941
5.218719
3.670839
2.249275
1.024359
-0.005537033
-0.8913517
-1.734421
-2.64012
-3.689541
-4.926891
-6.400179
-8.142538
-10.15939
-12.41166
-14.77565
-17.08705
-19.21381
-21.13391
-22.98795
-25.01069
-27.38176
-30.07046
-32.75388
-34.82891
-35.5977
-34.5052
-31.33783
-26.34244
-20.16475
-13.63589
-7.52409
-2.318531
1.848202
5.084944
7.609562
9.574183
11.00941
11.8557
12.09954
11.83584
11.29699
10.77299
10.48955
10.54322
10.88189
11.41486
12.09589
12.93286
13.9577
15.14701
16.38242
17.42637
18.04974
18.0917
17.53606
16.46487
15.04271
13.43491
11.76183
10.11593
8.535036
7.058594
5.704645
4.474319
3.371365
2.382903
1.447659
0.4595509
-0.7174454
-2.211359
-4.050393
-6.169664
-8.404191
-10.57
-12.54107
-14.30924
-15.98967
-17.78451
-19.87635
-22.36567
-25.17877
-28.01359
-30.3386
-31.52892
-31.03712
-28.60418
-24.34235
-18.71353
-12.36001
-5.897338
0.2086773
5.675148
10.30912
13.98114
16.59169
18.09964
18.58669
18.27066
17.44602
16.44182
15.54535
14.93337
14.6975
14.82269
15.21595
15.77274
16.38476
16.97213
17.46524
17.77877
17.80564
17.45921
16.70244
15.5731
14.17001
12.61033
10.99467
9.361043
7.741765
6.172788
4.709847
3.409413
2.268088
1.219861
0.1447783
-1.072641
-2.497741
-4.161627
-6.028505
-8.039008
-10.10963
-12.16285
-14.16719
-16.16508
-18.22553
-20.44981
-22.90081
-25.54158
-28.20242
-30.57502
-32.26367
-32.83391
-31.8891
-29.21172
-24.83745
-19.11504
-12.63555
-6.084878
-0.05581474
5.081144
9.192299
12.28996
14.40218
15.52735
15.70024
15.05257
13.89689
12.63578
11.66953
11.20768
11.25175
11.62678
12.11239
12.57596
12.96792
13.29277
13.53361
13.63853
13.49382
13.01077
12.13158
10.85015
9.20307
7.250315
5.107861
2.912836
0.8392925
-1.015686
-2.634684
-4.110819
-5.633863
-7.37991
-9.439178
-11.76266
-14.18715
-16.46436
-18.40681
-19.96372
-21.23219
-22.45777
-23.91194
-25.75404
-27.94536
-30.2197
-32.11374
-33.08667
-32.64417
-30.47229
-26.52038
-21.03009
-14.49954
-7.571152
-0.8764038
5.101543
10.10366
14.09216
17.15288
19.38499
20.86792
21.67988
21.97013
21.96086
21.92041
22.05361
22.38417
22.78747
23.03092
22.9236
22.41795
21.63533
20.76136
19.94857
19.17113
18.24208
16.94041
15.1207
12.84357
10.34839
7.965897
5.934387
4.328041
3.031151
1.838135
0.57724
-0.7997589
-2.224258
-3.589241
-4.820633
-5.926086
-6.950851
-7.957802
-9.012909
-10.1638
-11.54187
-13.34974
-15.75169
-18.75172
-22.06313
-25.05669
-26.9175
-26.91232
-24.64493
-20.23393
-14.24279
-7.506554
-0.8539734
5.105026
10.05814
13.90906
16.66401
18.35083
18.99435
18.68609
17.65051
16.22517
14.76213
13.54936
12.69095
12.13309
11.73726
11.36547
10.96198
10.54752
10.1684
9.857246
9.557823
9.15255
8.497314
7.479424
6.103577
4.475914
2.809441
1.321098
0.1655655
-0.6537247
-1.248566
-1.815109
-2.524597
-3.467072
-4.607834
-5.851952
-7.09761
-8.320641
-9.607208
-11.12564
-13.08615
-15.64314
-18.83054
-22.48138
-26.2084
-29.47841
-31.68816
-32.28777
-30.93121
-27.55486
-22.43513
-16.10443
-9.272026
-2.630669
3.292496
8.183853
11.94012
14.5835
16.20269
16.88673
16.78234
16.13053
15.25637
14.54459
14.28923
14.60328
15.37211
16.33511
17.19908
17.76111
17.96791
17.88219
17.60471
17.21081
16.71934
16.10077
15.30122
14.26737
12.9452
11.30903
9.350372
7.086678
4.550705
1.816055
-1.053322
-3.997841
-6.970879
-9.940605
-12.90064
-15.88688
-18.94021
-22.06339
-25.10096
-27.72183
-29.42701
-29.66858
-28.02031
-24.35791
-18.93717
-12.36125
-5.413361
1.154655
6.791084
11.21984
14.42514
16.52982
17.68152
18.03802
17.75323
17.02858
16.10019
15.21044
14.53448
14.17065
14.08591
14.19836
14.40317
14.62229
14.79036
14.83296
14.64857
14.12424
13.16169
11.69406
9.735718
7.384613
4.799088
2.169151
-0.3171921
-2.535103
-4.453987
-6.135239
-7.718521
-9.362068
-11.21484
-13.40867
-16.01139
-18.99022
-22.19467
-25.3231
-27.94723
-29.58156
-29.79094
-28.28272
-25.02564
-20.22961
-14.34026
-7.930405
-1.58902
4.209656
9.147171
13.07611
15.98721
17.93339
19.00941
19.32623
19.03212
18.34599
17.54304
16.89099
16.57809
16.67346
17.09544
17.68569
18.27779
18.72638
18.95347
18.91663
18.58288
17.91908
16.89596
15.50343
13.75747
11.71869
9.482117
7.206093
5.090462
3.288963
1.84243
0.6440201
-0.5916824
-2.15451
-4.205086
-6.693344
-9.372398
-11.96164
-14.31261
-16.48575
-18.68346
-21.10074
-23.80772
-26.68655
-29.58814
-32.35672
-34.84458
-36.81052
-37.82159
-37.28612
-34.65945
-29.735
-22.80272
-14.66044
-6.325714
1.290421
7.633759
12.55546
16.19976
18.77823
20.45234
21.32528
21.47132
21.06691
20.38214
19.76237
19.50564
19.76132
20.46111
21.36635
22.16536
22.61471
22.62162
22.27384
21.70696
21.03907
20.24675
19.19476
17.72705
15.80117
13.54588
11.24967
9.202251
7.566147
6.287365
5.141331
3.892387
2.412918
0.7633896
-0.8875046
-2.362339
-3.608421
-4.726742
-5.886032
-7.222301
-8.737194
-10.34594
-11.89994
-13.33852
-14.67681
-15.9903
-17.37858
-18.91798
-20.67184
-22.69037
-25.00082
-27.51934
-29.95948
-31.7957
-32.37112
-31.10758
-27.70289
-22.33628
-15.59221
-8.338659
-1.415909
4.550236
9.253592
12.68079
14.96704
16.28267
16.78977
16.68448
16.20438
15.63464
15.23201
15.15487
15.39862
15.8292
16.26738
16.5591
16.64594
16.578
16.44951
16.35836
16.35635
16.41545
16.4382
16.27159
15.7339
14.73281
13.26097
11.42751
9.444723
7.539935
5.873434
4.494981
3.353046
2.313435
1.262198
0.1302476
-1.093687
-2.407245
-3.789631
-5.218159
-6.673905
-8.119046
-9.532472
-10.89139
-12.19757
-13.44203
-14.62626
-15.76404
-16.93366
-18.29374
-20.03621
-22.30962
-25.03285
-27.86907
-30.1862
-31.2881
-30.62346
-27.96647
-23.52179
-17.79455
-11.45946
-5.153639
0.6192646
5.53751
9.427208
12.2077
13.86189
14.41592
13.9903
12.8057
11.2093
9.627941
8.482246
8.034046
8.331738
9.176899
10.21422
11.08759
11.60184
11.76708
11.75315
11.72891
11.73286
11.62925
11.19942
10.25602
8.812492
7.069023
5.334557
3.885498
2.778549
1.86446
0.8511238
-0.5357666
-2.389275
-4.580879
-6.804852
-8.754017
-10.24856
-11.31321
-12.12903
-12.96429
-14.02793
-15.46223
-17.29879
-19.48383
-21.87111
-24.18852
-26.03292
-26.90509
-26.33641
-24.04428
-20.08918
-14.86676
-9.04174
-3.30735
1.793282
5.959343
9.155113
11.45396
12.95617
13.68519
13.61298
12.73497
11.21594
9.364632
7.608994
6.352287
5.843231
6.102303
6.93132
8.015297
9.02153
9.670013
9.817406
9.451027
8.664337
7.613831
6.420738
5.127357
3.702721
2.074432
0.2143173
-1.790611
-3.772888
-5.551369
-7.048691
-8.307693
-9.450737
-10.61044
-11.87389
-13.27204
-14.87054
-16.74628
-18.96821
-21.46607
-23.95766
-25.93314
-26.77055
-25.96648
-23.30688
-18.95209
-13.3871
-7.266083
-1.239189
4.174438
8.641663
12.02116
14.28445
15.50732
15.79507
15.27274
14.1256
12.6041
11.03387
9.721786
8.907516
8.658623
8.875458
9.339294
9.815308
10.11718
10.16121
9.943665
9.476288
8.765167
7.786575
6.544838
5.053223
3.32914
1.382172
-0.7887878
-3.145424
-5.586319
-7.956596
-10.09502
-11.90319
-13.42767
-14.82381
-16.29919
-18.06411
-20.25072
-22.88158
-25.85131
-28.89906
-31.56173
-33.20485
-33.16654
-30.92257
-26.38126
-19.94671
-12.45901
-4.943459
1.71019
7.02317
10.93126
13.6735
15.56614
16.82298
17.50668
17.65845
17.3661
16.83154
16.31841
16.04099
16.05342
16.24342
16.39583
16.33173
15.99359
15.47955
14.95994
14.5734
14.34163
14.14024
13.75268
12.99167
11.75989
10.14477
8.326347
6.525345
4.868546
3.361427
1.905518
0.3595505
-1.374153
-3.304543
-5.374046
-7.492416
-9.589878
-11.63003
-13.60844
-15.52941
-17.38296
-19.19406
-21.07799
-23.21796
-25.80076
-28.85102
-32.07672
-34.81794
-36.22369
-35.5176
-32.32985
-26.86766
-19.81551
-12.09501
-4.560871
2.212841
7.953979
12.57056
16.04856
18.35962
19.52266
19.67651
19.09506
18.14725
17.17391
16.43758
16.02958
15.95741
16.1364
16.48874
16.96352
17.50833
18.0849
18.63726
19.10665
19.4056
19.4563
19.16423
18.45412
17.26983
15.58478
13.47158
11.07001
8.566574
6.159637
4.021343
2.25032
0.8658066
-0.2138481
-1.175697
-2.238407
-3.577232
-5.26672
-7.234074
-9.296024
-11.26406
-13.05182
-14.6979
-16.35737
-18.19256
-20.30989
-22.75404
-25.49432
-28.43354
-31.3623
-33.88402
-35.43624
-35.38282
-33.23963
-28.88173
-22.62634
-15.16108
-7.345791
0.03198242
6.40876
11.49288
15.2193
17.67027
19.00086
19.38991
19.03154
18.16019
17.04389
15.97961
15.24543
15.02703
15.33795
16.01803
16.81263
17.46894
17.83232
17.88068
17.69581
17.35727
16.88797
16.27498
15.45867
14.44031
13.26431
11.99573
10.68409
9.336828
7.949383
6.512377
5.03644
3.562452
2.152473
0.8490734
-0.3479462
-1.501223
-2.717266
-4.083284
-5.651949
-7.392687
-9.219791
-11.0545
-12.85568
-14.6397
-16.46377
-18.38636
-20.45397
-22.71735
-25.23863
-28.00165
-30.82029
-33.24979
-34.63245
-34.28123
-31.74574
-27.0205
-20.59961
-13.31357
-6.021944
0.5948772
6.188513
10.67835
14.08359
16.42415
17.67601
17.82589
17.01743
15.5874
14.03122
12.84254
12.39065
12.75063
13.74206
15.00799
16.20011
17.08213
17.57793
17.73256
17.60849
17.25976
16.68721
15.91178
14.9444
13.8151
12.548
11.15009
9.635194
8.04425
6.497806
5.115173
4.005892
3.159098
2.447608
1.684796
0.7070456
-0.5661459
-2.131489
-3.894644
-5.792181
-7.762203
-9.75646
-11.72803
-13.59849
-15.30735
-16.85429
-18.36858
-20.03574
-22.0531
-24.48472
-27.14708
-29.58405
-31.1437
-31.19234
-29.29406
-25.40343
-19.8663
-13.35915
-6.667333
-0.4478827
4.869817
9.124066
12.29561
14.41476
15.4839
15.54994
14.77003
13.47683
12.1371
11.1874
10.90245
11.30019
12.17256
13.20814
14.14653
14.84306
15.29808
15.57371
15.67075
15.54031
15.1125
14.34492
13.26537
11.94726
10.48108
8.933121
7.374858
5.846375
4.40772
3.096109
1.909026
0.7984495
-0.3179903
-1.533042
-2.908744
-4.419584
-6.024179
-7.635538
-9.189172
-10.64287
-11.97857
-13.21636
-14.42046
-15.71237
-17.25258
-19.20392
-21.66267
-24.58195
-27.67129
-30.38682
-32.03257
-31.9508
-29.74128
-25.42396
-19.47438
-12.64207
-5.757063
0.5269456
5.799494
9.904736
12.80996
14.53138
15.12797
14.74316
13.69055
12.37208
11.22128
10.56298
10.52817
11.06578
11.99581
13.07475
14.08781
14.89225
15.40509
15.60832
15.49418
15.08302
14.39851
13.45764
12.28034
10.90317
9.380489
7.777916
6.178135
4.641098
3.195702
1.829672
0.4893723
-0.8809299
-2.343447
-3.919174
-5.617855
-7.403391
-9.246981
-11.07468
-12.80246
-14.38285
-15.79437
-17.12695
-18.59073
-20.48847
-23.02571
-26.15538
-29.46726
-32.19746
-33.45785
-32.52845
-29.17771
-23.72536
-16.94179
-9.729303
-2.84164
3.259739
8.42165
12.61791
15.81768
17.912
18.79623
18.50192
17.2966
15.66042
14.1287
13.15338
12.91356
13.35872
14.22403
15.20906
16.09696
16.77014
17.20494
17.39692
17.34231
16.9871
16.30783
15.29051
13.99755
12.51613
10.93002
9.307831
7.676502
6.059536
4.498413
3.033066
1.737274
0.6233711
-0.3488464
-1.279602
-2.299145
-3.512371
-4.968914
-6.660778
-8.497269
-10.38016
-12.24371
-14.07617
-15.9645
-18.04811
-20.45877
-23.22562
-26.21561
-29.06427
-31.24173
-32.13788
-31.25423
-28.35223
-23.58826
-17.48266
-10.75126
-4.127731
1.884094
7.049995
11.33089
14.72283
17.16576
18.52479
18.74647
17.98998
16.67888
15.39944
14.66168
14.70573
15.44948
16.57455
17.76706
18.80655
19.62666
20.21201
20.53276
20.50824
20.05251
19.16106
17.94177
16.58369
15.27327
14.12766
13.13894
12.23918
11.31992
10.29061
9.120132
7.81929
6.459717
5.141159
3.978439
3.010338
2.187263
1.345589
0.2531052
-1.295258
-3.390167
-5.936592
-8.691902
-11.31461
-13.51646
-15.16381
-16.32907
-17.28893
-18.42208
-20.10551
-22.55674
-25.75216
-29.38784
-32.88967
-35.51449
-36.51767
-35.32143
-31.71548
-25.93478
-18.62469
-10.70053
-3.094437
3.4589
8.571991
12.20572
14.58183
15.99249
16.69648
16.8849
16.69798
16.29166
15.85828
15.60246
15.67713
16.09686
16.7482
17.44147
18.00763
18.40359
18.69949
19.02685
19.43767
19.85045
20.03823
19.75083
18.81323
17.24409
15.27223
13.22053
11.42746
10.10063
9.290627
8.849197
8.536072
8.060936
7.183182
5.832039
4.130486
2.352028
0.7993927
-0.3383713
-1.101852
-1.751724
-2.649223
-4.068459
-6.065056
-8.461952
-10.95572
-13.26608
-15.26395
-17.00656
-18.65992
-20.43018
-22.47892
-24.88126
-27.62559
-30.52217
-33.21714
-35.15524
-35.7152
-34.35011
-30.84312
-25.40106
-18.64636
-11.45951
-4.680321
1.108238
5.686386
9.140686
11.72532
13.64243
14.98914
15.75153
15.93306
15.64828
15.14841
14.75565
14.7212
15.14937
15.94706
16.91118
17.85341
18.65539
19.31671
19.86001
20.30633
20.57078
20.51251
19.97686
18.89864
17.38986
15.6999
14.14887
12.96036
12.18256
11.64996
11.08978
10.25557
9.073082
7.652191
6.195694
4.871784
3.703701
2.598202
1.427155
0.1403275
-1.241142
-2.655289
-4.11961
-5.745754
-7.661354
-9.921803
-12.40038
-14.83607
-16.94704
-18.57697
-19.78632
-20.82608
-22.06141
-23.77293
-26.10057
-28.97831
-32.10435
-34.9818
-36.98274
-37.44963
-35.88275
-32.11457
-26.38078
-19.31153
-11.74403
-4.506355
1.810272
6.885746
10.70179
13.38674
15.11573
16.0227
16.24744
15.95596
15.39472
14.88142
14.67325
14.90454
15.51848
16.31709
17.08884
17.70161
18.15611
18.54114
18.95235
19.38689
19.75212
19.87924
19.62082
18.91244
17.78636
16.37173
14.82929
13.32053
11.97418
10.83245
9.85467
8.920918
7.938385
6.8494
5.717602
4.669628
3.786867
3.037659
2.278351
1.329453
0.07950592
-1.435596
-3.084631
-4.705996
-6.222458
-7.677976
-9.190742
-10.84615
-12.63825
-14.46237
-16.18882
-17.73065
-19.10113
-20.41007
-21.82324
-23.51985
-25.61833
-28.13791
-30.94181
-33.72174
-35.96606
-37.09556
-36.55355
-34.03136
-29.53382
-23.45266
-16.47641
-9.369292
-2.797513
2.799265
7.257957
10.61482
12.99471
14.54505
15.37707
15.58503
15.29466
14.69
14.02822
13.56094
13.51871
13.9843
14.90013
16.0543
17.17499
18.02387
18.49232
18.58745
18.39896
18.01481
17.45375
16.68099
15.66574
14.43682
13.10149
11.77666
10.55614
9.459459
8.443796
7.420572
6.341495
5.195617
4.036884
2.956959
2.033848
1.290676
0.6733446
0.07769966
-0.6520557
-1.655863
-3.003761
-4.709938
-6.710241
-8.912962
-11.21045
-13.48202
-15.58891
-17.38883
-18.79958
-19.85777
-20.76326
-21.84417
-23.44029
-25.73081
-28.62275
-31.65602
-34.10321
-35.16692
-34.24502
-31.12166
-26.05525
-19.67944
-12.79
-6.104551
-0.1434383
4.813526
8.653982
11.36348
12.98044
13.62354
13.51837
12.95287
12.2508
11.6494
11.29638
11.23123
11.44205
11.90692
12.55601
13.29688
13.98307
14.46838
14.64628
14.48819
14.04008
13.39732
12.65818
11.88974
11.10876
10.266
9.256025
7.983097
6.434349
4.702137
2.987642
1.531883
0.4755478
-0.2229385
-0.7782993
-1.473536
-2.532162
-3.987459
-5.727098
-7.588425
-9.420876
-11.18089
-12.87264
-14.5281
-16.16823
-17.85205
-19.69123
-21.81666
-24.32386
-27.11769
-29.89252
-32.10606
-33.1245
-32.36433
-29.50382
-24.60155
-18.12347
-10.8749
-3.777885
2.368272
7.120682
10.44973
12.64565
14.07775
15.02461
15.54918
15.59248
15.1288
14.29118
13.40275
12.84688
12.90357
13.59011
14.67964
15.81933
16.67437
17.10735
17.14342
16.93103
16.59485
16.15462
15.52722
14.60645
13.35709
11.82945
10.18007
8.551023
7.018791
5.564506
4.117842
2.60839
1.047762
-0.5035763
-1.979015
-3.350652
-4.680524
-6.072995
-7.632853
-9.373375
-11.22501
-13.07123
-14.83449
-16.55118
-18.34966
-20.40655
-22.82642
-25.60788
-28.62148
-31.62872
-34.29478
-36.20748
-36.90072
-35.92226
-32.99414
-28.15101
-21.78155
-14.56263
-7.279353
-0.5828462
5.140235
9.771405
13.36227
16.02035
17.82253
18.82531
19.13785
18.92823
18.42615
17.90777
17.60187
17.65939
18.11761
18.905
19.89095
20.89775
21.76474
22.34337
22.54948
22.34899
21.76689
20.88816
19.81889
18.65265
17.45315
16.23692
14.99384
13.74317
12.50292
11.34783
10.35454
9.546873
8.851461
8.137218
7.257923
6.113302
4.729153
3.194313
1.644417
0.1717167
-1.191349
-2.51965
-3.923344
-5.507519
-7.335428
-9.39754
-11.62764
-13.95221
-16.27558
-18.51982
-20.63017
-22.57964
-24.41671
-26.24195
-28.20755
-30.46708
-33.0491
-35.76132
-38.13241
-39.47532
-39.10574
-36.54203
-31.74684
-25.16751
-17.62343
-10.04717
-3.189043
2.548771
7.143745
10.77426
13.6625
15.8725
17.35717
18.07721
18.11786
17.78215
17.44375
17.43655
17.89096
18.7209
19.71474
20.67542
21.52047
22.2513
22.86096
23.29686
23.47603
23.32023
22.86267
22.21116
21.4836
20.73334
19.90342
18.87873
17.5923
16.08185
14.48168
12.96197
11.6375
10.5444
9.628439
8.839235
8.125959
7.449963
6.755173
5.925962
4.865452
3.518461
1.911617
0.1638107
-1.560068
-3.150095
-4.591223
-5.985538
-7.511001
-9.29522
-11.41997
-13.7937
-16.22729
-18.46373
-20.30836
-21.70629
-22.78244
-23.81366
-25.10769
-26.91926
-29.29671
-32.08995
-34.88222
-37.07424
-38.00083
-37.06564
-33.98447
-28.87119
-22.27972
-15.05546
-8.057218
-1.904802
3.142978
7.160845
10.34352
12.84531
14.69887
15.85605
16.3223
16.24746
15.9188
15.65357
15.66342
15.9897
16.52996
17.11957
17.65442
18.10212
18.52117
18.95887
19.3873
19.69357
19.75074
19.45258
18.78013
17.80006
16.62782
15.38285
14.14551
12.99738
11.96429
11.04567
10.18215
9.282264
8.236435
7.00435
5.621267
4.192252
2.862
1.72834
0.7754202
-0.1113462
-1.116684
-2.402274
-4.05009
-6.020259
-8.184087
-10.37465
-12.43473
-14.29807
-15.97137
-17.54366
-19.16114
-20.99022
-23.14992
-25.71311
-28.62814
-31.63552
-34.26641
-35.87265
-35.83537
-33.7439
-29.59572
-23.80962
-17.09908
-10.24422
-3.84705
1.749938
6.452502
10.27441
13.24449
15.33983
16.54819
16.93922
16.70481
16.13873
15.53414
15.13115
15.039
15.24517
15.6642
16.20081
16.77271
17.30199
17.71332
17.89937
17.80099
17.39658
16.72364
15.85325
14.84893
13.71913
12.4619
11.10251
9.703241
8.372447
7.208271
6.202119
5.26761
4.272402
3.113102
1.796999
0.4565315
-0.7492371
-1.724012
-2.493239
-3.203777
-4.059181
-5.245591
-6.855493
-8.845013
-11.06896
-13.33184
-15.44308
-17.29775
-18.91905
-20.44948
-22.11007
-24.11192
-26.57133
-29.43065
-32.40331
-34.95941
-36.4418
-36.23264
-33.94728
-29.57156
-23.49332
-16.41411
-9.159237
-2.457621
3.193867
7.592251
10.77037
12.9216
14.27511
15.05492
15.42898
15.52355
15.46314
15.34571
15.27305
15.32163
15.53279
15.86337
16.23709
16.54745
16.71901
16.73608
16.65316
16.5372
16.42089
16.2814
16.01354
15.50523
14.69271
13.5845
12.30624
11.00732
9.835699
8.852226
8.019444
7.226938
6.348585
5.296911
4.059599
2.707613
1.318249
-0.02733612
-1.336075
-2.679396
-4.168509
-5.908318
-7.930313
-10.16281
-12.43563
-14.58463
-16.45774
-18.0339
-19.38394
-20.67284
-22.09222
-23.8216
-25.99965
-28.6171
-31.49436
-34.18832
-36.05453
-36.4171
-34.77324
-31.02697
-25.51492
-18.92762
-12.07313
-5.629303
0.009908676
4.685818
8.407843
11.23154
13.19362
14.33724
14.75089
14.61485
14.17729
13.7333
13.53598
13.72221
14.32004
15.21763
16.23856
17.18805
17.94979
18.45885
18.72141
18.7429
18.50189
17.95933
17.09621
15.95672
14.65396
13.32856
12.0983
11.00189
9.980831
8.929873
7.717695
6.251071
4.539893
2.663545
0.7765551
-0.9584646
-2.446277
-3.717287
-4.907478
-6.221131
-7.816617
-9.752344
-11.93341
-14.18353
-16.3208
-18.25747
-20.06077
-21.92279
-24.0169
-26.41123
-28.97549
-31.3377
-32.98224
-33.33092
-31.93037
-28.59551
-23.4963
-17.15528
-10.29214
-3.657256
2.206058
7.036044
10.81868
13.6857
15.7416
17.0135
17.49702
17.25154
16.48634
15.5421
14.79056
14.50314
14.78441
15.51037
16.45976
17.38351
18.09461
18.52054
18.66323
18.55394
18.21688
17.65847
16.84665
15.76376
14.41674
12.88692
11.27067
9.672634
8.140995
6.6763
5.264064
3.87099
2.517941
1.262874
0.126399
-0.8954227
-1.910936
-3.083043
-4.581467
-6.480795
-8.741255
-11.19048
-13.59835
-15.77482
-17.64657
-19.2867
-20.88565
-22.68747
-24.87074
-27.46942
-30.33993
-33.12888
-35.35588
-36.45946
-35.92245
-33.43711
-29.02857
-23.07114
-16.2418
-9.307653
-2.906065
2.586326
7.107692
10.77643
13.75027
16.09333
17.75495
18.68062
18.91005
18.64481
18.21174
17.94407
18.04328
18.49696
19.13725
19.73734
20.13691
20.3214
20.38622
20.43386
20.51969
20.55593
20.36641
19.7734
18.70134
17.22431
15.56069
13.95672
12.57601
11.46296
10.52
9.586409
8.538195
7.339048
6.069151
4.859884
3.814535
2.925077
2.02906
0.8864307
-0.7173376
-2.867937
-5.470367
-8.289978
-11.02661
-13.4588
-15.51089
-17.26931
-18.93052
-20.71691
-22.76866
-25.12062
-27.73846
-30.51608
-33.27489
-35.72911
-37.43439
-37.8421
-36.42745
-32.91443
-27.42398
-20.5181
-13.06271
-5.935707
0.2278538
5.180973
9.00181
11.91414
14.10321
15.66224
16.61681
17.06777
17.2482
17.44822
17.90751
18.67226
19.60112
20.45006
21.01023
21.21831
21.16874
20.99941
20.81648
20.60502
20.25341
19.62083
18.63014
17.29584
15.74568
14.15834
12.70109
11.4866
10.53727
9.780128
9.083328
8.286276
7.268909
5.984793
4.494127
2.912516
1.385902
0.01162338
-1.213516
-2.362936
-3.583593
-5.010763
-6.70947
-8.65046
-10.72585
-12.78192
-14.70293
-16.47387
-18.15813
-19.91876
-21.92577
-24.3088
-27.06656
-30.02437
-32.79701
-34.84752
-35.59409
-34.54359
-31.4546
-26.42644
-19.90462
-12.59767
-5.305278
1.279977
6.699642
10.76875
13.56633
15.31466
16.28424
16.7392
16.88227
16.85284
16.75139
16.64671
16.59992
16.65368
16.84748
17.15681
17.53855
17.89785
18.14444
18.23464
18.18939
18.03053
17.75522
17.29313
16.50917
15.336
13.82846
12.19491
10.72904
9.635143
8.929731
8.426524
7.8242
6.893736
5.572925
3.986622
2.326932
0.7664013
-0.6776142
-2.122201
-3.71983
-5.576658
-7.679595
-9.902434
-12.05807
-14.01434
-15.69387
-17.13667
-18.46572
-19.83652
-21.41026
-23.32221
-25.63407
-28.32092
-31.23265
-34.03349
-36.2336
-37.24298
-36.52637
-33.80069
-29.15986
-23.08235
-16.29387
-9.563574
-3.477328
1.669642
5.871083
9.293908
12.07487
14.25305
15.76551
16.5667
16.71786
16.44902
16.09158
15.93058
16.1213
16.61505
17.23519
17.80323
18.21501
18.49542
18.74797
19.08109
19.51125
19.96677
20.26363
20.18346
19.53489
18.25009
16.45785
14.46596
12.6378
11.22481
10.26384
9.524158
8.667467
7.426086
5.746538
3.810268
1.925101
0.3459255
-0.8689745
-1.824578
-2.748198
-3.852448
-5.224638
-6.857839
-8.661462
-10.54587
-12.44804
-14.34439
-16.21942
-18.04034
-19.81754
-21.57412
-23.43931
-25.5841
-28.13339
-31.02628
-33.92262
-36.20258
-37.10636
-36.03552
-32.72285
-27.39819
-20.67213
-13.34221
-6.156495
0.3291683
5.788817
10.09548
13.2331
15.27673
16.35403
16.67089
16.47358
16.00772
15.4834
15.05178
14.835
14.89622
15.29609
16.02035
16.97177
17.99002
18.86151
19.41388
19.56113
19.32881
18.82465
18.19415
17.54696
16.93775
16.35991
15.7505
15.0491
14.19007
13.14007
11.89941
10.52003
9.09357
7.718454
6.453558
5.308632
4.248967
3.219691
2.196234
1.180824
0.1914005
-0.7753515
-1.780808
-2.911114
-4.2672
-5.897846
-7.78526
-9.878241
-12.08118
-14.31455
-16.5055
-18.59189
-20.53412
-22.32153
-23.993
-25.65141
-27.46241
-29.56944
-31.9979
-34.51787
-36.6462
-37.6854
-36.95354
-34.05493
-29.04739
-22.46908
-15.17214
-8.027292
-1.699707
3.500708
7.562534
10.60949
12.77496
14.14626
14.79501
14.85997
14.58702
14.2673
14.14813
14.34125
14.78189
15.29192
15.69381
15.93155
16.08266
16.31302
16.74237
17.36209
18.01188
18.44356
18.43178
17.85655
16.73295
15.20047
13.47974
11.81239
10.4086
9.391024
8.727777
8.247545
7.665501
6.714771
5.293049
3.509809
1.65546
0.01583672
-1.24374
-2.196201
-3.09304
-4.226812
-5.804758
-7.85527
-10.25265
-12.7669
-15.19008
-17.38427
-19.3296
-21.0871
-22.77828
-24.5269
-26.44493
-28.60592
-30.99866
-33.4948
-35.79333
-37.42509
-37.80932
-36.41774
-32.98595
-27.65022
-20.95704
-13.69345
-6.640789
-0.3277893
5.022732
9.402295
12.87304
15.40712
16.9215
17.37979
16.92882
15.96534
15.01013
14.52694
14.72996
15.51602
16.55592
17.48853
18.08273
18.32545
18.38283
18.4514
18.65746
18.93724
19.12353
18.98767
18.37653
17.25018
15.70247
13.91398
12.08541
10.4262
9.060841
8.028453
7.220373
6.432343
5.444621
4.128952
2.528717
0.8460262
-0.6901013
-1.943704
-2.994731
-4.08111
-5.483588
-7.357801
-9.62618
-12.04169
-14.31524
-16.26158
-17.92444
-19.52035
-21.34161
-23.6129
-26.39522
-29.56007
-32.78624
-35.62626
-37.54461
-38.02173
-36.64171
-33.20207
-27.83749
-21.01939
-13.5202
-6.201588
0.216217
5.363183
9.239565
12.10068
14.27742
15.96421
17.17649
17.82322
17.8595
17.41277
16.79358
16.38529
16.47173
17.07735
17.98146
18.84085
19.36643
19.46292
19.24782
18.95524
18.77134
18.72748
18.67375
18.377
17.66281
16.49984
15.02797
13.45113
11.93884
10.52352
9.131247
7.616587
5.885145
3.956034
1.976898
0.1798706
-1.233402
-2.196999
-2.833673
-3.413612
-4.257097
-5.5639
-7.350325
-9.465017
-11.64265
-13.70533
-15.62407
-17.50911
-19.52158
-21.78884
-24.31883
-27.01994
-29.74972
-32.30982
-34.4252
-35.69527
-35.63234
-33.81596
-30.07503
-24.61987
-18.01591
-11.03639
-4.374229
1.495926
6.393318
10.31266
13.29526
15.36051
16.51118
16.83708
16.52363
15.89495
15.27882
14.93542
15.01328
15.49609
16.28669
17.21028
18.10074
18.82771
19.31234
19.54556
19.53952
19.30417
18.82032
18.0534
16.9636
15.57222
13.97638
12.30201
10.64899
9.059292
7.510475
5.949726
4.371204
2.833168
1.411312
0.1508217
-1.014542
-2.195339
-3.537735
-5.116283
-6.907467
-8.816555
-10.74222
-12.6417
-14.50444
-16.40257
-18.39198
-20.54064
-22.89951
-25.46042
-28.12397
-30.63317
-32.54878
-33.34004
-32.53085
-29.84035
-25.33242
-19.40351
-12.68869
-5.87542
0.4270439
5.841179
10.20901
13.51389
15.80896
17.13587
17.54599
17.18897
16.32771
15.34258
14.63908
14.4868
14.89967
15.66922
16.47376
17.03617
17.25687
17.17892
16.91905
16.55404
16.06331
15.36366
14.38139
13.09054
11.54088
9.82206
8.037758
6.287529
4.655853
3.206146
1.938721
0.8135223
-0.2639694
-1.361046
-2.526817
-3.759956
-5.050026
-6.420929
-7.962456
-9.786751
-11.99004
-14.63306
-17.66016
-20.88595
-23.96754
-26.41737
-27.67682
-27.25976
-24.9344
-20.82504
-15.39557
-9.281723
-3.095863
2.71801
7.924934
12.39053
15.99341
18.57178
20.00708
20.31145
19.69327
18.52385
17.21961
16.14155
15.49802
15.35696
15.64732
16.18607
16.74131
17.09207
17.0646
16.61819
15.87238
15.02148
14.23914
13.55489
12.7885
11.67056
9.997879
7.777542
5.258537
2.823608
0.7935867
-0.7299118
-1.878593
-2.964783
-4.282784
-5.987808
-8.036949
-10.25435
-12.43487
-14.47092
-16.39455
-18.3326
-20.48443
-22.99161
-25.90686
-29.17564
-32.59027
-35.81496
-38.37451
-39.7206
-39.33132
-36.88765
-32.38232
-26.19647
-19.01337
-11.61074
-4.665054
1.430649
6.573563
10.85461
14.39052
17.21077
19.24777
20.44279
20.85927
20.70943
20.32033
20.0
19.93025
20.11055
20.43629
20.75742
21.01367
21.24023
21.49631
21.79462
22.04504
22.07294
21.69611
20.81705
19.46203
17.7767
15.96109
14.19968
12.62251
11.27156
10.10023
9.000519
7.832481
6.5009
4.966446
3.289864
1.594147
0.007957458
-1.455009
-2.886848
-4.470367
-6.375351
-8.64695
-11.19154
-13.77865
-16.18422
-18.274
-20.1005
-21.87622
-23.88831
-26.39355
-29.4726
-32.98306
-36.50507
-39.45885
-41.17563
-41.08362
-38.8104
-34.31596
-27.94453
-20.3339
-12.3297
-4.729187
1.902962
7.333199
11.63557
15.02985
17.71864
19.75938
21.13847
21.84771
21.98687
21.79623
21.55453
21.45405
21.54025
21.74369
21.94852
22.09243
22.19646
22.33181
22.55508
22.84138
23.09377
23.16624
22.91278
22.25127
21.20761
19.89694
18.49757
17.16994
15.99921
15.0071
14.13473
13.30382
12.44078
11.52162
10.56007
9.611168
8.745537
8.005867
7.343292
6.629879
5.652374
4.240234
2.359169
0.1490021
-2.122749
-4.158039
-5.782051
-7.028118
-8.093079
-9.260139
-10.72926
-12.56422
-14.64568
-16.75406
-18.64353
-20.17956
-21.37235
-22.41637
-23.62217
-25.32185
-27.74856
-30.88578
-34.40517
-37.66766
-39.88765
-40.28355
-38.39001
-34.17814
-28.10219
-20.95813
-13.641
-6.89645
-1.147335
3.500633
7.181965
10.11351
12.47235
14.36199
15.84035
16.94875
17.74463
18.31203
18.72817
19.06047
19.35226
19.62184
19.89456
20.16491
20.43241
20.68489
20.90222
21.05282
21.10262
20.99945
20.68809
20.13304
19.27603
18.14032
16.79972
15.39406
14.07314
12.92638
11.93522
10.99144
9.983539
8.881794
7.784674
6.848211
6.158842
5.666667
5.189412
4.517244
3.504505
2.1877
0.7203281
-0.720789
-2.043909
-3.293557
-4.592135
-6.076359
-7.817894
-9.78754
-11.84868
-13.83671
-15.59003
-17.01571
-18.14284
-19.09988
-20.09942
-21.37907
-23.14229
-25.46503
-28.27754
-31.2916
-34.02616
-35.85318
-36.17874
-34.57429
-30.94607
-25.6059
-19.17705
-12.44183
-6.117878
-0.6856041
3.667809
6.974125
9.408051
11.14974
12.3275
13.03382
13.34692
13.36852
13.2418
13.12135
13.13282
13.32754
13.68798
14.13404
14.59729
15.04644
15.49506
15.96509
16.43816
16.8222
16.98161
16.76546
16.07704
14.9374
13.47197
11.89679
10.43122
9.231533
8.353062
7.755466
7.317455
6.891727
6.344711
5.577011
4.540047
3.244705
1.741989
0.1443329
-1.411766
-2.809662
-4.018776
-5.104012
-6.233185
-7.590942
-9.258423
-11.1786
-13.13738
-14.86079
-16.17265
-17.06334
-17.7237
-18.48769
-19.68375
-21.49801
-23.91263
-26.66408
-29.27263
-31.13303
-31.63843
-30.37095
-27.23636
-22.51442
-16.78693
-10.7469
-5.010895
0.02547455
4.16925
7.374428
9.643715
10.99466
11.50294
11.33715
10.76599
10.10923
9.613777
9.375893
9.364975
9.472092
9.640472
9.901558
10.32602
10.93456
11.64885
12.284
12.60909
12.48135
11.89146
10.97403
9.896606
8.768318
7.569313
6.218597
4.6689
2.981499
1.318718
-0.1083908
-1.173615
-1.918198
-2.51226
-3.204788
-4.152405
-5.389656
-6.789406
-8.17453
-9.424278
-10.53867
-11.64233
-12.9266
-14.54156
-16.55224
-18.91312
-21.47716
-24.03686
-26.31816
-27.97913
-28.63909
-27.95292
-25.69721
-21.92794
-16.97292
-11.39965
-5.837387
-0.7895889
3.45578
6.832245
9.406929
11.22032
12.27603
12.5578
12.10712
11.09937
9.851242
8.751526
8.113701
8.11422
8.694801
9.600494
10.50037
11.09251
11.21429
10.89214
10.28198
9.562569
8.843643
8.073181
7.091568
5.776146
4.125015
2.318329
0.6132736
-0.7936859
-1.917542
-2.960396
-4.210342
-5.857132
-7.865906
-10.01015
-12.01472
-13.71014
-15.15556
-16.59106
-18.30331
-20.51599
-23.25156
-26.31646
-29.38227
-32.00947
-33.73866
-34.15204
-32.92886
-29.93307
-25.30089
-19.43941
-12.96062
-6.553452
-0.7753983
4.026962
7.771225
10.55905
12.57448
13.94275
14.70045
14.85597
14.44827
13.68482
12.88671
12.38483
12.37382
12.84246
13.57361
14.29543
14.79326
15.00818
15.018
14.9277
14.75695
14.40248
13.6861
12.46078
10.69652
8.523438
6.17865
3.925209
1.940735
0.2584305
-1.257401
-2.815834
-4.616844
-6.722862
-9.020538
-11.3011
-13.34174
-15.06883
-16.60578
-18.24998
-20.2961
-22.94458
-26.17449
-29.78229
-33.42871
-36.6834
-39.04273
-39.94666
-38.92031
-35.68736
-30.38114
-23.5271
-15.93714
-8.457531
-1.713013
4.032597
8.784798
12.66562
15.75609
18.02944
19.45771
20.09368
20.12524
19.87108
19.65738
19.71736
20.1244
20.8019
21.54223
22.125
22.3765
22.23919
21.80693
21.23562
20.67796
20.18671
19.68778
19.00037
17.94757
16.44111
14.52467
12.37691
10.23532
8.295681
6.647766
5.211185
3.73742
1.943357
-0.3693075
-3.214954
-6.355846
-9.427377
-12.10301
-14.21934
-15.87507
-17.35182
-18.98322
-21.03925
-23.66606
-26.87539
-30.54763
-34.39006
-37.92566
-40.49718
-41.40066
-40.07755
-36.32533
-30.43452
-23.04961
-15.02064
-7.139767
0.02893066
6.194145
11.28579
15.35977
18.50716
20.80848
22.36554
23.30876
23.81112
24.07469
24.26981
24.51284
24.85258
25.25873
25.66285
25.98568
26.17167
26.21551
26.14359
25.98839
25.71416
25.24668
24.47019
23.3285
21.86148
20.21884
18.60516
17.18401
15.97009
14.83219
13.56872
12.00336
10.11783
8.03334
5.970573
4.122269
2.557755
1.222542
-0.06916809
-1.533745
-3.345619
-5.547752
-8.063934
-10.71225
-13.30206
-15.69516
-17.84625
-19.847
-21.86949
-24.12994
-26.82687
-30.04668
-33.68436
-37.35864
-40.42757
-42.09517
-41.66821
-38.78292
-33.56906
-26.60101
-18.72212
-10.73562
-3.213066
3.551239
9.463142
14.48716
18.54649
21.5488
23.44701
24.33176
24.44993
24.12823
23.67591
23.31773
23.14948
23.1796
23.348
23.58549
23.85669
24.14754
24.46222
24.78613
25.06554
25.20358
25.05037
24.46069
23.36111
21.77518
19.84615
17.79785
15.85406
14.18316
12.84341
11.79559
10.89966
9.978325
8.86573
7.500458
5.933563
4.319672
2.819122
1.484131
0.2258148
-1.168671
-2.902405
-5.06411
-7.587341
-10.27962
-12.94639
-15.45618
-17.78913
-19.99004
-22.14545
-24.32761
-26.63383
-29.14986
-31.92522
-34.86613
-37.60573
-39.57497
-40.0849
-38.58317
-34.82011
-28.99239
-21.67995
-13.66345
-5.721291
1.54921
7.801804
12.9229
16.90343
19.79412
21.6178
22.42651
22.33839
21.58326
20.50256
19.45377
18.73334
18.48336
18.6782
19.16956
19.79338
20.42284
20.98252
21.43824
21.72024
21.72491
21.33668
20.47102
19.12596
17.41344
15.52926
13.67316
11.99964
10.53898
9.241425
8.008057
6.748001
5.422928
4.053108
2.702621
1.439629
0.2935715
-0.7930984
-1.934616
-3.297012
-5.043335
-7.238144
-9.816757
-12.55624
-15.14822
-17.34206
-19.04934
-20.39548
-21.67535
-23.24257
-25.29319
-27.79886
-30.42999
-32.62506
-33.72912
-33.17739
-30.65268
-26.18562
-20.18221
-13.27022
-6.187515
0.4392242
6.201141
10.89667
14.48069
16.96434
18.37732
18.80492
18.45383
17.61134
16.62585
15.8192
15.35077
15.25002
15.40016
15.6573
15.90821
16.10311
16.20919
16.21333
16.06983
15.71163
15.08009
14.12833
12.85635
11.31023
9.552513
7.685963
5.83144
4.118679
2.62492
1.366043
0.2483902
-0.9004097
-2.282948
-4.039761
-6.171917
-8.546421
-10.89607
-12.97768
-14.64544
-15.96425
-17.16818
-18.57428
-20.47282
-22.98645
-26.04956
-29.32959
-32.30521
-34.3224
-34.74264
-33.11321
-29.33136
-23.67993
-16.7687
-9.381844
-2.242352
4.112213
9.379791
13.46086
16.36534
18.15736
18.96642
18.99746
18.51805
17.82275
17.14072
16.61745
16.29468
16.12924
16.07924
16.1094
16.22414
16.39108
16.59403
16.75813
16.78152
16.56561
16.02588
15.13652
13.90172
12.3538
10.53376
8.521378
6.428505
4.377272
2.489992
0.8509445
-0.5333996
-1.737453
-2.888403
-4.126116
-5.563251
-7.263397
-9.234369
-11.43026
-13.75245
-16.07178
-18.26491
-20.27806
-22.18326
-24.15548
-26.40997
-29.11729
-32.2502
-35.53004
-38.40635
-40.16557
-40.11358
-37.78945
-33.12766
-26.51023
-18.66896
-10.50117
-2.77844
3.952833
9.469702
13.75793
16.89821
18.98455
20.11351
20.4113
20.10224
19.51772
18.95387
18.64174
18.64845
18.89599
19.24933
19.57986
19.82479
20.01174
20.18281
20.35512
20.49727
20.49415
20.19839
19.45863
18.20899
16.48674
14.47812
12.44378
10.62725
9.170431
8.043297
7.074756
6.056869
4.844157
3.403696
1.818925
0.2157774
-1.343134
-2.855418
-4.420243
-6.159421
-8.163554
-10.43431
-12.89709
-15.41776
-17.85406
-20.10561
-22.14312
-24.05491
-25.98471
-28.13764
-30.66933
-33.60919
-36.72437
-39.51773
-41.26969
-41.22424
-38.83759
-33.99431
-27.12563
-19.08875
-10.8966
-3.38942
2.972023
8.15321
12.33588
15.72858
18.3862
20.22086
21.1337
21.18201
20.64169
19.92596
19.43064
19.35088
19.64733
20.12489
20.58817
20.94839
21.26944
21.65737
22.14034
22.61215
22.85007
22.62672
21.84843
20.61207
19.12386
17.62053
16.234
14.95018
13.68399
12.33714
10.88867
9.40597
7.964466
6.616939
5.343958
4.089641
2.814564
1.50205
0.1748481
-1.156528
-2.517066
-3.962699
-5.538459
-7.263951
-9.124124
-11.06834
-13.03931
-14.98115
-16.85088
-18.63396
-20.34809
-22.06647
-23.90732
-26.01687
-28.48242
-31.30737
-34.33643
-37.26193
-39.60245
-40.79153
-40.2561
-37.5926
-32.72639
-25.99236
-18.1142
-10.01479
-2.560226
3.677332
8.540499
12.16972
14.84585
16.78121
18.05661
18.67735
18.69514
18.29008
17.75299
17.39001
17.38164
17.70851
18.20624
18.66454
18.97076
19.14411
19.31276
19.58652
19.94828
20.25682
20.29959
19.91033
19.04243
17.78923
16.31011
14.75076
13.19522
11.66729
10.19172
8.841335
7.691221
6.790527
6.110977
5.519085
4.836769
3.944035
2.812405
1.519413
0.1935997
-1.10601
-2.398788
-3.819065
-5.50098
-7.524719
-9.805229
-12.14814
-14.32903
-16.19754
-17.75406
-19.14721
-20.60884
-22.3568
-24.50882
-27.04444
-29.82562
-32.54926
-34.78201
-35.99817
-35.67839
-33.46716
-29.2899
-23.44145
-16.48711
-9.146221
-2.082172
4.200874
9.414433
13.43683
16.24804
17.9025
18.50409
18.21555
17.30362
16.10986
14.99269
14.23023
13.95554
14.12485
14.57539
15.13084
15.67318
16.15384
16.57855
16.92168
17.11424
17.08437
16.75518
16.11777
15.19727
14.04915
12.73593
11.31672
9.906273
8.603851
7.496017
6.553886
5.660995
4.632126
3.354179
1.843277
0.2232132
-1.327423
-2.704269
-3.934166
-5.163567
-6.572334
-8.288139
-10.32133
-12.55777
-14.83909
-16.99936
-18.92455
-20.59072
-22.13463
-23.77657
-25.76942
-28.25314
-31.08123
-33.83643
-35.83894
-36.39346
-34.98806
-31.48558
-26.16698
-19.63972
-12.66197
-5.924271
0.07040405
5.108704
9.17347
12.36736
14.78962
16.48075
17.42539
17.62289
17.17314
16.29949
15.30959
14.48293
13.97495
13.80758
13.89545
14.10648
14.34614
14.578
14.77939
14.93191
14.97185
14.77906
14.26772
13.40416
12.25304
10.954
9.6996
8.615494
7.723007
6.910248
5.979546
4.732056
3.08815
1.130394
-0.959343
-2.971825
-4.771049
-6.321846
-7.673996
-8.932526
-10.2014
-11.54134
-12.98552
-14.53182
-16.17738
-17.90841
-19.73338
-21.67202
-23.79829
-26.20316
-28.9538
-31.98428
-34.98165
-37.36877
-38.41065
-37.46645
-34.19419
-28.77264
-21.82779
-14.28188
-7.067947
-0.8686447
4.009712
7.601128
10.13898
11.90632
13.11072
13.8648
14.20212
14.15298
13.76973
13.19906
12.66019
12.42767
12.76243
13.80891
15.5167
17.6341
19.7627
21.48586
22.4988
22.67592
22.04414
20.72534
18.84299
16.50945
13.87615
11.10048
8.400993
5.953636
3.851822
2.071693
0.5210419
-0.8769455
-2.157295
-3.333923
-4.45388
-5.648422
-7.09845
-8.916985
-11.06027
-13.30209
-15.33381
-16.936
-18.12937
-19.18037
-20.52405
-22.54943
-25.38194
-28.77837
-32.13235
-34.64218
-35.54459
-34.33363
-30.89888
-25.54973
-18.9101
-11.73133
-4.71957
1.561741
6.761093
10.72931
13.47509
15.13615
15.89056
15.92997
15.4552
14.65241
13.71641
12.8564
12.27699
12.13912
12.52061
13.39091
14.64218
16.07076
17.41909
18.39348
18.73157
18.25537
16.94501
14.94782
12.54597
10.04394
7.677906
5.53157
3.557842
1.669979
-0.221035
-2.139385
-4.058559
-5.913187
-7.632572
-9.142094
-10.38218
-11.3282
-12.0266
-12.63456
-13.41456
-14.68193
-16.68721
-19.52006
-23.00687
-26.70439
-29.95285
-32.04708
-32.37329
-30.58559
-26.66849
-20.95119
-14.02143
-6.58777
0.6418219
7.088737
12.33987
16.16593
18.51512
19.48729
19.28357
18.19933
16.58386
14.77937
13.10861
11.81991
11.07433
10.90837
11.23531
11.85178
12.47563
12.83204
12.72504
12.08985
11.01077
9.674037
8.310318
7.099901
6.128264
5.367579
4.725369
4.067264
3.250803
2.135267
0.5896492
-1.455662
-3.967087
-6.753151
-9.532572
-12.00471
-14.00342
-15.58437
-17.02521
-18.73798
-21.05681
-24.08784
-27.57788
-30.95651
-33.42644
-34.19912
-32.71049
-28.79366
-22.75948
-15.30635
-7.355251
0.2189293
6.779057
12.00128
15.85083
18.45618
19.95999
20.50034
20.22114
19.30826
18.02037
16.6588
15.5304
14.83449
14.6675
14.9785
15.62326
16.41579
17.19196
17.82246
18.23006
18.35938
18.12573
17.46542
16.30357
14.62113
12.48857
10.05537
7.519844
5.038651
2.681732
0.4289398
-1.787163
-4.004547
-6.197517
-8.301193
-10.27785
-12.17184
-14.13452
-16.3818
-19.0967
-22.31104
-25.83443
-29.18436
-31.65759
-32.52662
-31.24353
-27.63511
-21.97364
-14.89955
-7.209335
0.3619156
7.267616
13.20383
17.98654
21.52605
23.78125
24.7878
24.71508
23.84736
22.5397
21.1066
19.79824
18.73378
17.96238
17.50473
17.34793
17.48855
17.89802
18.49671
19.12792
19.57421
19.5666
18.90703
17.49522
15.38545
12.76269
9.903465
7.049538
4.369423
1.916153
-0.3407135
-2.45681
-4.494087
-6.486572
-8.461655
-10.42664
-12.38409
-14.31976
-16.19828
-17.99001
-19.72536
-21.51691
-23.55566
-26.02327
-28.95885
-32.11024
-34.86363
-36.36376
-35.75325
-32.49911
-26.61498
-18.71626
-9.802917
-0.9453888
7.042435
13.75011
19.13504
23.32994
26.51491
28.79405
30.23428
30.92917
31.0369
30.75847
30.244
29.59131
28.81403
27.9191
26.97597
26.11269
25.48914
25.19659
25.2104
25.35695
25.41095
25.12956
24.36584
23.08655
21.33519
19.22141
16.86101
14.36404
11.84018
9.405495
7.135498
5.048721
3.094971
1.131546
-0.9902802
-3.364281
-5.979057
-8.712784
-11.36576
-13.75415
-15.76196
-17.37406
-18.69653
-19.89158
-21.13525
-22.63119
-24.53225
-26.89411
-29.60355
-32.30454
-34.40524
-35.21075
-34.13241
-30.90721
-25.72691
-19.15066
-11.9398
-4.788185
1.808716
7.616821
12.54546
16.53282
19.46914
21.23553
21.8121
21.35753
20.22793
18.88911
17.80032
17.25241
17.29762
17.78034
18.43417
19.0126
19.36156
19.46149
19.37919
19.18719
18.87739
18.35104
17.46526
16.09512
14.23881
12.02544
9.695168
7.510651
5.666954
4.207802
3.041443
1.995583
0.8787003
-0.4255371
-1.937607
-3.581764
-5.249435
-6.83445
-8.307976
-9.716797
-11.18832
-12.88919
-14.95132
-17.43667
-20.29239
-23.35984
-26.34056
-28.83573
-30.37663
-30.49528
-28.82693
-25.27176
-20.04886
-13.72924
-7.051163
-0.7241554
4.767895
9.221233
12.66225
15.18701
16.87804
17.7939
18.00786
17.68343
17.08372
16.47569
16.04331
15.85409
15.86375
15.98564
16.16949
16.39974
16.65641
16.91253
17.08642
17.07908
16.80215
16.20834
15.29556
14.14344
12.8537
11.56066
10.38754
9.376706
8.475233
7.5283
6.368177
4.874769
3.087199
1.168537
-0.6558628
-2.242204
-3.595646
-4.852831
-6.212183
-7.834713
-9.739981
-11.80422
-13.81777
-15.57972
-16.98105
-18.07635
-19.0699
-20.24876
-21.91569
-24.22213
-27.06794
-30.05078
-32.55172
-33.88397
-33.50548
-31.17237
-27.0118
-21.47451
-15.22111
-8.943775
-3.202358
1.662296
5.570145
8.601227
10.89966
12.58018
13.70704
14.30202
14.45639
14.3181
14.09884
13.98521
14.08021
14.37284
14.74735
15.04607
15.1399
14.99033
14.66576
14.31475
14.07651
14.00858
14.02602
13.92461
13.47915
12.55267
11.19324
9.602303
8.032059
6.664513
5.575623
4.70829
3.96949
3.281158
2.565247
1.752899
0.7806549
-0.3730698
-1.663406
-2.99588
-4.290649
-5.527107
-6.76046
-8.071991
-9.498024
-10.97153
-12.36863
-13.6069
-14.70074
-15.81004
-17.12056
-18.73813
-20.67358
-22.82928
-25.05814
-27.18936
-29.00049
-30.14615
-30.20309
-28.76219
-25.62537
-20.95341
-15.26225
-9.290451
-3.739365
0.9232788
4.545654
7.176712
8.93927
9.925171
10.20879
9.936127
9.355957
8.799194
8.556885
8.744995
9.257172
9.861084
10.32875
10.54196
10.55095
10.47218
10.42603
10.46408
10.60503
10.80472
10.99414
11.05164
10.80992
10.12614
8.959885
7.451126
5.853867
4.477875
3.469604
2.75856
2.094284
1.219452
0.03822327
-1.323334
-2.598587
-3.543991
-4.055374
-4.290039
-4.532135
-5.082016
-6.119446
-7.642502
-9.473679
-11.36534
-13.07588
-14.44774
-15.48099
-16.29036
-17.0885
-18.14464
-19.66434
-21.71793
-24.17091
-26.66055
-28.65158
-29.56194
-28.90248
-26.43585
-22.27922
-16.89243
-10.96883
-5.245514
-0.3157349
3.5103
6.228775
8.053009
9.263916
10.07478
10.59348
10.79266
10.61346
10.04987
9.224487
8.359512
7.744232
7.57518
