10.99416
10.4917
10.09769
9.941193
9.970612
9.979401
9.753296
9.146698
8.153046
6.88855
5.512878
4.141602
2.82962
1.581879
0.3453064
-0.933136
-2.315552
-3.833282
-5.47998
-7.202393
-8.923767
-10.56573
-12.10739
-13.61362
-15.19388
-17.00046
-19.14209
-21.60687
-24.21414
-26.55899
-28.07065
-28.10684
-26.19592
-22.17624
-16.30563
-9.188416
-1.603424
5.702148
12.18851
17.54327
21.6394
24.42245
25.92136
26.23819
25.59436
24.35101
22.91379
21.64432
20.7338
20.22382
20.02747
20.04346
20.2236
20.54874
20.98001
21.38754
21.56705
21.28253
20.41187
19.00388
17.28015
15.53738
14.00424
12.79932
11.91812
11.26022
10.71823
10.16891
9.497314
8.602661
7.431854
6.014709
4.470398
2.942749
1.515015
0.1546326
-1.286591
-2.974213
-4.992981
-7.26889
-9.610809
-11.79758
-13.69897
-15.34097
-16.89758
-18.59622
-20.59848
-22.92664
-25.36826
-27.53424
-28.90454
-28.98837
-27.44016
-24.17422
-19.39102
-13.53827
-7.19931
-0.9746094
4.661957
9.411438
13.13739
15.82098
17.5322
18.38
18.55051
18.31934
18.01099
17.92578
18.241
18.931
19.79663
20.58585
21.12137
21.39789
21.56461
21.8027
22.16776
22.55206
22.69003
22.30566
21.23666
19.4928
17.22791
14.68851
12.09219
9.626404
7.393494
5.463684
3.875122
2.634796
1.70993
0.9816284
0.3069763
-0.4661865
-1.402222
-2.465179
-3.544434
-4.538513
-5.444305
-6.359344
-7.460754
-8.852692
-10.52045
-12.30713
-14.00992
-15.53168
-16.94287
-18.47821
-20.39331
-22.80096
-25.55518
-28.22968
-30.22672
-30.91736
-29.84863
-26.86505
-22.19318
-16.34924
-10.01752
-3.846527
1.683258
6.332581
10.05875
12.91135
14.93835
16.13522
16.5228
16.19891
15.39203
14.39966
13.51282
12.91812
12.66751
12.70615
12.92477
13.24158
13.59384
13.93988
14.22604
14.38824
14.35248
14.082
13.57629
12.87149
11.99994
11.01532
9.994263
9.016235
8.150726
7.430481
6.820435
6.224243
5.533539
4.646729
3.547882
2.306
1.050171
-0.0736084
-0.9900818
-1.714294
-2.37738
-3.177521
-4.284332
-5.806396
-7.682953
-9.729523
-11.6868
-13.33463
-14.58627
-15.526
-16.40497
-17.51761
-19.16722
-21.50266
-24.48657
-27.77776
-30.79503
-32.82346
-33.18613
-31.49657
-27.75731
-22.39175
-16.08253
-9.574738
-3.462616
1.853287
6.179703
9.474182
11.76215
13.1537
13.80748
13.95064
13.7907
13.49741
13.21196
13.03149
13.0788
13.42265
14.05846
14.86584
15.65176
16.1938
16.37839
16.22757
15.87933
15.51955
15.23041
14.99657
14.70035
14.20265
13.42221
12.38316
11.18932
9.983322
8.865295
7.844788
6.846802
5.74707
4.466782
3.014435
1.540024
0.2112274
-0.8626862
-1.698898
-2.416046
-3.208191
-4.200241
-5.448242
-6.901703
-8.46138
-10.00891
-11.44992
-12.70908
-13.75842
-14.62981
-15.43594
-16.36504
-17.625
-19.38647
-21.67453
-24.32256
-26.97029
-29.12228
-30.22372
-29.81584
-27.65413
-23.78568
-18.59142
-12.67111
-6.725632
-1.343994
3.05452
6.333679
8.587952
10.03241
10.91896
11.43289
11.67218
11.69043
11.53227
11.28606
11.07286
11.01422
11.18689
11.58997
12.14734
12.75273
13.31071
13.77312
14.13925
14.39693
14.5114
14.38359
13.88042
12.90924
11.49379
9.818298
8.174088
6.873581
6.084625
5.758667
5.637131
5.394562
4.754807
3.660522
2.263641
0.8238983
-0.4208527
-1.378708
-2.123642
-2.830139
-3.702225
-4.870743
-6.381058
-8.162231
-10.06444
-11.9032
-13.51891
-14.82771
-15.88014
-16.82578
-17.86774
-19.2011
-20.88309
-22.79053
-24.59811
-25.84253
-26.05656
-24.88164
-22.20535
-18.20706
-13.32016
-8.08992
-3.052841
1.431992
5.188721
8.185471
10.46103
12.0432
12.9568
13.23744
12.98578
12.37012
11.60611
10.92853
10.53468
10.53426
10.9408
11.67694
12.59744
13.5368
14.33908
14.89143
15.12369
15.00143
14.52989
13.74782
12.71141
11.51335
10.2525
9.023224
7.924759
7.02771
6.334412
5.787231
5.256271
4.586868
3.68808
2.586365
1.432281
0.4195938
-0.3080978
-0.8034134
-1.297539
-2.121056
-3.550125
-5.656746
-8.264267
-11.03311
-13.58952
-15.70208
-17.32327
-18.59006
-19.73718
-21.01675
-22.59591
-24.53675
-26.78483
-29.16241
-31.37623
-33.01837
-33.64397
-32.89545
-30.6273
-26.96269
-22.32693
-17.28745
-12.43932
-8.256203
-5.056625
-3.007492
-2.18541
-2.591522
-4.060013
-6.242287
-8.564545
-10.32145
-10.85796
-9.745331
-6.876366
-2.489326
2.984703
9.036285
15.19518
21.06549
26.33088
30.72425
34.02689
36.06787
36.75328
36.09727
34.20541
31.31217
27.7363
23.83167
19.95045
16.34612
13.14934
10.35065
7.834297
5.45401
3.08567
0.6923752
-1.671494
-3.874939
-5.750298
-7.185593
-8.155365
-8.722198
-9.016075
-9.174187
-9.289551
-9.445984
-9.716507
-10.19137
-10.95856
-12.07319
-13.48506
-15.07669
-16.69775
-18.26288
-19.80016
-21.44844
-23.36304
-25.58833
-27.95502
-30.08102
-31.45746
-31.59447
-30.16092
-27.12572
-22.74496
-17.50113
-11.94407
-6.543472
-1.60704
2.716827
6.369461
9.29631
11.40488
12.65616
13.10593
12.98305
12.63724
12.42099
12.58347
13.18933
14.15073
15.30907
16.55365
17.82094
19.075
20.22421
21.13425
21.6297
21.58322
20.96455
19.86906
18.49432
17.04538
15.7092
14.60339
13.76212
13.13905
12.63422
12.10516
11.41721
10.47314
9.255707
7.854279
6.439468
5.206787
4.309082
3.774323
3.522751
3.365097
3.093872
2.543091
1.653931
0.4419708
-1.022202
-2.659225
-4.392197
-6.151764
-7.89122
-9.577133
-11.24983
-12.99326
-14.9008
-17.01595
-19.26227
-21.37114
-22.93106
-23.47029
-22.63904
-20.33611
-16.77567
-12.47464
-8.055038
-4.074783
-0.8698883
1.486191
3.091537
4.122879
4.715073
4.967896
4.935204
4.749153
4.588112
4.642677
5.051842
5.854164
6.984932
8.311905
9.70475
11.03832
12.21635
13.15806
13.77666
13.98042
13.69563
12.93491
11.75002
10.29467
8.732857
7.259056
5.998764
5.009453
4.266106
3.671455
3.136177
2.560455
1.908463
1.140411
0.2256622
-0.8794785
-2.217293
-3.789215
-5.545006
-7.362907
-9.119064
-10.72118
-12.16161
-13.52899
-14.9816
-16.68826
-18.72421
-21.01302
-23.28514
-25.11063
-25.98427
-25.48135
-23.38479
-19.77139
-15.02567
-9.706963
-4.418434
0.3514023
4.29911
7.333534
9.490784
10.89327
11.65998
11.89401
11.70087
11.23256
10.70435
10.34068
10.3213
10.69947
11.38124
12.13805
12.71743
12.91072
12.63248
11.94976
11.02718
10.05932
9.190742
8.453423
7.766914
6.99752
6.031776
4.816505
3.411827
1.959755
0.5963593
-0.5892715
-1.631935
-2.641212
-3.730751
-4.962364
-6.310326
-7.668015
-8.905632
-9.936325
-10.7688
-11.50182
-12.29617
-13.34363
-14.8017
-16.75359
-19.14341
-21.73689
-24.12074
-25.74408
-26.09267
-24.8081
-21.85328
-17.52519
-12.3495
-6.950363
-1.840157
2.652229
6.410774
9.45314
11.82368
13.55264
14.62821
15.04617
14.85763
14.20525
13.30831
12.41297
11.72522
11.36257
11.31017
11.48615
11.77221
12.07599
12.33679
12.52428
12.60326
12.53037
12.28188
11.83537
11.19957
10.39764
9.444695
8.361954
7.182793
5.915443
4.555214
3.073761
1.4076
-0.4578934
-2.50222
-4.616982
-6.658592
-8.502678
-10.10793
-11.53397
-12.88251
-14.26342
-15.71199
-17.22806
-18.80941
-20.50394
-22.42506
-24.65494
-27.17725
-29.75702
-31.91483
-33.00098
-32.41784
-29.80377
-25.19159
-19.06117
-12.16258
-5.337753
0.7472229
5.731644
9.562393
12.34856
14.25597
15.42445
15.94911
15.97
15.64706
15.19403
14.78357
14.52339
14.41893
14.41
14.46335
14.53917
14.6433
14.79047
14.97025
15.13518
15.21419
15.1201
14.81358
14.31555
13.67235
12.96106
12.24123
11.52943
10.8243
10.11006
9.406891
8.746414
8.152802
7.616745
7.080414
6.462387
5.690369
4.736252
3.620743
2.421295
1.213043
0.07315063
-0.9703979
-1.958313
-3.001709
-4.281342
-5.936676
-7.994995
-10.29826
-12.55348
-14.46857
-15.91267
-16.97186
-17.95129
-19.21367
-21.01874
-23.4462
-26.38074
-29.54916
-32.56036
-34.89847
-36.00699
-35.37367
-32.75693
-28.28874
-22.48404
-16.09354
-9.831192
-4.164566
0.7729797
5.084
8.93222
12.35852
15.28801
17.56544
19.10437
19.94992
20.28143
20.3549
20.40361
20.56395
20.85611
21.23193
21.60458
21.94385
22.23904
22.48953
22.64209
22.61728
22.32086
21.70207
20.80078
19.70636
18.55048
17.42798
16.37584
15.38524
14.44536
13.55417
12.74658
12.05348
11.4473
10.8974
10.34718
9.778107
9.210464
8.671539
8.160812
7.615524
6.940979
6.025131
4.828598
3.388916
1.836197
0.3491669
-0.9353943
-2.004822
-2.962021
-3.96904
-5.179535
-6.608551
-8.137405
-9.565018
-10.71019
-11.51678
-12.0584
-12.51598
-13.07924
-13.89838
-15.01394
-16.39927
-17.91721
-19.33224
-20.31898
-20.48903
-19.50077
-17.18417
-13.62872
-9.188332
-4.368065
0.3093185
4.464592
7.886711
10.52802
12.41289
13.57945
14.03342
13.79258
12.93649
11.64628
10.20428
8.921349
8.066414
7.765892
7.974854
8.502037
9.096313
9.572609
9.887482
10.10236
10.30139
10.53394
10.73511
10.8091
10.66644
10.28899
9.719742
9.037872
8.32357
7.651596
7.084427
6.655426
6.371056
6.160957
5.909256
5.487564
4.83741
4.015244
3.14817
2.333244
1.570137
0.7542496
-0.2749176
-1.637569
-3.337967
-5.273746
-7.286125
-9.1936
-10.86697
-12.23255
-13.26963
-14.01424
-14.58147
-15.13318
-15.87928
-16.98305
-18.50999
-20.39101
-22.38083
-24.12566
-25.21816
-25.26493
-24.01706
-21.44184
-17.71999
-13.20792
-8.361267
-3.611486
0.6627197
4.209768
6.854019
8.523939
9.23262
9.10615
8.398409
7.416674
6.492025
5.875641
5.674507
5.870857
6.374918
7.037195
7.762947
8.471579
9.094167
9.56135
9.803732
9.788008
9.547068
9.156165
8.703959
8.234808
7.706764
7.024072
6.115954
4.972012
3.677362
2.361627
1.124705
-0.01430345
-1.117003
-2.244287
-3.479341
-4.843324
-6.379811
-8.108244
-10.00586
-11.97736
-13.80555
-15.24566
-16.15398
-16.6071
-16.9093
-17.53863
-18.87297
-21.02814
-23.74635
-26.43478
-28.35904
-28.87221
-27.61125
-24.56948
-20.11337
-14.82128
-9.335949
-4.210397
0.2112217
3.786865
6.539289
8.593624
10.1098
11.21052
11.98647
12.5031
12.79431
12.90151
12.87168
12.74711
12.5785
12.38805
12.1801
11.93798
11.67867
11.4368
11.27623
11.23245
11.27182
11.30297
11.19925
10.87296
10.29907
9.537254
8.681231
7.820892
7.014597
6.243793
5.442684
4.537041
3.477678
2.254887
0.9012527
-0.5515022
-2.072983
-3.661118
-5.325562
-7.05299
-8.788113
-10.44184
-11.93504
-13.24623
-14.42113
-15.60749
-16.95898
-18.63034
-20.67448
-23.00668
-25.37126
-27.33629
-28.37462
-28.00782
-25.96835
-22.28377
-17.33326
-11.70758
-6.043854
-0.8549843
3.573647
7.163155
9.963799
12.04503
13.47046
14.28582
14.55476
14.42575
14.09201
13.78872
13.69515
13.89151
14.32695
14.84048
15.21929
15.27293
14.90702
14.14611
13.14487
12.10876
11.20229
10.48541
9.866898
9.227646
8.478611
7.672028
6.9492
6.463123
6.248688
6.163063
5.946407
5.363796
4.333374
2.968632
1.497452
0.1412811
-1.025269
-2.057537
-3.109276
-4.280537
-5.599865
-7.018162
-8.437943
-9.796818
-11.07095
-12.32139
-13.64369
-15.15866
-16.94568
-19.01847
-21.29391
-23.60812
-25.70769
-27.23161
-27.85344
-27.26183
-25.30114
-22.01586
-17.67165
-12.73672
-7.744545
-3.157356
0.7474747
3.903885
6.393623
8.329716
9.784634
10.77391
11.27441
11.33101
11.04823
10.6075
10.21733
10.05342
10.21336
10.66438
11.28065
11.84866
12.19448
12.25223
12.07716
11.79619
11.53537
11.29253
10.93623
10.32447
9.347824
8.068184
6.661766
5.363735
4.334549
3.622341
3.161674
2.826405
2.501568
2.111195
1.627789
1.045116
0.3736
-0.3753738
-1.204922
-2.14529
-3.246307
-4.522327
-5.945271
-7.427231
-8.846077
-10.11038
-11.19844
-12.17413
-13.18249
-14.36629
-15.83995
-17.67284
-19.82838
-22.17898
-24.43319
-26.17474
-26.95256
-26.37977
-24.25936
-20.67332
-15.95494
-10.60059
-5.148216
-0.05627441
4.316467
7.760338
10.19685
11.69101
12.41957
12.63958
12.59682
12.46379
12.31444
12.14354
11.93617
11.72635
11.61741
11.71761
12.04139
12.51511
12.95337
13.19558
13.17563
12.94846
12.61778
12.23948
11.79799
11.20943
10.4089
9.440727
8.442635
7.592167
6.99839
6.620945
6.286266
5.794453
4.99678
3.889416
2.607769
1.337498
0.2398872
-0.6556358
-1.443222
-2.30154
-3.405533
-4.821007
-6.488441
-8.236336
-9.882641
-11.29916
-12.4473
-13.36145
-14.13738
-14.897
-15.79676
-16.98521
-18.57351
-20.56287
-22.77754
-24.86889
-26.36946
-26.80608
-25.81017
-23.23285
-19.17678
-14.00572
-8.292728
-2.661942
2.299801
6.218365
8.959087
10.64837
11.54767
11.94588
12.06318
12.04863
11.97497
11.89446
11.86911
11.96246
12.22342
12.69317
13.34185
14.10843
14.86546
15.4767
15.82112
15.86253
15.62141
15.17614
14.59737
13.91846
13.1466
12.27825
11.36208
10.4605
9.625389
8.852505
8.046272
7.09166
5.893833
4.473312
2.929474
1.38998
-0.0459671
-1.36739
-2.623337
-3.893585
-5.229229
-6.652729
-8.125118
-9.577038
-10.94283
-12.1684
-13.24463
-14.22204
-15.19981
-16.27703
-17.5435
-19.00677
-20.6315
-22.27888
-23.72432
-24.62644
-24.58155
-23.21177
-20.29659
-15.95024
-10.61466
-4.985264
0.2160606
4.484028
7.603828
9.642265
10.80867
11.32084
11.29223
10.82098
10.01789
9.078819
8.259872
7.788483
7.810638
8.326393
9.218182
10.28235
11.3275
12.21945
12.8727
13.28434
13.45214
13.40047
13.12642
12.64167
11.92281
10.99005
9.869884
8.603737
7.270885
5.943253
4.725632
3.675941
2.812126
2.078213
1.39925
0.7089806
0.000125885
-0.645874
-1.172588
-1.560253
-1.927006
-2.462002
-3.346916
-4.631767
-6.19101
-7.77771
-9.137493
-10.20312
-11.07547
-11.98558
-13.16281
-14.72857
-16.68317
-18.9352
-21.34502
-23.70374
-25.74804
-27.0803
-27.28575
-26.01524
-23.16175
-18.94621
-13.8839
-8.63287
-3.766182
0.3502274
3.624157
6.128628
7.994232
9.313065
10.10293
10.33955
10.09639
9.563858
9.030991
8.800728
9.037235
9.695957
10.57839
11.41788
12.01831
12.3259
12.40368
12.34665
12.20631
11.95213
11.51126
10.85487
10.01823
9.111828
8.25668
7.544266
6.966675
6.452652
5.872719
5.115345
4.115814
2.880516
1.50782
0.1617584
-1.000198
-1.915707
-2.629822
-3.333645
-4.21846
-5.418468
-6.955986
-8.724045
-10.53249
-12.18816
-13.58393
-14.71281
-15.7012
-16.77105
-18.18729
-20.1474
-22.66537
-25.52229
-28.26531
-30.32132
-31.13757
-30.38204
-28.00526
-24.26543
-19.60523
-14.52928
-9.478428
-4.747467
-0.4400024
3.489483
7.113544
10.48857
13.55898
16.19255
18.26711
19.73001
20.66761
21.26331
21.70746
22.11497
22.49581
22.80549
22.96366
22.92885
22.70204
22.30158
21.70356
20.84131
19.62453
18.00696
16.03079
13.82488
11.58044
9.465322
7.612223
6.082266
4.887085
3.994293
3.345972
2.814972
2.259895
1.538979
0.5795879
-0.5622978
-1.722702
-2.701038
-3.387573
-3.84593
-4.300444
-5.004925
-6.14986
-7.73764
-9.62385
-11.55726
-13.31767
-14.80252
-16.05304
-17.23749
-18.57337
-20.21317
-22.18509
-24.30185
-26.21614
-27.48021
-27.64848
-26.4344
-23.76332
-19.78045
-14.8379
-9.409324
-3.993773
0.9691172
5.161693
8.405254
10.65225
11.94375
12.37687
12.10861
11.34654
10.40077
9.588305
9.18928
9.313589
9.905753
10.78397
11.75224
12.68022
13.51167
14.24401
14.83141
15.19937
15.24284
14.90869
14.25079
13.39137
12.4846
11.66734
10.99171
10.41888
9.876982
9.278037
8.595248
7.874838
7.188958
6.603144
6.097713
5.550746
4.782279
3.662477
2.206783
0.5740227
-0.9714674
-2.232648
-3.15095
-3.842366
-4.51182
-5.345801
-6.417344
-7.695852
-9.104259
-10.5834
-12.12596
-13.76778
-15.55652
-17.50843
-19.62227
-21.86975
-24.2011
-26.47339
-28.44197
-29.73877
-29.95645
-28.76578
-26.04428
-21.97125
-16.99816
-11.70043
-6.598647
-2.035176
1.873712
5.150078
7.855964
9.974066
11.44125
12.2003
12.2921
11.93172
11.45371
11.19193
11.36737
11.99998
12.90471
13.83614
14.56881
14.98353
15.08564
14.94845
14.65638
14.24881
13.71817
12.99351
12.0091
10.73716
9.221849
7.595005
6.056124
4.836384
4.075651
3.79612
3.852169
3.997471
3.954128
3.540197
2.715538
1.562969
0.2581673
-1.052032
-2.284019
-3.442913
-4.580734
-5.733852
-6.90782
-8.052319
-9.102507
-10.01554
-10.83328
-11.65011
-12.58154
-13.69532
-14.96869
-16.36122
-17.84795
-19.45807
-21.23741
-23.15879
-24.99354
-26.31303
-26.60725
-25.44467
-22.68449
-18.54791
-13.5149
-8.184307
-3.075287
1.484474
5.343647
8.449879
10.75994
12.22166
12.81168
12.62531
11.91966
11.0713
10.48003
10.439
11.04934
12.20819
13.65444
15.09676
16.28906
17.09188
17.47239
17.49678
17.27256
16.91893
16.52354
16.10934
15.6488
15.09935
14.43487
13.67905
12.87676
12.06618
11.24478
10.39342
9.458183
8.411629
7.282227
6.135796
5.031052
4.008659
3.035568
2.011475
0.8235016
-0.6238937
-2.352661
-4.290222
-6.288643
-8.179131
-9.841476
-11.26564
-12.55975
-13.90284
-15.491
-17.43263
-19.69299
-22.04021
-24.06153
-25.20908
-24.96784
-23.02614
-19.40457
-14.51021
-9.002953
-3.585861
1.18988
5.083992
8.101791
10.3851
12.07635
13.26235
13.96469
14.22108
14.12296
13.82153
13.50936
13.37698
13.57548
14.1655
15.1042
16.21942
17.29422
18.11731
18.57505
18.67511
18.50683
18.14646
17.62225
16.90523
15.95019
14.82281
13.64849
12.56936
11.65434
10.86034
10.07547
9.234856
8.354958
7.53569
6.8843
6.403534
5.977943
5.43235
4.613129
3.507317
2.224319
0.9667969
-0.1035538
-0.9323692
-1.580868
-2.189682
-2.890522
-3.779968
-4.892609
-6.245792
-7.871166
-9.78809
-11.96079
-14.25852
-16.42633
-18.20068
-19.41853
-20.13209
-20.64167
-21.3697
-22.6753
-24.65875
-27.1007
-29.46959
-31.11502
-31.44181
-30.07558
-26.96457
-22.35236
-16.74005
-10.74027
-4.959724
0.1543884
4.362499
7.612347
9.964912
11.5279
12.38421
12.65091
12.48434
12.12983
11.88766
11.98808
12.512
13.34898
14.25103
14.96674
15.333
15.36318
15.16471
14.88381
14.6207
14.38927
14.16225
13.90209
13.59135
13.23396
12.8434
12.37798
11.79358
11.05779
10.18919
9.279266
8.425411
7.71394
7.170113
6.743176
6.352631
5.934067
5.426716
4.818108
4.102928
3.261272
2.274101
1.129765
-0.1429863
-1.462467
-2.718372
-3.833714
-4.800161
-5.709047
-6.729097
-8.020729
-9.647013
-11.53121
-13.46538
-15.18802
-16.53018
-17.46284
-18.14116
-18.85188
-19.87705
-21.38355
-23.33823
-25.44931
-27.22423
-28.10784
-27.60496
-25.47913
-21.8091
-16.96538
-11.51448
-6.073727
-1.136635
2.996088
6.24662
8.679127
10.40659
11.53914
12.13101
12.21051
11.83029
11.15376
10.42605
9.938616
9.927811
10.44996
11.39038
12.50793
13.56427
14.40934
15.03192
15.46827
15.72686
15.73636
15.37672
14.57863
13.40161
12.06857
10.85832
9.969699
9.443502
9.138429
8.863059
8.478039
7.945449
7.325578
6.677186
6.00833
5.271429
4.417647
3.480762
2.587399
1.865982
1.392063
1.094224
0.7822278
0.2514909
-0.6116959
-1.759066
-3.047797
-4.321126
-5.53582
-6.770758
-8.158494
-9.762689
-11.50961
-13.1699
-14.48838
-15.35411
-15.84037
-16.21614
-16.81019
-17.86967
-19.44421
-21.41151
-23.49661
-25.37956
-26.69964
-27.10268
-26.29198
-24.07047
-20.47497
-15.75853
-10.40075
-4.978819
-0.04778671
3.999115
6.983316
8.917246
9.96129
10.32339
10.22995
9.874292
9.417231
9.000139
8.757181
8.814348
9.240524
10.03926
11.09745
12.20904
13.13179
13.68743
13.81542
13.62054
13.29429
13.02016
12.89044
12.8449
12.7387
12.44128
11.90349
11.18279
10.40364
9.666388
9.022625
8.445824
7.852461
7.162529
6.342768
5.404556
4.402525
3.429636
2.580338
1.928753
1.474882
1.108467
0.6485634
-0.06611252
-1.087936
-2.322296
-3.559261
-4.623295
-5.472553
-6.206593
-7.017288
-8.068954
-9.405434
-10.92792
-12.46405
-13.87304
-15.11573
-16.23745
-17.3309
-18.50555
-19.83539
-21.35491
-23.02324
-24.68719
-26.06861
-26.82901
-26.60654
-25.15409
-22.42233
-18.56918
-13.92818
-8.937168
-4.034004
0.4214706
4.139503
6.967899
8.869926
9.91523
10.25435
10.1011
9.660679
9.138721
8.718536
8.540852
8.686264
9.150291
9.847775
10.61615
11.29738
11.76775
11.9931
12.0302
11.95921
11.83672
11.64709
11.31313
10.78777
10.08886
9.325417
8.633312
8.084221
7.650799
7.231655
6.750637
6.205799
5.703503
5.336639
5.111904
4.897396
4.501472
3.77425
2.71217
1.472652
0.2822342
-0.7098122
-1.500637
-2.213345
-3.017338
-4.017365
-5.223625
-6.566002
-7.960541
-9.326454
-10.62654
-11.84252
-12.94749
-13.90427
-14.73613
-15.51531
-16.39695
-17.58574
-19.21645
-21.2555
-23.39536
-25.09511
-25.74241
-24.85881
-22.28776
-18.25973
-13.3012
-8.063904
-3.13052
1.117165
4.502895
7.022911
8.762665
9.856125
10.45909
10.71276
10.75964
10.70414
10.62589
10.60066
10.69291
10.95716
11.40783
11.9895
12.60271
13.13276
13.5038
13.66139
13.60616
13.36151
12.96402
12.45078
11.85176
11.20184
10.52206
9.856617
9.241753
8.721191
8.292866
7.90625
7.47546
6.915619
6.199631
5.405197
4.665798
4.088543
3.707985
3.416019
3.035419
2.405426
1.462337
0.2452927
-1.125587
-2.558311
-4.013954
-5.505825
-7.070511
-8.72295
-10.40158
-12.00136
-13.43486
-14.64308
-15.65152
-16.54882
-17.48009
-18.5872
-19.98775
-21.6725
-23.48124
-25.10653
-26.12186
-26.113
-24.7963
-22.14105
-18.38616
-13.96897
-9.360691
-4.938847
-0.9434586
2.540115
5.461819
7.759483
9.359051
10.21356
10.39107
10.07788
9.530277
8.997314
8.654881
8.571281
8.742897
9.143742
9.735764
10.46761
11.27663
12.07192
12.74994
13.24305
13.51973
13.5513
13.31959
12.8016
11.98477
10.89043
9.644859
8.426834
7.46085
6.930176
6.879501
7.205204
7.661781
7.973183
7.940914
7.496689
6.693302
5.655182
4.499508
3.288071
2.047043
0.7936249
-0.4366455
-1.585094
-2.637444
-3.630398
-4.66795
-5.898449
-7.412548
-9.188126
-11.10673
-12.9595
-14.55429
-15.78367
-16.71936
-17.55984
-18.57911
-19.98639
-21.7916
-23.77929
-25.49498
-26.40568
-26.04204
-24.14458
-20.74047
-16.15501
-10.91896
-5.601494
-0.7128067
3.409668
6.62743
8.944633
10.47843
11.38102
11.82154
11.95016
11.88694
11.71009
11.46456
11.19023
10.93145
10.786
10.84458
11.14516
11.64946
12.23211
12.74949
13.09772
13.25348
13.23661
13.06282
12.67612
11.99176
10.95151
9.624275
8.199936
6.933525
6.029034
5.519836
5.293381
5.136715
4.846638
4.298824
3.494041
2.503139
1.429298
0.3798294
-0.6167336
-1.569748
-2.530472
-3.551964
-4.669724
-5.855797
-7.025288
-8.077141
-8.948238
-9.667126
-10.35936
-11.19093
-12.28651
-13.67429
-15.27453
-16.96804
-18.67887
-20.39548
-22.15845
-23.96297
-25.6654
-26.94507
-27.38568
-26.58924
-24.33891
-20.69926
-16.01624
-10.83062
-5.703808
-1.073429
2.82589
5.946884
8.3414
10.0708
11.14738
11.57669
11.41241
10.80609
9.985794
9.241272
8.780563
8.687149
8.909622
9.305859
9.74823
10.15515
10.48032
10.69449
10.74169
10.57092
10.16487
9.589615
8.96524
8.444813
8.098488
7.893196
7.711113
7.424091
6.956467
6.351196
5.691021
5.040195
4.426674
3.814228
3.185345
2.533047
1.884338
1.236595
0.5605659
-0.2221947
-1.216103
-2.456921
-3.916615
-5.496685
-7.086872
-8.627621
-10.12493
-11.63274
-13.22798
-14.98699
-16.91268
-18.94036
-20.90235
-22.52623
-23.45612
-23.34755
-21.94246
-19.18369
-15.24328
-10.48437
-5.404287
-0.4488811
4.037745
7.888126
11.06502
13.57025
15.41576
16.58629
17.08049
16.95333
16.36244
15.57351
14.86755
14.46083
14.43613
14.736
15.19396
15.64849
15.94271
15.97918
15.72698
15.1873
14.42241
13.53746
12.68058
11.96164
11.4302
11.03438
10.65215
10.13926
9.420092
8.495253
7.436001
6.328068
5.203026
4.047892
2.839401
1.564688
0.2741699
-0.9696789
-2.144276
-3.266582
-4.414574
-5.663843
-7.037603
-8.464457
-9.820284
-10.98578
-11.93918
-12.78861
-13.72696
-14.98702
-16.70663
-18.87848
-21.31571
-23.67836
-25.53175
-26.44404
-26.06978
-24.24063
-21.03001
-16.74512
-11.87673
-6.981655
-2.542759
1.171976
4.121399
6.428051
8.276459
9.752138
10.85424
11.54622
11.83626
11.85573
11.8253
11.95091
12.31129
12.85996
13.45066
13.95764
14.34254
14.64446
14.9229
15.15757
15.25818
15.08793
14.57498
13.74651
12.7318
11.67092
10.66166
9.761797
8.962866
8.268633
7.667215
7.138332
6.590729
5.909546
4.990726
3.778233
2.349325
0.8371334
-0.5859241
-1.812817
-2.827358
-3.714918
-4.610554
-5.619621
-6.804585
-8.143211
-9.55732
-10.93153
-12.16534
-13.19871
-14.05505
-14.8487
-15.72189
-16.84678
-18.33259
-20.20079
-22.36648
-24.6647
-26.81385
-28.42867
-29.08891
-28.38646
-26.04792
-22.07386
-16.82307
-10.91333
-5.072857
0.0845871
4.26302
7.444683
9.826553
11.60754
12.88627
13.63441
13.82093
13.51398
12.94093
12.42645
12.23797
12.51308
13.14607
13.90301
14.50105
14.77837
14.71521
14.43891
14.11915
13.87041
13.7244
13.60649
13.4085
13.03812
12.4836
11.7724
10.96581
10.09105
9.128773
8.064507
6.908014
5.752735
4.731548
3.95414
3.45322
3.126514
2.810863
2.339916
1.658112
0.7993126
-0.119381
-1.004772
-1.856567
-2.721378
-3.71764
-4.888348
-6.22171
-7.624023
-8.997162
-10.25541
-11.38602
-12.4186
-13.40165
-14.43114
-15.59463
-17.00507
-18.74582
-20.8679
-23.28086
-25.74799
-27.90059
-29.26826
-29.42847
-28.10999
-25.28266
-21.19917
-16.30046
-11.07814
-6.003418
-1.423794
2.461887
5.570763
7.920135
9.596111
10.69946
11.34933
11.654
11.72404
11.66182
11.59454
11.65157
11.91751
12.39744
12.98559
13.53721
13.93377
14.13525
14.18015
14.12424
13.97114
13.66026
13.11365
12.29269
11.27561
10.21154
9.26873
8.541243
7.994146
7.53146
7.047533
6.480999
5.839708
5.168579
4.496931
3.849667
3.199404
2.512602
1.761089
0.9158745
-0.007522583
-0.9741688
-1.948624
-2.911171
-3.899061
-4.979538
-6.230837
-7.674284
-9.250423
-10.82233
-12.24021
-13.42684
-14.44209
-15.46667
-16.69991
-18.28596
-20.18607
-22.19005
-23.9351
-24.996
-24.99413
-23.67122
-20.94705
-16.98615
-12.17364
-7.031134
-2.117577
2.156546
5.579891
8.163347
10.03975
11.34822
12.15726
12.45772
12.27855
11.72962
11.06162
10.55648
10.42171
10.68704
11.24136
11.89266
12.4789
12.97665
13.40868
13.81661
14.14543
14.25569
14.00017
13.3295
12.35673
11.2814
10.32037
9.569027
8.99555
8.48304
7.934639
7.303755
6.61722
5.906652
5.136702
4.232849
3.095873
1.722446
0.1877193
-1.349747
-2.739454
-3.917416
-4.915756
-5.836855
-6.780293
-7.836418
-9.00046
-10.25109
-11.5386
-12.8319
-14.14545
-15.50059
-16.95496
-18.57039
-20.43141
-22.58288
-24.97205
-27.35988
-29.32741
-30.32817
-29.83864
-27.57329
-23.59388
-18.34135
-12.47258
-6.692945
-1.519491
2.777308
6.166138
8.751408
10.62356
11.83292
12.42909
12.51067
12.26411
11.97602
11.90799
12.18803
12.80009
13.58686
14.34248
14.92536
15.31274
15.54735
15.69491
15.78063
15.7654
15.60443
15.27901
14.82972
14.31723
13.78556
13.21149
12.54188
11.71069
10.68133
9.498337
8.276987
7.12519
6.123123
5.278382
4.534893
3.851878
3.180482
2.524959
1.891764
1.271247
0.6203098
-0.1276159
-1.028358
-2.095085
-3.307823
-4.63057
-6.04275
-7.551083
-9.148036
-10.8091
-12.47203
-14.06702
-15.56487
-16.98942
-18.4122
-19.9313
-21.62111
-23.52893
-25.67117
-28.00351
-30.36798
-32.44373
-33.72216
-33.65522
-31.83518
-28.17884
-23.04254
-17.08305
-11.0615
-5.568524
-0.8942385
2.959019
6.132497
8.743354
10.83164
12.38364
13.4212
14.04114
14.41599
14.71359
15.03176
15.40722
15.8112
16.2269
16.6628
17.16433
17.74874
18.38651
18.99048
19.41841
19.55832
19.36377
18.86125
18.14132
17.33199
16.52843
15.78733
15.11835
14.50005
13.89299
13.2775
12.62347
11.87155
10.95054
9.809687
8.462311
7.035182
5.724265
4.715324
4.107821
3.848075
3.738751
3.53728
3.06525
2.257906
1.186688
-0.02216268
-1.24272
-2.398242
-3.465745
-4.449217
-5.380039
-6.322295
-7.355634
-8.565232
-9.99412
-11.59895
-13.2717
-14.88016
-16.35018
-17.67481
-18.97197
-20.40138
-22.12677
-24.20907
-26.54255
-28.81263
-30.52995
-31.1367
-30.15565
-27.41178
-23.0802
-17.68545
-11.90817
-6.388178
-1.514294
2.577389
5.928458
8.63941
10.73872
12.19926
12.99974
13.21872
13.02345
12.68195
12.43438
12.43017
12.73277
13.30209
14.04978
14.85397
15.57299
16.10085
16.37241
16.4071
16.27685
16.08828
15.88704
15.64998
15.28216
14.68761
13.84766
12.81885
11.74623
10.74116
9.874887
9.095494
8.327334
7.525372
6.723807
6.035847
5.556575
5.272784
5.038665
4.640626
3.880705
2.71151
1.264359
-0.2361822
-1.556182
-2.577035
-3.341494
-3.996593
-4.729243
-5.695683
-6.949132
-8.429592
-10.0266
-11.56823
-12.92823
-14.06326
-15.02351
-15.95018
-17.02808
-18.41052
-20.16795
-22.27687
-24.56689
-26.74007
-28.38483
-29.05791
-28.39391
-26.22501
-22.62719
-17.92974
-12.64952
-7.339047
-2.479593
1.616076
4.835234
7.224092
8.918512
10.08457
10.81845
11.1659
11.1592
10.88854
10.527
10.29885
10.40117
10.91292
11.76762
12.79551
13.78561
14.59657
15.13591
15.37847
15.34873
15.07962
14.63975
14.10178
13.54865
13.04299
12.61058
12.24509
11.90409
11.53942
11.10217
10.58535
9.972684
9.257609
8.437613
7.494993
6.428703
5.261205
4.044863
2.857257
1.768291
0.7937241
-0.110754
-1.037799
-2.082173
-3.313795
-4.712515
-6.205212
-7.697091
-9.098066
-10.36228
-11.50409
-12.56896
-13.64575
-14.82713
-16.16632
-17.67754
-19.34484
-21.14808
-23.0427
-24.93966
-26.66417
-27.93666
-28.41825
-27.77165
-25.79053
-22.48038
-18.07774
-13.0111
-7.78718
-2.87439
1.397278
4.87871
7.58959
9.608213
11.01578
11.85233
12.10509
11.80925
11.10895
10.27801
9.658354
9.542025
10.01683
10.96705
12.11833
13.16585
13.89594
14.23501
14.20926
13.90777
13.42854
12.84175
12.18192
11.47157
10.6949
9.842514
8.933889
8.01107
7.141437
6.409236
5.857735
5.470431
5.196062
4.953738
4.68962
4.375979
3.979195
3.462189
2.783411
1.93631
0.9575596
-0.06373596
-1.031563
-1.891912
-2.661921
-3.396261
-4.192572
-5.12393
-6.246353
-7.557266
-9.000118
-10.4747
-11.85424
-13.0597
-14.11625
-15.17529
-16.47148
-18.21451
-20.41801
-22.82096
-24.92486
-26.12519
-25.93143
-24.13128
-20.84797
-16.47999
-11.53143
-6.495399
-1.742683
2.45706
5.926201
8.554571
10.29998
11.2188
11.48015
11.31491
10.95962
10.61507
10.3886
10.31703
10.39682
10.59938
10.89527
11.27816
11.73399
12.2362
12.74867
13.20915
13.5091
13.53184
13.17787
12.42553
11.34171
10.09066
8.871012
7.857151
7.13838
6.681269
6.398159
6.146414
5.829966
5.425043
4.972427
4.537134
4.146477
3.77129
3.317034
2.692007
1.842606
0.7958241
-0.3566723
-1.519608
-2.63294
-3.728052
-4.882166
-6.186964
-7.689604
-9.376032
-11.17216
-12.96915
-14.66102
-16.14826
-17.4251
-18.53715
-19.65461
-20.97694
-22.65252
-24.66496
-26.77612
-28.55116
-29.42454
-28.90639
-26.71324
-22.90296
-17.86192
-12.2157
-6.629614
-1.63459
2.479403
5.674976
8.034521
9.693563
10.71316
11.12929
10.9957
10.45619
9.757254
9.202057
9.036944
9.349739
10.07009
10.99465
11.90517
12.62087
13.07718
13.27586
13.27574
13.12051
12.81654
12.35198
11.73736
11.00698
10.22399
9.469174
8.805292
8.258035
7.810584
7.411157
7.021928
6.579952
6.051119
5.414803
4.665757
3.813747
2.86702
1.853968
0.7994857
-0.2254882
-1.13801
-1.848263
-2.312591
-2.590213
-2.813745
-3.143526
-3.686467
-4.500422
-5.548843
-6.792365
-8.180323
-9.648355
-11.13047
-12.54238
-13.82842
-15.01268
-16.26266
-17.80826
-19.82093
-22.23626
-24.69814
-26.60295
-27.3084
-26.35569
-23.62031
-19.36415
-14.10532
-8.475995
-3.042969
1.808905
5.876397
9.126087
11.57951
13.28126
14.2534
14.57076
14.39006
13.96623
13.57826
13.43643
13.6266
14.07413
14.63717
15.19112
15.67139
16.09617
16.49612
16.89057
17.23086
17.46423
17.52259
17.3653
16.97382
16.34663
15.51163
14.50106
13.38795
12.22397
11.08929
10.05457
9.182569
8.514339
8.028376
7.644863
7.227007
6.631843
5.785891
4.719325
3.553926
2.463448
1.563688
0.8586302
0.2484207
-0.4574356
-1.441845
-2.801167
-4.530404
-6.518237
-8.597954
-10.61499
-12.4579
-14.09444
-15.55538
-16.94215
-18.38366
-20.01132
-21.91459
-24.07835
-26.31788
-28.27933
-29.48159
-29.44762
-27.87332
-24.71157
-20.25353
-15.01834
-9.592899
-4.505802
-0.07387996
3.597112
6.52412
8.747737
10.28325
11.11612
11.30663
11.03602
10.57664
10.23873
10.22227
10.56822
11.16193
11.84195
12.49661
13.12215
13.76716
14.44367
15.04999
15.3963
15.27038
14.58358
13.4205
11.99426
10.57283
9.376322
8.483947
7.873183
7.405526
6.939883
6.390824
5.733893
4.997788
4.242406
3.487137
2.695171
1.822222
0.8515811
-0.1837449
-1.180926
-2.043269
-2.738811
-3.328826
-3.939042
-4.71432
-5.727142
-6.974646
-8.405643
-9.958257
-11.57684
-13.22592
-14.84599
-16.41486
-17.92503
-19.41727
-20.97368
-22.66022
-24.40347
-25.9571
-26.90466
-26.7619
-25.18638
-22.10637
-17.76761
-12.66874
-7.376628
-2.371589
2.045133
5.722334
8.614638
10.68588
11.90574
12.29864
12.01967
11.3524
10.66006
10.23973
10.23476
10.63735
11.30091
12.06067
12.78509
13.38677
13.84721
14.14987
14.30728
14.3296
14.24847
14.06179
13.76525
13.33322
12.70592
11.86245
10.8257
9.68574
8.554724
7.552773
6.71766
6.048752
5.505001
4.995491
4.430087
3.72592
2.84953
1.804162
0.6781549
-0.4469995
-1.48972
-2.449146
-3.38923
-4.404402
-5.578808
-6.935513
-8.452911
-10.04597
-11.6062
-13.04958
-14.3268
-15.4823
-16.61632
-17.90277
-19.51115
-21.50054
-23.73413
-25.82067
-27.20238
-27.31398
-25.77745
-22.53577
-17.91662
-12.51367
-7.000543
-1.950875
2.304365
5.674175
8.228638
10.10148
11.3888
12.1337
12.35846
12.12823
11.58967
10.96797
10.50039
10.39378
10.72921
11.45898
12.44168
13.46897
14.34111
14.89996
15.07425
14.8759
14.41142
13.80612
13.1828
12.58511
11.98703
11.30908
10.48821
9.526333
8.484438
7.47929
6.567308
5.748109
4.968923
4.171191
3.308046
2.3898
1.426279
0.4177589
-0.642067
-1.760365
-2.916058
-4.059666
-5.177345
-6.292517
-7.45322
-8.720873
-10.10167
-11.53225
-12.89331
-14.09435
-15.1137
-16.03856
-17.0403
-18.28714
-19.89846
-21.85842
-23.95879
-25.83751
-27.0256
-27.0703
-25.672
-22.76839
-18.56421
-13.50637
-8.15485
-3.016539
1.527725
5.289759
8.208025
10.32199
11.67275
12.33925
12.40513
12.03029
11.43796
10.88579
10.6064
10.70106
11.1521
11.78416
12.40972
12.87856
13.12671
13.19379
13.15207
13.07791
12.98127
12.8382
12.56546
12.09735
11.40329
10.50726
9.463506
8.328979
7.178017
6.077515
5.110434
4.338294
3.775897
3.383306
3.0331
2.561358
1.850563
0.8778639
-0.2802868
-1.502504
-2.712871
-3.924712
-5.196836
-6.592841
-8.062151
-9.453594
-10.63085
-11.53924
-12.28812
-13.10321
-14.21861
-15.76166
-17.7323
-19.97366
-22.24634
-24.29149
-25.83767
-26.58304
-26.23922
-24.59029
-21.59486
-17.48986
-12.71271
-7.786537
-3.169356
0.9033108
4.386868
7.328924
9.757545
11.61682
12.77557
13.15665
12.84478
12.09768
11.29177
10.76724
10.70654
11.09549
11.78117
12.56057
13.25247
13.75086
14.0134
14.04771
13.8808
13.51505
12.95674
12.21466
11.31068
10.31279
9.319468
8.420499
7.688068
7.135359
6.705687
6.309135
5.83264
5.208796
4.427225
3.53303
2.595555
1.661502
0.7274799
-0.2610273
-1.392816
-2.718795
-4.241593
-5.874988
-7.487003
-8.966967
-10.26114
-11.40685
-12.51814
-13.71563
-15.06665
-16.59695
-18.28143
-20.08764
-21.94626
-23.70061
-25.06418
-25.63794
-25.0047
-22.89003
-19.32153
-14.654
-9.47027
-4.379271
0.1500574
3.893371
6.826273
9.012409
10.48712
11.23907
11.27639
10.71432
9.802782
8.883321
8.27121
8.172748
8.603296
9.417354
10.39687
11.34086
12.09796
12.61503
12.91446
13.02935
12.98421
12.74376
12.2335
11.42143
10.33909
9.127172
7.967607
7.022646
6.34274
5.840735
5.352405
4.737703
3.954584
3.060265
2.158847
1.31238
0.5256767
-0.2661896
-1.136739
-2.146654
-3.341882
-4.735857
-6.332718
-8.053443
-9.750885
-11.23103
-12.36271
-13.14697
-13.77443
-14.5556
-15.79991
-17.685
-20.12313
-22.78943
-25.1598
-26.67506
-26.87191
-25.49978
-22.55965
-18.30977
-13.19331
-7.728826
-2.415352
2.367664
6.377991
9.516314
11.75928
13.1446
13.76904
13.77962
13.41481
12.94643
12.63727
12.66608
13.08315
13.78308
14.57872
15.25922
15.69027
15.84162
15.7592
15.51084
15.14392
14.68156
14.13272
13.52538
12.92225
12.37972
11.89701
11.42709
10.8676
10.15497
9.283855
8.29142
7.252068
6.210056
5.194271
4.227673
3.361008
2.662027
2.190138
1.891205
1.595148
1.072947
0.1458092
-1.21892
-2.867704
-4.526592
-5.97147
-7.116718
-8.085217
-9.131853
-10.55421
-12.61341
-15.46322
-19.10844
-23.37345
-27.86733
-31.98799
-35.01389
-36.2955
-35.43405
-32.47407
-27.85258
-22.26154
-16.41853
-10.88818
-5.965965
-1.75362
1.743282
4.522306
6.56831
7.886337
8.584641
8.880531
9.070999
9.458929
10.23128
11.4159
12.91336
14.53835
16.11617
17.51057
18.62964
19.40513
19.7953
19.76886
19.34106
18.55651
17.47089
16.15894
14.68649
13.13525
11.62726
10.27965
9.174992
8.32473
7.651119
7.000324
6.233025
5.254227
4.078728
2.760658
1.383892
0.005836487
-1.36261
-2.713898
-4.056179
-5.368069
-6.63567
-7.860794
-9.060844
-10.27988
-11.54865
-12.86514
-14.20344
-15.54826
-16.93996
-18.48731
-20.31034
-22.39301
-24.5237
-26.26854
-27.09868
-26.5858
-24.55081
-21.12022
-16.638
-11.57072
-6.346893
-1.344631
3.121788
6.802002
9.551636
11.33777
12.29913
12.69068
12.77667
12.8045
12.90089
13.12836
13.49902
13.98138
14.50974
14.99031
15.3407
15.49394
15.50154
15.42712
15.34577
15.26848
15.11595
14.79085
14.20385
13.35883
12.31453
11.17863
10.02529
8.890743
7.799114
6.755939
5.799816
4.975163
4.278774
3.664261
3.06377
2.373291
1.538151
0.5498962
-0.5855675
-1.850155
-3.233315
-4.732204
-6.335007
-8.000107
-9.675022
-11.31322
-12.8905
-14.4312
-15.94941
-17.46796
-18.99384
-20.54308
-22.1778
-23.98669
-26.02888
-28.23226
-30.32047
-31.81642
-32.15874
-30.91074
-27.9053
-23.34322
-17.74277
-11.74733
-5.976387
-0.8783951
3.3293
6.610661
9.028069
10.67229
11.62184
11.95664
11.80378
11.36709
10.92174
10.73619
11.0143
11.79326
12.93756
14.16483
15.18024
15.7357
15.77487
15.38581
14.77237
14.15574
13.68045
13.38304
13.17372
12.91888
12.51182
11.92723
11.26012
10.66051
10.22131
9.939255
9.689865
9.308559
8.671421
7.775593
6.714485
5.603352
4.502491
3.408905
2.279236
1.07637
-0.1895714
-1.478592
-2.760578
-4.056511
-5.413494
-6.882576
-8.457138
-10.07763
-11.67192
-13.17008
-14.57627
-15.93883
-17.35189
-18.89576
-20.59369
-22.36375
-23.98663
-25.12623
-25.37343
-24.38805
-22.02898
-18.41334
-13.89886
-8.963264
-4.064289
0.4705696
4.467339
7.88282
10.67545
12.77764
14.08421
14.55927
14.32036
13.62504
12.84682
12.30513
12.16561
12.41072
12.89812
13.47565
14.03429
14.56737
15.07535
15.55792
15.93599
16.09386
15.92824
15.38213
14.4864
13.30527
11.96535
10.59609
9.345345
8.331123
7.589325
7.040184
6.502663
5.768082
4.734795
3.462181
2.143837
1.038132
0.3150406
-0.01028442
-0.07668304
-0.1297455
-0.4104996
-1.059486
-2.11277
-3.510609
-5.144005
-6.879391
-8.603146
-10.21412
-11.68781
-13.05295
-14.39968
-15.84249
-17.44749
-19.18735
-20.90769
-22.37672
-23.27795
-23.30781
-22.22116
-19.88473
-16.36196
-11.90719
-6.940434
-1.953217
2.607536
6.457302
9.449181
11.57294
12.87054
13.41204
13.3188
12.7909
12.11943
11.60347
11.46196
11.72899
12.30927
13.01273
13.69139
14.2871
14.81828
15.30394
15.70033
15.92073
15.85969
15.46806
14.75657
13.77971
12.6054
11.29092
9.893826
8.470707
7.110901
5.890049
4.846405
3.963551
3.172199
2.401634
1.596096
0.7438278
-0.1353989
-1.021339
-1.919472
-2.907883
-4.090172
-5.541103
-7.268818
-9.184959
-11.13555
-12.95721
-14.55602
-15.94753
-17.24982
-18.6447
-20.32169
-22.40051
-24.8673
-27.51421
-29.94683
-31.6394
-32.07347
-30.90593
-28.03816
-23.68582
-18.31267
-12.48538
-6.738201
-1.505047
2.943035
6.468597
9.041172
10.70154
11.56373
11.79758
11.63679
11.33732
11.14225
11.22895
11.65257
12.35094
13.16532
13.93506
14.54198
14.95639
15.19945
15.28958
15.22029
14.95497
14.4404
13.69296
12.78406
11.80784
10.86142
9.995956
9.208055
8.481577
7.753458
6.991169
6.178669
5.325239
4.46752
3.659536
2.93788
2.28669
1.663792
0.9966869
0.2425861
-0.5950375
-1.485142
-2.383343
-3.282106
-4.211473
-5.237059
-6.401234
-7.710752
-9.121769
-10.57169
-11.9884
-13.33157
-14.61849
-15.93704
-17.42472
-19.18568
-21.20124
-23.24572
-24.88571
-25.58599
-24.88334
-22.57903
-18.7885
-13.90881
-8.482001
-3.033092
2.016215
6.379635
9.888811
12.44816
14.02593
14.67712
14.5557
13.9214
13.08453
12.36042
11.96938
11.99733
12.37174
12.9124
13.42417
13.75783
13.87055
13.81502
13.69307
13.57998
13.50138
13.38906
13.13312
12.63828
11.88345
10.93551
9.943289
9.061811
8.387993
7.91483
7.55757
7.201874
6.766315
6.213004
5.548417
4.765845
3.838927
2.723977
1.411053
-0.01290417
-1.411262
-2.641661
-3.65823
-4.521927
-5.379856
-6.379121
-7.582487
-8.919069
-10.23325
-11.36934
-12.25538
-12.97383
-13.70333
-14.67436
-16.05649
-17.89564
-20.0912
-22.41634
-24.53122
-26.0583
-26.60816
-25.86995
-23.71364
-20.22287
-15.69773
-10.58234
-5.381647
-0.5491543
3.576521
6.796396
9.060999
10.43107
11.08152
11.24844
11.19447
11.13555
11.22113
11.48082
11.87253
12.32623
12.76652
13.18
13.55405
13.86551
14.06503
14.09315
13.91674
13.5673
13.11335
12.61813
12.13157
11.61353
10.99487
10.20558
9.244839
8.19825
7.208454
6.431896
5.961395
5.767105
5.677029
5.444736
4.848282
3.78537
2.328796
0.7030411
-0.8236046
-2.067581
-3.007782
-3.803867
-4.677849
-5.775356
-7.123978
-8.606857
-10.06759
-11.3953
-12.60748
-13.78865
-15.06856
-16.49012
-18.01365
-19.56435
-21.05563
-22.46427
-23.74706
-24.80577
-25.39138
-25.16304
-23.79044
-21.1001
-17.19991
-12.45221
-7.387886
-2.514656
1.79274
5.358841
8.134674
10.12106
11.33262
11.77837
11.57741
10.93159
10.15627
9.567352
9.379044
9.63694
10.19688
10.81181
11.22473
11.30201
11.02608
10.54266
10.03134
9.629555
9.381714
9.187195
8.915489
8.434853
7.727913
6.89003
6.107689
5.517433
5.145882
4.881157
4.536934
3.968536
3.149467
2.198257
1.280968
0.5133209
-0.1465454
-0.8593903
-1.809753
-3.093811
-4.647797
-6.288025
-7.833443
-9.174202
-10.32188
-11.37009
-12.40878
-13.47695
-14.60915
-15.81011
-17.14913
-18.68217
-20.37344
-22.09725
-23.55297
-24.38661
-24.24563
-22.91432
-20.33836
-16.67952
-12.28634
-7.604668
-3.094276
0.8993912
4.180817
6.722122
8.563499
9.746574
10.27542
10.15147
9.484879
8.525505
7.644791
7.201614
7.398582
8.20076
9.372353
10.5601
11.45442
11.88679
11.84344
11.43977
10.81769
10.09653
9.341179
8.546089
7.697502
6.794975
5.880539
4.997101
4.156502
3.320183
2.41497
1.361031
0.151062
-1.13768
-2.360802
-3.378433
-4.134911
-4.704422
-5.257927
-5.987503
-7.014015
-8.344788
-9.864082
-11.39404
-12.76495
-13.87314
-14.73872
-15.50697
-16.38641
-17.5959
-19.22033
-21.17184
-23.15899
-24.74512
-25.47707
-25.00576
-23.18648
-20.07587
-15.9009
-10.9803
-5.691727
-0.4485168
4.344765
8.316772
11.21083
12.95251
13.66217
13.62935
13.1871
12.62107
12.09713
11.68024
11.36417
11.13528
11.03383
11.11004
11.38088
11.78072
12.17078
12.38523
12.33858
12.04198
11.60479
11.14704
10.74563
10.39611
10.01122
9.517311
8.882469
8.139015
7.315979
6.414795
5.397606
4.267906
3.07193
1.92572
0.9621048
0.2354584
-0.3182907
-0.8816147
-1.675041
-2.880325
-4.545906
-6.581352
-8.764572
-10.84446
-12.60696
-13.97632
-15.0151
-15.90209
-16.90308
-18.26278
-20.11468
-22.35629
-24.65099
-26.46035
-27.21298
-26.43918
-23.96091
-19.96038
-14.92804
-9.524464
-4.374405
0.1121025
3.767941
6.652222
8.909302
10.67253
12.00805
12.93333
13.4811
13.72852
13.79444
13.78368
13.75824
13.73472
13.72209
13.75871
13.92658
14.26786
14.74341
15.19934
15.44046
15.3158
14.78533
13.9266
12.85167
11.68615
10.48824
9.306568
8.192093
7.191273
6.326618
5.550007
4.748459
3.794708
2.616737
1.258724
-0.1614799
-1.482624
-2.61832
-3.572273
-4.460468
-5.443806
-6.678356
-8.217594
-10.00755
-11.8877
-13.66289
-15.20223
-16.49632
-17.68531
-19.01261
-20.70281
-22.85457
-25.32356
-27.71445
-29.45917
-29.97181
-28.821
-25.86161
-21.31826
-15.71141
-9.713406
-3.977772
1.030239
5.096252
8.225029
10.52979
12.15361
13.16637
13.63297
13.63481
13.29568
12.79589
12.3408
12.08363
12.11182
12.43897
13.00434
13.71002
14.43217
15.03099
15.38746
15.40579
15.02625
14.24223
13.12536
11.79838
10.43596
9.197836
8.175175
7.372949
6.703485
6.032062
5.262173
4.356767
3.347064
2.304031
1.286727
0.3324461
-0.5502529
-1.409221
-2.30542
-3.319445
-4.559962
-6.074473
-7.848751
-9.768291
-11.65223
-13.35295
-14.82525
-16.17798
-17.62539
-19.37955
-21.49854
-23.78453
-25.79691
-26.97397
-26.78711
-24.94086
-21.48988
-16.76636
-11.30495
-5.659338
-0.3035145
4.439032
8.362989
11.35162
13.34751
14.34807
14.45849
13.89076
12.97943
12.07411
11.47751
11.35627
11.68749
12.33635
13.09103
13.76365
14.2218
14.38303
14.19915
13.65615
12.78965
11.67498
10.45033
9.263945
8.234276
7.401987
6.720675
6.095871
5.405302
4.546194
3.46398
2.163338
0.7131233
-0.7840862
-2.210142
-3.503101
-4.676109
-5.819105
-7.009024
-8.283209
-9.578148
-10.80268
-11.89276
-12.90405
-14.02337
-15.49982
-17.5106
-20.05593
-22.91072
-25.65766
-27.76372
-28.72353
-28.13615
-25.83018
-21.92622
-16.81288
-11.07305
-5.344566
-0.171032
4.16468
7.581078
10.14853
11.9827
13.17377
13.79211
13.92916
13.77533
13.54051
13.46341
13.69645
14.28395
15.15629
16.17124
17.16603
17.98032
18.52359
18.74571
18.66352
18.32966
17.79826
17.11049
16.25041
15.19885
13.95672
12.58687
11.14915
9.699707
8.255085
6.821583
5.423168
4.133343
3.036175
2.17881
1.516022
0.8794098
0.07936859
-1.016548
-2.464989
-4.158821
-5.961197
-7.732506
-9.379822
-10.8908
-12.27802
-13.58086
-14.86359
-16.26521
-17.90939
-19.88259
-22.09264
-24.2067
-25.67655
-25.88388
-24.35873
-20.98627
-16.08137
-10.24709
-4.207848
1.446709
6.378799
10.49408
13.81342
16.38466
18.21844
19.33727
19.84206
19.92639
19.81225
19.72475
19.73515
19.78213
19.73495
19.43951
18.83941
17.9636
16.90165
15.77555
14.66093
13.59304
12.56193
11.52934
10.43785
9.245743
7.945908
6.59832
5.31604
4.241493
3.476105
2.994431
2.662003
2.266541
1.648071
0.7573624
-0.3067703
-1.382729
-2.346306
-3.182503
-4.02317
-5.056213
-6.418724
-8.096863
-9.968521
-11.84547
-13.58433
-15.15397
-16.60424
-18.04202
-19.53806
-21.10979
-22.74453
-24.40974
-26.1005
-27.77562
-29.32859
-30.52669
-31.02917
-30.45744
-28.50929
-25.09425
-20.37975
-14.79476
-8.897179
-3.249557
1.750816
5.899315
9.191902
11.7054
13.49358
14.58074
14.96871
14.71443
14.02605
13.24923
12.7832
12.91533
13.66808
14.81146
15.98553
16.86034
17.29766
17.3662
17.23727
17.05785
16.84198
16.48486
15.83128
14.79385
13.45609
12.01227
10.71932
9.767311
9.212807
8.971962
8.862831
8.653847
8.171974
7.341988
6.203384
4.888817
3.523033
2.211723
0.9590836
-0.2534027
-1.455811
-2.676941
-3.9216
-5.198608
-6.545334
-8.003975
-9.567116
-11.18352
-12.75686
-14.18591
-15.44042
-16.57813
-17.75433
-19.13248
-20.82591
-22.80888
-24.86903
-26.64334
-27.6569
-27.43587
-25.63661
-22.16948
-17.25875
-11.40506
-5.259842
0.5419693
5.563301
9.625122
12.72021
14.94797
16.38809
17.07262
17.06508
16.50507
15.63293
14.77063
14.24483
14.25595
14.83453
15.85056
17.03685
18.10402
18.79977
19.01799
18.78155
18.22585
17.50401
16.71657
15.87842
14.93667
13.85625
12.66005
11.45428
10.36707
9.473503
8.724915
7.98159
7.094238
5.966301
4.658363
3.321533
2.135399
1.21788
0.5292892
-0.09682465
-0.8656845
-1.949677
-3.382217
-5.056557
-6.766891
-8.326706
-9.636299
-10.73721
-11.77491
-12.9328
-14.35315
-16.08765
-18.10153
-20.2592
-22.339
-24.05361
-25.04803
-24.9609
-23.53083
-20.66185
-16.50249
-11.41446
-5.937134
-0.6148529
4.07692
7.806557
10.42818
11.94945
12.52814
12.4068
11.87207
11.20755
10.64475
10.31281
10.29821
10.60655
11.17949
11.88869
12.55465
13.02722
13.24059
13.24538
13.15954
13.08088
13.00412
12.80708
12.33068
11.4819
10.3321
9.054176
7.871998
6.890388
6.091682
5.352009
4.556786
3.661629
2.72229
1.816746
0.992527
0.2045479
-0.6748619
-1.790878
-3.24472
-5.033894
-7.054581
-9.113335
-11.00894
-12.60387
-13.86957
-14.91026
-15.92672
-17.15084
-18.77678
-20.88745
-23.3749
-25.95048
-28.15291
-29.46707
-29.4611
-27.89506
-24.79845
-20.45483
-15.32732
-9.923092
-4.695808
0.01883316
4.029533
7.267979
9.727036
11.44249
12.46364
12.84888
12.71733
12.22629
11.60647
11.11226
10.955
11.23175
11.8795
12.6952
13.45107
13.97333
14.21534
14.24266
14.14524
13.97274
13.6768
13.15825
12.33616
11.21443
9.887238
8.518803
7.247543
6.165962
5.264112
4.462444
3.661654
2.794569
1.831402
0.7832737
-0.3190918
-1.460798
-2.656904
-3.970234
-5.445858
-7.086763
-8.813152
-10.47796
-11.93268
-13.11171
-14.0838
-15.02962
-16.17953
-17.70496
-19.67701
-22.01701
-24.56235
-27.0892
-29.3375
-31.02925
-31.84673
-31.47379
-29.63961
-26.23559
-21.39514
-15.53871
-9.278847
-3.283066
1.908365
5.982346
8.883787
10.72076
11.67686
11.94804
11.72249
11.20994
10.68629
10.40581
10.55613
11.18028
12.13694
13.19461
14.12742
14.82529
15.28085
15.57087
15.73848
15.77614
15.61603
15.17027
14.41486
13.4316
12.36721
11.40504
10.6857
10.23077
9.958666
9.698198
9.256882
8.502321
7.42342
6.084257
4.624739
3.173082
1.803364
0.5241432
-0.6878757
-1.883984
-3.077879
-4.255724
-5.403971
-6.513918
-7.622955
-8.808958
-10.14869
-11.68804
-13.43026
-15.30819
-17.26459
-19.26636
-21.28982
-23.25313
-24.94195
-25.98235
-25.90217
-24.35888
-21.25433
-16.86053
-11.7359
-6.517694
-1.706863
2.414885
5.803265
8.510738
10.56725
11.97575
12.71342
12.84022
12.55588
12.1415
11.86572
11.90644
12.26963
12.83257
13.44602
13.99802
14.445
14.81254
15.13083
15.39018
15.53054
15.43778
14.96654
14.0402
12.68801
11.08096
9.50263
8.20849
7.33404
6.822403
6.451403
5.943327
5.134272
4.018055
2.759966
1.585848
0.6334381
-0.09414291
-0.7405844
-1.531651
-2.647078
-4.149196
-5.969247
-7.926614
-9.803834
-11.44997
-12.82781
-14.02413
-15.20495
-16.53495
-18.11665
-19.97953
-22.05223
-24.193
-26.16443
-27.62657
-28.19675
-27.50956
-25.3183
-21.62134
-16.70864
-11.08198
-5.377168
-0.2067223
4.014989
7.116133
9.150591
10.32813
10.88851
11.02567
10.89046
10.61547
10.35291
10.27072
10.47662
10.95725
11.57564
12.11555
12.38899
12.34047
12.06109
11.725
11.48125
11.34456
11.19645
10.85731
10.16992
9.093375
7.712076
6.20621
4.761801
3.51757
2.513453
1.703404
1.017118
0.4013653
-0.1493521
-0.5887432
-0.9013844
-1.093408
-1.21682
-1.365904
-1.625697
-2.043575
-2.642662
-3.403079
-4.317883
-5.396069
-6.623339
-7.984456
-9.435818
-10.91771
-12.39379
-13.89024
-15.48363
-17.24402
-19.15893
-21.02623
-22.44513
-22.93001
-22.04985
-19.62762
-15.80697
-11.03629
-5.91075
-0.9898987
3.363347
7.000914
9.917378
12.11236
13.52497
14.07993
13.80266
12.8946
11.75472
10.82353
10.40692
10.56736
11.14901
11.85206
12.49265
13.0288
13.55731
14.19095
14.88892
15.45172
15.60735
15.15943
14.09829
12.64117
11.09623
9.747411
8.736296
8.017061
7.413103
6.716742
5.805086
4.669025
3.423805
2.227741
1.211772
0.4290256
-0.1613399
-0.677444
-1.241488
-1.975489
-2.976222
-4.253442
-5.796604
-7.530396
-9.35635
-11.17127
-12.89371
-14.49348
-15.99509
-17.4753
-19.04159
-20.79097
-22.73515
-24.72619
-26.42562
-27.31206
-26.85828
-24.71749
-20.9095
-15.86412
-10.2891
-4.924657
-0.3206358
3.302818
6.014679
8.035192
9.556788
10.66152
11.35147
11.60744
11.49046
11.161
10.83753
10.70881
10.87651
11.32009
11.92033
12.53168
13.01173
13.29723
13.37008
13.25092
12.93718
12.40704
11.60066
10.53621
9.29298
8.02643
6.923906
6.110994
5.598866
5.266019
4.897443
4.295115
3.379902
2.21544
0.9647818
-0.2007504
-1.226863
-2.189668
-3.228183
-4.466565
-5.919533
-7.499076
-9.077184
-10.55138
-11.92153
-13.28316
-14.77368
-16.49867
-18.50496
-20.72613
-22.98705
-25.01691
-26.4783
-27.0034
-26.29139
-24.19718
-20.76554
-16.29119
-11.19893
-5.954046
-0.9924669
3.361189
6.898987
9.510809
11.1903
12.02623
12.17422
11.87424
11.39196
10.97169
10.82064
11.05482
11.70249
12.67396
13.80267
14.87149
15.68607
16.13876
16.20982
15.96089
15.44806
14.71273
13.76485
12.63144
11.36706
10.03775
8.720755
7.436963
6.195082
4.978319
3.772505
2.587393
1.436064
0.337431
-0.7129974
-1.722261
-2.716286
-3.717552
-4.769617
-5.910524
-7.160999
-8.51808
-9.95043
-11.42999
-12.9635
-14.58161
-16.32737
-18.24053
-20.34095
-22.61654
-24.98125
-27.21939
-28.93524
-29.62717
-28.80674
-26.19897
-21.89363
-16.33631
-10.18789
-4.113804
1.389711
6.048376
9.751598
12.46449
14.18066
14.95177
14.92939
14.38934
13.64172
12.98925
12.61775
12.57331
12.78568
13.16252
13.61956
14.1228
14.6461
15.11852
15.42281
15.40544
14.92361
13.95769
12.6119
11.11207
9.704803
8.535998
7.588148
6.722834
5.76874
4.63047
3.348673
2.037658
0.8485117
-0.163744
-1.025575
-1.839901
-2.724775
-3.753325
-4.936478
-6.199009
-7.478151
-8.695539
-9.826912
-10.90494
-12.01342
-13.26146
-14.7681
-16.60314
-18.72642
-21.0168
-23.20067
-24.93978
-25.86067
-25.6484
-24.1289
-21.28419
-17.29527
-12.48703
-7.309298
-2.21213
2.427234
6.335831
9.392496
11.56806
12.91018
13.49925
13.44402
12.87848
12.02434
11.15632
10.55842
10.46131
10.92959
11.82747
12.90316
13.84769
14.42472
14.57225
14.36327
13.96064
13.52746
13.11935
12.69971
12.17146
11.46173
10.57856
9.606228
8.647349
7.736687
6.847051
5.901334
4.868423
3.785656
2.759772
1.871516
1.122376
0.400176
-0.4512024
-1.552002
-2.927983
-4.493064
-6.130075
-7.770881
-9.383835
-10.98985
-12.62146
-14.24934
-15.87206
-17.54902
-19.38821
-21.53075
-23.99871
-26.54256
-28.64796
-29.65517
-28.95405
-26.26564
-21.75092
-16.01645
-9.867817
-4.058631
0.9340038
4.955089
8.07768
10.42297
12.03022
12.86017
12.88882
12.2448
11.26805
10.44204
10.18403
10.65739
11.72667
12.99579
14.07496
14.7574
15.05255
15.1616
15.28244
15.47386
15.59992
15.43816
14.7839
13.58707
12.00952
10.30781
8.753052
7.529987
6.710565
6.211333
5.880394
5.535068
5.010242
4.242687
3.260098
2.151058
1.006807
-0.1610956
-1.406052
-2.804192
-4.377243
-6.060986
-7.72323
-9.255718
-10.62266
-11.89694
-13.19761
-14.62014
-16.19397
-17.8943
-19.73223
-21.71668
-23.84878
-25.99393
-27.81945
-28.84044
-28.54522
-26.63209
-23.12439
-18.40157
-13.0302
-7.588814
-2.492552
2.058176
6.011715
9.347353
11.98669
13.79818
14.69166
14.70867
14.08764
13.21739
12.49462
12.18126
12.32957
12.80182
13.38858
13.9277
14.34914
14.65291
14.86462
14.96725
14.89848
14.59848
14.03337
13.22108
12.21412
11.10163
9.991235
9.023084
8.319826
7.933702
7.794971
7.700355
7.397303
6.65801
5.428472
3.820204
2.053059
0.3637924
-1.095255
-2.319574
-3.414043
-4.549175
-5.850649
-7.328802
-8.880419
-10.34069
-11.5992
-12.67739
-13.73364
-14.9775
-16.52776
-18.35935
-20.31678
-22.22336
-23.95468
-25.42825
-26.50972
-26.95404
-26.39205
-24.4535
-21.00851
-16.26376
-10.73973
-5.140938
-0.05830956
4.137051
7.334078
9.601387
11.07146
11.8468
12.01987
11.68671
11.01672
10.25262
9.686176
9.552804
9.949333
10.81773
11.92473
13.01417
13.87584
14.42023
14.65614
14.61472
14.30513
13.71627
12.86412
11.8211
10.72569
9.699438
8.797743
8.016295
7.312148
6.634777
5.956959
5.251635
4.448603
3.471766
2.262626
0.8405704
-0.6863947
-2.156
-3.464145
-4.593422
-5.60051
-6.591557
-7.634634
-8.761824
-10.00803
-11.39795
-12.96602
-14.73339
-16.69704
-18.81054
-21.01189
-23.18275
-25.12515
-26.51043
-26.97442
-26.1796
-23.95137
-20.3715
-15.74915
-10.55093
-5.245029
-0.2170124
4.256244
7.976374
10.7969
12.61
13.39986
13.32344
12.6527
11.78961
11.108
10.86925
11.1461
11.83808
12.73996
13.62732
14.32265
14.73083
14.82219
14.62301
14.17566
13.54792
12.81788
12.0382
11.21882
10.34887
9.407729
8.411283
7.437069
6.537201
5.731172
4.942433
4.056834
2.978558
1.723312
0.4085684
-0.7947273
-1.791807
-2.648519
-3.53436
-4.640089
-6.059607
-7.736153
-9.495895
-11.16477
-12.65201
-13.97987
-15.2675
-16.65895
-18.28193
-20.22577
-22.48434
-24.95937
-27.39355
-29.39642
-30.48565
-30.22205
-28.35001
-24.86097
-20.05733
-14.42827
-8.551064
-2.937221
2.045107
6.2354
9.593767
12.14036
13.87856
14.77475
14.84846
14.25129
13.31277
12.46456
12.10511
12.40892
13.27943
14.42537
15.47402
16.19659
16.55455
16.65979
16.66314
16.6283
16.50791
16.17647
15.54626
14.60427
13.45037
12.2623
11.16219
10.22567
9.42376
8.70863
8.032213
7.434637
6.965168
6.657161
6.4882
6.326939
6.020228
5.43794
4.528301
3.329806
1.935553
0.4164972
-1.152435
-2.715214
-4.231846
-5.649556
-6.967607
-8.235499
-9.527851
-10.89722
-12.35278
-13.84272
-15.29221
-16.694
-18.08442
-19.56745
-21.27431
-23.28456
-25.61244
-28.17173
-30.72923
-32.92265
-34.29385
-34.34874
-32.72006
-29.31362
-24.33709
-18.2907
-11.81698
-5.529677
0.1170921
4.871063
8.651978
11.4778
13.39308
14.47509
14.83573
14.66075
14.23286
13.84091
13.70547
13.9212
14.43177
15.06696
15.69378
16.24011
16.73624
17.26437
17.83969
18.38722
18.74592
18.7407
18.25218
17.30655
16.05902
14.76509
13.68743
12.99332
12.69534
12.63132
12.53877
12.17585
11.42621
10.34321
9.107563
7.929472
6.938293
6.140234
5.448101
4.755165
3.987774
3.116791
2.118597
0.9766693
-0.3159904
-1.743168
-3.246162
-4.761251
-6.249634
-7.733948
-9.252848
-10.82979
-12.42243
-13.94659
-15.32738
-16.56198
-17.72917
-18.97415
-20.45287
-22.24575
-24.34471
-26.63565
-28.88158
-30.70325
-31.65033
-31.28654
-29.34302
-25.8287
-21.02205
-15.4193
-9.565451
-3.954521
1.061234
5.275576
8.577045
10.96292
12.50891
13.37273
13.74423
13.8003
13.66787
13.42949
13.17523
13.01939
13.12179
13.57923
14.38493
15.3754
16.32929
17.06306
17.47777
17.60527
17.51492
17.26404
16.84383
16.24127
15.47573
14.62472
13.81575
13.12976
12.54499
11.96585
11.26355
10.35316
9.286289
8.19289
7.208813
6.41765
5.801317
5.253597
4.646051
3.875494
2.891291
1.704365
0.3834743
-1.014132
-2.411381
-3.760092
-5.014877
-6.175539
-7.270746
-8.361759
-9.519445
-10.78229
-12.15286
-13.60316
-15.10282
-16.66037
-18.32408
-20.15838
-22.21821
-24.48579
-26.84423
-29.03699
-30.69464
-31.39057
-30.72718
-28.47546
-24.68557
-19.71786
-14.10879
-8.43012
-3.125454
1.56592
5.573349
8.8531
11.34204
12.94938
13.64143
13.55455
12.99525
12.3723
12.0535
12.26073
12.99091
14.07104
15.24441
16.26824
16.9795
17.31704
17.31193
17.06248
16.65975
16.17142
15.62078
15.01467
14.38026
13.74322
13.12687
12.53322
11.92781
11.25748
10.49756
9.671158
8.846161
8.092361
7.441217
6.87442
6.335642
5.776155
5.159492
4.452253
3.619562
2.610608
1.406702
0.05791759
-1.317067
-2.573839
-3.618666
-4.461802
-5.22399
-6.07532
-7.155832
-8.473416
-9.952296
-11.44661
-12.86129
-14.19027
-15.50025
-16.89777
-18.428
-20.09785
-21.88167
-23.76557
-25.73669
-27.77246
-29.71485
-31.2599
-31.97508
-31.41176
-29.2852
-25.565
-20.53114
-14.69388
-8.655023
-2.957301
2.026653
6.123092
9.315086
11.65855
13.20648
13.95633
13.95711
13.33327
12.3598
11.4364
10.96042
11.14372
11.93578
13.05258
14.09809
14.79469
15.09989
15.18745
15.28823
15.48102
15.66469
15.57081
14.97817
13.83514
12.37396
10.97573
9.994674
9.579384
9.608032
9.79348
9.828616
9.566608
9.032753
8.382027
7.743807
7.13267
6.420479
5.423868
4.059983
2.382422
0.6027384
-1.028053
-2.315159
-3.258859
-3.972313
-4.641349
-5.425007
-6.397648
-7.552776
-8.82196
-10.11905
-11.35244
-12.49427
-13.55268
-14.62801
-15.88331
-17.4901
-19.54286
-21.97956
-24.54033
-26.80687
-28.30698
-28.61315
-27.43542
-24.68826
-20.50045
-15.21709
-9.347179
-3.439232
2.019484
6.669439
10.30337
12.83049
14.24982
14.65962
14.26502
13.35181
12.2622
11.30743
10.69526
10.52511
10.78287
11.35945
12.11394
12.88036
13.51307
13.92189
14.10777
14.14014
14.11385
14.04142
13.81485
13.24622
12.22192
10.77775
9.166956
7.721632
6.713072
6.197757
5.985543
5.750383
5.200706
4.219758
2.865852
1.330048
-0.1960731
-1.597751
-2.839868
-3.959259
-5.006778
-5.992013
-6.935795
-7.871586
-8.853471
-9.971375
-11.26466
-12.69586
-14.17919
-15.61643
-17.00674
-18.46124
-20.18752
-22.30579
-24.74413
-27.15417
-28.96018
-29.58252
-28.60764
-25.97717
-21.9319
-16.94115
-11.50044
-6.037572
-0.8821445
3.761054
7.68587
10.73391
12.77634
13.80046
13.89341
13.3092
12.40485
11.55755
11.07328
11.09111
11.60507
12.43117
13.35569
14.18021
14.79429
15.18226
15.34057
15.2931
15.01251
14.53394
13.92157
13.28769
12.71439
12.19458
11.64791
10.92103
9.942248
8.722311
7.378988
6.041449
4.762694
3.533639
2.279257
0.9778833
-0.346858
-1.584112
-2.66946
-3.614661
-4.53336
-5.594782
-6.910987
-8.485808
-10.18398
-11.84751
-13.34181
-14.66491
-15.92626
-17.32207
-19.04468
-21.17139
-23.6579
-26.28395
-28.71828
-30.55161
-31.35456
-30.76372
-28.56216
-24.76716
-19.63379
-13.67155
-7.508478
-1.760035
3.122808
6.923666
9.658846
11.50852
12.68171
13.36151
13.65931
13.64154
13.39961
13.08461
12.88527
12.98021
13.44058
14.22258
15.17498
16.09833
16.84179
17.32067
17.49697
17.37631
16.95014
16.20855
15.18253
13.95325
12.68095
11.55561
10.71636
10.19093
9.896496
9.665152
9.327581
8.746017
7.879705
6.75267
5.460827
4.126553
2.847172
1.681328
0.6098175
-0.4580936
-1.665619
-3.12104
-4.885187
-6.881218
-8.951826
-10.92917
-12.68615
-14.21992
-15.60651
-16.95992
-18.40486
-20.04656
-21.92934
-24.04983
-26.32063
-28.51035
-30.23372
-31.03172
-30.43413
-28.16249
-24.24405
-19.04258
-13.16553
-7.305573
-2.002491
2.461519
6.071625
8.967987
11.26924
12.99954
14.11035
14.58275
14.53018
14.23312
14.01139
14.10884
14.56703
15.23404
15.89945
16.39218
16.66766
16.77056
16.76064
16.6506
16.40623
16.0097
15.47618
14.86601
14.21675
13.50942
12.67933
11.67441
10.52052
9.315826
8.200901
7.250683
6.475271
5.795271
5.123034
4.434633
3.741175
3.037634
2.287914
1.408869
0.2969856
-1.06105
-2.586872
-4.138618
-5.573112
-6.865854
-8.09881
-9.418505
-10.96145
-12.77115
-14.78875
-16.88719
-18.96186
-20.97354
-22.97289
-25.03927
-27.17514
-29.21677
-30.80594
-31.45403
-30.71422
-28.33912
-24.39835
-19.27272
-13.52601
-7.738264
-2.352669
2.377249
6.355656
9.551043
11.92466
13.45274
14.13696
14.07795
13.52036
12.79955
12.25463
12.13144
12.51607
13.31357
14.30097
15.19783
15.79229
15.97845
15.81595
15.46315
15.10682
14.83818
14.64735
14.40336
13.96624
13.26649
12.34341
11.35336
10.47311
9.834431
9.433552
9.143082
8.759266
8.103157
7.090099
5.78299
4.342438
2.946686
1.708912
0.6156425
-0.4024773
-1.412552
-2.448006
-3.508522
-4.606274
-5.796143
-7.152515
-8.707859
-10.39344
-12.06063
-13.55786
-14.87484
-16.1491
-17.64141
-19.56601
-21.97799
-24.67397
-27.23623
-29.111
-29.77368
-28.85637
-26.21807
-22.02837
-16.69153
-10.8252
-5.076824
0.05476379
4.330143
7.737446
10.40965
12.46196
13.90181
14.67393
14.77384
14.355
13.72462
13.27145
13.25913
13.74745
14.58634
15.48345
16.19836
16.63538
16.81829
16.82876
16.71978
16.48016
16.04427
15.38193
14.50465
13.51402
12.5645
11.78449
11.23935
10.86465
10.50347
9.982964
9.190037
8.145222
6.987057
5.881584
4.919546
4.084736
3.259747
2.324366
1.22616
-0.01108742
-1.311445
-2.581211
-3.776428
-4.881535
-5.922029
-6.930847
-7.946939
-9.001593
-10.11395
-11.27984
-12.4603
-13.61837
-14.74599
-15.89408
-17.15482
-18.63848
-20.41231
-22.45769
-24.63571
-26.65983
-28.14988
-28.6737
-27.88397
-25.62053
-21.97907
-17.27642
-11.97962
-6.56904
-1.443312
3.095049
6.840839
9.66818
11.52363
12.43756
12.54141
12.08476
11.38915
10.77525
10.49118
10.66002
11.24753
12.09866
13.03203
13.88019
14.5768
15.1384
15.58465
15.89418
15.97858
15.72495
15.08563
14.13491
13.02987
11.97529
11.08507
10.35401
9.695371
8.99129
8.180967
7.275011
6.368083
5.52701
4.773507
4.052638
3.288125
2.414509
1.434173
0.4070606
-0.5868397
-1.505877
-2.396873
-3.38222
-4.597053
-6.133596
-7.941837
-9.863995
-11.6813
-13.2072
-14.37205
-15.25484
-16.05842
-17.04195
-18.43447
-20.36159
-22.79573
-25.50422
-28.08436
-30.0172
-30.78997
-30.04105
-27.6638
-23.86393
-19.04551
-13.71039
-8.332489
-3.243876
1.355786
5.379858
8.770969
11.46101
13.36781
14.42956
14.6762
14.2635
13.50154
12.73328
12.28471
12.3257
12.84406
13.6803
14.60083
15.42297
16.02975
16.38456
16.4688
16.27067
15.7875
15.06099
14.16842
13.2409
12.38562
11.66563
11.07913
10.5604
10.04956
9.50459
8.901893
8.240819
7.542295
6.793292
5.963225
4.989634
3.809675
2.41877
0.8834033
-0.6547122
-2.023865
-3.10966
-3.92634
-4.632514
-5.45807
-6.597626
-8.091176
-9.828186
-11.59975
-13.22942
-14.65046
-15.94153
-17.27016
-18.7864
-20.61041
-22.76941
-25.21417
-27.7619
-30.09857
-31.78898
-32.33069
-31.32754
-28.58128
-24.25786
-18.79624
-12.82503
-6.945534
-1.616073
2.905936
6.563837
9.393506
11.45341
12.78102
13.43248
13.5101
13.21028
12.81844
12.60077
12.77587
13.36944
14.27506
15.24961
16.0654
16.56452
16.68633
16.48151
16.04239
15.45815
14.80522
14.15647
13.56418
13.05049
12.601
12.13453
11.55446
10.7847
9.814397
8.720803
7.632078
6.667892
5.890347
5.246122
4.625574
3.91357
3.020233
1.933273
0.6937599
-0.6472292
-2.003687
-3.296762
-4.450619
-5.441217
-6.328205
-7.271969
-8.45401
-9.991709
-11.83915
-13.80605
-15.61216
-17.0739
-18.20834
-19.21203
-20.39334
-21.98209
-24.00076
-26.22783
-28.2723
-29.67447
-30.05771
-29.14602
-26.85473
-23.29346
-18.73521
-13.57494
-8.255384
-3.151178
1.454073
5.375639
8.543501
10.90503
12.47641
13.33878
13.67198
13.69554
13.63765
13.65071
13.76687
13.94748
14.12454
14.2529
14.35099
14.46001
14.61108
14.79397
14.96289
15.03395
14.95495
14.67981
14.22038
13.64933
13.05208
12.50725
12.04113
11.61177
11.10568
10.41948
9.493287
8.347922
7.075407
5.755927
4.4545
3.200253
2.030345
0.9822102
0.10077
-0.6341248
-1.332806
-2.156028
-3.279694
-4.767414
-6.554211
-8.475815
-10.32302
-11.96479
-13.39198
-14.67206
-15.90283
-17.15586
-18.44511
-19.78543
-21.20465
-22.74237
-24.35177
-25.84068
-26.85791
-26.95314
-25.72949
-22.99883
-18.86313
-13.69674
-8.033894
-2.389568
2.82728
7.338453
10.98734
13.66959
15.3502
16.07059
15.99619
15.40361
14.62267
13.97805
13.69611
13.84458
14.34501
15.02294
15.66175
16.08693
16.20317
16.00631
15.58044
15.03746
14.50228
14.03374
13.62762
13.21304
12.68717
11.95998
11.00732
9.889778
8.728565
7.649281
6.71583
5.889046
5.053482
4.079565
2.932192
1.668392
0.4294319
-0.6787548
-1.641205
-2.545013
-3.52479
-4.672049
-5.987959
-7.365166
-8.675915
-9.839321
-10.88868
-11.92882
-13.06586
-14.3503
-15.76205
-17.23591
-18.72562
-20.21805
-21.70332
-23.12604
-24.30875
-24.91754
-24.56119
-22.88476
-19.75387
-15.36919
-10.22161
-4.961615
-0.2042961
3.651146
6.475994
8.357018
9.49774
10.06762
10.1836
9.952557
9.505005
9.041805
8.793604
8.951868
9.556957
10.52091
11.61644
12.5838
13.22416
13.47326
13.38231
13.09731
12.74893
12.37299
11.92865
11.30039
10.41874
9.350725
8.259043
7.344284
6.718273
6.282978
5.788628
4.969837
3.71196
2.126228
0.521019
-0.8023758
-1.696316
-2.263203
-2.794899
-3.589199
-4.802429
-6.368111
-8.050938
-9.575474
-10.76286
-11.62924
-12.34412
-13.16338
-14.29793
-15.85605
-17.82627
-20.07509
-22.33835
-24.27336
-25.48911
-25.59652
-24.31442
-21.55651
-17.5093
-12.57979
-7.313255
-2.215408
2.324413
6.083881
8.967937
10.94183
11.99114
12.16158
11.57848
10.52245
9.361385
8.460159
8.072624
8.258198
8.867538
9.604614
10.19342
10.44583
10.33007
9.950611
9.464767
9.017891
8.644753
8.2691
7.770054
7.066181
6.172474
5.179108
4.196861
3.259102
2.312862
1.248112
-0.01232147
-1.445227
-2.930792
-4.312256
-5.484381
-6.446518
-7.314655
-8.243376
-9.370865
-10.75978
-12.4171
-14.29071
-16.29491
-18.28466
-20.03816
-21.27106
-21.64785
-20.89213
-18.84656
-15.53551
-11.18379
-6.166077
-0.9713573
3.925213
8.110479
11.30221
13.37355
14.34529
14.35541
13.62758
12.44526
11.12766
9.989838
9.28149
9.119621
9.459896
10.10832
10.81874
11.39058
11.70855
11.77242
11.61472
11.22166
10.52224
9.441248
7.975391
6.250149
4.480078
2.921139
1.744919
0.9665585
0.4331551
-0.1042042
-0.9123325
-2.156347
-3.831568
-5.760971
-7.639517
-9.192568
-10.31138
-11.10691
-11.8865
-13.03347
-14.81674
-17.26332
-20.13756
-22.9996
-25.34202
-26.72131
-26.8229
-25.49023
-22.74293
-18.74049
-13.76441
-8.211037
-2.548467
2.743831
7.257177
10.72424
13.05415
14.2893
14.62779
14.35333
13.76813
13.17115
12.76981
12.65714
12.83067
13.23764
13.78895
14.43539
15.13859
15.83032
16.41711
16.73848
16.65638
16.09486
15.10688
13.84891
12.4991
11.17299
9.849493
8.438644
6.857685
5.137192
3.440915
2.002961
0.9787483
0.3324409
-0.1863728
-0.9462395
-2.209261
-4.039974
-6.265772
-8.554226
-10.61122
-12.27178
-13.57746
-14.7094
-15.92877
-17.45804
-19.42636
-21.8456
-24.54696
-27.21549
-29.36018
-30.4184
-29.88237
-27.46383
-23.2228
-17.58871
-11.26731
-5.008008
0.5612295
5.132037
8.698946
11.4443
13.56507
15.1473
16.19212
16.70138
16.77708
16.63999
16.56454
16.72912
17.1707
17.76412
18.31904
18.71239
18.91749
19.0016
19.0432
19.07492
19.06701
18.91345
18.51432
17.79459
16.75682
15.4764
14.06815
12.66632
11.3561
10.15889
9.035074
7.92753
6.769657
5.523142
4.170279
2.712374
1.217231
-0.2301284
-1.54002
-2.689374
-3.757599
-4.915737
-6.339612
-8.10341
-10.10653
-12.12339
-13.91051
-15.3467
-16.52765
-17.72079
-19.23898
-21.30923
-23.94128
-26.91333
-29.81477
-32.12111
-33.30822
-32.96754
-30.88873
-27.13805
-22.04252
-16.12745
-9.982522
-4.126118
1.093472
5.538175
9.224174
12.2294
14.62537
16.40838
17.54199
18.02574
17.94816
17.55841
17.16827
17.06656
17.38965
18.06549
18.84067
19.4247
19.61607
19.3873
18.88691
18.31571
17.8242
17.40232
16.90228
16.11387
14.90154
13.29398
11.48838
9.782739
8.428855
7.527059
6.964571
6.495079
5.851983
4.917081
3.746797
2.543691
1.529871
0.799408
0.2475109
-0.3801422
-1.350521
-2.812679
-4.713196
-6.847223
-8.976761
-10.92844
-12.64428
-14.15165
-15.5207
-16.81117
-18.10177
-19.47648
-21.03807
-22.84019
-24.81302
-26.70437
-28.07191
-28.42249
-27.34542
-24.6961
-20.6485
-15.64901
-10.2732
-5.064728
-0.3962536
3.596088
6.944614
9.774391
12.15033
14.02607
15.26204
15.7674
15.59561
14.99079
14.32859
13.95536
14.03646
14.49162
15.04491
15.38367
15.36211
15.03587
14.63276
14.36317
14.30402
14.3197
14.16304
13.60942
12.60122
11.27819
9.892952
8.688557
7.74028
6.953388
6.103901
5.008644
3.609936
2.027817
0.4952888
-0.7916908
-1.738544
-2.412678
-2.973026
-3.605251
-4.432682
-5.505539
-6.813499
-8.3032
-9.934444
-11.65664
-13.43391
-15.2248
-16.99812
-18.7566
-20.53149
-22.34901
-24.17237
-25.84265
-27.02993
-27.31049
-26.282
-23.72442
-19.72659
-14.68123
-9.1782
-3.829636
0.8961792
4.77137
7.737595
9.81839
11.06107
11.54123
11.40223
10.87275
10.23808
9.740433
9.54245
9.669395
10.04361
10.57412
11.17103
11.79332
12.40088
12.94932
13.37394
13.60824
13.60253
13.30788
12.7167
11.81124
10.62473
9.228188
7.764946
6.379349
5.185509
4.194931
3.320435
2.454216
1.495018
0.4384384
-0.6604004
-1.745712
-2.813232
-3.897285
-5.045143
-6.273003
-7.547661
-8.846878
-10.14751
-11.48178
-12.88651
-14.37027
-15.93505
-17.57084
-19.28925
-21.07037
-22.81161
-24.20866
-24.79011
-24.05964
-21.70107
-17.76679
-12.68039
-7.120377
-1.749138
2.96286
6.805382
9.772217
11.92091
13.273
13.83141
13.65092
12.89996
11.87218
10.88709
10.2038
9.937798
10.07391
10.49841
11.06227
11.64689
12.13873
12.42685
12.4296
12.09274
11.44086
10.58257
9.650208
8.751579
7.916107
7.0979
6.225143
5.247955
4.161079
3.023735
1.911148
0.9104385
0.08059692
-0.5564575
-1.076843
-1.60038
-2.278702
-3.217239
-4.446716
-5.877792
-7.365089
-8.786354
-10.06986
-11.26278
-12.45377
-13.73837
-15.20643
-16.91721
-18.86911
-20.95859
-22.91251
-24.30506
-24.62696
-23.4571
-20.66176
-16.48433
-11.45905
-6.238914
-1.385017
2.744873
5.978905
8.29435
9.701836
10.24246
9.967445
9.020226
7.641304
6.148392
4.870514
4.060555
3.823936
4.098755
4.712952
5.43605
6.098358
6.601822
6.955124
7.184952
7.267639
7.119492
6.610123
5.666977
4.354584
2.855942
1.411285
0.1985779
-0.7472076
-1.534714
-2.323669
-3.236771
-4.289978
-5.40004
-6.461151
-7.413925
-8.256958
-9.042435
-9.813217
-10.58099
-11.34682
-12.1559
-13.11371
-14.37802
-16.07662
-18.18135
-20.44405
-22.40909
-23.50449
-23.25272
-21.39119
-17.97149
-13.34275
-8.038155
-2.633095
2.391899
6.702469
10.10988
12.54232
14.01101
14.56589
14.32422
13.48978
12.35296
11.22421
10.37245
9.928825
9.854477
9.987503
10.12144
10.09729
9.863419
9.478523
8.997368
8.425812
7.663887
6.564896
4.993279
2.942184
0.5932007
-1.738602
-3.694733
-5.027557
-5.682137
-5.829216
-5.776825
-5.854927
-6.277191
-7.057747
-8.062767
-9.077538
-9.936386
-10.59594
-11.15683
-11.84506
-12.90261
-14.53497
-16.83524
-19.74626
-23.0801
-26.47307
-29.44558
-31.44731
-31.99173
-30.77859
-27.82832
-23.4864
-18.33062
-12.98394
-7.953827
-3.532478
0.1871796
3.183868
5.458176
6.99559
7.829933
8.114517
8.141045
8.242554
8.675186
9.521523
10.65641
11.86468
12.92155
13.69026
14.15164
14.34014
14.30936
14.07323
13.62951
12.96297
12.07389
10.97963
9.725655
8.375584
7.002876
5.671543
4.426155
3.265408
2.150826
1.033554
-0.1581459
-1.467484
-2.913692
-4.494205
-6.191601
-8.015385
-9.996101
-12.19436
-14.64738
-17.33971
-20.11782
-22.66723
-24.53227
-25.21601
-24.35238
-21.80895
-17.77313
-12.67281
-7.066088
-1.503814
3.558993
7.818815
11.11128
13.38869
14.71028
15.19761
15.01441
14.34167
13.39291
12.38768
11.55674
11.11459
11.18757
11.77864
12.72944
13.77223
14.61839
15.07439
15.06152
14.60671
13.80403
12.74929
11.52561
10.1868
8.794804
7.395023
5.995668
4.548727
2.961502
1.166451
-0.8195267
-2.878029
-4.844154
-6.601147
-8.147263
-9.602642
-11.14788
-12.93825
-15.03963
-17.41214
-19.90888
-22.29855
-24.25012
-25.39392
-25.34827
-23.84251
-20.79741
-16.39885
-11.05413
-5.309734
0.3000641
5.310768
9.392128
12.38592
14.26266
15.12905
15.16451
14.60903
13.69579
12.65363
11.71482
11.09718
10.96537
11.38236
12.29816
13.48405
14.64036
15.47584
15.80255
15.60278
14.98486
14.08219
12.96722
11.65695
10.10577
8.336769
6.482285
4.72316
3.210724
1.923286
0.683136
-0.7734909
-2.590851
-4.706993
-6.867149
-8.770477
-10.26391
-11.43027
-12.56853
-14.01555
-16.00433
-18.54487
-21.44352
-24.30772
-26.63668
-27.89874
-27.61039
-25.50075
-21.59574
-16.24596
-10.04807
-3.682343
2.270889
7.381653
11.39792
14.1962
15.74142
16.12088
15.59276
14.56294
13.51782
12.87131
12.83357
13.38202
14.30702
15.35358
16.30916
17.0611
17.55914
17.77528
17.66553
17.17378
16.27159
14.97751
13.38074
11.60304
9.790009
8.049622
6.463394
5.091858
3.950363
3.018997
2.20314
1.36438
0.3630066
-0.8796387
-2.381775
-4.075378
-5.827591
-7.516525
-9.04248
-10.39507
-11.65887
-13.0065
-14.64769
-16.75705
-19.35524
-22.21629
-24.88055
-26.72833
-27.17183
-25.84567
-22.69896
-18.01656
-12.29163
-6.098358
0.0256958
5.638138
10.42628
14.19211
16.83701
18.36353
18.84241
18.44211
17.41269
16.07234
14.75314
13.79242
13.43054
13.77536
14.76398
16.1593
17.65724
18.98029
19.93584
20.43106
20.46217
20.05424
19.24106
18.07274
16.61211
14.97107
13.29079
11.68921
10.20775
8.791946
7.339218
5.776154
4.124405
2.501312
1.063538
-0.08558655
-0.9722137
-1.709076
-2.458923
-3.364807
-4.49115
-5.819107
-7.316498
-8.94429
-10.71294
-12.65768
-14.80832
-17.17487
-19.75706
-22.51556
-25.33055
-27.96095
-29.98848
-30.91917
-30.27538
-27.77792
-23.46831
-17.74896
-11.26942
-4.749115
1.225739
6.339462
10.50258
13.80281
16.32977
18.11435
19.12512
19.34258
18.87215
17.98378
17.08961
16.58743
16.73021
17.52205
18.72208
19.96207
20.92043
21.43044
21.49538
21.24042
20.79225
20.21527
19.52054
18.67709
17.70163
16.65149
15.59721
14.57793
13.60558
12.6591
11.71248
10.76305
9.799606
8.793518
7.683533
6.416122
4.965652
3.40007
1.834793
0.4122162
-0.7583466
-1.652557
-2.366135
-3.086823
-4.037155
-5.381958
-7.14212
-9.186691
-11.27626
-13.18732
-14.83321
-16.31665
-17.88965
-19.82492
-22.28381
-25.22255
-28.38562
-31.3026
-33.41518
-34.16702
-33.1207
-30.09541
-25.25533
-19.1172
-12.40051
-5.845093
-0.001083374
4.857956
8.694839
11.63222
13.82515
15.40059
16.46733
17.15823
17.62309
18.01831
18.46877
19.04439
19.74829
20.5311
21.3308
22.07059
22.67647
23.09659
23.29483
23.26753
23.04871
22.69325
22.22816
21.67319
21.02148
20.25754
19.38957
18.43602
17.41287
16.32297
15.17456
13.9882
12.82854
11.76797
10.84108
10.01627
9.19664
8.277771
7.195587
5.977692
4.710114
3.502853
2.377213
1.272873
0.05328369
-1.411926
-3.147003
-5.100464
-7.146011
-9.152115
-11.01959
-12.72699
-14.30251
-15.82143
-17.37787
-19.05786
-20.93488
-23.07622
-25.49712
-28.11842
-30.69136
-32.78057
-33.83185
-33.34168
-31.04073
-27.02892
-21.75188
-15.85583
-9.981155
-4.579887
0.1214828
4.059364
7.230835
9.634666
11.25846
12.13972
12.41077
12.30083
12.10155
12.07643
12.39333
13.07927
14.01342
14.98445
15.78136
16.2823
16.48976
16.49518
16.40301
16.26089
16.02757
15.62814
15.01759
14.24642
13.42227
12.63025
11.90537
11.20181
10.4432
9.59082
8.668541
7.742802
6.874718
6.063309
5.226891
4.271534
3.133781
1.825527
0.4351425
-0.9024963
-2.076992
-3.036648
-3.813606
-4.536629
-5.356911
-6.402843
-7.707113
-9.205421
-10.75165
-12.21689
-13.52042
-14.66275
-15.70785
-16.72882
-17.80808
-19.04674
-20.54497
-22.37135
-24.46109
-26.51908
-28.00137
-28.2848
-26.87902
-23.6792
-19.04626
-13.67828
-8.34166
-3.617964
0.2209568
3.169308
5.312556
6.721518
7.417254
7.459335
7.02879
6.433695
6.000465
5.967224
6.367468
7.038658
7.752792
8.338991
8.761669
9.11121
9.508181
10.02207
10.59869
11.09976
11.35257
11.22794
10.69727
9.828522
8.750195
7.629765
6.59824
5.744316
5.098705
4.626541
4.282692
3.982151
3.663269
3.24897
2.707458
2.007339
1.164795
0.2140388
-0.7708015
-1.713928
-2.571251
-3.309601
-3.973648
-4.640152
-5.406006
-6.324593
-7.401283
-8.608208
-9.877602
-11.15216
-12.37673
-13.49505
-14.45316
-15.24586
-15.91946
-16.60199
-17.49821
-18.75815
-20.42503
-22.31695
-24.0455
-25.09709
-24.98332
-23.40023
-20.32175
-16.02908
-11.04276
-5.987343
-1.420242
2.293625
5.085747
7.079369
8.468582
9.392464
9.864517
9.850746
9.396065
8.725594
8.18
8.077927
8.531151
9.38623
10.30979
11.01218
11.40027
11.60038
11.83359
12.21341
12.63164
12.83177
12.55702
11.72379
10.45945
9.028526
7.68663
6.549362
5.607361
4.778275
4.019318
3.372894
2.896866
2.628174
2.506866
2.406418
2.172073
1.715775
1.02565
0.1552734
-0.8132935
-1.815125
-2.796341
-3.721237
-4.567429
-5.331955
-6.053421
-6.794876
-7.642288
-8.643097
-9.792984
-11.03014
-12.23965
-13.32671
-14.24846
-15.02791
-15.75078
-16.54616
-17.52342
-18.7552
-20.20525
-21.72879
-23.00412
-23.61749
-23.18529
-21.45758
-18.49918
-14.64977
-10.45724
-6.451797
-2.998627
-0.2174225
1.963348
3.660278
4.9729
5.898544
6.422226
6.564941
6.421265
6.143524
5.864334
5.666901
5.572678
5.569855
5.643295
5.79866
6.058685
6.417664
6.84465
7.250336
7.525162
7.556717
7.295624
6.738434
5.9767
5.14859
4.370743
3.699249
3.081055
2.403702
1.540283
0.4488831
-0.7839508
-1.975739
-2.91333
-3.507919
-3.840836
-4.177109
-4.802917
-5.891464
-7.394852
-9.092148
-10.69206
-12.00964
-13.03099
-13.88081
-14.7668
-15.83119
-17.1472
-18.70282
-20.4019
-22.06084
-23.40488
-24.06001
-23.66264
-21.99908
-19.09113
-15.22011
-10.84325
-6.397827
-2.235809
1.450912
4.555893
7.006516
8.720718
9.658936
9.862503
9.509033
8.916199
8.388687
8.157227
8.289551
8.711212
9.248901
9.764526
10.17024
10.46089
10.68759
10.85768
10.92036
10.79097
10.42453
9.83287
9.126816
8.403992
7.72435
7.056091
6.298264
5.349197
4.197861
2.891647
1.538727
0.2106628
-1.067139
-2.301773
-3.499451
-4.657761
-5.764069
-6.833572
-7.916336
-9.085846
-10.39319
-11.84833
-13.41469
-15.04247
-16.75056
-18.63129
-20.76691
-23.17737
-25.6991
-27.95941
-29.47734
-29.79399
-28.57811
-25.78951
-21.62852
-16.51663
-10.96394
-5.447464
-0.3256378
4.143875
7.756805
10.38562
11.97475
12.59605
12.479
11.98584
11.50717
11.37424
11.72865
12.48241
13.38715
14.16458
14.61758
14.73965
14.6517
14.52342
14.46922
14.46341
14.35706
13.97681
13.17827
11.97542
10.52855
9.07959
7.848923
6.952316
6.356232
5.90863
5.406815
4.657288
3.528336
2.029556
0.2702942
-1.580185
-3.330292
-4.877609
-6.238876
-7.51857
-8.862404
-10.3486
-11.92518
-13.46344
-14.84636
-16.0423
-17.17254
-18.47215
-20.15664
-22.35467
-24.99604
-27.81151
-30.36637
-32.16277
-32.73051
-31.73387
-29.06084
-24.8399
-19.45092
-13.43139
-7.368881
-1.748001
3.091576
7.017181
10.02411
12.20711
13.69193
14.58518
15.01123
15.11475
15.08781
15.11977
15.34383
15.77997
16.33041
16.83537
17.162
17.27772
17.27681
17.31779
17.51654
17.8725
18.24309
18.36681
18.03313
17.16306
15.88448
14.49738
13.31251
12.51079
12.04333
11.67108
11.10448
10.17394
8.885002
7.421425
6.006596
4.787437
3.786148
2.896099
1.956978
0.8568649
-0.4541588
-1.967136
-3.659828
-5.531906
-7.570576
-9.730694
-11.91077
-13.99645
-15.88488
-17.5701
-19.17399
-20.9148
-23.01881
-25.59429
-28.49886
-31.32864
-33.50231
-34.3936
-33.53777
-30.74266
-26.14224
-20.17136
-13.43275
-6.575779
-0.1623764
5.409084
9.926769
13.31794
15.59381
16.86635
17.29541
17.12795
16.68652
16.2983
16.19932
16.47821
17.07502
17.82141
18.56501
19.2166
19.75237
20.18666
20.4829
20.57252
20.39386
19.9278
19.21661
18.36036
17.45464
16.56452
15.7121
14.90313
14.14047
13.41996
12.72757
12.01859
11.22001
10.26042
9.097153
7.752272
6.271132
4.762385
3.30502
1.930119
0.6103954
-0.7200317
-2.144597
-3.686815
-5.30479
-6.918294
-8.432886
-9.824821
-11.14603
-12.51947
-14.10068
-15.99833
-18.20218
-20.60546
-23.07412
-25.52673
-27.97873
-30.42014
-32.72306
-34.50872
-35.19737
-34.18666
-31.12268
-26.11273
-19.71916
-12.80045
-6.161427
-0.3420146
4.47157
8.367328
11.4819
13.88336
15.54081
16.45581
16.69515
16.47796
16.1031
15.83934
15.85035
16.14642
16.64909
17.26564
17.93398
18.60985
19.23525
19.71915
19.94421
19.84191
19.38633
18.63419
17.65503
16.52974
15.30799
14.05651
12.84483
11.74315
10.80228
10.00462
9.27021
8.501503
7.606281
6.547916
5.333626
4.001301
2.594666
1.158432
-0.2940807
-1.792795
-3.377335
-5.082697
-6.888142
-8.695833
-10.36393
-11.77929
-12.93657
-13.95486
-15.0379
-16.36699
-18.07502
-20.21004
-22.72269
-25.48773
-28.24504
-30.57853
-31.93234
-31.72669
-29.57608
-25.45361
-19.76779
-13.23254
-6.674042
-0.7556438
4.142975
7.944065
10.74238
12.6776
13.83247
14.25575
14.03346
13.33865
12.49234
11.84036
11.64092
11.96722
12.68071
13.52989
14.28918
14.85616
15.21885
15.45014
15.56925
15.50583
15.1601
14.44917
13.36714
12.0318
10.60869
9.235558
8.002234
6.91539
5.908176
4.923027
3.894787
2.778854
1.545719
0.1932259
-1.297779
-2.919559
-4.642479
-6.400593
-8.079823
-9.585354
-10.89493
-12.06699
-13.23425
-14.57586
-16.22446
-18.26346
-20.71013
-23.44925
-26.21831
-28.61038
-30.08534
-30.16157
-28.52629
-25.17023
-20.40325
-14.76726
-8.839123
-3.106976
2.073925
6.488037
9.971046
12.40446
13.73962
14.06923
13.63582
12.80418
11.97053
11.41541
11.28954
11.57511
12.15924
12.90673
13.7275
14.53059
15.25484
15.81023
16.10081
16.05799
15.66051
14.92427
13.89277
12.60791
11.12701
9.52924
7.955658
6.522461
5.312931
4.336563
3.48719
2.645931
1.712841
0.6576042
-0.4828796
-1.649872
-2.906441
-4.361694
-6.11248
-8.177643
-10.41719
-12.60111
-14.54061
-16.16762
-17.60056
-19.10756
-20.94225
-23.25372
-26.01244
-28.94209
-31.57597
-33.35377
-33.72823
-32.29923
-28.98678
-24.05066
-18.05685
-11.71426
-5.643005
-0.2259674
4.37838
8.182747
11.22221
13.48102
14.92026
15.5451
15.44508
14.8768
14.16102
13.60743
13.43741
13.70506
14.33224
15.12543
15.89106
16.47379
16.80277
16.87262
16.69869
16.32343
15.74596
14.99566
14.10919
13.13712
12.1407
11.14053
10.13508
9.068779
7.917397
6.659691
5.335861
4.027534
2.810112
1.763138
0.882225
0.1036148
-0.7192154
-1.730942
-3.054878
-4.725395
-6.676949
-8.773705
-10.83538
-12.74808
-14.43874
-15.99862
-17.63488
-19.61892
-22.15428
-25.17666
-28.29637
-30.80597
-31.92619
-31.05285
-27.99683
-23.06243
-16.89924
-10.26425
-3.796562
2.091087
7.170753
11.3165
14.4157
16.37892
17.23
17.17121
16.58571
15.90878
15.50252
15.55235
16.01913
16.71587
17.42437
18.00051
18.41837
18.71863
18.93723
19.05037
18.98351
18.64661
18.00233
17.08647
16.00082
14.86691
13.78967
12.78499
11.82411
10.83183
9.753311
8.610428
7.474838
6.468765
5.659897
5.056702
4.538834
3.899933
2.906937
1.389801
-0.6779938
-3.175781
-5.866959
-8.49556
-10.84677
-12.83771
-14.49756
-15.92886
-17.31792
-18.86832
-20.79164
-23.18036
-25.91359
-28.57582
-30.5244
-31.04623
-29.61476
-26.10449
-20.84367
-14.49484
-7.833969
-1.541519
3.935593
8.375732
11.70245
13.92468
15.09297
15.34448
14.90567
14.08781
13.24178
12.69153
12.64114
13.12662
14.03593
15.13991
16.19411
17.02249
17.52948
17.71339
17.5999
17.2157
16.57506
15.71384
14.70107
13.64876
12.66068
11.79536
11.04199
10.31624
9.522476
8.606171
7.564926
6.442947
5.281616
4.11496
2.920403
1.673141
0.3687134
-0.9843445
-2.352158
-3.737602
-5.190674
-6.787399
-8.570732
-10.51244
-12.4996
-14.38847
-16.10735
-17.72375
-19.46117
-21.5667
-24.14597
-27.00371
-29.6367
-31.37119
-31.57283
-29.88773
-26.3399
-21.31348
-15.38959
-9.180656
-3.176582
2.290802
7.007889
10.81292
13.57381
15.2237
15.80921
15.54485
14.79269
13.97086
13.44477
13.41287
13.88745
14.72665
15.72328
16.70241
17.56145
18.23853
18.6897
18.84774
18.6395
18.01523
16.98824
15.6589
14.18567
12.74594
11.47348
10.40611
9.514595
8.717583
7.951157
7.165764
6.351585
5.504707
4.616982
3.658409
2.591202
1.401199
0.08836365
-1.328239
-2.844521
-4.482285
-6.264397
-8.186554
-10.2027
-12.19852
-14.07284
-15.77973
-17.35928
-18.91581
-20.59457
-22.50275
-24.65615
-26.96363
-29.18291
-30.92876
-31.74493
-31.18198
-28.9371
-24.99811
-19.65921
-13.46477
-7.067429
-1.056267
4.157646
8.358192
11.49135
13.60194
14.77731
15.16074
14.96291
14.44015
13.87927
13.53102
13.53419
13.90085
14.51339
15.20657
15.84875
16.37628
16.8077
17.18438
17.52123
17.74869
17.75192
17.42876
16.72987
15.71053
14.48085
13.18163
11.93061
10.78754
9.77565
8.889526
8.107719
7.421196
6.799713
6.205933
5.57888
4.843895
3.925171
2.776489
1.413422
-0.06549835
-1.531464
-2.867538
-4.062752
-5.200531
-6.454319
-7.979942
-9.832092
-11.90744
-13.95039
-15.68799
-16.92883
-17.68207
-18.16854
-18.76468
-19.85242
-21.64056
-24.09546
-26.83835
-29.28772
-30.7864
-30.74134
-28.8293
-25.07041
-19.80713
-13.63303
-7.251415
-1.276146
3.882511
8.071655
11.33396
13.77172
15.43386
16.29653
16.33029
15.59676
14.34946
13.0173
12.07476
11.83671
12.34539
13.35928
14.49427
15.39112
15.84232
15.84127
15.49583
14.96469
14.37386
13.78404
13.21658
12.66822
12.12854
11.59606
11.05005
10.47443
9.822123
9.044857
8.10014
6.975958
5.720694
4.453196
3.301352
2.387735
1.725552
1.200333
0.6338501
-0.1908817
-1.400859
-3.023162
-4.950116
-7.020053
-9.040757
-10.8664
-12.45576
-13.86861
-15.24531
-16.74045
-18.46165
-20.44007
-22.6253
-24.91102
-27.13513
-29.07274
-30.4374
-30.88195
-30.06737
-27.75488
-23.92425
-18.82463
-12.94652
-6.88506
-1.17156
3.813719
7.883732
10.99298
13.14578
14.3696
14.72924
14.38793
13.65084
12.90034
12.5041
12.67962
13.42488
14.53419
15.71387
16.69895
17.31662
17.51182
17.29022
16.71203
15.84609
14.74822
13.46986
12.04887
10.50791
8.883966
7.258924
5.723541
4.377449
3.282305
2.407887
1.663687
0.9231834
0.0858326
-0.9122658
-2.057922
-3.323408
-4.664961
-6.031338
-7.405415
-8.810013
-10.29962
-11.93801
-13.78076
-15.82903
-18.07334
-20.45263
-22.83669
-24.98815
-26.52606
-27.00293
-25.99026
-23.2766
-18.97833
-13.54371
-7.631588
-1.880196
3.239876
7.515308
10.90566
13.43739
15.09678
15.82382
15.61337
14.60432
13.12127
11.62599
10.57018
10.22738
10.60599
11.45993
12.42367
13.16782
13.50094
13.42019
13.01361
12.3668
11.50986
10.40308
9.016602
7.365776
5.578171
3.81041
2.235641
0.9388885
-0.1044464
-1.019997
-1.988419
-3.154877
-4.596283
-6.230782
-7.923508
-9.507347
-10.912
-12.19285
-13.51473
-15.06734
-16.95854
-19.186
-21.5917
-23.92263
-25.83507
-26.93689
-26.84882
-25.27632
-22.11919
-17.56218
-12.087
-6.341278
-0.9885864
3.504692
6.931335
9.326797
10.86167
11.69685
11.9529
11.70486
11.07123
10.22722
9.409126
8.844254
8.650589
8.832993
9.244255
9.688744
10.00057
10.09569
9.971817
9.672844
9.237572
8.638321
7.806854
6.66246
5.193634
3.527115
1.887939
0.5090027
-0.46772
-1.088638
-1.594193
-2.283272
-3.407272
-5.02095
-6.972984
-9.008667
-10.90704
-12.60624
-14.21828
-15.98016
-18.08984
-20.59746
-23.368
-26.08418
-28.35099
-29.76643
-29.98656
-28.78001
-26.06708
-21.96516
-16.77334
-10.97208
-5.092026
0.3524704
4.969162
8.528427
10.93404
12.19406
12.41351
11.83232
10.77663
9.653404
8.804146
8.444397
8.565811
9.021912
9.610497
10.17075
10.64807
11.05462
11.41585
11.713
11.89159
11.86868
11.56707
10.94832
10.01482
8.793274
7.375954
5.885506
4.465668
3.208565
2.104568
1.035179
-0.1655655
-1.607216
-3.306755
-5.132118
-6.885483
-8.392006
-9.601242
-10.61452
-11.65874
-12.97439
-14.73992
-16.9921
-19.59763
-22.27567
-24.63787
-26.21942
-26.55834
-25.31119
-22.31226
-17.72601
-11.9855
-5.749794
0.2470932
5.406593
9.375153
12.05368
13.53304
14.00488
13.69503
12.84102
11.7054
10.55848
9.647156
9.156708
9.142105
9.53907
10.18249
10.87419
11.42251
11.70832
11.6935
11.41045
10.95294
10.4092
9.809029
9.11499
8.211868
7.022766
5.56749
3.972115
2.444962
1.124565
0.002616882
-1.060005
-2.269402
-3.733665
-5.426521
-7.182434
-8.812325
-10.21903
-11.45494
-12.68581
-14.08231
-15.73693
-17.62663
-19.62656
-21.56297
-23.27576
-24.59265
-25.30906
-25.18674
-23.95438
-21.40514
-17.51779
-12.51716
-6.855347
-1.122818
4.141754
8.537033
11.8746
14.13215
15.39456
15.80053
15.51443
14.73375
13.66956
12.55036
11.57824
10.88435
10.53059
10.52654
10.83268
11.35571
11.97062
12.49593
12.76118
12.65379
12.15683
11.33435
10.28207
9.084618
7.792084
6.439651
5.05397
3.687363
2.384621
1.167297
0.01207733
-1.138504
-2.346565
-3.653877
-5.047424
-6.511353
-8.004036
-9.519348
-11.07266
-12.68209
-14.41881
-16.37743
-18.64365
-21.26373
-24.15929
-27.03002
-29.43946
-30.85835
-30.79438
-28.96638
-25.40969
-20.44028
-14.6029
-8.511215
-2.696289
2.422615
6.57819
9.61179
11.47233
12.22374
12.07854
11.36761
10.47615
9.771812
9.487926
9.676727
10.26213
11.07841
11.95245
12.76537
13.42661
13.9003
14.15825
14.16434
13.87598
13.26205
12.32078
11.11079
9.74202
8.324821
6.965618
5.716267
4.603901
3.64819
2.856161
2.206429
1.615526
0.9540043
0.09442902
-1.047117
-2.477388
-4.121542
-5.877888
-7.689562
-9.555359
-11.53022
-13.68183
-16.06948
-18.6866
-21.45969
-24.24287
-26.74515
-28.56173
-29.19465
-28.19624
-25.31277
-20.64332
-14.62231
-7.946677
-1.385109
4.429625
9.118385
12.5891
14.91772
16.24845
16.71459
16.44745
15.63314
14.53787
13.51235
12.85378
12.7627
13.24157
14.14044
15.18975
16.14866
16.83817
17.17076
17.16236
16.85355
16.30088
15.5475
14.62008
13.54107
12.31785
10.9773
9.520902
7.980237
6.374884
4.738152
3.091866
1.462174
-0.1562223
-1.767062
-3.387753
-5.03153
-6.697376
-8.355059
-9.940325
-11.40848
-12.79236
-14.18719
-15.78428
-17.80409
-20.3704
-23.42816
-26.65193
-29.48294
-31.24208
-31.33689
-29.46104
-25.67479
-20.39588
-14.25241
-7.895939
-1.862453
3.455185
7.856926
11.29237
13.77097
15.38068
16.2473
16.5239
16.38166
15.99116
15.52827
15.1637
15.06096
15.31271
15.90932
16.73764
17.63187
18.39098
18.84255
18.85313
18.3527
17.35629
15.98323
14.43804
12.96271
11.70824
10.7025
9.812836
8.854595
7.679871
6.256298
4.661232
3.01305
1.421062
-0.0789299
-1.498947
-2.901756
-4.355896
-5.93359
-7.647923
-9.452644
-11.25468
-12.9325
-14.441
-15.84667
-17.30804
-19.03675
-21.17055
-23.68534
-26.38787
-28.93549
-30.87393
-31.73173
-31.11282
-28.77441
-24.74558
-19.29152
-12.90564
-6.144295
0.4572525
6.487686
11.62797
15.66963
18.5295
20.2441
21.03472
21.23427
21.1736
21.03913
20.88428
20.63043
20.24535
19.82139
19.5294
19.52513
19.83149
20.2991
20.68949
20.7804
20.47501
19.79739
18.8271
17.62246
16.19688
14.57719
12.85838
11.16837
9.652817
8.381256
7.321495
6.402496
5.533516
4.666679
3.804115
2.951775
2.104004
1.208817
0.1879501
-1.021629
-2.450356
-4.100044
-5.929413
-7.87336
-9.852356
-11.78419
-13.62341
-15.38225
-17.16041
-19.10911
-21.39053
-24.05627
-26.95599
-29.70853
-31.74854
-32.47817
-31.45267
-28.52064
-23.84813
-17.90383
-11.27558
-4.544746
1.774025
7.291245
11.74283
14.95787
16.90835
17.70184
17.57001
16.83915
15.83869
14.84068
14.04295
13.55016
13.4135
13.62541
14.13708
14.84355
15.57185
16.1253
16.33808
16.13795
15.56969
14.7731
13.91171
13.10358
12.39484
11.74438
11.08315
10.36575
9.582104
8.74231
7.83411
6.816338
5.640789
4.302074
2.848907
1.379822
0.007888794
-1.212711
-2.331257
-3.459099
-4.726852
-6.225327
-7.963417
-9.8643
-11.81153
-13.70376
-15.46458
-17.11995
-18.745
-20.45631
-22.3543
-24.43325
-26.52384
-28.29987
-29.34642
-29.23258
-27.69656
-24.6734
-20.31918
-14.99162
-9.164402
-3.335251
2.078285
6.765747
10.61161
13.60117
15.76152
17.0773
17.5003
17.02279
15.79399
14.16844
12.60075
11.55748
11.26779
11.69592
12.61507
13.71108
14.7548
15.61323
16.23716
16.59002
16.60022
16.17789
15.28888
13.98376
12.38123
10.68417
9.084454
7.71254
6.61171
5.709164
4.878773
4.007118
3.062012
2.043339
1.000786
-0.06432343
-1.191475
-2.442841
-3.855175
-5.394863
-6.977139
-8.507828
-9.950197
-11.31663
-12.67754
-14.11165
-15.71213
-17.54359
-19.63322
-21.90978
-24.15079
-25.96009
-26.82981
-26.28069
-23.98935
-19.96539
-14.55204
-8.367548
-2.128401
3.532932
8.215252
11.7628
14.22795
15.74736
16.46732
16.49262
15.94182
14.95604
13.75193
12.54771
11.52838
10.76388
10.20743
9.741339
9.232933
8.582793
7.751921
6.78349
5.764484
4.828677
4.09085
3.608955
3.344585
3.160892
2.872033
2.314283
1.44714
0.3957319
-0.5845809
-1.256932
-1.517211
-1.469333
-1.398706
-1.610305
-2.283474
-3.386909
-4.726851
-6.071375
-7.294009
-8.394198
-9.466372
-10.59743
-11.79064
-12.99806
-14.20488
-15.46819
-16.91281
-18.62683
-20.51655
-22.25062
-23.29917
-23.10929
-21.29835
-17.83663
-13.06291
-7.57418
-2.052764
2.965356
7.135247
10.35879
12.65689
14.10079
14.7737
14.77146
14.25677
13.49006
12.77085
12.36483
12.41396
12.88675
13.61149
14.34927
14.87536
15.04118
14.80309
14.21196
13.38142
12.45434
11.53245
10.66791
9.846527
9.016945
8.123918
7.152542
6.127217
5.089892
4.057306
2.99768
1.87434
0.6740551
-0.5925579
-1.885899
-3.179859
-4.49696
-5.891129
-7.417652
-9.084919
-10.78548
-12.36977
-13.72121
-14.83004
-15.86758
-17.13371
-18.93627
-21.40277
-24.33751
-27.20554
-29.2667
-29.83487
-28.52831
-25.38574
-20.81426
-15.41155
-9.736794
-4.186237
1.008047
5.668568
9.610279
12.6366
14.58495
15.42478
15.31811
14.57982
13.57158
12.61847
11.9133
11.52815
11.45777
11.66566
12.10233
12.69844
13.3158
13.75903
13.86969
13.55873
12.87986
12.00723
11.14888
10.40184
9.733799
8.99688
8.014297
6.734825
5.242619
3.740582
2.424416
1.400127
0.6151237
-0.0844574
-0.8823738
-1.907322
-3.15728
-4.574036
-6.060852
-7.541454
-9.005165
-10.48264
-11.98501
-13.47509
-14.9308
-16.35818
-17.86945
-19.6441
-21.83536
-24.40899
-27.05703
-29.19956
-30.1452
-29.34282
-26.56026
-21.98144
-16.15521
-9.783989
-3.55891
1.988632
6.551132
10.02819
12.4523
13.92192
14.58315
14.56731
14.03894
13.187
12.24214
11.43986
10.9842
10.96709
11.3648
12.02133
12.71113
13.23416
13.45826
13.36353
13.01283
12.51208
11.94726
11.34729
10.67285
9.85931
8.884914
7.807171
6.713741
5.70734
4.781097
3.861248
2.842361
1.670067
0.3851089
-0.9070892
-2.097324
-3.186111
-4.283447
-5.542843
-7.067177
-8.831711
-10.66645
-12.36141
-13.78879
-14.9865
-16.13618
-17.46974
-19.18635
-21.35523
-23.89828
-26.55706
-28.96127
-30.66668
-31.22282
-30.28733
-27.7213
-23.65589
-18.47951
-12.73848
-6.991283
-1.674404
2.932373
6.703136
9.571232
11.52401
12.58869
12.86592
12.58843
12.05368
11.58688
11.43582
11.71652
12.38547
13.28088
14.21203
15.02211
15.61752
15.96632
16.08081
15.94802
15.5406
14.80545
13.68738
12.22453
10.55401
8.892246
7.455559
6.357319
5.566444
4.896805
4.108791
3.030163
1.651043
0.1243401
-1.337753
-2.605186
-3.670654
-4.684044
-5.812851
-7.165749
-8.717781
-10.35132
-11.92117
-13.34951
-14.64819
-15.88785
-17.17888
-18.61197
-20.28258
-22.24133
-24.44777
-26.71629
-28.67363
-29.80774
-29.60566
-27.74567
-24.16854
-19.18587
-13.32429
-7.2045
-1.343662
3.911325
8.381248
11.97465
14.61995
16.27054
16.94466
16.78321
16.07298
15.1629
14.40492
14.03067
14.11164
14.54187
15.14105
15.72705
16.1689
16.41315
16.42425
16.21003
15.75194
15.06178
14.20313
13.27838
12.40919
11.66912
11.05849
10.45657
9.692533
8.604755
7.129081
5.340092
3.427804
1.617043
0.09988403
-1.037519
-1.847351
-2.475718
-3.13225
-4.045022
-5.362842
-7.122241
-9.226544
-11.46637
-13.64632
-15.62385
-17.39427
-19.09574
-20.9365
-23.12029
-25.72885
-28.66298
-31.60085
-34.04163
-35.43003
-35.29021
-33.35698
-29.66583
-24.53058
-18.44763
-12.01252
-5.769622
-0.153659
4.558918
8.208527
10.72221
12.12028
12.51583
12.1211
11.26296
10.32269
9.673342
9.570723
10.11365
11.19713
12.59326
14.00457
15.17591
15.99141
16.4493
16.65846
16.72005
16.66735
16.45414
15.98297
15.18216
14.07189
12.77391
11.46751
10.27382
9.17626
8.029606
6.64868
4.907558
2.82225
0.5405083
-1.702488
-3.699673
-5.347721
-6.687733
-7.881439
-9.123722
-10.5598
-12.23544
-14.12078
-16.16397
-18.36462
-20.76385
-23.36735
-26.01839
-28.32154
-29.69214
-29.5332
-27.47047
-23.52848
-18.12569
-11.91349
-5.583302
0.3577843
5.600536
9.983212
13.38681
15.7069
16.84916
16.82853
15.84743
14.28334
12.61234
11.2863
10.59536
10.59845
11.15739
12.00185
12.86851
13.58095
14.08765
14.39194
14.49473
14.33009
13.78474
12.74352
11.21207
9.346291
7.414383
5.677666
4.283157
3.186104
2.195847
1.08963
-0.280777
-1.919037
-3.695511
-5.429253
-6.997421
-8.387428
-9.684174
-11.02876
-12.53956
-14.30003
-16.37793
-18.81592
-21.58248
-24.50204
-27.17536
-28.98627
-29.26656
-27.50409
-23.58142
-17.86249
-11.10382
-4.180847
2.180008
7.534859
11.75426
14.87461
16.9673
18.10517
18.38132
17.98064
17.22252
16.44759
15.96114
15.90015
16.21542
16.73643
17.2488
17.60268
17.72344
17.64118
17.39886
17.04199
16.59206
16.06277
15.45126
14.73077
13.82919
12.65578
11.12979
9.259964
7.177155
5.118652
3.339127
1.970093
0.952774
0.05805969
-1.006851
-2.409637
-4.139984
-6.007385
-7.771545
-9.310486
-10.68727
-12.11864
-13.82808
-15.95709
-18.50195
-21.33435
-24.25189
-26.97057
-29.14597
-30.33371
-30.07683
-28.0331
-24.13751
-18.67386
-12.2359
-5.539902
0.7599792
6.204437
10.58139
13.86308
16.13812
17.521
18.1647
18.24734
17.97002
17.54857
17.19727
17.08723
17.31262
17.86818
18.64886
19.48708
20.21223
20.67142
20.82576
20.6969
20.34409
19.80814
19.07404
18.10889
16.91295
15.54276
14.11278
12.75
11.53752
10.4631
9.436188
8.340744
7.094864
5.671829
4.131973
2.542252
1.003891
-0.4325409
-1.785049
-3.112595
-4.514008
-6.076813
-7.825134
-9.665955
-11.44556
-13.01602
-14.30907
-15.42427
-16.57336
-18.02908
-19.97742
-22.43835
-25.22519
-27.95755
-30.17577
-31.42322
-31.34563
-29.69647
-26.42624
-21.68626
-15.81232
-9.301941
-2.722031
3.420029
8.778244
13.13304
16.44241
18.72398
20.04727
20.51598
20.26897
19.56023
18.69891
18.02553
17.75693
17.95433
18.48274
19.10587
19.58919
19.77945
19.67741
19.36758
18.98901
18.63707
18.31377
17.94525
17.4263
16.69418
15.74194
14.65707
13.54054
12.46233
11.43924
10.4507
9.469376
8.477951
7.515045
6.603027
5.750504
4.911087
4.016068
3.01236
1.870941
0.6112671
-0.7543488
-2.204529
-3.729309
-5.277428
-6.796341
-8.226105
-9.530128
-10.73721
-11.91071
-13.13502
-14.46535
-15.91298
-17.46709
-19.13493
-20.95847
-22.9903
-25.22816
-27.54449
-29.64801
-31.11139
-31.4613
-30.30293
-27.47336
-23.10074
-17.59317
-11.54572
-5.554436
-0.08786011
4.577271
8.348083
11.2355
13.28613
14.56274
15.15224
15.18974
14.90176
14.55055
14.3679
14.4958
14.92829
15.56012
16.2255
16.79951
17.19997
17.39799
17.40808
17.24477
16.91576
16.44002
15.84991
15.18659
14.4827
13.73827
12.92836
12.00364
10.95918
9.840515
8.729866
7.734398
6.902275
6.239799
5.681511
5.117897
4.412834
3.468864
2.241295
0.7903519
-0.7452774
-2.199211
-3.437035
-4.41404
-5.194275
-5.922737
-6.731567
-7.684746
-8.745895
-9.842697
-10.9184
-12.00813
-13.21356
-14.65091
-16.40534
-18.46888
-20.76612
-23.13562
-25.36188
-27.16209
-28.20562
-28.17006
-26.81653
-24.09371
-20.13843
-15.28346
-9.949406
-4.568596
0.472641
4.865704
8.363853
10.81274
12.17347
12.5616
12.23174
11.50991
10.74671
10.20006
10.00367
10.16846
10.59361
11.11742
11.59976
11.94544
12.1365
12.22162
12.23974
12.19835
12.03363
11.68072
11.08313
10.26756
9.296237
8.249821
7.198672
6.172196
5.199962
4.323114
3.592783
3.012116
2.536962
2.042106
1.409678
0.5886197
-0.3737428
-1.393706
-2.416584
-3.485065
-4.699876
-6.122337
-7.722854
-9.361153
-10.87949
-12.20437
-13.40358
-14.67813
-16.25037
-18.21794
-20.49146
-22.79171
-24.72393
-25.88148
-25.93284
-24.69757
-22.16884
-18.51866
-14.05227
-9.173908
-4.295824
0.2019558
4.037174
7.036564
9.119467
10.30976
10.71359
10.52666
9.994761
9.387962
8.945404
8.799248
8.977665
9.370775
9.833036
10.22417
10.48309
10.61702
10.69469
10.74375
10.73141
10.57824
10.15891
9.432972
8.423893
7.255287
6.111942
5.169189
4.533562
4.193398
4.049488
3.913342
3.618332
3.037804
2.141506
0.9850769
-0.3277512
-1.708447
-3.101879
-4.491405
-5.903992
-7.32457
-8.731178
-10.0574
-11.22844
-12.21666
-13.05954
-13.88438
-14.89925
-16.30808
-18.18771
-20.4944
-22.99379
-25.31987
-27.09356
-27.97083
-27.73248
-26.30148
-23.73377
-20.21572
-16.02935
-11.51875
-7.021683
-2.824783
0.884613
4.029152
6.599213
8.60704
10.06145
10.96749
11.36486
11.37482
11.18295
11.03092
11.13373
11.60463
12.41986
13.39597
14.27689
14.81319
14.86874
14.44943
13.71139
12.87399
12.10207
11.45787
10.85433
10.15628
9.231041
8.085587
6.865166
5.761169
4.920311
4.342491
3.928055
3.499336
2.948769
2.246452
1.436935
0.5860214
-0.2725525
-1.118271
-1.969315
-2.830589
-3.719055
-4.663284
-5.704308
-6.904305
-8.274574
-9.809387
-11.41554
-12.98612
-14.41657
-15.65688
-16.72969
-17.76241
-18.93422
-20.40302
-22.20834
-24.14008
-25.76273
-26.48284
-25.78268
-23.40913
-19.5039
-14.5592
-9.222755
-4.1213
0.326973
3.954735
6.778931
8.872986
10.2912
11.03718
11.13541
10.72717
10.06886
9.518288
9.384567
9.779236
10.5836
11.51223
12.26643
12.71522
12.91781
13.03594
13.2197
13.44057
13.52402
13.27035
12.60694
11.63613
10.59049
9.693214
9.030373
8.551727
8.146393
7.70929
7.199379
6.616089
5.950012
5.16964
4.257095
3.218391
2.113152
1.021362
-0.01152802
-0.9657974
-1.871147
-2.743187
-3.600906
-4.475876
-5.434052
-6.588989
-8.042786
-9.802284
-11.74879
-13.69299
-15.43885
-16.91045
-18.18389
-19.45148
-20.91585
-22.67229
-24.675
-26.68741
-28.34947
-29.24085
-28.97639
-27.31096
-24.20856
-19.86859
-14.70079
-9.243225
-4.008926
0.6053391
4.379936
7.273468
9.326881
10.64332
11.32354
11.4984
11.32149
11.00018
10.76852
10.81091
11.22198
11.95995
12.84241
13.61273
14.06154
14.06642
13.69188
13.11252
12.54906
12.17446
12.01839
11.98569
11.86995
11.49229
10.76314
9.706604
8.471642
7.250916
6.225487
5.477165
4.9869
4.620682
4.237717
3.713852
3.002205
2.144058
1.189224
0.1606369
-0.98349
-2.322876
-3.908844
-5.687675
-7.51387
-9.180473
-10.54641
-11.61443
-12.51777
-13.45016
-14.54104
-15.82202
-17.22947
-18.71333
-20.28474
-21.99044
-23.86044
-25.76276
-27.37843
-28.27497
-28.04414
-26.45403
-23.52378
-19.48272
-14.68179
-9.517059
-4.360794
0.4346237
4.557434
7.796959
10.07609
11.48103
12.20565
12.45851
12.38111
12.05267
11.54877
11.00497
10.64747
10.71487
11.31486
12.34637
13.54465
14.55859
15.16193
15.27845
15.00103
14.50045
13.91928
13.34151
12.76681
12.15563
11.4304
10.54877
9.498844
8.338642
7.177437
6.125717
5.226028
4.423416
3.598278
2.640961
1.535172
0.3881302
-0.644413
-1.448925
-2.044765
-2.569714
-3.231022
-4.19281
-5.536068
-7.221828
-9.151054
-11.17201
-13.09422
-14.75956
-16.01974
-16.85104
-17.35885
-17.78648
-18.44815
-19.59722
-21.29336
-23.31734
-25.2236
-26.45589
-26.53347
-25.17868
-22.37579
-18.35203
-13.48365
-8.248234
-3.080864
1.639648
5.649334
8.805626
11.08645
12.56366
13.37739
13.71348
13.75261
13.6946
13.67958
13.85165
14.25494
14.85254
15.53154
16.13851
16.56058
16.73176
16.66272
16.41093
16.05322
15.65796
15.25426
14.82991
14.33785
13.74579
13.04727
12.28352
11.50121
10.72362
9.921862
9.023581
7.977869
6.790928
5.551027
4.399305
3.462795
2.783516
2.289021
1.820179
1.196898
0.3017254
-0.9177189
-2.413881
-4.089041
-5.840733
-7.578112
-9.277481
-10.92234
-12.52373
-14.05861
-15.49774
-16.85457
-18.20887
-19.74174
-21.64429
-24.0015
-26.65438
-29.16902
-30.92686
-31.29985
-29.86827
-26.57015
-21.72084
-15.89786
-9.764071
-3.888182
1.371329
5.841564
9.513816
12.41624
14.53429
15.82262
16.26309
15.95174
15.14428
14.21262
13.53481
13.35955
13.72085
14.46825
15.35579
16.1717
16.81029
17.26421
17.55708
17.6877
17.59331
17.18314
16.41074
15.31181
14.00311
12.65058
11.42558
10.44461
9.747887
9.278263
8.916498
8.512362
7.951846
7.153137
6.109601
4.867917
3.518413
2.163003
0.8945942
-0.2335277
-1.232133
-2.180363
-3.192062
-4.373629
-5.786133
-7.384773
-9.067333
-10.69693
-12.16704
-13.44242
-14.54619
-15.54589
-16.55889
-17.74135
-19.26792
-21.26926
-23.74454
-26.45207
-28.9049
-30.44702
-30.45502
-28.55625
-24.75584
-19.46227
-13.30937
-7.012761
-1.156322
3.88162
7.911589
10.90297
12.87378
13.88913
14.06343
13.59997
12.79247
11.98152
11.46399
11.42629
11.87738
12.70277
13.72536
14.76112
15.67319
16.39128
16.86823
17.06949
16.96405
16.54954
15.85423
14.95057
13.9172
12.86026
11.83095
10.86658
9.971037
9.143852
8.359621
7.603323
6.836779
6.005474
5.048655
3.926834
2.670843
1.38365
0.205616
-0.7870693
-1.622715
-2.487413
-3.610666
-5.140242
-7.058617
-9.159554
-11.16949
-12.89139
-14.30834
-15.56123
-16.89231
-18.5265
-20.56295
-22.96034
-25.52925
-27.98154
-29.93258
-30.94372
-30.58647
-28.56588
-24.83592
-19.62876
-13.45275
-6.947126
-0.7430763
4.674517
9.02207
12.23074
14.34171
15.47487
15.77587
15.42952
14.69062
13.86332
13.25517
13.07808
13.37986
14.02831
14.77849
15.38179
15.68335
15.69294
15.53553
15.37943
15.29704
15.24847
15.09033
14.67383
13.95485
13.01763
12.02674
11.14066
10.44975
9.901363
9.367649
8.688076
7.739834
6.485516
4.965397
3.306187
1.670631
0.2167473
-0.9657211
-1.901302
-2.71587
-3.615469
-4.771662
-6.262995
-8.020298
-9.898926
-11.72894
-13.43122
-15.00076
-16.47734
-17.92505
-19.39999
-20.99288
-22.78745
-24.7972
-26.87734
-28.66077
-29.61543
-29.20838
-27.13316
-23.44721
-18.54717
-13.01653
-7.392612
-2.029266
2.899055
7.283825
10.9671
13.70745
15.30556
15.73199
15.22094
14.23634
13.31881
12.85814
12.98786
13.57241
14.29789
14.87486
15.15321
15.15675
14.99946
14.82465
14.66468
14.4855
14.19107
13.72668
13.09164
12.34426
11.57306
10.8211
10.10967
9.391205
8.62608
7.796028
6.904331
5.987305
5.073807
4.16288
3.24091
2.269505
1.209564
0.01664734
-1.339439
-2.88876
-4.597294
-6.399395
-8.19651
-9.893883
-11.43941
-12.86391
-14.26683
-15.72192
-17.3037
-19.0241
-20.8912
-22.9057
-25.00869
-26.99153
-28.45193
-28.88323
-27.78655
-24.95279
-20.51018
-14.93795
-8.886829
-2.99173
2.282509
6.66346
10.05354
12.46885
13.95521
14.63197
14.65089
14.2283
13.60107
13.02056
12.69436
12.74973
13.19875
13.9322
14.75956
15.46194
15.87841
15.93574
15.67584
15.18417
14.55502
13.85496
13.07956
12.23945
11.34359
10.41132
9.489407
8.603493
7.75227
6.907803
6.054928
5.16748
4.250446
3.299873
2.31065
1.246784
0.07805634
-1.213535
-2.613037
-4.072971
-5.566689
-7.100292
-8.681152
-10.32779
-11.99404
-13.62548
-15.17613
-16.67607
-18.23612
-19.9965
-21.99311
-24.07795
-25.88806
-26.89028
-26.59699
-24.70396
-21.23612
-16.5332
-11.15086
-5.678165
-0.5721283
3.873333
7.570648
10.50397
12.68203
14.07442
14.67723
14.53757
13.83446
12.86471
11.96024
11.4348
11.42908
11.92008
12.72903
13.63144
14.43723
15.0404
15.41224
15.52376
15.34312
14.80384
13.88111
12.59075
11.03691
9.36512
7.71785
6.212521
4.910088
3.833652
2.965679
2.25387
1.617834
0.9608574
0.2148991
-0.6615887
-1.643616
-2.683172
-3.728827
-4.756605
-5.768888
-6.794115
-7.863773
-9.007214
-10.27947
-11.71111
-13.36542
-15.28101
-17.47434
-19.88591
-22.3654
-24.60947
-26.22321
-26.7942
-26.00962
-23.77875
-20.23875
-15.71695
-10.62043
-5.363895
-0.317627
4.174128
7.838383
10.46118
11.96292
12.42683
12.09689
11.32097
10.45723
9.815464
9.570658
9.804497
10.47524
11.45104
12.55527
13.58659
14.36827
14.76834
14.7189
14.20329
13.29178
12.11241
10.80176
9.492958
8.261427
7.14994
6.181782
5.345951
4.617966
3.932016
3.18795
2.278902
1.159781
-0.1461945
-1.527443
-2.848408
-4.036482
-5.128155
-6.241104
-7.513422
-9.025345
-10.72265
-12.48198
-14.15766
-15.70366
-17.20432
-18.8084
-20.6486
-22.70061
-24.74471
-26.37814
-27.12689
-26.59231
-24.59072
-21.17367
-16.64242
-11.45154
-6.085793
-0.972084
3.576941
7.376785
10.34664
12.48187
13.81945
14.4257
14.39335
13.90912
13.19884
12.54162
12.16972
12.2177
12.72092
13.58529
14.6391
15.65963
16.44846
16.84875
16.80124
16.32372
15.49148
14.41123
13.18308
11.88816
10.60423
9.409124
8.368269
7.542295
6.958551
6.557178
6.240131
5.878174
5.370623
4.696503
3.881012
2.959972
1.956928
0.87677
-0.3000679
-1.565588
-2.903896
-4.275259
-5.633623
-6.984221
-8.346346
-9.779832
-11.32465
-12.99693
-14.75069
-16.53368
-18.27074
-19.94695
-21.62176
-23.38337
-25.26505
-27.1494
-28.71393
-29.47166
-28.95977
-26.88699
-23.26662
-18.46164
-13.00744
-7.43852
-2.164044
2.604949
6.781418
10.2653
12.93391
14.64447
15.34522
15.16825
14.45679
13.64555
13.15082
13.19402
13.7363
14.54938
15.3529
15.9287
16.20588
16.22764
16.079
15.82025
15.47348
14.98726
14.32112
13.48199
12.53013
11.57967
10.73423
10.05664
9.541155
9.129962
8.749802
8.342834
7.90521
7.432055
6.911344
6.274412
5.438269
4.330181
2.967219
1.479166
0.02081823
-1.270293
-2.385779
-3.424286
-4.559589
-5.914734
-7.50866
-9.24029
-10.95482
-12.50593
-13.83261
-14.96572
-16.00274
-17.07868
-18.34142
-19.90397
-21.83266
-24.04614
-26.29913
-28.16527
-29.09082
-28.58204
-26.35421
-22.4917
-17.3904
-11.67209
-5.955932
-0.6993078
3.864422
7.695402
10.7975
13.15809
14.71076
15.40762
15.32494
14.73187
14.02705
13.59854
13.69798
14.30673
15.20141
16.08291
16.70331
16.95833
16.87663
16.53552
15.98236
15.25261
14.359
13.36541
12.37038
11.43774
10.54634
9.603666
8.493733
7.142722
5.634034
4.160676
2.931393
2.062085
1.516168
1.129769
0.7037582
0.09049702
-0.7658987
-1.814628
-2.98069
-4.210525
-5.482278
-6.796928
-8.144382
-9.512426
-10.86542
-12.19019
-13.49072
-14.77421
-16.03223
-17.23228
-18.31659
-19.27596
-20.16001
-21.07683
-22.1073
-23.20551
-24.17147
-24.6462
-24.22382
-22.60757
-19.72536
-15.73861
-10.99157
-5.900995
-0.833889
3.89514
8.043268
11.40972
13.83505
15.24316
15.68191
15.32956
14.47284
13.43522
12.5186
11.93312
11.76967
12.02212
12.5827
13.32358
14.1026
14.78921
15.2729
15.44712
15.24823
14.64643
13.69239
12.50984
11.28332
10.18122
9.279285
8.533272
7.81249
6.985241
5.992968
4.877495
3.739155
2.664768
1.677185
0.7197018
-0.2557182
-1.263191
-2.26758
-3.229908
-4.160433
-5.129028
-6.227058
-7.489368
-8.875271
-10.2534
-11.48373
-12.51499
-13.43924
-14.45765
-15.7846
-17.54617
-19.67332
-21.92359
-23.90867
-25.20227
-25.42537
-24.32381
-21.80926
-17.99426
-13.18744
-7.870728
-2.597866
2.148769
6.051983
9.010582
11.08725
12.40007
13.04724
13.08604
12.5753
11.68664
10.72095
10.0332
9.889133
10.34341
11.22736
12.21603
13.00852
13.44943
13.56017
13.4815
13.36422
13.25574
13.07872
12.69751
11.96992
10.86421
9.483189
8.033447
6.720036
5.683502
4.942177
4.374756
3.804935
3.058006
2.084076
0.9605255
-0.1373711
-1.068588
-1.823174
-2.552616
-3.500549
-4.875107
-6.696453
-8.748295
-10.69452
-12.23504
-13.26299
-13.93805
-14.57106
-15.49844
-16.92082
-18.85315
-21.14591
-23.56706
-25.83285
-27.61625
-28.56997
-28.35988
-26.74509
-23.67259
-19.31374
-14.0769
-8.485893
-3.061951
1.801929
5.896957
9.19104
11.72584
13.55791
14.69701
15.10621
14.81861
14.02395
13.07374
12.3837
12.2867
12.8722
13.94483
15.13509
16.0587
16.50989
16.48848
16.16708
15.72467
15.24737
14.7009
13.98281
13.01825
11.81722
10.49131
9.20327
8.080143
7.183498
6.461285
5.79224
5.026058
4.044239
2.826885
1.476955
0.1418762
-1.028248
-1.966705
-2.759861
-3.614159
-4.759651
-6.306633
-8.184082
-10.15154
-11.92133
-13.29443
-14.27284
-15.05353
-15.95124
-17.27317
-19.17149
-21.59565
-24.30128
-26.88217
-28.83003
-29.64517
-28.93655
-26.52055
-22.51825
-17.34674
-11.58655
-5.865837
-0.6435165
3.820892
7.477707
10.36003
12.52593
13.99786
14.77061
14.89012
14.49537
13.80679
13.07773
12.52229
12.24199
12.24789
12.48377
12.86455
13.32198
13.79979
14.24696
14.59218
14.73637
14.58185
14.06149
13.16743
11.98811
10.67985
9.416306
8.360229
7.565987
6.987793
6.486717
5.888657
5.067108
3.959869
2.629578
1.195946
-0.1811676
-1.383553
-2.382927
-3.25325
-4.139175
-5.195107
-6.495399
-7.997757
-9.584076
-11.1077
-12.47936
-13.72156
-14.90955
-16.16181
-17.56347
-19.16521
-20.95916
-22.92096
-24.96045
-26.88912
-28.36733
-28.97019
-28.27995
-26.01754
-22.20699
-17.15796
-11.42655
-5.628494
-0.3081512
4.179939
7.719048
10.32463
12.08424
13.07183
13.35671
13.0442
12.32343
11.46718
10.78629
10.52389
10.7531
11.38173
12.20187
12.98714
13.59284
13.97192
14.18296
14.28645
14.31424
14.20916
13.86729
13.18901
12.1613
10.87252
9.508125
8.259766
7.196892
6.264679
5.289574
4.136391
2.783043
1.339432
-0.01139069
-1.134285
-2.018585
-2.798637
-3.660416
-4.73719
-6.05574
-7.528313
-9.006905
-10.37458
-11.58531
-12.70861
-13.89841
-15.34479
-17.19963
-19.5388
-22.27451
-25.14303
-27.70549
-29.437
-29.84303
-28.5808
-25.57725
-21.06269
-15.51986
-9.554695
-3.755409
1.445274
5.794609
9.189186
11.61504
13.09187
13.66924
13.46158
12.66667
11.57362
10.50524
9.773148
9.543823
9.835609
10.50954
11.33092
12.07926
12.60174
12.84707
12.83087
12.59245
12.16502
11.55569
10.74969
9.715355
8.464134
7.027378
5.499313
4.002415
2.645107
1.497429
0.5381355
-0.2883987
-1.075191
-1.885494
-2.76812
-3.751247
-4.880554
-6.199818
-7.722851
-9.419971
-11.1724
-12.86047
-14.40612
-15.83682
-17.28527
-18.939
-20.94035
-23.27266
-25.72073
-27.82543
-29.00936
-28.74866
-26.72735
-22.96571
-17.84593
-11.96953
-5.985798
-0.4155617
4.400352
8.314693
11.2621
13.22583
14.22667
14.35202
13.80953
12.92131
12.05594
11.52444
11.48568
11.94124
12.77178
13.77177
14.76113
15.63211
16.31194
16.77852
16.99422
16.88921
16.38404
15.46182
14.16337
12.62243
11.05989
9.699438
8.689503
8.051847
7.680748
7.372738
6.918713
6.154545
5.003401
3.504456
1.752302
-0.1194324
-1.956488
-3.65579
-5.161407
-6.494373
-7.749332
-9.039011
-10.46979
-12.08879
-13.84684
-15.64583
-17.42175
-19.19389
-21.10191
-23.3417
-26.02747
-29.05194
-32.04691
-34.41266
-35.46922
-34.68752
-31.84078
-27.10616
-21.00932
-14.27109
-7.593174
-1.515525
3.69136
7.953032
11.30198
13.79689
15.48102
16.40886
16.73851
16.69943
16.57834
16.61658
16.90049
17.37199
17.89495
18.34888
18.7015
19.00696
19.32822
19.66531
19.9451
20.0133
19.72747
19.05563
18.08224
16.97183
15.91617
15.02357
14.29102
13.64296
12.95028
12.14926
11.23432
10.24232
9.213883
8.164715
7.097679
6.019259
4.971916
3.997343
3.128368
2.310834
1.449071
0.3969345
-0.9655657
-2.681345
-4.70952
-6.948978
-9.281551
-11.58383
-13.76211
-15.76492
-17.57613
-19.24065
-20.87881
-22.6336
-24.62366
-26.92013
-29.46545
-32.05125
-34.30576
-35.70505
-35.69196
-33.84289
-30.03271
-24.51312
-17.89604
-10.93191
-4.304955
1.539766
6.460272
10.50479
13.73929
16.16523
17.72303
18.37656
18.22197
17.50228
16.59151
15.87182
15.59881
15.84839
16.51276
17.38375
18.23034
18.91035
19.36961
19.61902
19.70145
19.6138
19.28345
18.60336
17.5331
16.13802
14.6408
13.32211
12.38127
11.83465
11.49981
11.09034
10.38366
9.333065
8.039864
6.702629
5.456585
4.311588
3.200104
2.033028
0.7914772
-0.4869385
-1.743687
-2.966831
-4.213799
-5.559772
-7.065495
-8.728039
-10.4801
-12.20403
-13.80067
-15.21032
-16.4423
-17.57622
-18.75347
-20.18161
-22.02849
-24.34834
-26.97303
-29.47795
-31.26416
-31.7014
-30.32133
-26.96482
-21.86691
-15.60595
-8.920456
-2.533405
3.037739
7.525703
10.90194
13.27532
14.80911
15.63068
15.86175
15.63512
15.13606
14.60506
14.28324
14.32135
14.71354
15.34262
16.0183
16.60611
17.0653
17.43409
17.74912
17.94641
17.89296
17.43
16.52149
15.28457
13.94523
12.73923
11.77541
10.99268
10.2333
9.362976
8.344501
7.25901
6.200485
5.215454
4.262836
3.253265
2.14397
0.9763145
-0.1172867
-1.013203
-1.688286
-2.2589
-2.950016
-3.998447
-5.525661
-7.493942
-9.68388
-11.79723
-13.59243
-14.99558
-16.1232
-17.2365
-18.62629
-20.47829
-22.82268
-25.45596
-28.00726
-29.96548
-30.78638
-30.01424
-27.41434
-23.08011
-17.4348
-11.14883
-4.939819
0.6147423
5.210979
8.791683
11.45485
13.31414
14.42499
14.84317
14.6611
14.08107
13.37071
12.7793
12.46059
12.42047
12.55894
12.74303
12.90153
13.05162
13.26596
13.59351
14.00896
14.38884
14.55356
14.35318
13.70792
12.64916
11.31003
9.853539
8.437405
7.158161
6.033747
5.040873
4.097179
3.129675
2.081266
0.9635429
-0.1445179
-1.152239
-2.004089
-2.758148
-3.549715
-4.55982
-5.892998
-7.507364
-9.212234
-10.7393
-11.90597
-12.69206
-13.3163
-14.08323
-15.27495
-17.01385
-19.24024
-21.75002
-24.22885
-26.28539
-27.47243
-27.3606
-25.61082
-22.14366
-17.19296
-11.29393
-5.155176
0.575901
5.451435
9.286774
12.06903
13.86607
14.70688
14.63318
13.7593
12.35711
10.83905
9.641863
9.076931
9.223539
9.919027
10.85048
11.72803
12.42171
12.9572
13.46164
13.98648
14.46454
14.69598
14.47737
13.71208
12.47395
10.96246
9.368067
7.804777
6.273283
4.750566
3.245907
1.826572
0.5916882
-0.4093227
-1.237293
-2.027697
-2.934135
-4.04944
-5.382359
-6.873644
-8.455997
-10.06194
-11.66645
-13.26152
-14.86677
-16.4971
-18.21995
-20.08676
-22.14876
-24.41469
-26.75374
-28.90681
-30.45829
-30.92512
-29.84197
-26.97684
-22.40365
-16.53432
-10.02588
-3.552576
2.341858
7.353495
11.35524
14.30438
16.15252
16.86298
16.51381
15.36104
13.82806
12.42229
11.52882
11.34346
11.80621
12.70723
13.80198
14.88535
15.79375
16.41234
16.6344
16.38954
15.71063
14.7107
13.59593
12.56248
11.70715
10.98799
10.23736
9.293873
8.065445
6.618015
5.118801
3.768726
2.686626
1.876331
1.181839
0.3906097
-0.6931648
-2.199715
-4.109131
-6.276218
-8.45248
-10.38584
-11.92035
-13.0822
-14.06085
-15.14004
-16.58182
-18.50513
-20.8992
-23.59907
-26.32469
-28.69687
-30.24116
-30.46233
-28.95585
-25.58509
-20.57021
-14.47841
-8.08456
-2.089268
3.034393
7.105354
10.18042
12.39272
13.84927
14.62062
14.77107
14.42914
13.83319
13.26962
12.99063
13.11271
13.60042
14.30104
15.03544
15.6773
16.19092
16.60143
16.93563
17.17617
17.22907
16.99148
16.38231
15.40361
14.13422
12.69968
11.26289
9.948505
8.822178
7.887474
7.056221
6.206985
5.239922
4.108555
2.847042
1.541424
0.259552
-0.9937439
-2.276772
-3.681229
-5.242054
-6.895012
-8.512562
-9.970459
-11.24124
-12.38609
-13.51594
-14.74638
-16.17275
-17.84012
-19.79519
-22.07591
-24.65823
-27.34029
-29.73379
-31.27746
-31.36998
-29.63623
-26.02209
-20.86486
-14.77386
-8.443249
-2.438793
2.860294
7.296707
10.83193
13.45517
15.16274
15.96819
15.98492
15.44664
14.68943
14.07758
13.87674
14.16583
14.81415
15.58466
16.22513
16.62283
16.78453
16.80938
16.78182
16.71292
16.52514
16.13951
15.54126
14.77024
13.87667
12.87719
11.70837
10.31945
8.74926
7.168034
5.790134
4.786835
4.146095
3.685795
3.169029
2.431278
1.493572
0.499588
-0.3917198
-1.134529
-1.856712
-2.797794
-4.162739
-5.968372
-8.057503
-10.13121
-11.92146
-13.30053
-14.3436
-15.29733
-16.43228
-17.9381
-19.882
-22.19054
-24.69169
-27.1448
-29.18858
-30.36612
-30.17288
-28.21461
-24.39345
-18.99078
-12.64642
-6.138618
-0.1523933
4.912285
8.952372
12.04229
14.26685
15.66092
16.22169
16.02243
15.31349
14.45306
13.79722
13.57119
13.76917
14.22364
14.72568
15.14195
15.46852
15.76481
16.06988
16.31463
16.33936
15.97642
15.14425
13.91022
12.4616
11.02248
9.775759
8.797459
8.077412
7.52746
7.040066
6.483606
5.735241
4.708097
3.396679
1.901188
0.4114265
-0.8571339
-1.768574
-2.35013
-2.777115
-3.328295
-4.235458
-5.601309
-7.364935
-9.356647
-11.38035
-13.28568
-15.00728
-16.55861
-18.03666
-19.55809
-21.23439
-23.0767
-24.90675
-26.36226
-26.96362
-26.28261
-24.08655
-20.45582
-15.71106
-10.33881
-4.799787
0.5256643
5.361971
9.497785
12.74315
14.94848
16.02296
16.01989
15.1501
13.75413
12.2332
10.94311
10.13988
9.891817
10.14002
10.69346
11.34213
11.90748
12.29128
12.46743
12.4174
12.13788
11.59201
10.7576
9.663855
8.416862
7.176568
6.078783
5.187572
4.461457
3.785944
3.036352
2.164355
1.208544
0.2724185
-0.5762159
-1.336993
-2.081563
-2.93734
-3.984439
-5.244708
-6.665559
-8.177572
-9.733784
-11.35142
-13.05296
-14.8764
-16.81819
-18.85183
-20.95927
-23.09659
-25.18047
-27.0217
-28.27037
-28.44804
-27.09059
-23.96115
-19.16626
-13.22237
-6.879152
-0.8829999
4.246789
8.314466
11.37135
13.55104
14.93695
15.5503
15.38366
14.55511
13.36148
12.18912
11.41614
11.237
11.62291
12.35089
13.16157
13.84568
14.34854
14.73292
15.06338
15.3258
15.38062
15.04421
14.15191
12.72089
10.94201
9.113882
7.530951
6.328717
5.467333
4.764254
4.024256
3.139389
2.136017
1.128746
0.2148132
-0.5773411
-1.354227
-2.266603
-3.469614
-5.017164
-6.853153
-8.826557
-10.73463
-12.41797
-13.78411
-14.84938
-15.71786
-16.59254
-17.67296
-19.15378
-21.1111
-23.43859
-25.84415
-27.82319
-28.84856
-28.45318
-26.42498
-22.83461
-18.04688
-12.58345
-6.983007
-1.701324
2.946604
6.792887
9.780283
11.90391
13.19119
13.70115
13.57364
13.03717
12.39009
11.93694
11.89224
12.29972
13.02848
13.82889
14.44554
14.73469
14.69156
14.41901
14.07082
13.774
13.57272
13.42808
13.23346
12.86131
12.19408
11.2227
10.04857
8.861799
7.848427
7.057802
6.381899
5.641672
4.666416
3.454199
2.142475
0.9416752
-0.03123283
-0.8129616
-1.610323
-2.672512
-4.167982
-6.103094
-8.290115
-10.45863
-12.3514
-13.8616
-15.04216
-16.07346
-17.17231
-18.4938
-20.1032
-21.97242
-24.00435
-26.05137
-27.87022
-29.11803
-29.33098
-28.09969
-25.18074
-20.65461
-14.95865
-8.787136
-2.870617
2.239576
6.26049
9.189819
11.18741
12.46426
13.18579
13.47779
13.4461
13.22801
13.01403
12.97667
13.24245
13.78466
14.49334
15.17457
15.66904
15.8945
15.86868
15.68608
15.4223
15.0947
14.65353
14.00447
13.1006
11.95512
10.68657
9.447758
8.384235
7.568419
6.938776
6.327003
5.522755
4.348982
2.784166
0.96105
-0.8741875
-2.468197
-3.696934
-4.591
-5.35442
-6.224384
-7.379124
-8.825222
-10.4066
-11.90086
-13.13292
-14.08289
-14.85449
-15.63698
-16.5873
-17.79981
-19.29649
-21.02903
-22.90266
-24.74148
-26.26061
-27.06256
-26.70529
-24.87394
-21.519
-16.90065
-11.52331
-5.970005
-0.715847
3.956215
7.961071
11.2785
13.85101
15.54805
16.26481
16.03918
15.11304
13.89788
12.82715
12.19726
12.07569
12.3293
12.7544
13.1724
13.50703
13.75468
13.94109
14.06336
14.06942
13.88624
13.43776
12.71774
11.76143
10.66007
9.552879
8.549488
7.67812
6.882507
6.043465
5.047745
3.91291
2.74358
1.710587
0.9197845
0.3615646
-0.08124161
-0.5533409
-1.138454
-1.862244
-2.728687
-3.778034
-5.075272
-6.710777
-8.657715
-10.76093
-12.7989
-14.58781
-16.11973
-17.58419
-19.27906
-21.41839
-24.00004
-26.71922
-29.01123
-30.23748
-29.89992
-27.78031
-24.00418
-19.00409
-13.34046
-7.579346
-2.177284
2.572456
6.47649
9.433308
11.44641
12.598
13.07511
13.12341
12.9922
12.83466
12.71598
12.62397
12.57058
12.61129
12.83801
13.30735
13.9603
14.64676
15.1579
15.34734
15.15244
14.63441
13.89059
12.98509
11.95555
10.82115
9.649769
8.549679
7.661402
7.029913
6.589384
6.164955
5.526997
4.553387
3.242828
1.74828
0.3055305
-0.9014797
-1.812759
-2.530342
-3.238247
-4.138313
-5.349487
-6.885834
-8.683609
-10.60115
-12.51182
-14.31123
-15.97063
-17.51924
-19.06369
-20.72103
-22.54765
-24.50214
-26.36381
-27.76954
-28.26733
-27.4682
-25.14215
-21.34864
-16.39505
-10.7869
-5.090719
0.2376881
4.865271
8.630743
11.46485
13.36527
14.31959
14.38815
13.74169
12.6648
11.54082
10.70695
10.3605
10.50987
10.98886
11.57393
12.0946
12.48885
12.74592
12.89193
12.90919
12.74333
12.35319
11.76518
11.02836
10.22549
9.415419
8.602921
7.752371
6.827047
5.80896
4.68644
3.496078
2.28381
1.108673
0.02695274
-0.9460793
-1.829714
-2.713493
-3.701923
-4.88677
-6.237368
-7.670097
-9.048824
-10.30486
-11.46247
-12.61652
-13.88777
-15.38702
-17.18086
-19.26601
-21.55312
-23.84027
-25.79224
-27.01049
-27.08226
-25.71683
-22.84261
-18.6516
-13.55184
-8.065439
-2.681499
2.239942
6.474092
9.873528
12.30799
13.68545
13.99956
13.39248
12.18233
10.82365
9.75958
9.284313
9.467468
10.14785
11.0596
11.95445
12.70712
13.26853
13.67007
13.92003
13.99667
13.85675
13.45728
12.77401
11.84214
10.75206
9.622146
8.566458
7.649767
6.852938
6.077654
5.199667
4.150312
2.952322
1.73945
