1570286243.90483
1570286243.92045
1570286243.93608
1570286243.9517
1570286243.96733
1570286243.98295
1570286243.99858
1570286244.01421
1570286244.02983
1570286244.04546
1570286244.06108
1570286244.07671
1570286244.09233
1570286244.10796
1570286244.12359
1570286244.13921
1570286244.15484
1570286244.17046
1570286244.18609
1570286244.20171
1570286244.21734
1570286244.23297
1570286244.24859
1570286244.26422
1570286244.27984
1570286244.29547
1570286244.31109
1570286244.32672
1570286244.34235
1570286244.35797
1570286244.3736
1570286244.38922
1570286244.40485
1570286244.42047
1570286244.4361
1570286244.45173
1570286244.46735
1570286244.48298
1570286244.4986
1570286244.51423
1570286244.52985
1570286244.54548
1570286244.56111
1570286244.57673
1570286244.59236
1570286244.60798
1570286244.62361
1570286244.63923
1570286244.65486
1570286244.67049
1570286244.68611
1570286244.70174
1570286244.71736
1570286244.73299
1570286244.74861
1570286244.76424
1570286244.77987
1570286244.79549
1570286244.81112
1570286244.82674
1570286244.84237
1570286244.85799
1570286244.87362
1570286244.88925
1570286244.90487
1570286244.9205
1570286244.93612
1570286244.95175
1570286244.96737
1570286244.983
1570286244.99863
1570286245.01425
1570286245.02988
1570286245.0455
1570286245.06113
1570286245.07675
1570286245.09238
1570286245.10801
1570286245.12363
1570286245.13926
1570286245.15488
1570286245.17051
1570286245.18613
1570286245.20176
1570286245.21739
1570286245.23301
1570286245.24864
1570286245.26426
1570286245.27989
1570286245.29551
1570286245.31114
1570286245.32677
1570286245.34239
1570286245.35802
1570286245.37364
1570286245.38927
1570286245.40489
1570286245.42052
1570286245.43615
1570286245.45177
1570286245.4674
1570286245.48302
1570286245.49865
1570286245.51427
1570286245.5299
1570286245.54553
1570286245.56115
1570286245.57678
1570286245.5924
1570286245.60803
1570286245.62365
1570286245.63928
1570286245.65491
1570286245.67053
1570286245.68616
1570286245.70178
1570286245.71741
1570286245.73303
1570286245.74866
1570286245.76429
1570286245.77991
1570286245.79554
1570286245.81116
1570286245.82679
1570286245.84241
1570286245.85804
1570286245.87367
1570286245.88929
1570286245.90492
1570286245.92054
1570286245.93617
1570286245.9518
1570286245.96742
1570286245.98305
1570286245.99867
1570286246.0143
1570286246.02992
1570286246.04555
1570286246.06118
1570286246.0768
1570286246.09243
1570286246.10805
1570286246.12368
1570286246.1393
1570286246.15493
1570286246.17056
1570286246.18618
1570286246.20181
1570286246.21743
1570286246.23306
1570286246.24868
1570286246.26431
1570286246.27994
1570286246.29556
1570286246.31119
1570286246.32681
1570286246.34244
1570286246.35806
1570286246.37369
1570286246.38932
1570286246.40494
1570286246.42057
1570286246.43619
1570286246.45182
1570286246.46744
1570286246.48307
1570286246.4987
1570286246.51432
1570286246.52995
1570286246.54557
1570286246.5612
1570286246.57682
1570286246.59245
1570286246.60808
1570286246.6237
1570286246.63933
1570286246.65495
1570286246.67058
1570286246.6862
1570286246.70183
1570286246.71746
1570286246.73308
1570286246.74871
1570286246.76433
1570286246.77996
1570286246.79558
1570286246.81121
1570286246.82684
1570286246.84246
1570286246.85809
1570286246.87371
1570286246.88934
1570286246.90496
1570286246.92059
1570286246.93622
1570286246.95184
1570286246.96747
1570286246.98309
1570286246.99872
1570286247.01434
1570286247.02997
1570286247.0456
1570286247.06122
1570286247.07685
1570286247.09247
1570286247.1081
1570286247.12372
1570286247.13935
1570286247.15498
1570286247.1706
1570286247.18623
1570286247.20185
1570286247.21748
1570286247.2331
1570286247.24873
1570286247.26436
1570286247.27998
1570286247.29561
1570286247.31123
1570286247.32686
1570286247.34248
1570286247.35811
1570286247.37374
1570286247.38936
1570286247.40499
1570286247.42061
1570286247.43624
1570286247.45186
1570286247.46749
1570286247.48312
1570286247.49874
1570286247.51437
1570286247.52999
1570286247.54562
1570286247.56124
1570286247.57687
1570286247.5925
1570286247.60812
1570286247.62375
1570286247.63937
1570286247.655
1570286247.67062
1570286247.68625
1570286247.70188
1570286247.7175
1570286247.73313
1570286247.74875
1570286247.76438
1570286247.78
1570286247.79563
1570286247.81126
1570286247.82688
1570286247.84251
1570286247.85813
1570286247.87376
1570286247.88938
1570286247.90501
1570286247.92064
1570286247.93626
1570286247.95189
1570286247.96751
1570286247.98314
1570286247.99876
1570286248.01439
1570286248.03002
1570286248.04564
1570286248.06127
1570286248.07689
1570286248.09252
1570286248.10814
1570286248.12377
1570286248.1394
1570286248.15502
1570286248.17065
1570286248.18627
1570286248.2019
1570286248.21753
1570286248.23315
1570286248.24878
1570286248.2644
1570286248.28003
1570286248.29565
1570286248.31128
1570286248.32691
1570286248.34253
1570286248.35816
1570286248.37378
1570286248.38941
1570286248.40503
1570286248.42066
1570286248.43629
1570286248.45191
1570286248.46754
1570286248.48316
1570286248.49879
1570286248.51441
1570286248.53004
1570286248.54567
1570286248.56129
1570286248.57692
1570286248.59254
1570286248.60817
1570286248.62379
1570286248.63942
1570286248.65505
1570286248.67067
1570286248.6863
1570286248.70192
1570286248.71755
1570286248.73317
1570286248.7488
1570286248.76443
1570286248.78005
1570286248.79568
1570286248.8113
1570286248.82693
1570286248.84255
1570286248.85818
1570286248.87381
1570286248.88943
1570286248.90506
1570286248.92068
1570286248.93631
1570286248.95193
1570286248.96756
1570286248.98319
1570286248.99881
1570286249.01444
1570286249.03006
1570286249.04569
1570286249.06131
1570286249.07694
1570286249.09257
1570286249.10819
1570286249.12382
1570286249.13944
1570286249.15507
1570286249.17069
1570286249.18632
1570286249.20195
1570286249.21757
1570286249.2332
1570286249.24882
1570286249.26445
1570286249.28007
1570286249.2957
1570286249.31133
1570286249.32695
1570286249.34258
1570286249.3582
1570286249.37383
1570286249.38945
1570286249.40508
1570286249.42071
1570286249.43633
1570286249.45196
1570286249.46758
1570286249.48321
1570286249.49883
1570286249.51446
1570286249.53009
1570286249.54571
1570286249.56134
1570286249.57696
1570286249.59259
1570286249.60821
1570286249.62384
1570286249.63947
1570286249.65509
1570286249.67072
1570286249.68634
1570286249.70197
1570286249.71759
1570286249.73322
1570286249.74885
1570286249.76447
1570286249.7801
1570286249.79572
1570286249.81135
1570286249.82697
1570286249.8426
1570286249.85823
1570286249.87385
1570286249.88948
1570286249.9051
1570286249.92073
1570286249.93635
1570286249.95198
1570286249.96761
1570286249.98323
1570286249.99886
1570286250.01448
1570286250.03011
1570286250.04573
1570286250.06136
1570286250.07699
1570286250.09261
1570286250.10824
1570286250.12386
1570286250.13949
1570286250.15511
1570286250.17074
1570286250.18637
1570286250.20199
1570286250.21762
1570286250.23324
1570286250.24887
1570286250.26449
1570286250.28012
1570286250.29575
1570286250.31137
1570286250.327
1570286250.34262
1570286250.35825
1570286250.37387
1570286250.3895
1570286250.40513
1570286250.42075
1570286250.43638
1570286250.452
1570286250.46763
1570286250.48325
1570286250.49888
1570286250.51451
1570286250.53013
1570286250.54576
1570286250.56138
1570286250.57701
1570286250.59263
1570286250.60826
1570286250.62389
1570286250.63951
1570286250.65514
1570286250.67076
1570286250.68639
1570286250.70201
1570286250.71764
1570286250.73327
1570286250.74889
1570286250.76452
1570286250.78014
1570286250.79577
1570286250.81139
1570286250.82702
1570286250.84265
1570286250.85827
1570286250.8739
1570286250.88952
1570286250.90515
1570286250.92078
1570286250.9364
1570286250.95203
1570286250.96765
1570286250.98328
1570286250.9989
1570286251.01453
1570286251.03016
1570286251.04578
1570286251.06141
1570286251.07703
1570286251.09266
1570286251.10828
1570286251.12391
1570286251.13954
1570286251.15516
1570286251.17079
1570286251.18641
1570286251.20204
1570286251.21766
1570286251.23329
1570286251.24892
1570286251.26454
1570286251.28017
1570286251.29579
1570286251.31142
1570286251.32704
1570286251.34267
1570286251.3583
1570286251.37392
1570286251.38955
1570286251.40517
1570286251.4208
1570286251.43642
1570286251.45205
1570286251.46768
1570286251.4833
1570286251.49893
1570286251.51455
1570286251.53018
1570286251.5458
1570286251.56143
1570286251.57706
1570286251.59268
1570286251.60831
1570286251.62393
1570286251.63956
1570286251.65518
1570286251.67081
1570286251.68644
1570286251.70206
1570286251.71769
1570286251.73331
1570286251.74894
1570286251.76456
1570286251.78019
1570286251.79582
1570286251.81144
1570286251.82707
1570286251.84269
1570286251.85832
1570286251.87394
1570286251.88957
1570286251.9052
1570286251.92082
1570286251.93645
1570286251.95207
1570286251.9677
1570286251.98332
1570286251.99895
1570286252.01458
1570286252.0302
1570286252.04583
1570286252.06145
1570286252.07708
1570286252.0927
1570286252.10833
1570286252.12396
1570286252.13958
1570286252.15521
1570286252.17083
1570286252.18646
1570286252.20208
1570286252.21771
1570286252.23334
1570286252.24896
1570286252.26459
1570286252.28021
1570286252.29584
1570286252.31146
1570286252.32709
1570286252.34272
1570286252.35834
1570286252.37397
1570286252.38959
1570286252.40522
1570286252.42084
1570286252.43647
1570286252.4521
1570286252.46772
1570286252.48335
1570286252.49897
1570286252.5146
1570286252.53022
1570286252.54585
1570286252.56148
1570286252.5771
1570286252.59273
1570286252.60835
1570286252.62398
1570286252.6396
1570286252.65523
1570286252.67086
1570286252.68648
1570286252.70211
1570286252.71773
1570286252.73336
1570286252.74898
1570286252.76461
1570286252.78024
1570286252.79586
1570286252.81149
1570286252.82711
1570286252.84274
1570286252.85836
1570286252.87399
1570286252.88962
1570286252.90524
1570286252.92087
1570286252.93649
1570286252.95212
1570286252.96774
1570286252.98337
1570286252.999
1570286253.01462
1570286253.03025
1570286253.04587
1570286253.0615
1570286253.07713
1570286253.09275
1570286253.10838
1570286253.124
1570286253.13963
1570286253.15525
1570286253.17088
1570286253.18651
1570286253.20213
1570286253.21776
1570286253.23338
1570286253.24901
1570286253.26463
1570286253.28026
1570286253.29589
1570286253.31151
1570286253.32714
1570286253.34276
1570286253.35839
1570286253.37401
1570286253.38964
1570286253.40527
1570286253.42089
1570286253.43652
1570286253.45214
1570286253.46777
1570286253.48339
1570286253.49902
1570286253.51465
1570286253.53027
1570286253.5459
1570286253.56152
1570286253.57715
1570286253.59277
1570286253.6084
1570286253.62403
1570286253.63965
1570286253.65528
1570286253.6709
1570286253.68653
1570286253.70215
1570286253.71778
1570286253.73341
1570286253.74903
1570286253.76466
1570286253.78028
1570286253.79591
1570286253.81153
1570286253.82716
1570286253.84279
1570286253.85841
1570286253.87404
1570286253.88966
1570286253.90529
1570286253.92091
1570286253.93654
1570286253.95217
1570286253.96779
1570286253.98342
1570286253.99904
1570286254.01467
1570286254.03029
1570286254.04592
1570286254.06155
1570286254.07717
1570286254.0928
1570286254.10842
1570286254.12405
1570286254.13967
1570286254.1553
1570286254.17093
1570286254.18655
1570286254.20218
1570286254.2178
1570286254.23343
1570286254.24905
1570286254.26468
1570286254.28031
1570286254.29593
1570286254.31156
1570286254.32718
1570286254.34281
1570286254.35843
1570286254.37406
1570286254.38969
1570286254.40531
1570286254.42094
1570286254.43656
1570286254.45219
1570286254.46781
1570286254.48344
1570286254.49907
1570286254.51469
1570286254.53032
1570286254.54594
1570286254.56157
1570286254.57719
1570286254.59282
1570286254.60845
1570286254.62407
1570286254.6397
1570286254.65532
1570286254.67095
1570286254.68657
1570286254.7022
1570286254.71783
1570286254.73345
1570286254.74908
1570286254.7647
1570286254.78033
1570286254.79595
1570286254.81158
1570286254.82721
1570286254.84283
1570286254.85846
1570286254.87408
1570286254.88971
1570286254.90533
1570286254.92096
1570286254.93659
1570286254.95221
1570286254.96784
1570286254.98346
1570286254.99909
1570286255.01471
1570286255.03034
1570286255.04597
1570286255.06159
1570286255.07722
1570286255.09284
1570286255.10847
1570286255.12409
1570286255.13972
1570286255.15535
1570286255.17097
1570286255.1866
1570286255.20222
1570286255.21785
1570286255.23347
1570286255.2491
1570286255.26473
1570286255.28035
1570286255.29598
1570286255.3116
1570286255.32723
1570286255.34285
1570286255.35848
1570286255.37411
1570286255.38973
1570286255.40536
1570286255.42098
1570286255.43661
1570286255.45223
1570286255.46786
1570286255.48349
1570286255.49911
1570286255.51474
1570286255.53036
1570286255.54599
1570286255.56161
1570286255.57724
1570286255.59287
1570286255.60849
1570286255.62412
1570286255.63974
1570286255.65537
1570286255.671
1570286255.68662
1570286255.70225
1570286255.71787
1570286255.7335
1570286255.74912
1570286255.76475
1570286255.78038
1570286255.796
1570286255.81163
1570286255.82725
1570286255.84288
1570286255.8585
1570286255.87413
1570286255.88976
1570286255.90538
1570286255.92101
1570286255.93663
1570286255.95226
1570286255.96788
1570286255.98351
1570286255.99914
1570286256.01476
1570286256.03039
1570286256.04601
1570286256.06164
1570286256.07726
1570286256.09289
1570286256.10852
1570286256.12414
1570286256.13977
1570286256.15539
1570286256.17102
1570286256.18664
1570286256.20227
1570286256.2179
1570286256.23352
1570286256.24915
1570286256.26477
1570286256.2804
1570286256.29602
1570286256.31165
1570286256.32728
1570286256.3429
1570286256.35853
1570286256.37415
1570286256.38978
1570286256.4054
1570286256.42103
1570286256.43666
1570286256.45228
1570286256.46791
1570286256.48353
1570286256.49916
1570286256.51478
1570286256.53041
1570286256.54604
1570286256.56166
1570286256.57729
1570286256.59291
1570286256.60854
1570286256.62416
1570286256.63979
1570286256.65542
1570286256.67104
1570286256.68667
1570286256.70229
1570286256.71792
1570286256.73354
1570286256.74917
1570286256.7648
1570286256.78042
1570286256.79605
1570286256.81167
1570286256.8273
1570286256.84292
1570286256.85855
1570286256.87418
1570286256.8898
1570286256.90543
1570286256.92105
1570286256.93668
1570286256.9523
1570286256.96793
1570286256.98356
1570286256.99918
1570286257.01481
1570286257.03043
1570286257.04606
1570286257.06168
1570286257.07731
1570286257.09294
1570286257.10856
1570286257.12419
1570286257.13981
1570286257.15544
1570286257.17106
1570286257.18669
1570286257.20232
1570286257.21794
1570286257.23357
1570286257.24919
1570286257.26482
1570286257.28044
1570286257.29607
1570286257.3117
1570286257.32732
1570286257.34295
1570286257.35857
1570286257.3742
1570286257.38982
1570286257.40545
1570286257.42108
1570286257.4367
1570286257.45233
1570286257.46795
1570286257.48358
1570286257.4992
1570286257.51483
1570286257.53046
1570286257.54608
1570286257.56171
1570286257.57733
1570286257.59296
1570286257.60858
1570286257.62421
1570286257.63984
1570286257.65546
1570286257.67109
1570286257.68671
1570286257.70234
1570286257.71796
1570286257.73359
1570286257.74922
1570286257.76484
1570286257.78047
1570286257.79609
1570286257.81172
1570286257.82734
1570286257.84297
1570286257.8586
1570286257.87422
1570286257.88985
1570286257.90547
1570286257.9211
1570286257.93673
1570286257.95235
1570286257.96798
1570286257.9836
1570286257.99923
1570286258.01485
1570286258.03048
1570286258.04611
1570286258.06173
1570286258.07736
1570286258.09298
1570286258.10861
1570286258.12423
1570286258.13986
1570286258.15549
1570286258.17111
1570286258.18674
1570286258.20236
1570286258.21799
1570286258.23361
1570286258.24924
1570286258.26487
1570286258.28049
1570286258.29612
1570286258.31174
1570286258.32737
1570286258.34299
1570286258.35862
1570286258.37425
1570286258.38987
1570286258.4055
1570286258.42112
1570286258.43675
1570286258.45237
1570286258.468
1570286258.48363
1570286258.49925
1570286258.51488
1570286258.5305
1570286258.54613
1570286258.56175
1570286258.57738
1570286258.59301
1570286258.60863
1570286258.62426
1570286258.63988
1570286258.65551
1570286258.67113
1570286258.68676
1570286258.70239
1570286258.71801
1570286258.73364
1570286258.74926
1570286258.76489
1570286258.78051
1570286258.79614
1570286258.81177
1570286258.82739
1570286258.84302
1570286258.85864
1570286258.87427
1570286258.88989
1570286258.90552
1570286258.92115
1570286258.93677
1570286258.9524
1570286258.96802
1570286258.98365
1570286258.99927
1570286259.0149
1570286259.03053
1570286259.04615
1570286259.06178
1570286259.0774
1570286259.09303
1570286259.10865
1570286259.12428
1570286259.13991
1570286259.15553
1570286259.17116
1570286259.18678
1570286259.20241
1570286259.21803
1570286259.23366
1570286259.24929
1570286259.26491
1570286259.28054
1570286259.29616
1570286259.31179
1570286259.32741
1570286259.34304
1570286259.35867
1570286259.37429
1570286259.38992
1570286259.40554
1570286259.42117
1570286259.43679
1570286259.45242
1570286259.46805
1570286259.48367
1570286259.4993
1570286259.51492
1570286259.53055
1570286259.54617
1570286259.5618
1570286259.57743
1570286259.59305
1570286259.60868
1570286259.6243
1570286259.63993
1570286259.65555
1570286259.67118
1570286259.68681
1570286259.70243
1570286259.71806
1570286259.73368
1570286259.74931
1570286259.76493
1570286259.78056
1570286259.79619
1570286259.81181
1570286259.82744
1570286259.84306
1570286259.85869
1570286259.87431
1570286259.88994
1570286259.90557
1570286259.92119
1570286259.93682
1570286259.95244
1570286259.96807
1570286259.98369
1570286259.99932
1570286260.01495
1570286260.03057
1570286260.0462
1570286260.06182
1570286260.07745
1570286260.09307
1570286260.1087
1570286260.12433
1570286260.13995
1570286260.15558
1570286260.1712
1570286260.18683
1570286260.20246
1570286260.21808
1570286260.23371
1570286260.24933
1570286260.26496
1570286260.28058
1570286260.29621
1570286260.31184
1570286260.32746
1570286260.34309
1570286260.35871
1570286260.37434
1570286260.38996
1570286260.40559
1570286260.42122
1570286260.43684
1570286260.45247
1570286260.46809
1570286260.48372
1570286260.49934
1570286260.51497
1570286260.5306
1570286260.54622
1570286260.56185
1570286260.57747
1570286260.5931
1570286260.60872
1570286260.62435
1570286260.63998
1570286260.6556
1570286260.67123
1570286260.68685
1570286260.70248
1570286260.7181
1570286260.73373
1570286260.74936
1570286260.76498
1570286260.78061
1570286260.79623
1570286260.81186
1570286260.82748
1570286260.84311
1570286260.85874
1570286260.87436
1570286260.88999
1570286260.90561
1570286260.92124
1570286260.93686
1570286260.95249
1570286260.96812
1570286260.98374
1570286260.99937
1570286261.01499
1570286261.03062
1570286261.04624
1570286261.06187
1570286261.0775
1570286261.09312
1570286261.10875
1570286261.12437
1570286261.14
1570286261.15562
1570286261.17125
1570286261.18688
1570286261.2025
1570286261.21813
1570286261.23375
1570286261.24938
1570286261.265
1570286261.28063
1570286261.29626
1570286261.31188
1570286261.32751
1570286261.34313
1570286261.35876
1570286261.37438
1570286261.39001
1570286261.40564
1570286261.42126
1570286261.43689
1570286261.45251
1570286261.46814
1570286261.48376
1570286261.49939
1570286261.51502
1570286261.53064
1570286261.54627
1570286261.56189
1570286261.57752
1570286261.59314
1570286261.60877
1570286261.6244
1570286261.64002
1570286261.65565
1570286261.67127
1570286261.6869
1570286261.70252
1570286261.71815
1570286261.73378
1570286261.7494
1570286261.76503
1570286261.78065
1570286261.79628
1570286261.8119
1570286261.82753
1570286261.84316
1570286261.85878
1570286261.87441
1570286261.89003
1570286261.90566
1570286261.92128
1570286261.93691
1570286261.95254
1570286261.96816
1570286261.98379
1570286261.99941
1570286262.01504
1570286262.03066
1570286262.04629
1570286262.06192
1570286262.07754
1570286262.09317
1570286262.10879
1570286262.12442
1570286262.14004
1570286262.15567
1570286262.1713
1570286262.18692
1570286262.20255
1570286262.21817
1570286262.2338
1570286262.24942
1570286262.26505
1570286262.28068
1570286262.2963
1570286262.31193
1570286262.32755
1570286262.34318
1570286262.3588
1570286262.37443
1570286262.39006
1570286262.40568
1570286262.42131
1570286262.43693
1570286262.45256
1570286262.46818
1570286262.48381
1570286262.49944
1570286262.51506
1570286262.53069
1570286262.54631
1570286262.56194
1570286262.57756
1570286262.59319
1570286262.60882
1570286262.62444
1570286262.64007
1570286262.65569
1570286262.67132
1570286262.68694
1570286262.70257
1570286262.7182
1570286262.73382
1570286262.74945
1570286262.76507
1570286262.7807
1570286262.79633
1570286262.81195
1570286262.82758
1570286262.8432
1570286262.85883
1570286262.87445
1570286262.89008
1570286262.90571
1570286262.92133
1570286262.93696
1570286262.95258
1570286262.96821
1570286262.98383
1570286262.99946
1570286263.01509
1570286263.03071
1570286263.04634
1570286263.06196
1570286263.07759
1570286263.09321
1570286263.10884
1570286263.12447
1570286263.14009
1570286263.15572
1570286263.17134
1570286263.18697
1570286263.20259
1570286263.21822
1570286263.23385
1570286263.24947
1570286263.2651
1570286263.28072
1570286263.29635
1570286263.31197
1570286263.3276
1570286263.34323
1570286263.35885
1570286263.37448
1570286263.3901
1570286263.40573
1570286263.42135
1570286263.43698
1570286263.45261
1570286263.46823
1570286263.48386
1570286263.49948
1570286263.51511
1570286263.53073
1570286263.54636
1570286263.56199
1570286263.57761
1570286263.59324
1570286263.60886
1570286263.62449
1570286263.64011
1570286263.65574
1570286263.67137
1570286263.68699
1570286263.70262
1570286263.71824
1570286263.73387
1570286263.74949
1570286263.76512
1570286263.78075
1570286263.79637
1570286263.812
1570286263.82762
1570286263.84325
1570286263.85887
1570286263.8745
1570286263.89013
1570286263.90575
1570286263.92138
1570286263.937
1570286263.95263
1570286263.96825
1570286263.98388
1570286263.99951
1570286264.01513
1570286264.03076
1570286264.04638
1570286264.06201
1570286264.07763
1570286264.09326
1570286264.10889
1570286264.12451
1570286264.14014
1570286264.15576
1570286264.17139
1570286264.18701
1570286264.20264
1570286264.21827
1570286264.23389
1570286264.24952
1570286264.26514
1570286264.28077
1570286264.29639
1570286264.31202
1570286264.32765
1570286264.34327
1570286264.3589
1570286264.37452
1570286264.39015
1570286264.40577
1570286264.4214
1570286264.43703
1570286264.45265
1570286264.46828
1570286264.4839
1570286264.49953
1570286264.51515
1570286264.53078
1570286264.54641
1570286264.56203
1570286264.57766
1570286264.59328
1570286264.60891
1570286264.62453
1570286264.64016
1570286264.65579
1570286264.67141
1570286264.68704
1570286264.70266
1570286264.71829
1570286264.73391
1570286264.74954
1570286264.76517
1570286264.78079
1570286264.79642
1570286264.81204
1570286264.82767
1570286264.84329
1570286264.85892
1570286264.87455
1570286264.89017
1570286264.9058
1570286264.92142
1570286264.93705
1570286264.95267
1570286264.9683
1570286264.98393
1570286264.99955
1570286265.01518
1570286265.0308
1570286265.04643
1570286265.06206
1570286265.07768
1570286265.09331
1570286265.10893
1570286265.12456
1570286265.14018
1570286265.15581
1570286265.17144
1570286265.18706
1570286265.20269
1570286265.21831
1570286265.23394
1570286265.24956
1570286265.26519
1570286265.28082
1570286265.29644
1570286265.31207
1570286265.32769
1570286265.34332
1570286265.35894
1570286265.37457
1570286265.3902
1570286265.40582
1570286265.42145
1570286265.43707
1570286265.4527
1570286265.46832
1570286265.48395
1570286265.49958
1570286265.5152
1570286265.53083
1570286265.54645
1570286265.56208
1570286265.5777
1570286265.59333
1570286265.60896
1570286265.62458
1570286265.64021
1570286265.65583
1570286265.67146
1570286265.68708
1570286265.70271
1570286265.71834
1570286265.73396
1570286265.74959
1570286265.76521
1570286265.78084
1570286265.79646
1570286265.81209
1570286265.82772
1570286265.84334
1570286265.85897
1570286265.87459
1570286265.89022
1570286265.90584
1570286265.92147
1570286265.9371
1570286265.95272
1570286265.96835
1570286265.98397
1570286265.9996
1570286266.01522
1570286266.03085
1570286266.04648
1570286266.0621
1570286266.07773
1570286266.09335
1570286266.10898
1570286266.1246
1570286266.14023
1570286266.15586
1570286266.17148
1570286266.18711
1570286266.20273
1570286266.21836
1570286266.23398
1570286266.24961
1570286266.26524
1570286266.28086
1570286266.29649
1570286266.31211
1570286266.32774
1570286266.34336
1570286266.35899
1570286266.37462
1570286266.39024
1570286266.40587
1570286266.42149
1570286266.43712
1570286266.45274
1570286266.46837
1570286266.484
1570286266.49962
1570286266.51525
1570286266.53087
1570286266.5465
1570286266.56212
1570286266.57775
1570286266.59338
1570286266.609
1570286266.62463
1570286266.64025
1570286266.65588
1570286266.6715
1570286266.68713
1570286266.70276
1570286266.71838
1570286266.73401
1570286266.74963
1570286266.76526
1570286266.78088
1570286266.79651
1570286266.81214
1570286266.82776
1570286266.84339
1570286266.85901
1570286266.87464
1570286266.89026
1570286266.90589
1570286266.92152
1570286266.93714
1570286266.95277
1570286266.96839
1570286266.98402
1570286266.99964
1570286267.01527
1570286267.0309
1570286267.04652
1570286267.06215
1570286267.07777
1570286267.0934
1570286267.10902
1570286267.12465
1570286267.14028
1570286267.1559
1570286267.17153
1570286267.18715
1570286267.20278
1570286267.21841
1570286267.23403
1570286267.24966
1570286267.26528
1570286267.28091
1570286267.29653
1570286267.31216
1570286267.32779
1570286267.34341
1570286267.35904
1570286267.37466
1570286267.39029
1570286267.40591
1570286267.42154
1570286267.43717
1570286267.45279
1570286267.46842
1570286267.48404
1570286267.49967
1570286267.51529
1570286267.53092
1570286267.54655
1570286267.56217
1570286267.5778
1570286267.59342
1570286267.60905
1570286267.62467
1570286267.6403
1570286267.65593
1570286267.67155
1570286267.68718
1570286267.7028
1570286267.71843
1570286267.73405
1570286267.74968
1570286267.76531
1570286267.78093
1570286267.79656
1570286267.81218
1570286267.82781
1570286267.84343
1570286267.85906
1570286267.87469
1570286267.89031
1570286267.90594
1570286267.92156
1570286267.93719
1570286267.95281
1570286267.96844
1570286267.98407
1570286267.99969
1570286268.01532
1570286268.03094
1570286268.04657
1570286268.06219
1570286268.07782
1570286268.09345
1570286268.10907
1570286268.1247
1570286268.14032
1570286268.15595
1570286268.17157
1570286268.1872
1570286268.20283
1570286268.21845
1570286268.23408
1570286268.2497
1570286268.26533
1570286268.28095
1570286268.29658
1570286268.31221
1570286268.32783
1570286268.34346
1570286268.35908
1570286268.37471
1570286268.39033
1570286268.40596
1570286268.42159
1570286268.43721
1570286268.45284
1570286268.46846
1570286268.48409
1570286268.49971
1570286268.51534
1570286268.53097
1570286268.54659
1570286268.56222
1570286268.57784
1570286268.59347
1570286268.60909
1570286268.62472
1570286268.64035
1570286268.65597
1570286268.6716
1570286268.68722
1570286268.70285
1570286268.71847
1570286268.7341
1570286268.74973
1570286268.76535
1570286268.78098
1570286268.7966
1570286268.81223
1570286268.82785
1570286268.84348
1570286268.85911
1570286268.87473
1570286268.89036
1570286268.90598
1570286268.92161
1570286268.93723
1570286268.95286
1570286268.96849
1570286268.98411
1570286268.99974
1570286269.01536
1570286269.03099
1570286269.04661
1570286269.06224
1570286269.07787
1570286269.09349
1570286269.10912
1570286269.12474
1570286269.14037
1570286269.15599
1570286269.17162
1570286269.18725
1570286269.20287
1570286269.2185
1570286269.23412
1570286269.24975
1570286269.26537
1570286269.281
1570286269.29663
1570286269.31225
1570286269.32788
1570286269.3435
1570286269.35913
1570286269.37475
1570286269.39038
1570286269.40601
1570286269.42163
1570286269.43726
1570286269.45288
1570286269.46851
1570286269.48413
1570286269.49976
1570286269.51539
1570286269.53101
1570286269.54664
1570286269.56226
1570286269.57789
1570286269.59351
1570286269.60914
1570286269.62477
1570286269.64039
1570286269.65602
1570286269.67164
1570286269.68727
1570286269.70289
1570286269.71852
1570286269.73415
1570286269.74977
1570286269.7654
1570286269.78102
1570286269.79665
1570286269.81227
1570286269.8279
1570286269.84353
1570286269.85915
1570286269.87478
1570286269.8904
1570286269.90603
1570286269.92166
1570286269.93728
1570286269.95291
1570286269.96853
1570286269.98416
1570286269.99978
1570286270.01541
1570286270.03104
1570286270.04666
1570286270.06229
1570286270.07791
1570286270.09354
1570286270.10916
1570286270.12479
1570286270.14042
1570286270.15604
1570286270.17167
1570286270.18729
1570286270.20292
1570286270.21854
1570286270.23417
1570286270.2498
1570286270.26542
1570286270.28105
1570286270.29667
1570286270.3123
1570286270.32792
1570286270.34355
1570286270.35918
1570286270.3748
1570286270.39043
1570286270.40605
1570286270.42168
1570286270.4373
1570286270.45293
1570286270.46856
1570286270.48418
1570286270.49981
1570286270.51543
1570286270.53106
1570286270.54668
1570286270.56231
1570286270.57794
1570286270.59356
1570286270.60919
1570286270.62481
1570286270.64044
1570286270.65606
1570286270.67169
1570286270.68732
1570286270.70294
1570286270.71857
1570286270.73419
1570286270.74982
1570286270.76544
1570286270.78107
1570286270.7967
1570286270.81232
1570286270.82795
1570286270.84357
1570286270.8592
1570286270.87482
1570286270.89045
1570286270.90608
1570286270.9217
1570286270.93733
1570286270.95295
1570286270.96858
1570286270.9842
1570286270.99983
1570286271.01546
1570286271.03108
1570286271.04671
1570286271.06233
1570286271.07796
1570286271.09358
1570286271.10921
1570286271.12484
1570286271.14046
1570286271.15609
1570286271.17171
1570286271.18734
1570286271.20296
1570286271.21859
1570286271.23422
1570286271.24984
1570286271.26547
1570286271.28109
1570286271.29672
1570286271.31234
1570286271.32797
1570286271.3436
1570286271.35922
1570286271.37485
1570286271.39047
1570286271.4061
1570286271.42172
1570286271.43735
1570286271.45298
1570286271.4686
1570286271.48423
1570286271.49985
1570286271.51548
1570286271.5311
1570286271.54673
1570286271.56236
1570286271.57798
1570286271.59361
1570286271.60923
1570286271.62486
1570286271.64048
1570286271.65611
1570286271.67174
1570286271.68736
1570286271.70299
1570286271.71861
1570286271.73424
1570286271.74986
1570286271.76549
1570286271.78112
1570286271.79674
1570286271.81237
1570286271.82799
1570286271.84362
1570286271.85924
1570286271.87487
1570286271.8905
1570286271.90612
1570286271.92175
1570286271.93737
1570286271.953
1570286271.96862
1570286271.98425
1570286271.99988
1570286272.0155
1570286272.03113
1570286272.04675
1570286272.06238
1570286272.07801
1570286272.09363
1570286272.10926
1570286272.12488
1570286272.14051
1570286272.15613
1570286272.17176
1570286272.18739
1570286272.20301
1570286272.21864
1570286272.23426
1570286272.24989
1570286272.26551
1570286272.28114
1570286272.29677
1570286272.31239
1570286272.32802
1570286272.34364
1570286272.35927
1570286272.37489
1570286272.39052
1570286272.40615
1570286272.42177
1570286272.4374
1570286272.45302
1570286272.46865
1570286272.48427
1570286272.4999
1570286272.51553
1570286272.53115
1570286272.54678
1570286272.5624
1570286272.57803
1570286272.59365
1570286272.60928
1570286272.62491
1570286272.64053
1570286272.65616
1570286272.67178
1570286272.68741
1570286272.70303
1570286272.71866
1570286272.73429
1570286272.74991
1570286272.76554
1570286272.78116
1570286272.79679
1570286272.81241
1570286272.82804
1570286272.84367
1570286272.85929
1570286272.87492
1570286272.89054
1570286272.90617
1570286272.92179
1570286272.93742
1570286272.95305
1570286272.96867
1570286272.9843
1570286272.99992
1570286273.01555
1570286273.03117
1570286273.0468
1570286273.06243
1570286273.07805
1570286273.09368
1570286273.1093
1570286273.12493
1570286273.14055
1570286273.15618
1570286273.17181
1570286273.18743
1570286273.20306
1570286273.21868
1570286273.23431
1570286273.24993
1570286273.26556
1570286273.28119
1570286273.29681
1570286273.31244
1570286273.32806
1570286273.34369
1570286273.35931
1570286273.37494
1570286273.39057
1570286273.40619
1570286273.42182
1570286273.43744
1570286273.45307
1570286273.46869
1570286273.48432
1570286273.49995
1570286273.51557
1570286273.5312
1570286273.54682
1570286273.56245
1570286273.57807
1570286273.5937
1570286273.60933
1570286273.62495
1570286273.64058
1570286273.6562
1570286273.67183
1570286273.68745
1570286273.70308
1570286273.71871
1570286273.73433
1570286273.74996
1570286273.76558
1570286273.78121
1570286273.79683
1570286273.81246
1570286273.82809
1570286273.84371
1570286273.85934
1570286273.87496
1570286273.89059
1570286273.90621
1570286273.92184
1570286273.93747
1570286273.95309
1570286273.96872
1570286273.98434
1570286273.99997
1570286274.01559
1570286274.03122
1570286274.04685
1570286274.06247
1570286274.0781
1570286274.09372
1570286274.10935
1570286274.12497
1570286274.1406
1570286274.15623
1570286274.17185
1570286274.18748
1570286274.2031
1570286274.21873
1570286274.23435
1570286274.24998
1570286274.26561
1570286274.28123
1570286274.29686
1570286274.31248
1570286274.32811
1570286274.34373
1570286274.35936
1570286274.37499
1570286274.39061
1570286274.40624
1570286274.42186
1570286274.43749
1570286274.45311
1570286274.46874
1570286274.48437
1570286274.49999
1570286274.51562
1570286274.53124
1570286274.54687
1570286274.56249
1570286274.57812
1570286274.59375
1570286274.60937
1570286274.625
1570286274.64062
1570286274.65625
1570286274.67188
1570286274.6875
1570286274.70313
1570286274.71875
1570286274.73438
1570286274.75
1570286274.76563
1570286274.78126
1570286274.79688
1570286274.81251
1570286274.82813
1570286274.84376
1570286274.85938
1570286274.87501
1570286274.89064
1570286274.90626
1570286274.92189
1570286274.93751
1570286274.95314
1570286274.96876
1570286274.98439
1570286275.00002
1570286275.01564
1570286275.03127
1570286275.04689
1570286275.06252
1570286275.07814
1570286275.09377
1570286275.1094
1570286275.12502
1570286275.14065
1570286275.15627
1570286275.1719
1570286275.18752
1570286275.20315
1570286275.21878
1570286275.2344
1570286275.25003
1570286275.26565
1570286275.28128
1570286275.2969
1570286275.31253
1570286275.32816
1570286275.34378
1570286275.35941
1570286275.37503
1570286275.39066
1570286275.40628
1570286275.42191
1570286275.43754
1570286275.45316
1570286275.46879
1570286275.48441
1570286275.50004
1570286275.51566
1570286275.53129
1570286275.54692
1570286275.56254
1570286275.57817
1570286275.59379
1570286275.60942
1570286275.62504
1570286275.64067
1570286275.6563
1570286275.67192
1570286275.68755
1570286275.70317
1570286275.7188
1570286275.73442
1570286275.75005
1570286275.76568
1570286275.7813
1570286275.79693
1570286275.81255
1570286275.82818
1570286275.8438
1570286275.85943
1570286275.87506
1570286275.89068
1570286275.90631
1570286275.92193
1570286275.93756
1570286275.95318
1570286275.96881
1570286275.98444
1570286276.00006
1570286276.01569
1570286276.03131
1570286276.04694
1570286276.06256
1570286276.07819
1570286276.09382
1570286276.10944
1570286276.12507
1570286276.14069
1570286276.15632
1570286276.17194
1570286276.18757
1570286276.2032
1570286276.21882
1570286276.23445
1570286276.25007
1570286276.2657
1570286276.28132
1570286276.29695
1570286276.31258
1570286276.3282
1570286276.34383
1570286276.35945
1570286276.37508
1570286276.3907
1570286276.40633
1570286276.42196
1570286276.43758
1570286276.45321
1570286276.46883
1570286276.48446
1570286276.50008
1570286276.51571
1570286276.53134
1570286276.54696
1570286276.56259
1570286276.57821
1570286276.59384
1570286276.60946
1570286276.62509
1570286276.64072
1570286276.65634
1570286276.67197
1570286276.68759
1570286276.70322
1570286276.71884
1570286276.73447
1570286276.7501
1570286276.76572
1570286276.78135
1570286276.79697
1570286276.8126
1570286276.82822
1570286276.84385
1570286276.85948
1570286276.8751
1570286276.89073
1570286276.90635
1570286276.92198
1570286276.93761
1570286276.95323
1570286276.96886
1570286276.98448
1570286277.00011
1570286277.01573
1570286277.03136
1570286277.04699
1570286277.06261
1570286277.07824
1570286277.09386
1570286277.10949
1570286277.12511
1570286277.14074
1570286277.15637
1570286277.17199
1570286277.18762
1570286277.20324
1570286277.21887
1570286277.23449
1570286277.25012
1570286277.26575
1570286277.28137
1570286277.297
1570286277.31262
1570286277.32825
1570286277.34387
1570286277.3595
1570286277.37513
1570286277.39075
1570286277.40638
1570286277.422
1570286277.43763
1570286277.45325
1570286277.46888
1570286277.48451
1570286277.50013
1570286277.51576
1570286277.53138
1570286277.54701
1570286277.56263
1570286277.57826
1570286277.59389
1570286277.60951
1570286277.62514
1570286277.64076
1570286277.65639
1570286277.67201
1570286277.68764
1570286277.70327
1570286277.71889
1570286277.73452
1570286277.75014
1570286277.76577
1570286277.78139
1570286277.79702
1570286277.81265
1570286277.82827
1570286277.8439
1570286277.85952
1570286277.87515
1570286277.89077
1570286277.9064
1570286277.92203
1570286277.93765
1570286277.95328
1570286277.9689
1570286277.98453
1570286278.00015
1570286278.01578
1570286278.03141
1570286278.04703
1570286278.06266
1570286278.07828
1570286278.09391
1570286278.10953
1570286278.12516
1570286278.14079
1570286278.15641
1570286278.17204
1570286278.18766
1570286278.20329
1570286278.21891
1570286278.23454
1570286278.25017
1570286278.26579
1570286278.28142
1570286278.29704
1570286278.31267
1570286278.32829
1570286278.34392
1570286278.35955
1570286278.37517
1570286278.3908
1570286278.40642
1570286278.42205
1570286278.43767
1570286278.4533
1570286278.46893
1570286278.48455
1570286278.50018
1570286278.5158
1570286278.53143
1570286278.54705
1570286278.56268
1570286278.57831
1570286278.59393
1570286278.60956
1570286278.62518
1570286278.64081
1570286278.65643
1570286278.67206
1570286278.68769
1570286278.70331
1570286278.71894
1570286278.73456
1570286278.75019
1570286278.76581
1570286278.78144
1570286278.79707
1570286278.81269
1570286278.82832
1570286278.84394
1570286278.85957
1570286278.87519
1570286278.89082
1570286278.90645
1570286278.92207
1570286278.9377
1570286278.95332
1570286278.96895
1570286278.98457
1570286279.0002
1570286279.01583
1570286279.03145
1570286279.04708
1570286279.0627
1570286279.07833
1570286279.09395
1570286279.10958
1570286279.12521
1570286279.14083
1570286279.15646
1570286279.17208
1570286279.18771
1570286279.20334
1570286279.21896
1570286279.23459
1570286279.25021
1570286279.26584
1570286279.28146
1570286279.29709
1570286279.31272
1570286279.32834
1570286279.34397
1570286279.35959
1570286279.37522
1570286279.39084
1570286279.40647
1570286279.4221
1570286279.43772
1570286279.45335
1570286279.46897
1570286279.4846
1570286279.50022
1570286279.51585
1570286279.53148
1570286279.5471
1570286279.56273
1570286279.57835
1570286279.59398
1570286279.6096
1570286279.62523
1570286279.64086
1570286279.65648
1570286279.67211
1570286279.68773
1570286279.70336
1570286279.71898
1570286279.73461
1570286279.75024
1570286279.76586
1570286279.78149
1570286279.79711
1570286279.81274
1570286279.82836
1570286279.84399
1570286279.85962
1570286279.87524
1570286279.89087
1570286279.90649
1570286279.92212
1570286279.93774
1570286279.95337
1570286279.969
1570286279.98462
1570286280.00025
1570286280.01587
1570286280.0315
1570286280.04712
1570286280.06275
1570286280.07838
1570286280.094
1570286280.10963
1570286280.12525
1570286280.14088
1570286280.1565
1570286280.17213
1570286280.18776
1570286280.20338
1570286280.21901
1570286280.23463
1570286280.25026
1570286280.26588
1570286280.28151
1570286280.29714
1570286280.31276
1570286280.32839
1570286280.34401
1570286280.35964
1570286280.37526
1570286280.39089
1570286280.40652
1570286280.42214
1570286280.43777
1570286280.45339
1570286280.46902
1570286280.48464
1570286280.50027
1570286280.5159
1570286280.53152
1570286280.54715
1570286280.56277
1570286280.5784
1570286280.59402
1570286280.60965
1570286280.62528
1570286280.6409
1570286280.65653
1570286280.67215
1570286280.68778
1570286280.7034
1570286280.71903
1570286280.73466
1570286280.75028
1570286280.76591
1570286280.78153
1570286280.79716
1570286280.81278
1570286280.82841
1570286280.84404
1570286280.85966
1570286280.87529
1570286280.89091
1570286280.90654
1570286280.92216
1570286280.93779
1570286280.95342
1570286280.96904
1570286280.98467
1570286281.00029
1570286281.01592
1570286281.03154
1570286281.04717
1570286281.0628
1570286281.07842
1570286281.09405
1570286281.10967
1570286281.1253
1570286281.14092
1570286281.15655
1570286281.17218
1570286281.1878
1570286281.20343
1570286281.21905
1570286281.23468
1570286281.2503
1570286281.26593
1570286281.28156
1570286281.29718
1570286281.31281
1570286281.32843
1570286281.34406
1570286281.35968
1570286281.37531
1570286281.39094
1570286281.40656
1570286281.42219
1570286281.43781
1570286281.45344
1570286281.46906
1570286281.48469
1570286281.50032
1570286281.51594
1570286281.53157
1570286281.54719
1570286281.56282
1570286281.57844
1570286281.59407
1570286281.6097
1570286281.62532
1570286281.64095
1570286281.65657
1570286281.6722
1570286281.68782
1570286281.70345
1570286281.71908
1570286281.7347
1570286281.75033
1570286281.76595
1570286281.78158
1570286281.7972
1570286281.81283
1570286281.82846
1570286281.84408
1570286281.85971
1570286281.87533
1570286281.89096
1570286281.90659
1570286281.92221
1570286281.93784
1570286281.95346
1570286281.96909
1570286281.98471
1570286282.00034
1570286282.01597
1570286282.03159
1570286282.04722
1570286282.06284
1570286282.07847
1570286282.09409
1570286282.10972
1570286282.12535
1570286282.14097
1570286282.1566
1570286282.17222
1570286282.18785
1570286282.20347
1570286282.2191
1570286282.23473
1570286282.25035
1570286282.26598
1570286282.2816
1570286282.29723
1570286282.31285
1570286282.32848
1570286282.34411
1570286282.35973
1570286282.37536
1570286282.39098
1570286282.40661
1570286282.42223
1570286282.43786
1570286282.45349
1570286282.46911
1570286282.48474
1570286282.50036
1570286282.51599
1570286282.53161
1570286282.54724
1570286282.56287
1570286282.57849
1570286282.59412
1570286282.60974
1570286282.62537
1570286282.64099
1570286282.65662
1570286282.67225
1570286282.68787
1570286282.7035
1570286282.71912
1570286282.73475
1570286282.75037
1570286282.766
1570286282.78163
1570286282.79725
1570286282.81288
1570286282.8285
1570286282.84413
1570286282.85975
1570286282.87538
1570286282.89101
1570286282.90663
1570286282.92226
1570286282.93788
1570286282.95351
1570286282.96913
1570286282.98476
1570286283.00039
1570286283.01601
1570286283.03164
1570286283.04726
1570286283.06289
1570286283.07851
1570286283.09414
1570286283.10977
1570286283.12539
1570286283.14102
1570286283.15664
1570286283.17227
1570286283.18789
1570286283.20352
1570286283.21915
1570286283.23477
1570286283.2504
1570286283.26602
1570286283.28165
1570286283.29727
1570286283.3129
1570286283.32853
1570286283.34415
1570286283.35978
1570286283.3754
1570286283.39103
1570286283.40665
1570286283.42228
1570286283.43791
1570286283.45353
1570286283.46916
1570286283.48478
1570286283.50041
1570286283.51603
1570286283.53166
1570286283.54729
1570286283.56291
1570286283.57854
1570286283.59416
1570286283.60979
1570286283.62541
1570286283.64104
1570286283.65667
1570286283.67229
1570286283.68792
1570286283.70354
1570286283.71917
1570286283.73479
1570286283.75042
1570286283.76605
1570286283.78167
1570286283.7973
1570286283.81292
1570286283.82855
1570286283.84417
1570286283.8598
1570286283.87543
1570286283.89105
1570286283.90668
1570286283.9223
1570286283.93793
1570286283.95355
1570286283.96918
1570286283.98481
1570286284.00043
1570286284.01606
1570286284.03168
1570286284.04731
1570286284.06294
1570286284.07856
1570286284.09419
1570286284.10981
1570286284.12544
1570286284.14106
1570286284.15669
1570286284.17232
1570286284.18794
1570286284.20357
1570286284.21919
1570286284.23482
1570286284.25044
1570286284.26607
1570286284.2817
1570286284.29732
1570286284.31295
1570286284.32857
1570286284.3442
1570286284.35982
1570286284.37545
1570286284.39108
1570286284.4067
1570286284.42233
1570286284.43795
1570286284.45358
1570286284.4692
1570286284.48483
1570286284.50046
1570286284.51608
1570286284.53171
1570286284.54733
1570286284.56296
1570286284.57858
1570286284.59421
1570286284.60984
1570286284.62546
1570286284.64109
1570286284.65671
1570286284.67234
1570286284.68796
1570286284.70359
1570286284.71922
1570286284.73484
1570286284.75047
1570286284.76609
1570286284.78172
1570286284.79734
1570286284.81297
1570286284.8286
1570286284.84422
1570286284.85985
1570286284.87547
1570286284.8911
1570286284.90672
1570286284.92235
1570286284.93798
1570286284.9536
1570286284.96923
1570286284.98485
1570286285.00048
1570286285.0161
1570286285.03173
1570286285.04736
1570286285.06298
1570286285.07861
1570286285.09423
1570286285.10986
1570286285.12548
1570286285.14111
1570286285.15674
1570286285.17236
1570286285.18799
1570286285.20361
1570286285.21924
1570286285.23486
1570286285.25049
1570286285.26612
1570286285.28174
1570286285.29737
1570286285.31299
1570286285.32862
1570286285.34424
1570286285.35987
1570286285.3755
1570286285.39112
1570286285.40675
1570286285.42237
1570286285.438
1570286285.45362
1570286285.46925
1570286285.48488
1570286285.5005
1570286285.51613
1570286285.53175
1570286285.54738
1570286285.563
1570286285.57863
1570286285.59426
1570286285.60988
1570286285.62551
1570286285.64113
1570286285.65676
1570286285.67238
1570286285.68801
1570286285.70364
1570286285.71926
1570286285.73489
1570286285.75051
1570286285.76614
1570286285.78176
1570286285.79739
1570286285.81302
1570286285.82864
1570286285.84427
1570286285.85989
1570286285.87552
1570286285.89114
1570286285.90677
1570286285.9224
1570286285.93802
1570286285.95365
1570286285.96927
1570286285.9849
1570286286.00052
1570286286.01615
1570286286.03178
1570286286.0474
1570286286.06303
1570286286.07865
1570286286.09428
1570286286.1099
1570286286.12553
1570286286.14116
1570286286.15678
1570286286.17241
1570286286.18803
1570286286.20366
1570286286.21928
1570286286.23491
1570286286.25054
1570286286.26616
1570286286.28179
1570286286.29741
1570286286.31304
1570286286.32867
1570286286.34429
1570286286.35992
1570286286.37554
1570286286.39117
1570286286.40679
1570286286.42242
1570286286.43805
1570286286.45367
1570286286.4693
1570286286.48492
1570286286.50055
1570286286.51617
1570286286.5318
1570286286.54743
1570286286.56305
1570286286.57868
1570286286.5943
1570286286.60993
1570286286.62555
1570286286.64118
1570286286.65681
1570286286.67243
1570286286.68806
1570286286.70368
1570286286.71931
1570286286.73493
1570286286.75056
1570286286.76619
1570286286.78181
1570286286.79744
1570286286.81306
1570286286.82869
1570286286.84431
1570286286.85994
1570286286.87557
1570286286.89119
1570286286.90682
1570286286.92244
1570286286.93807
1570286286.95369
1570286286.96932
1570286286.98495
1570286287.00057
1570286287.0162
1570286287.03182
1570286287.04745
1570286287.06307
1570286287.0787
1570286287.09433
1570286287.10995
1570286287.12558
1570286287.1412
1570286287.15683
1570286287.17245
1570286287.18808
1570286287.20371
1570286287.21933
1570286287.23496
1570286287.25058
1570286287.26621
1570286287.28183
1570286287.29746
1570286287.31309
1570286287.32871
1570286287.34434
1570286287.35996
1570286287.37559
1570286287.39121
1570286287.40684
1570286287.42247
1570286287.43809
1570286287.45372
1570286287.46934
1570286287.48497
1570286287.50059
1570286287.51622
1570286287.53185
1570286287.54747
1570286287.5631
1570286287.57872
1570286287.59435
1570286287.60997
1570286287.6256
1570286287.64123
1570286287.65685
1570286287.67248
1570286287.6881
1570286287.70373
1570286287.71935
1570286287.73498
1570286287.75061
1570286287.76623
1570286287.78186
1570286287.79748
1570286287.81311
1570286287.82873
1570286287.84436
1570286287.85999
1570286287.87561
1570286287.89124
1570286287.90686
1570286287.92249
1570286287.93811
1570286287.95374
1570286287.96937
1570286287.98499
1570286288.00062
1570286288.01624
1570286288.03187
1570286288.04749
1570286288.06312
1570286288.07875
1570286288.09437
1570286288.11
1570286288.12562
1570286288.14125
1570286288.15687
1570286288.1725
1570286288.18813
1570286288.20375
1570286288.21938
1570286288.235
1570286288.25063
1570286288.26625
1570286288.28188
1570286288.29751
1570286288.31313
1570286288.32876
1570286288.34438
1570286288.36001
1570286288.37563
1570286288.39126
1570286288.40689
1570286288.42251
1570286288.43814
1570286288.45376
1570286288.46939
1570286288.48501
1570286288.50064
1570286288.51627
1570286288.53189
1570286288.54752
1570286288.56314
1570286288.57877
1570286288.59439
1570286288.61002
1570286288.62565
1570286288.64127
1570286288.6569
1570286288.67252
1570286288.68815
1570286288.70377
1570286288.7194
1570286288.73503
1570286288.75065
1570286288.76628
1570286288.7819
1570286288.79753
1570286288.81315
1570286288.82878
1570286288.84441
1570286288.86003
1570286288.87566
1570286288.89128
1570286288.90691
1570286288.92254
1570286288.93816
1570286288.95379
1570286288.96941
1570286288.98504
1570286289.00066
1570286289.01629
1570286289.03192
1570286289.04754
1570286289.06317
1570286289.07879
1570286289.09442
1570286289.11004
1570286289.12567
1570286289.1413
1570286289.15692
1570286289.17255
1570286289.18817
1570286289.2038
1570286289.21942
1570286289.23505
1570286289.25068
1570286289.2663
1570286289.28193
1570286289.29755
1570286289.31318
1570286289.3288
1570286289.34443
1570286289.36006
1570286289.37568
1570286289.39131
1570286289.40693
1570286289.42256
1570286289.43818
1570286289.45381
1570286289.46944
1570286289.48506
1570286289.50069
1570286289.51631
1570286289.53194
1570286289.54756
1570286289.56319
1570286289.57882
1570286289.59444
1570286289.61007
1570286289.62569
1570286289.64132
1570286289.65694
1570286289.67257
1570286289.6882
1570286289.70382
1570286289.71945
1570286289.73507
1570286289.7507
1570286289.76632
1570286289.78195
1570286289.79758
1570286289.8132
1570286289.82883
1570286289.84445
1570286289.86008
1570286289.8757
1570286289.89133
1570286289.90696
1570286289.92258
1570286289.93821
1570286289.95383
1570286289.96946
1570286289.98508
1570286290.00071
1570286290.01634
1570286290.03196
1570286290.04759
1570286290.06321
1570286290.07884
1570286290.09446
1570286290.11009
1570286290.12572
1570286290.14134
1570286290.15697
1570286290.17259
1570286290.18822
1570286290.20384
1570286290.21947
1570286290.2351
1570286290.25072
1570286290.26635
1570286290.28197
1570286290.2976
1570286290.31322
1570286290.32885
1570286290.34448
1570286290.3601
1570286290.37573
1570286290.39135
1570286290.40698
1570286290.4226
1570286290.43823
1570286290.45386
1570286290.46948
1570286290.48511
1570286290.50073
1570286290.51636
1570286290.53198
1570286290.54761
1570286290.56324
1570286290.57886
1570286290.59449
1570286290.61011
1570286290.62574
1570286290.64136
1570286290.65699
1570286290.67262
1570286290.68824
1570286290.70387
1570286290.71949
1570286290.73512
1570286290.75074
1570286290.76637
1570286290.782
1570286290.79762
1570286290.81325
1570286290.82887
1570286290.8445
1570286290.86012
1570286290.87575
1570286290.89138
1570286290.907
1570286290.92263
1570286290.93825
1570286290.95388
1570286290.9695
1570286290.98513
1570286291.00076
1570286291.01638
1570286291.03201
1570286291.04763
1570286291.06326
1570286291.07888
1570286291.09451
1570286291.11014
1570286291.12576
1570286291.14139
1570286291.15701
1570286291.17264
1570286291.18827
1570286291.20389
1570286291.21952
1570286291.23514
1570286291.25077
1570286291.26639
1570286291.28202
1570286291.29765
1570286291.31327
1570286291.3289
1570286291.34452
1570286291.36015
1570286291.37577
1570286291.3914
1570286291.40703
1570286291.42265
1570286291.43828
1570286291.4539
1570286291.46953
1570286291.48515
1570286291.50078
1570286291.51641
1570286291.53203
1570286291.54766
1570286291.56328
1570286291.57891
1570286291.59453
1570286291.61016
1570286291.62579
1570286291.64141
1570286291.65704
1570286291.67266
1570286291.68829
1570286291.70391
1570286291.71954
1570286291.73517
1570286291.75079
1570286291.76642
1570286291.78204
1570286291.79767
1570286291.81329
1570286291.82892
1570286291.84455
1570286291.86017
1570286291.8758
1570286291.89142
1570286291.90705
1570286291.92267
1570286291.9383
1570286291.95393
1570286291.96955
1570286291.98518
1570286292.0008
1570286292.01643
1570286292.03205
1570286292.04768
1570286292.06331
1570286292.07893
1570286292.09456
1570286292.11018
1570286292.12581
1570286292.14143
1570286292.15706
1570286292.17269
1570286292.18831
1570286292.20394
1570286292.21956
1570286292.23519
1570286292.25081
1570286292.26644
1570286292.28207
1570286292.29769
1570286292.31332
1570286292.32894
1570286292.34457
1570286292.36019
1570286292.37582
1570286292.39145
1570286292.40707
1570286292.4227
1570286292.43832
1570286292.45395
1570286292.46957
1570286292.4852
1570286292.50083
1570286292.51645
1570286292.53208
1570286292.5477
1570286292.56333
1570286292.57895
1570286292.59458
1570286292.61021
1570286292.62583
1570286292.64146
1570286292.65708
1570286292.67271
1570286292.68833
1570286292.70396
1570286292.71959
1570286292.73521
1570286292.75084
1570286292.76646
1570286292.78209
1570286292.79771
1570286292.81334
1570286292.82897
1570286292.84459
1570286292.86022
1570286292.87584
1570286292.89147
1570286292.90709
1570286292.92272
1570286292.93835
1570286292.95397
1570286292.9696
1570286292.98522
1570286293.00085
1570286293.01647
1570286293.0321
1570286293.04773
1570286293.06335
1570286293.07898
1570286293.0946
1570286293.11023
1570286293.12585
1570286293.14148
1570286293.15711
1570286293.17273
1570286293.18836
1570286293.20398
1570286293.21961
1570286293.23523
1570286293.25086
1570286293.26649
1570286293.28211
1570286293.29774
1570286293.31336
1570286293.32899
1570286293.34461
1570286293.36024
1570286293.37587
1570286293.39149
1570286293.40712
1570286293.42274
1570286293.43837
1570286293.45399
1570286293.46962
1570286293.48525
1570286293.50087
1570286293.5165
1570286293.53212
1570286293.54775
1570286293.56338
1570286293.579
1570286293.59463
1570286293.61025
1570286293.62588
1570286293.6415
1570286293.65713
1570286293.67276
1570286293.68838
1570286293.70401
1570286293.71963
1570286293.73526
1570286293.75088
1570286293.76651
1570286293.78214
1570286293.79776
1570286293.81339
1570286293.82901
1570286293.84464
1570286293.86026
1570286293.87589
1570286293.89152
1570286293.90714
1570286293.92277
1570286293.93839
1570286293.95402
1570286293.96964
1570286293.98527
1570286294.0009
1570286294.01652
1570286294.03215
1570286294.04777
1570286294.0634
1570286294.07902
1570286294.09465
1570286294.11028
1570286294.1259
1570286294.14153
1570286294.15715
1570286294.17278
1570286294.1884
1570286294.20403
1570286294.21966
1570286294.23528
1570286294.25091
1570286294.26653
1570286294.28216
1570286294.29778
1570286294.31341
1570286294.32904
1570286294.34466
1570286294.36029
1570286294.37591
1570286294.39154
1570286294.40716
1570286294.42279
1570286294.43842
1570286294.45404
1570286294.46967
1570286294.48529
1570286294.50092
1570286294.51654
1570286294.53217
1570286294.5478
1570286294.56342
1570286294.57905
1570286294.59467
1570286294.6103
1570286294.62592
1570286294.64155
1570286294.65718
1570286294.6728
1570286294.68843
1570286294.70405
1570286294.71968
1570286294.7353
1570286294.75093
1570286294.76656
1570286294.78218
1570286294.79781
1570286294.81343
1570286294.82906
1570286294.84468
1570286294.86031
1570286294.87594
1570286294.89156
1570286294.90719
1570286294.92281
1570286294.93844
1570286294.95406
1570286294.96969
1570286294.98532
1570286295.00094
1570286295.01657
1570286295.03219
1570286295.04782
1570286295.06344
1570286295.07907
1570286295.0947
1570286295.11032
1570286295.12595
1570286295.14157
1570286295.1572
1570286295.17282
1570286295.18845
1570286295.20408
1570286295.2197
1570286295.23533
1570286295.25095
1570286295.26658
1570286295.2822
1570286295.29783
1570286295.31346
1570286295.32908
1570286295.34471
1570286295.36033
1570286295.37596
1570286295.39158
1570286295.40721
1570286295.42284
1570286295.43846
1570286295.45409
1570286295.46971
1570286295.48534
1570286295.50096
1570286295.51659
1570286295.53222
1570286295.54784
1570286295.56347
1570286295.57909
1570286295.59472
1570286295.61034
1570286295.62597
1570286295.6416
1570286295.65722
1570286295.67285
1570286295.68847
1570286295.7041
1570286295.71972
1570286295.73535
1570286295.75098
1570286295.7666
1570286295.78223
1570286295.79785
1570286295.81348
1570286295.8291
1570286295.84473
1570286295.86036
1570286295.87598
1570286295.89161
1570286295.90723
1570286295.92286
1570286295.93848
1570286295.95411
1570286295.96974
1570286295.98536
1570286296.00099
1570286296.01661
1570286296.03224
1570286296.04787
1570286296.06349
1570286296.07912
1570286296.09474
1570286296.11037
1570286296.12599
1570286296.14162
1570286296.15725
1570286296.17287
1570286296.1885
1570286296.20412
1570286296.21975
1570286296.23537
1570286296.251
1570286296.26663
1570286296.28225
1570286296.29788
1570286296.3135
1570286296.32913
1570286296.34475
1570286296.36038
1570286296.37601
1570286296.39163
1570286296.40726
1570286296.42288
1570286296.43851
1570286296.45413
1570286296.46976
1570286296.48539
1570286296.50101
1570286296.51664
1570286296.53226
1570286296.54789
1570286296.56351
1570286296.57914
1570286296.59477
1570286296.61039
1570286296.62602
1570286296.64164
1570286296.65727
1570286296.67289
1570286296.68852
1570286296.70415
1570286296.71977
1570286296.7354
1570286296.75102
1570286296.76665
1570286296.78227
1570286296.7979
1570286296.81353
1570286296.82915
1570286296.84478
1570286296.8604
1570286296.87603
1570286296.89165
1570286296.90728
1570286296.92291
1570286296.93853
1570286296.95416
1570286296.96978
1570286296.98541
1570286297.00103
1570286297.01666
1570286297.03229
1570286297.04791
1570286297.06354
1570286297.07916
1570286297.09479
1570286297.11041
1570286297.12604
1570286297.14167
1570286297.15729
1570286297.17292
1570286297.18854
1570286297.20417
1570286297.21979
1570286297.23542
1570286297.25105
1570286297.26667
1570286297.2823
1570286297.29792
1570286297.31355
1570286297.32917
1570286297.3448
1570286297.36043
1570286297.37605
1570286297.39168
1570286297.4073
1570286297.42293
1570286297.43855
1570286297.45418
1570286297.46981
1570286297.48543
1570286297.50106
1570286297.51668
1570286297.53231
1570286297.54793
1570286297.56356
1570286297.57919
1570286297.59481
1570286297.61044
1570286297.62606
1570286297.64169
1570286297.65731
1570286297.67294
1570286297.68857
1570286297.70419
1570286297.71982
1570286297.73544
1570286297.75107
1570286297.76669
1570286297.78232
1570286297.79795
1570286297.81357
1570286297.8292
1570286297.84482
1570286297.86045
1570286297.87607
1570286297.8917
1570286297.90733
1570286297.92295
1570286297.93858
1570286297.9542
1570286297.96983
1570286297.98545
1570286298.00108
1570286298.01671
1570286298.03233
1570286298.04796
1570286298.06358
1570286298.07921
1570286298.09483
1570286298.11046
1570286298.12609
1570286298.14171
1570286298.15734
1570286298.17296
1570286298.18859
1570286298.20422
1570286298.21984
1570286298.23547
1570286298.25109
1570286298.26672
1570286298.28234
1570286298.29797
1570286298.3136
1570286298.32922
1570286298.34485
1570286298.36047
1570286298.3761
1570286298.39172
1570286298.40735
1570286298.42298
1570286298.4386
1570286298.45423
1570286298.46985
1570286298.48548
1570286298.5011
1570286298.51673
1570286298.53236
1570286298.54798
1570286298.56361
1570286298.57923
1570286298.59486
1570286298.61048
1570286298.62611
1570286298.64174
1570286298.65736
1570286298.67299
1570286298.68861
1570286298.70424
1570286298.71986
1570286298.73549
1570286298.75112
1570286298.76674
1570286298.78237
1570286298.79799
1570286298.81362
1570286298.82924
1570286298.84487
1570286298.8605
1570286298.87612
1570286298.89175
1570286298.90737
1570286298.923
1570286298.93862
1570286298.95425
1570286298.96988
1570286298.9855
1570286299.00113
1570286299.01675
1570286299.03238
1570286299.048
1570286299.06363
1570286299.07926
1570286299.09488
1570286299.11051
1570286299.12613
1570286299.14176
1570286299.15738
1570286299.17301
1570286299.18864
1570286299.20426
1570286299.21989
1570286299.23551
1570286299.25114
1570286299.26676
1570286299.28239
1570286299.29802
1570286299.31364
1570286299.32927
1570286299.34489
1570286299.36052
1570286299.37614
1570286299.39177
1570286299.4074
1570286299.42302
1570286299.43865
1570286299.45427
1570286299.4699
1570286299.48552
1570286299.50115
1570286299.51678
1570286299.5324
1570286299.54803
1570286299.56365
1570286299.57928
1570286299.5949
1570286299.61053
1570286299.62616
1570286299.64178
1570286299.65741
1570286299.67303
1570286299.68866
1570286299.70428
1570286299.71991
1570286299.73554
1570286299.75116
1570286299.76679
1570286299.78241
1570286299.79804
1570286299.81366
1570286299.82929
1570286299.84492
1570286299.86054
1570286299.87617
1570286299.89179
1570286299.90742
1570286299.92304
1570286299.93867
1570286299.9543
1570286299.96992
1570286299.98555
1570286300.00117
1570286300.0168
1570286300.03242
1570286300.04805
1570286300.06368
1570286300.0793
1570286300.09493
1570286300.11055
1570286300.12618
1570286300.1418
1570286300.15743
1570286300.17306
1570286300.18868
1570286300.20431
1570286300.21993
1570286300.23556
1570286300.25118
1570286300.26681
1570286300.28244
1570286300.29806
1570286300.31369
1570286300.32931
1570286300.34494
1570286300.36056
1570286300.37619
1570286300.39182
1570286300.40744
1570286300.42307
1570286300.43869
1570286300.45432
1570286300.46994
1570286300.48557
1570286300.5012
1570286300.51682
1570286300.53245
1570286300.54807
1570286300.5637
1570286300.57932
1570286300.59495
1570286300.61058
1570286300.6262
1570286300.64183
1570286300.65745
1570286300.67308
1570286300.6887
1570286300.70433
1570286300.71996
1570286300.73558
1570286300.75121
1570286300.76683
1570286300.78246
1570286300.79808
1570286300.81371
1570286300.82934
1570286300.84496
1570286300.86059
1570286300.87621
1570286300.89184
1570286300.90747
1570286300.92309
1570286300.93872
1570286300.95434
1570286300.96997
1570286300.98559
1570286301.00122
1570286301.01685
1570286301.03247
1570286301.0481
1570286301.06372
1570286301.07935
1570286301.09497
1570286301.1106
1570286301.12623
1570286301.14185
1570286301.15748
1570286301.1731
1570286301.18873
1570286301.20435
1570286301.21998
1570286301.23561
1570286301.25123
1570286301.26686
1570286301.28248
1570286301.29811
1570286301.31373
1570286301.32936
1570286301.34499
1570286301.36061
1570286301.37624
1570286301.39186
1570286301.40749
1570286301.42311
1570286301.43874
1570286301.45437
1570286301.46999
1570286301.48562
1570286301.50124
1570286301.51687
1570286301.53249
1570286301.54812
1570286301.56375
1570286301.57937
1570286301.595
1570286301.61062
1570286301.62625
1570286301.64187
1570286301.6575
1570286301.67313
1570286301.68875
1570286301.70438
1570286301.72
1570286301.73563
1570286301.75125
1570286301.76688
1570286301.78251
1570286301.79813
1570286301.81376
1570286301.82938
1570286301.84501
1570286301.86063
1570286301.87626
1570286301.89189
1570286301.90751
1570286301.92314
1570286301.93876
1570286301.95439
1570286301.97001
1570286301.98564
1570286302.00127
1570286302.01689
1570286302.03252
1570286302.04814
1570286302.06377
1570286302.07939
1570286302.09502
1570286302.11065
1570286302.12627
1570286302.1419
1570286302.15752
1570286302.17315
1570286302.18877
1570286302.2044
1570286302.22003
1570286302.23565
1570286302.25128
1570286302.2669
1570286302.28253
1570286302.29815
1570286302.31378
1570286302.32941
1570286302.34503
1570286302.36066
1570286302.37628
1570286302.39191
1570286302.40753
1570286302.42316
1570286302.43879
1570286302.45441
1570286302.47004
1570286302.48566
1570286302.50129
1570286302.51691
1570286302.53254
1570286302.54817
1570286302.56379
1570286302.57942
1570286302.59504
1570286302.61067
1570286302.62629
1570286302.64192
1570286302.65755
1570286302.67317
1570286302.6888
1570286302.70442
1570286302.72005
1570286302.73567
1570286302.7513
1570286302.76693
1570286302.78255
1570286302.79818
1570286302.8138
1570286302.82943
1570286302.84505
1570286302.86068
1570286302.87631
1570286302.89193
1570286302.90756
1570286302.92318
1570286302.93881
1570286302.95443
1570286302.97006
1570286302.98569
1570286303.00131
1570286303.01694
1570286303.03256
1570286303.04819
1570286303.06382
1570286303.07944
1570286303.09507
1570286303.11069
1570286303.12632
1570286303.14194
1570286303.15757
1570286303.1732
1570286303.18882
1570286303.20445
1570286303.22007
1570286303.2357
1570286303.25132
1570286303.26695
1570286303.28258
1570286303.2982
1570286303.31383
1570286303.32945
1570286303.34508
1570286303.3607
1570286303.37633
1570286303.39196
1570286303.40758
1570286303.42321
1570286303.43883
1570286303.45446
1570286303.47008
1570286303.48571
1570286303.50134
1570286303.51696
1570286303.53259
1570286303.54821
1570286303.56384
1570286303.57946
1570286303.59509
1570286303.61072
1570286303.62634
1570286303.64197
1570286303.65759
1570286303.67322
1570286303.68884
1570286303.70447
1570286303.7201
1570286303.73572
1570286303.75135
1570286303.76697
1570286303.7826
1570286303.79822
1570286303.81385
1570286303.82948
1570286303.8451
1570286303.86073
1570286303.87635
1570286303.89198
1570286303.9076
1570286303.92323
1570286303.93886
1570286303.95448
1570286303.97011
1570286303.98573
1570286304.00136
1570286304.01698
1570286304.03261
1570286304.04824
1570286304.06386
1570286304.07949
1570286304.09511
1570286304.11074
1570286304.12636
1570286304.14199
1570286304.15762
1570286304.17324
1570286304.18887
1570286304.20449
1570286304.22012
1570286304.23574
1570286304.25137
1570286304.267
1570286304.28262
1570286304.29825
1570286304.31387
1570286304.3295
1570286304.34512
1570286304.36075
1570286304.37638
1570286304.392
1570286304.40763
1570286304.42325
1570286304.43888
1570286304.4545
1570286304.47013
1570286304.48576
1570286304.50138
1570286304.51701
1570286304.53263
1570286304.54826
1570286304.56388
1570286304.57951
1570286304.59514
1570286304.61076
1570286304.62639
1570286304.64201
1570286304.65764
1570286304.67326
1570286304.68889
1570286304.70452
1570286304.72014
1570286304.73577
1570286304.75139
1570286304.76702
1570286304.78264
1570286304.79827
1570286304.8139
1570286304.82952
1570286304.84515
1570286304.86077
1570286304.8764
1570286304.89202
1570286304.90765
1570286304.92328
1570286304.9389
1570286304.95453
1570286304.97015
1570286304.98578
1570286305.0014
1570286305.01703
1570286305.03266
1570286305.04828
1570286305.06391
1570286305.07953
1570286305.09516
1570286305.11078
1570286305.12641
1570286305.14204
1570286305.15766
1570286305.17329
1570286305.18891
1570286305.20454
1570286305.22016
1570286305.23579
1570286305.25142
1570286305.26704
1570286305.28267
1570286305.29829
1570286305.31392
1570286305.32955
1570286305.34517
1570286305.3608
1570286305.37642
1570286305.39205
1570286305.40767
1570286305.4233
1570286305.43893
1570286305.45455
1570286305.47018
1570286305.4858
1570286305.50143
1570286305.51705
1570286305.53268
1570286305.54831
1570286305.56393
1570286305.57956
1570286305.59518
1570286305.61081
1570286305.62643
1570286305.64206
1570286305.65769
1570286305.67331
1570286305.68894
1570286305.70456
1570286305.72019
1570286305.73581
1570286305.75144
1570286305.76707
1570286305.78269
1570286305.79832
1570286305.81394
1570286305.82957
1570286305.84519
1570286305.86082
1570286305.87645
1570286305.89207
1570286305.9077
1570286305.92332
1570286305.93895
1570286305.95457
1570286305.9702
1570286305.98583
1570286306.00145
1570286306.01708
1570286306.0327
1570286306.04833
1570286306.06395
1570286306.07958
1570286306.09521
1570286306.11083
1570286306.12646
1570286306.14208
1570286306.15771
1570286306.17333
1570286306.18896
1570286306.20459
1570286306.22021
1570286306.23584
1570286306.25146
1570286306.26709
1570286306.28271
1570286306.29834
1570286306.31397
1570286306.32959
1570286306.34522
1570286306.36084
1570286306.37647
1570286306.39209
1570286306.40772
1570286306.42335
1570286306.43897
1570286306.4546
1570286306.47022
1570286306.48585
1570286306.50147
1570286306.5171
1570286306.53273
1570286306.54835
1570286306.56398
1570286306.5796
1570286306.59523
1570286306.61085
1570286306.62648
1570286306.64211
1570286306.65773
1570286306.67336
1570286306.68898
1570286306.70461
1570286306.72023
1570286306.73586
1570286306.75149
1570286306.76711
1570286306.78274
1570286306.79836
1570286306.81399
1570286306.82961
1570286306.84524
1570286306.86087
1570286306.87649
1570286306.89212
1570286306.90774
1570286306.92337
1570286306.93899
1570286306.95462
1570286306.97025
1570286306.98587
1570286307.0015
1570286307.01712
1570286307.03275
1570286307.04837
1570286307.064
1570286307.07963
1570286307.09525
1570286307.11088
1570286307.1265
1570286307.14213
1570286307.15775
1570286307.17338
1570286307.18901
1570286307.20463
1570286307.22026
1570286307.23588
1570286307.25151
1570286307.26713
1570286307.28276
1570286307.29839
1570286307.31401
1570286307.32964
1570286307.34526
1570286307.36089
1570286307.37651
1570286307.39214
1570286307.40777
1570286307.42339
1570286307.43902
1570286307.45464
1570286307.47027
1570286307.48589
1570286307.50152
1570286307.51715
1570286307.53277
1570286307.5484
1570286307.56402
1570286307.57965
1570286307.59527
1570286307.6109
1570286307.62653
1570286307.64215
1570286307.65778
1570286307.6734
1570286307.68903
1570286307.70465
1570286307.72028
1570286307.73591
1570286307.75153
1570286307.76716
1570286307.78278
1570286307.79841
1570286307.81403
1570286307.82966
1570286307.84529
1570286307.86091
1570286307.87654
1570286307.89216
1570286307.90779
1570286307.92342
1570286307.93904
1570286307.95467
1570286307.97029
1570286307.98592
1570286308.00154
1570286308.01717
1570286308.0328
1570286308.04842
1570286308.06405
1570286308.07967
1570286308.0953
1570286308.11092
1570286308.12655
1570286308.14218
1570286308.1578
1570286308.17343
1570286308.18905
1570286308.20468
1570286308.2203
1570286308.23593
1570286308.25156
1570286308.26718
1570286308.28281
1570286308.29843
1570286308.31406
1570286308.32968
1570286308.34531
1570286308.36094
1570286308.37656
1570286308.39219
1570286308.40781
1570286308.42344
1570286308.43906
1570286308.45469
1570286308.47032
1570286308.48594
1570286308.50157
1570286308.51719
1570286308.53282
1570286308.54844
1570286308.56407
1570286308.5797
1570286308.59532
1570286308.61095
1570286308.62657
1570286308.6422
1570286308.65782
1570286308.67345
1570286308.68908
1570286308.7047
1570286308.72033
1570286308.73595
1570286308.75158
1570286308.7672
1570286308.78283
1570286308.79846
1570286308.81408
1570286308.82971
1570286308.84533
1570286308.86096
1570286308.87658
1570286308.89221
1570286308.90784
1570286308.92346
1570286308.93909
1570286308.95471
1570286308.97034
1570286308.98596
1570286309.00159
1570286309.01722
1570286309.03284
1570286309.04847
1570286309.06409
1570286309.07972
1570286309.09534
1570286309.11097
1570286309.1266
1570286309.14222
1570286309.15785
1570286309.17347
1570286309.1891
1570286309.20472
1570286309.22035
1570286309.23598
1570286309.2516
1570286309.26723
1570286309.28285
1570286309.29848
1570286309.3141
1570286309.32973
1570286309.34536
1570286309.36098
1570286309.37661
1570286309.39223
1570286309.40786
1570286309.42348
1570286309.43911
1570286309.45474
1570286309.47036
1570286309.48599
1570286309.50161
1570286309.51724
1570286309.53286
1570286309.54849
1570286309.56412
1570286309.57974
1570286309.59537
1570286309.61099
1570286309.62662
1570286309.64224
1570286309.65787
1570286309.6735
1570286309.68912
1570286309.70475
1570286309.72037
1570286309.736
1570286309.75162
1570286309.76725
1570286309.78288
1570286309.7985
1570286309.81413
1570286309.82975
1570286309.84538
1570286309.861
1570286309.87663
1570286309.89226
1570286309.90788
1570286309.92351
1570286309.93913
1570286309.95476
1570286309.97038
1570286309.98601
1570286310.00164
1570286310.01726
1570286310.03289
1570286310.04851
1570286310.06414
1570286310.07976
1570286310.09539
1570286310.11102
1570286310.12664
1570286310.14227
1570286310.15789
1570286310.17352
1570286310.18915
1570286310.20477
1570286310.2204
1570286310.23602
1570286310.25165
1570286310.26727
1570286310.2829
1570286310.29853
1570286310.31415
1570286310.32978
1570286310.3454
1570286310.36103
1570286310.37665
1570286310.39228
1570286310.40791
1570286310.42353
1570286310.43916
1570286310.45478
1570286310.47041
1570286310.48603
1570286310.50166
1570286310.51729
1570286310.53291
1570286310.54854
1570286310.56416
1570286310.57979
1570286310.59541
1570286310.61104
1570286310.62667
1570286310.64229
1570286310.65792
1570286310.67354
1570286310.68917
1570286310.70479
1570286310.72042
1570286310.73605
1570286310.75167
1570286310.7673
1570286310.78292
1570286310.79855
1570286310.81417
1570286310.8298
1570286310.84543
1570286310.86105
1570286310.87668
1570286310.8923
1570286310.90793
1570286310.92355
1570286310.93918
1570286310.95481
1570286310.97043
1570286310.98606
1570286311.00168
1570286311.01731
1570286311.03293
1570286311.04856
1570286311.06419
1570286311.07981
1570286311.09544
1570286311.11106
1570286311.12669
1570286311.14231
1570286311.15794
1570286311.17357
1570286311.18919
1570286311.20482
1570286311.22044
1570286311.23607
1570286311.25169
1570286311.26732
1570286311.28295
1570286311.29857
1570286311.3142
1570286311.32982
1570286311.34545
1570286311.36107
1570286311.3767
1570286311.39233
1570286311.40795
1570286311.42358
1570286311.4392
1570286311.45483
1570286311.47045
1570286311.48608
1570286311.50171
1570286311.51733
1570286311.53296
1570286311.54858
1570286311.56421
1570286311.57983
1570286311.59546
1570286311.61109
1570286311.62671
1570286311.64234
1570286311.65796
1570286311.67359
1570286311.68921
1570286311.70484
1570286311.72047
1570286311.73609
1570286311.75172
1570286311.76734
1570286311.78297
1570286311.79859
1570286311.81422
1570286311.82985
1570286311.84547
1570286311.8611
1570286311.87672
1570286311.89235
1570286311.90797
1570286311.9236
1570286311.93923
1570286311.95485
1570286311.97048
1570286311.9861
1570286312.00173
1570286312.01735
1570286312.03298
1570286312.04861
1570286312.06423
1570286312.07986
1570286312.09548
1570286312.11111
1570286312.12673
1570286312.14236
1570286312.15799
1570286312.17361
1570286312.18924
1570286312.20486
1570286312.22049
1570286312.23611
1570286312.25174
1570286312.26737
1570286312.28299
1570286312.29862
1570286312.31424
1570286312.32987
1570286312.34549
1570286312.36112
1570286312.37675
1570286312.39237
1570286312.408
1570286312.42362
1570286312.43925
1570286312.45487
1570286312.4705
1570286312.48613
1570286312.50175
1570286312.51738
1570286312.533
1570286312.54863
1570286312.56426
1570286312.57988
1570286312.59551
1570286312.61113
1570286312.62676
1570286312.64238
1570286312.65801
1570286312.67364
1570286312.68926
1570286312.70489
1570286312.72051
1570286312.73614
1570286312.75176
1570286312.76739
1570286312.78302
1570286312.79864
1570286312.81427
1570286312.82989
1570286312.84552
1570286312.86114
1570286312.87677
1570286312.8924
1570286312.90802
1570286312.92365
1570286312.93927
1570286312.9549
1570286312.97052
1570286312.98615
1570286313.00178
1570286313.0174
1570286313.03303
1570286313.04865
1570286313.06428
1570286313.0799
1570286313.09553
1570286313.11116
1570286313.12678
1570286313.14241
1570286313.15803
1570286313.17366
1570286313.18928
1570286313.20491
1570286313.22054
1570286313.23616
1570286313.25179
1570286313.26741
1570286313.28304
1570286313.29866
1570286313.31429
1570286313.32992
1570286313.34554
1570286313.36117
1570286313.37679
1570286313.39242
1570286313.40804
1570286313.42367
1570286313.4393
1570286313.45492
1570286313.47055
1570286313.48617
1570286313.5018
1570286313.51742
1570286313.53305
1570286313.54868
1570286313.5643
1570286313.57993
1570286313.59555
1570286313.61118
1570286313.6268
1570286313.64243
1570286313.65806
1570286313.67368
1570286313.68931
1570286313.70493
1570286313.72056
1570286313.73618
1570286313.75181
1570286313.76744
1570286313.78306
1570286313.79869
1570286313.81431
1570286313.82994
1570286313.84556
1570286313.86119
1570286313.87682
1570286313.89244
1570286313.90807
1570286313.92369
1570286313.93932
1570286313.95494
1570286313.97057
1570286313.9862
1570286314.00182
1570286314.01745
1570286314.03307
1570286314.0487
1570286314.06432
1570286314.07995
1570286314.09558
1570286314.1112
1570286314.12683
1570286314.14245
1570286314.15808
1570286314.1737
1570286314.18933
1570286314.20496
1570286314.22058
1570286314.23621
1570286314.25183
1570286314.26746
1570286314.28308
1570286314.29871
1570286314.31434
1570286314.32996
1570286314.34559
1570286314.36121
1570286314.37684
1570286314.39246
1570286314.40809
1570286314.42372
1570286314.43934
1570286314.45497
1570286314.47059
1570286314.48622
1570286314.50184
1570286314.51747
1570286314.5331
1570286314.54872
1570286314.56435
1570286314.57997
1570286314.5956
1570286314.61122
1570286314.62685
1570286314.64248
1570286314.6581
1570286314.67373
1570286314.68935
1570286314.70498
1570286314.7206
1570286314.73623
1570286314.75186
1570286314.76748
1570286314.78311
1570286314.79873
1570286314.81436
1570286314.82998
1570286314.84561
1570286314.86124
1570286314.87686
1570286314.89249
1570286314.90811
1570286314.92374
1570286314.93936
1570286314.95499
1570286314.97062
1570286314.98624
1570286315.00187
1570286315.01749
1570286315.03312
1570286315.04875
1570286315.06437
1570286315.08
1570286315.09562
1570286315.11125
1570286315.12687
1570286315.1425
1570286315.15813
1570286315.17375
1570286315.18938
1570286315.205
1570286315.22063
1570286315.23625
1570286315.25188
1570286315.26751
1570286315.28313
1570286315.29876
1570286315.31438
1570286315.33001
1570286315.34563
1570286315.36126
1570286315.37689
1570286315.39251
1570286315.40814
1570286315.42376
1570286315.43939
1570286315.45501
1570286315.47064
1570286315.48627
1570286315.50189
1570286315.51752
1570286315.53314
1570286315.54877
1570286315.56439
1570286315.58002
1570286315.59565
1570286315.61127
1570286315.6269
1570286315.64252
1570286315.65815
1570286315.67377
1570286315.6894
1570286315.70503
1570286315.72065
1570286315.73628
1570286315.7519
1570286315.76753
1570286315.78315
1570286315.79878
1570286315.81441
1570286315.83003
1570286315.84566
1570286315.86128
1570286315.87691
1570286315.89253
1570286315.90816
1570286315.92379
1570286315.93941
1570286315.95504
1570286315.97066
1570286315.98629
1570286316.00191
1570286316.01754
1570286316.03317
1570286316.04879
1570286316.06442
1570286316.08004
1570286316.09567
1570286316.11129
1570286316.12692
1570286316.14255
1570286316.15817
1570286316.1738
1570286316.18942
1570286316.20505
1570286316.22067
1570286316.2363
1570286316.25193
1570286316.26755
1570286316.28318
1570286316.2988
1570286316.31443
1570286316.33005
1570286316.34568
1570286316.36131
1570286316.37693
1570286316.39256
1570286316.40818
1570286316.42381
1570286316.43943
1570286316.45506
1570286316.47069
1570286316.48631
1570286316.50194
1570286316.51756
1570286316.53319
1570286316.54881
1570286316.56444
1570286316.58007
1570286316.59569
1570286316.61132
1570286316.62694
1570286316.64257
1570286316.65819
1570286316.67382
1570286316.68945
1570286316.70507
1570286316.7207
1570286316.73632
1570286316.75195
1570286316.76757
1570286316.7832
1570286316.79883
1570286316.81445
1570286316.83008
1570286316.8457
1570286316.86133
1570286316.87695
1570286316.89258
1570286316.90821
1570286316.92383
1570286316.93946
1570286316.95508
1570286316.97071
1570286316.98633
1570286317.00196
1570286317.01759
1570286317.03321
1570286317.04884
1570286317.06446
1570286317.08009
1570286317.09571
1570286317.11134
1570286317.12697
1570286317.14259
1570286317.15822
1570286317.17384
1570286317.18947
1570286317.20509
1570286317.22072
1570286317.23635
1570286317.25197
1570286317.2676
1570286317.28322
1570286317.29885
1570286317.31448
1570286317.3301
1570286317.34573
1570286317.36135
1570286317.37698
1570286317.3926
1570286317.40823
1570286317.42386
1570286317.43948
1570286317.45511
1570286317.47073
1570286317.48636
1570286317.50198
1570286317.51761
1570286317.53324
1570286317.54886
1570286317.56449
1570286317.58011
1570286317.59574
1570286317.61136
1570286317.62699
1570286317.64262
1570286317.65824
1570286317.67387
1570286317.68949
1570286317.70512
1570286317.72074
1570286317.73637
1570286317.752
1570286317.76762
1570286317.78325
1570286317.79887
1570286317.8145
1570286317.83012
1570286317.84575
1570286317.86138
1570286317.877
1570286317.89263
1570286317.90825
1570286317.92388
1570286317.9395
1570286317.95513
1570286317.97076
1570286317.98638
1570286318.00201
1570286318.01763
1570286318.03326
1570286318.04888
1570286318.06451
1570286318.08014
1570286318.09576
1570286318.11139
1570286318.12701
1570286318.14264
1570286318.15826
1570286318.17389
1570286318.18952
1570286318.20514
1570286318.22077
1570286318.23639
1570286318.25202
1570286318.26764
1570286318.28327
1570286318.2989
1570286318.31452
1570286318.33015
1570286318.34577
1570286318.3614
1570286318.37702
1570286318.39265
1570286318.40828
1570286318.4239
1570286318.43953
1570286318.45515
1570286318.47078
1570286318.4864
1570286318.50203
1570286318.51766
1570286318.53328
1570286318.54891
1570286318.56453
1570286318.58016
1570286318.59578
1570286318.61141
1570286318.62704
1570286318.64266
1570286318.65829
1570286318.67391
1570286318.68954
1570286318.70516
1570286318.72079
1570286318.73642
1570286318.75204
1570286318.76767
1570286318.78329
1570286318.79892
1570286318.81454
1570286318.83017
1570286318.8458
1570286318.86142
1570286318.87705
1570286318.89267
1570286318.9083
1570286318.92392
1570286318.93955
1570286318.95518
1570286318.9708
1570286318.98643
1570286319.00205
1570286319.01768
1570286319.0333
1570286319.04893
1570286319.06456
1570286319.08018
1570286319.09581
1570286319.11143
1570286319.12706
1570286319.14268
1570286319.15831
1570286319.17394
1570286319.18956
1570286319.20519
1570286319.22081
1570286319.23644
1570286319.25206
1570286319.26769
1570286319.28332
1570286319.29894
1570286319.31457
1570286319.33019
1570286319.34582
1570286319.36144
1570286319.37707
1570286319.3927
1570286319.40832
1570286319.42395
1570286319.43957
1570286319.4552
1570286319.47082
1570286319.48645
1570286319.50208
1570286319.5177
1570286319.53333
1570286319.54895
1570286319.56458
1570286319.5802
1570286319.59583
1570286319.61146
1570286319.62708
1570286319.64271
1570286319.65833
1570286319.67396
1570286319.68958
1570286319.70521
1570286319.72084
1570286319.73646
1570286319.75209
1570286319.76771
1570286319.78334
1570286319.79896
1570286319.81459
1570286319.83022
1570286319.84584
1570286319.86147
1570286319.87709
1570286319.89272
1570286319.90835
1570286319.92397
1570286319.9396
1570286319.95522
1570286319.97085
1570286319.98647
1570286320.0021
1570286320.01773
1570286320.03335
1570286320.04898
1570286320.0646
1570286320.08023
1570286320.09585
1570286320.11148
1570286320.12711
1570286320.14273
1570286320.15836
1570286320.17398
1570286320.18961
1570286320.20523
1570286320.22086
1570286320.23649
1570286320.25211
1570286320.26774
1570286320.28336
1570286320.29899
1570286320.31461
1570286320.33024
1570286320.34587
1570286320.36149
1570286320.37712
1570286320.39274
1570286320.40837
1570286320.42399
1570286320.43962
1570286320.45525
1570286320.47087
1570286320.4865
1570286320.50212
1570286320.51775
1570286320.53337
1570286320.549
1570286320.56463
1570286320.58025
1570286320.59588
1570286320.6115
1570286320.62713
1570286320.64275
1570286320.65838
1570286320.67401
1570286320.68963
1570286320.70526
1570286320.72088
1570286320.73651
1570286320.75213
1570286320.76776
1570286320.78339
1570286320.79901
1570286320.81464
1570286320.83026
1570286320.84589
1570286320.86151
1570286320.87714
1570286320.89277
1570286320.90839
1570286320.92402
1570286320.93964
1570286320.95527
1570286320.97089
1570286320.98652
1570286321.00215
1570286321.01777
1570286321.0334
1570286321.04902
1570286321.06465
1570286321.08027
1570286321.0959
1570286321.11153
1570286321.12715
1570286321.14278
1570286321.1584
1570286321.17403
1570286321.18965
1570286321.20528
1570286321.22091
1570286321.23653
1570286321.25216
1570286321.26778
1570286321.28341
1570286321.29903
1570286321.31466
1570286321.33029
1570286321.34591
1570286321.36154
1570286321.37716
1570286321.39279
1570286321.40841
1570286321.42404
1570286321.43967
1570286321.45529
1570286321.47092
1570286321.48654
1570286321.50217
1570286321.51779
1570286321.53342
1570286321.54905
1570286321.56467
1570286321.5803
1570286321.59592
1570286321.61155
1570286321.62717
1570286321.6428
1570286321.65843
1570286321.67405
1570286321.68968
1570286321.7053
1570286321.72093
1570286321.73655
1570286321.75218
1570286321.76781
1570286321.78343
1570286321.79906
1570286321.81468
1570286321.83031
1570286321.84593
1570286321.86156
1570286321.87719
1570286321.89281
1570286321.90844
1570286321.92406
1570286321.93969
1570286321.95531
1570286321.97094
1570286321.98657
1570286322.00219
1570286322.01782
1570286322.03344
1570286322.04907
1570286322.06469
1570286322.08032
1570286322.09595
1570286322.11157
1570286322.1272
1570286322.14282
1570286322.15845
1570286322.17408
1570286322.1897
1570286322.20533
1570286322.22095
1570286322.23658
1570286322.2522
1570286322.26783
1570286322.28346
1570286322.29908
1570286322.31471
1570286322.33033
1570286322.34596
1570286322.36158
1570286322.37721
1570286322.39284
1570286322.40846
1570286322.42409
1570286322.43971
1570286322.45534
1570286322.47096
1570286322.48659
1570286322.50222
1570286322.51784
1570286322.53347
1570286322.54909
1570286322.56472
1570286322.58034
1570286322.59597
1570286322.6116
1570286322.62722
1570286322.64285
1570286322.65847
1570286322.6741
1570286322.68972
1570286322.70535
1570286322.72098
1570286322.7366
1570286322.75223
1570286322.76785
1570286322.78348
1570286322.7991
1570286322.81473
1570286322.83036
1570286322.84598
1570286322.86161
1570286322.87723
1570286322.89286
1570286322.90848
1570286322.92411
1570286322.93974
1570286322.95536
1570286322.97099
1570286322.98661
1570286323.00224
1570286323.01786
1570286323.03349
1570286323.04912
1570286323.06474
1570286323.08037
1570286323.09599
1570286323.11162
1570286323.12724
1570286323.14287
1570286323.1585
1570286323.17412
1570286323.18975
1570286323.20537
1570286323.221
1570286323.23662
1570286323.25225
1570286323.26788
1570286323.2835
1570286323.29913
1570286323.31475
1570286323.33038
1570286323.346
1570286323.36163
1570286323.37726
1570286323.39288
1570286323.40851
1570286323.42413
1570286323.43976
1570286323.45538
1570286323.47101
1570286323.48664
1570286323.50226
1570286323.51789
1570286323.53351
1570286323.54914
1570286323.56476
1570286323.58039
1570286323.59602
1570286323.61164
1570286323.62727
1570286323.64289
1570286323.65852
1570286323.67414
1570286323.68977
1570286323.7054
1570286323.72102
1570286323.73665
1570286323.75227
1570286323.7679
1570286323.78352
1570286323.79915
1570286323.81478
1570286323.8304
1570286323.84603
1570286323.86165
1570286323.87728
1570286323.8929
1570286323.90853
1570286323.92416
1570286323.93978
1570286323.95541
1570286323.97103
1570286323.98666
1570286324.00228
1570286324.01791
1570286324.03354
1570286324.04916
1570286324.06479
1570286324.08041
1570286324.09604
1570286324.11166
1570286324.12729
1570286324.14292
1570286324.15854
1570286324.17417
1570286324.18979
1570286324.20542
1570286324.22104
1570286324.23667
1570286324.2523
1570286324.26792
1570286324.28355
1570286324.29917
1570286324.3148
1570286324.33043
1570286324.34605
1570286324.36168
1570286324.3773
1570286324.39293
1570286324.40855
1570286324.42418
1570286324.43981
1570286324.45543
1570286324.47106
1570286324.48668
1570286324.50231
1570286324.51793
1570286324.53356
1570286324.54919
1570286324.56481
1570286324.58044
1570286324.59606
1570286324.61169
1570286324.62731
1570286324.64294
1570286324.65857
1570286324.67419
1570286324.68982
1570286324.70544
1570286324.72107
1570286324.73669
1570286324.75232
1570286324.76795
1570286324.78357
1570286324.7992
1570286324.81482
1570286324.83045
1570286324.84607
1570286324.8617
1570286324.87733
1570286324.89295
1570286324.90858
1570286324.9242
1570286324.93983
1570286324.95545
1570286324.97108
1570286324.98671
1570286325.00233
1570286325.01796
1570286325.03358
1570286325.04921
1570286325.06483
1570286325.08046
1570286325.09609
1570286325.11171
1570286325.12734
1570286325.14296
1570286325.15859
1570286325.17421
1570286325.18984
1570286325.20547
1570286325.22109
1570286325.23672
1570286325.25234
1570286325.26797
1570286325.28359
1570286325.29922
1570286325.31485
1570286325.33047
1570286325.3461
1570286325.36172
1570286325.37735
1570286325.39297
1570286325.4086
1570286325.42423
1570286325.43985
1570286325.45548
1570286325.4711
1570286325.48673
1570286325.50235
1570286325.51798
1570286325.53361
1570286325.54923
1570286325.56486
1570286325.58048
1570286325.59611
1570286325.61173
1570286325.62736
1570286325.64299
1570286325.65861
1570286325.67424
1570286325.68986
1570286325.70549
1570286325.72111
1570286325.73674
1570286325.75237
1570286325.76799
1570286325.78362
1570286325.79924
1570286325.81487
1570286325.83049
1570286325.84612
1570286325.86175
1570286325.87737
1570286325.893
1570286325.90862
1570286325.92425
1570286325.93987
1570286325.9555
1570286325.97113
1570286325.98675
1570286326.00238
1570286326.018
1570286326.03363
1570286326.04925
1570286326.06488
1570286326.08051
1570286326.09613
1570286326.11176
1570286326.12738
1570286326.14301
1570286326.15863
1570286326.17426
1570286326.18989
1570286326.20551
1570286326.22114
1570286326.23676
1570286326.25239
1570286326.26801
1570286326.28364
1570286326.29927
1570286326.31489
1570286326.33052
1570286326.34614
1570286326.36177
1570286326.37739
1570286326.39302
1570286326.40865
1570286326.42427
1570286326.4399
1570286326.45552
1570286326.47115
1570286326.48677
1570286326.5024
1570286326.51803
1570286326.53365
1570286326.54928
1570286326.5649
1570286326.58053
1570286326.59615
1570286326.61178
1570286326.62741
1570286326.64303
1570286326.65866
1570286326.67428
1570286326.68991
1570286326.70553
1570286326.72116
1570286326.73679
1570286326.75241
1570286326.76804
1570286326.78366
1570286326.79929
1570286326.81491
1570286326.83054
1570286326.84617
1570286326.86179
1570286326.87742
1570286326.89304
1570286326.90867
1570286326.92429
1570286326.93992
1570286326.95555
1570286326.97117
1570286326.9868
1570286327.00242
1570286327.01805
1570286327.03368
1570286327.0493
1570286327.06493
1570286327.08055
1570286327.09618
1570286327.1118
1570286327.12743
1570286327.14306
1570286327.15868
1570286327.17431
1570286327.18993
1570286327.20556
1570286327.22118
1570286327.23681
1570286327.25244
1570286327.26806
1570286327.28369
1570286327.29931
1570286327.31494
1570286327.33056
1570286327.34619
1570286327.36182
1570286327.37744
1570286327.39307
1570286327.40869
1570286327.42432
1570286327.43994
1570286327.45557
1570286327.4712
1570286327.48682
1570286327.50245
1570286327.51807
1570286327.5337
1570286327.54932
1570286327.56495
1570286327.58058
1570286327.5962
1570286327.61183
1570286327.62745
1570286327.64308
1570286327.6587
1570286327.67433
1570286327.68996
1570286327.70558
1570286327.72121
1570286327.73683
1570286327.75246
1570286327.76808
1570286327.78371
1570286327.79934
1570286327.81496
1570286327.83059
1570286327.84621
1570286327.86184
1570286327.87746
1570286327.89309
1570286327.90872
1570286327.92434
1570286327.93997
1570286327.95559
1570286327.97122
1570286327.98684
1570286328.00247
1570286328.0181
1570286328.03372
1570286328.04935
1570286328.06497
1570286328.0806
1570286328.09622
1570286328.11185
1570286328.12748
1570286328.1431
1570286328.15873
1570286328.17435
1570286328.18998
1570286328.2056
1570286328.22123
1570286328.23686
1570286328.25248
1570286328.26811
1570286328.28373
1570286328.29936
1570286328.31498
1570286328.33061
1570286328.34624
1570286328.36186
1570286328.37749
1570286328.39311
1570286328.40874
1570286328.42436
1570286328.43999
1570286328.45562
1570286328.47124
1570286328.48687
1570286328.50249
1570286328.51812
1570286328.53374
1570286328.54937
1570286328.565
1570286328.58062
1570286328.59625
1570286328.61187
1570286328.6275
1570286328.64312
1570286328.65875
1570286328.67438
1570286328.69
1570286328.70563
1570286328.72125
1570286328.73688
1570286328.7525
1570286328.76813
1570286328.78376
1570286328.79938
1570286328.81501
1570286328.83063
1570286328.84626
1570286328.86188
1570286328.87751
1570286328.89314
1570286328.90876
1570286328.92439
1570286328.94001
1570286328.95564
1570286328.97126
1570286328.98689
1570286329.00252
1570286329.01814
1570286329.03377
1570286329.04939
1570286329.06502
1570286329.08064
1570286329.09627
1570286329.1119
1570286329.12752
1570286329.14315
1570286329.15877
1570286329.1744
1570286329.19003
1570286329.20565
1570286329.22128
1570286329.2369
1570286329.25253
1570286329.26815
1570286329.28378
1570286329.29941
1570286329.31503
1570286329.33066
1570286329.34628
1570286329.36191
1570286329.37753
1570286329.39316
1570286329.40879
1570286329.42441
1570286329.44004
1570286329.45566
1570286329.47129
1570286329.48691
1570286329.50254
1570286329.51817
1570286329.53379
1570286329.54942
1570286329.56504
1570286329.58067
1570286329.59629
1570286329.61192
1570286329.62755
1570286329.64317
1570286329.6588
1570286329.67442
1570286329.69005
1570286329.70567
1570286329.7213
1570286329.73693
1570286329.75255
1570286329.76818
1570286329.7838
1570286329.79943
1570286329.81505
1570286329.83068
1570286329.84631
1570286329.86193
1570286329.87756
1570286329.89318
1570286329.90881
1570286329.92443
1570286329.94006
1570286329.95569
1570286329.97131
1570286329.98694
1570286330.00256
1570286330.01819
1570286330.03381
1570286330.04944
1570286330.06507
1570286330.08069
1570286330.09632
1570286330.11194
1570286330.12757
1570286330.14319
1570286330.15882
1570286330.17445
1570286330.19007
1570286330.2057
1570286330.22132
1570286330.23695
1570286330.25257
1570286330.2682
1570286330.28383
1570286330.29945
1570286330.31508
1570286330.3307
1570286330.34633
1570286330.36195
1570286330.37758
1570286330.39321
1570286330.40883
1570286330.42446
1570286330.44008
1570286330.45571
1570286330.47133
1570286330.48696
1570286330.50259
1570286330.51821
1570286330.53384
1570286330.54946
1570286330.56509
1570286330.58071
1570286330.59634
1570286330.61197
1570286330.62759
1570286330.64322
1570286330.65884
1570286330.67447
1570286330.69009
1570286330.70572
1570286330.72135
1570286330.73697
1570286330.7526
1570286330.76822
1570286330.78385
1570286330.79947
1570286330.8151
1570286330.83073
1570286330.84635
1570286330.86198
1570286330.8776
1570286330.89323
1570286330.90885
1570286330.92448
1570286330.94011
1570286330.95573
1570286330.97136
1570286330.98698
1570286331.00261
1570286331.01823
1570286331.03386
1570286331.04949
1570286331.06511
1570286331.08074
1570286331.09636
1570286331.11199
1570286331.12761
1570286331.14324
1570286331.15887
1570286331.17449
1570286331.19012
1570286331.20574
1570286331.22137
1570286331.23699
1570286331.25262
1570286331.26825
1570286331.28387
1570286331.2995
1570286331.31512
1570286331.33075
1570286331.34637
1570286331.362
1570286331.37763
1570286331.39325
1570286331.40888
1570286331.4245
1570286331.44013
1570286331.45576
1570286331.47138
1570286331.48701
1570286331.50263
1570286331.51826
1570286331.53388
1570286331.54951
1570286331.56514
1570286331.58076
1570286331.59639
1570286331.61201
1570286331.62764
1570286331.64326
1570286331.65889
1570286331.67452
1570286331.69014
1570286331.70577
1570286331.72139
1570286331.73702
1570286331.75264
1570286331.76827
1570286331.7839
1570286331.79952
1570286331.81515
1570286331.83077
1570286331.8464
1570286331.86202
1570286331.87765
1570286331.89328
1570286331.9089
1570286331.92453
1570286331.94015
1570286331.95578
1570286331.9714
1570286331.98703
1570286332.00266
1570286332.01828
1570286332.03391
1570286332.04953
1570286332.06516
1570286332.08078
1570286332.09641
1570286332.11204
1570286332.12766
1570286332.14329
1570286332.15891
1570286332.17454
1570286332.19016
1570286332.20579
1570286332.22142
1570286332.23704
1570286332.25267
1570286332.26829
1570286332.28392
1570286332.29954
1570286332.31517
1570286332.3308
1570286332.34642
1570286332.36205
1570286332.37767
1570286332.3933
1570286332.40892
1570286332.42455
1570286332.44018
1570286332.4558
1570286332.47143
1570286332.48705
1570286332.50268
1570286332.5183
1570286332.53393
1570286332.54956
1570286332.56518
1570286332.58081
1570286332.59643
1570286332.61206
1570286332.62768
1570286332.64331
1570286332.65894
1570286332.67456
1570286332.69019
1570286332.70581
1570286332.72144
1570286332.73706
1570286332.75269
1570286332.76832
1570286332.78394
1570286332.79957
1570286332.81519
1570286332.83082
1570286332.84644
1570286332.86207
1570286332.8777
1570286332.89332
1570286332.90895
1570286332.92457
1570286332.9402
1570286332.95582
1570286332.97145
1570286332.98708
1570286333.0027
1570286333.01833
1570286333.03395
1570286333.04958
1570286333.0652
1570286333.08083
1570286333.09646
1570286333.11208
1570286333.12771
1570286333.14333
1570286333.15896
1570286333.17458
1570286333.19021
1570286333.20584
1570286333.22146
1570286333.23709
1570286333.25271
1570286333.26834
1570286333.28396
1570286333.29959
1570286333.31522
1570286333.33084
1570286333.34647
1570286333.36209
1570286333.37772
1570286333.39334
1570286333.40897
1570286333.4246
1570286333.44022
1570286333.45585
1570286333.47147
1570286333.4871
1570286333.50272
1570286333.51835
1570286333.53398
1570286333.5496
1570286333.56523
1570286333.58085
1570286333.59648
1570286333.6121
1570286333.62773
1570286333.64336
1570286333.65898
1570286333.67461
1570286333.69023
1570286333.70586
1570286333.72148
1570286333.73711
1570286333.75274
1570286333.76836
1570286333.78399
1570286333.79961
1570286333.81524
1570286333.83086
1570286333.84649
1570286333.86212
1570286333.87774
1570286333.89337
1570286333.90899
1570286333.92462
1570286333.94024
1570286333.95587
1570286333.9715
1570286333.98712
1570286334.00275
1570286334.01837
1570286334.034
1570286334.04963
1570286334.06525
1570286334.08088
1570286334.0965
1570286334.11213
1570286334.12775
1570286334.14338
1570286334.15901
1570286334.17463
1570286334.19026
1570286334.20588
1570286334.22151
1570286334.23713
1570286334.25276
1570286334.26839
1570286334.28401
1570286334.29964
1570286334.31526
1570286334.33089
1570286334.34651
1570286334.36214
1570286334.37777
1570286334.39339
1570286334.40902
1570286334.42464
1570286334.44027
1570286334.45589
1570286334.47152
1570286334.48715
1570286334.50277
1570286334.5184
1570286334.53402
1570286334.54965
1570286334.56527
1570286334.5809
1570286334.59653
1570286334.61215
1570286334.62778
1570286334.6434
1570286334.65903
1570286334.67465
1570286334.69028
1570286334.70591
1570286334.72153
1570286334.73716
1570286334.75278
1570286334.76841
1570286334.78403
1570286334.79966
1570286334.81529
1570286334.83091
1570286334.84654
1570286334.86216
1570286334.87779
1570286334.89341
1570286334.90904
1570286334.92467
1570286334.94029
1570286334.95592
1570286334.97154
1570286334.98717
1570286335.00279
1570286335.01842
1570286335.03405
1570286335.04967
1570286335.0653
1570286335.08092
1570286335.09655
1570286335.11217
1570286335.1278
1570286335.14343
1570286335.15905
1570286335.17468
1570286335.1903
1570286335.20593
1570286335.22155
1570286335.23718
1570286335.25281
1570286335.26843
1570286335.28406
1570286335.29968
1570286335.31531
1570286335.33093
1570286335.34656
1570286335.36219
1570286335.37781
1570286335.39344
1570286335.40906
1570286335.42469
1570286335.44031
1570286335.45594
1570286335.47157
1570286335.48719
1570286335.50282
1570286335.51844
1570286335.53407
1570286335.54969
1570286335.56532
1570286335.58095
1570286335.59657
1570286335.6122
1570286335.62782
1570286335.64345
1570286335.65907
1570286335.6747
1570286335.69033
1570286335.70595
1570286335.72158
1570286335.7372
1570286335.75283
1570286335.76845
1570286335.78408
1570286335.79971
1570286335.81533
1570286335.83096
1570286335.84658
1570286335.86221
1570286335.87783
1570286335.89346
1570286335.90909
1570286335.92471
1570286335.94034
1570286335.95596
1570286335.97159
1570286335.98721
1570286336.00284
1570286336.01847
1570286336.03409
1570286336.04972
1570286336.06534
1570286336.08097
1570286336.09659
1570286336.11222
1570286336.12785
1570286336.14347
1570286336.1591
1570286336.17472
1570286336.19035
1570286336.20597
1570286336.2216
1570286336.23723
1570286336.25285
1570286336.26848
1570286336.2841
1570286336.29973
1570286336.31536
1570286336.33098
1570286336.34661
1570286336.36223
1570286336.37786
1570286336.39348
1570286336.40911
1570286336.42474
1570286336.44036
1570286336.45599
1570286336.47161
1570286336.48724
1570286336.50286
1570286336.51849
1570286336.53412
1570286336.54974
1570286336.56537
1570286336.58099
1570286336.59662
1570286336.61224
1570286336.62787
1570286336.6435
1570286336.65912
1570286336.67475
1570286336.69037
1570286336.706
1570286336.72162
1570286336.73725
1570286336.75288
1570286336.7685
1570286336.78413
1570286336.79975
1570286336.81538
1570286336.831
1570286336.84663
1570286336.86226
1570286336.87788
1570286336.89351
1570286336.90913
1570286336.92476
1570286336.94038
1570286336.95601
1570286336.97164
1570286336.98726
1570286337.00289
1570286337.01851
1570286337.03414
1570286337.04976
1570286337.06539
1570286337.08102
1570286337.09664
1570286337.11227
1570286337.12789
1570286337.14352
1570286337.15914
1570286337.17477
1570286337.1904
1570286337.20602
1570286337.22165
1570286337.23727
1570286337.2529
1570286337.26852
1570286337.28415
1570286337.29978
1570286337.3154
1570286337.33103
1570286337.34665
1570286337.36228
1570286337.3779
1570286337.39353
1570286337.40916
1570286337.42478
1570286337.44041
1570286337.45603
1570286337.47166
1570286337.48728
1570286337.50291
1570286337.51854
1570286337.53416
1570286337.54979
1570286337.56541
1570286337.58104
1570286337.59666
1570286337.61229
1570286337.62792
1570286337.64354
1570286337.65917
1570286337.67479
1570286337.69042
1570286337.70604
1570286337.72167
1570286337.7373
1570286337.75292
1570286337.76855
1570286337.78417
1570286337.7998
1570286337.81542
1570286337.83105
1570286337.84668
1570286337.8623
1570286337.87793
1570286337.89355
1570286337.90918
1570286337.9248
1570286337.94043
1570286337.95606
1570286337.97168
1570286337.98731
1570286338.00293
1570286338.01856
1570286338.03418
1570286338.04981
1570286338.06544
1570286338.08106
1570286338.09669
1570286338.11231
1570286338.12794
1570286338.14356
1570286338.15919
1570286338.17482
1570286338.19044
1570286338.20607
1570286338.22169
1570286338.23732
1570286338.25294
1570286338.26857
1570286338.2842
1570286338.29982
1570286338.31545
1570286338.33107
1570286338.3467
1570286338.36232
1570286338.37795
1570286338.39358
1570286338.4092
1570286338.42483
1570286338.44045
1570286338.45608
1570286338.4717
1570286338.48733
1570286338.50296
1570286338.51858
1570286338.53421
1570286338.54983
1570286338.56546
1570286338.58108
1570286338.59671
1570286338.61234
1570286338.62796
1570286338.64359
1570286338.65921
1570286338.67484
1570286338.69046
1570286338.70609
1570286338.72172
1570286338.73734
1570286338.75297
1570286338.76859
1570286338.78422
1570286338.79984
1570286338.81547
1570286338.8311
1570286338.84672
1570286338.86235
1570286338.87797
1570286338.8936
1570286338.90923
1570286338.92485
1570286338.94048
1570286338.9561
1570286338.97173
1570286338.98735
1570286339.00298
1570286339.01861
1570286339.03423
1570286339.04986
1570286339.06548
1570286339.08111
1570286339.09673
1570286339.11236
1570286339.12799
1570286339.14361
1570286339.15924
1570286339.17486
1570286339.19049
1570286339.20611
1570286339.22174
1570286339.23737
1570286339.25299
1570286339.26862
1570286339.28424
1570286339.29987
1570286339.31549
1570286339.33112
1570286339.34675
1570286339.36237
1570286339.378
1570286339.39362
1570286339.40925
1570286339.42487
1570286339.4405
1570286339.45613
1570286339.47175
1570286339.48738
1570286339.503
1570286339.51863
1570286339.53425
1570286339.54988
1570286339.56551
1570286339.58113
1570286339.59676
1570286339.61238
1570286339.62801
1570286339.64363
1570286339.65926
1570286339.67489
1570286339.69051
1570286339.70614
1570286339.72176
1570286339.73739
1570286339.75301
1570286339.76864
1570286339.78427
1570286339.79989
1570286339.81552
1570286339.83114
1570286339.84677
1570286339.86239
1570286339.87802
1570286339.89365
1570286339.90927
1570286339.9249
1570286339.94052
1570286339.95615
1570286339.97177
1570286339.9874
1570286340.00303
1570286340.01865
1570286340.03428
1570286340.0499
1570286340.06553
1570286340.08115
1570286340.09678
1570286340.11241
1570286340.12803
1570286340.14366
1570286340.15928
1570286340.17491
1570286340.19053
1570286340.20616
1570286340.22179
1570286340.23741
1570286340.25304
1570286340.26866
1570286340.28429
1570286340.29991
1570286340.31554
1570286340.33117
1570286340.34679
1570286340.36242
1570286340.37804
1570286340.39367
1570286340.40929
1570286340.42492
1570286340.44055
1570286340.45617
1570286340.4718
1570286340.48742
1570286340.50305
1570286340.51867
1570286340.5343
1570286340.54993
1570286340.56555
1570286340.58118
1570286340.5968
1570286340.61243
1570286340.62805
1570286340.64368
1570286340.65931
1570286340.67493
1570286340.69056
1570286340.70618
1570286340.72181
1570286340.73743
1570286340.75306
1570286340.76869
1570286340.78431
1570286340.79994
1570286340.81556
1570286340.83119
1570286340.84681
1570286340.86244
1570286340.87807
1570286340.89369
1570286340.90932
1570286340.92494
1570286340.94057
1570286340.95619
1570286340.97182
1570286340.98745
1570286341.00307
1570286341.0187
1570286341.03432
1570286341.04995
1570286341.06557
1570286341.0812
1570286341.09683
1570286341.11245
1570286341.12808
1570286341.1437
1570286341.15933
1570286341.17496
1570286341.19058
1570286341.20621
1570286341.22183
1570286341.23746
1570286341.25308
1570286341.26871
1570286341.28434
1570286341.29996
1570286341.31559
1570286341.33121
1570286341.34684
1570286341.36246
1570286341.37809
1570286341.39372
1570286341.40934
1570286341.42497
1570286341.44059
1570286341.45622
1570286341.47184
1570286341.48747
1570286341.5031
1570286341.51872
1570286341.53435
1570286341.54997
1570286341.5656
1570286341.58122
1570286341.59685
1570286341.61248
1570286341.6281
1570286341.64373
1570286341.65935
1570286341.67498
1570286341.6906
1570286341.70623
1570286341.72186
1570286341.73748
1570286341.75311
1570286341.76873
1570286341.78436
1570286341.79998
1570286341.81561
1570286341.83124
1570286341.84686
1570286341.86249
1570286341.87811
1570286341.89374
1570286341.90936
1570286341.92499
1570286341.94062
1570286341.95624
1570286341.97187
1570286341.98749
1570286342.00312
1570286342.01874
1570286342.03437
1570286342.05
1570286342.06562
1570286342.08125
1570286342.09687
1570286342.1125
1570286342.12812
1570286342.14375
1570286342.15938
1570286342.175
1570286342.19063
1570286342.20625
1570286342.22188
1570286342.2375
1570286342.25313
1570286342.26876
1570286342.28438
1570286342.30001
1570286342.31563
1570286342.33126
1570286342.34688
1570286342.36251
1570286342.37814
1570286342.39376
1570286342.40939
1570286342.42501
1570286342.44064
1570286342.45626
1570286342.47189
1570286342.48752
1570286342.50314
1570286342.51877
1570286342.53439
1570286342.55002
1570286342.56564
1570286342.58127
1570286342.5969
1570286342.61252
1570286342.62815
1570286342.64377
1570286342.6594
1570286342.67502
1570286342.69065
1570286342.70628
1570286342.7219
1570286342.73753
1570286342.75315
1570286342.76878
1570286342.7844
1570286342.80003
1570286342.81566
1570286342.83128
1570286342.84691
1570286342.86253
1570286342.87816
1570286342.89378
1570286342.90941
1570286342.92504
1570286342.94066
1570286342.95629
1570286342.97191
1570286342.98754
1570286343.00316
1570286343.01879
1570286343.03442
1570286343.05004
1570286343.06567
1570286343.08129
1570286343.09692
1570286343.11254
1570286343.12817
1570286343.1438
1570286343.15942
1570286343.17505
1570286343.19067
1570286343.2063
1570286343.22192
1570286343.23755
1570286343.25318
1570286343.2688
1570286343.28443
1570286343.30005
1570286343.31568
1570286343.3313
1570286343.34693
1570286343.36256
1570286343.37818
1570286343.39381
1570286343.40943
1570286343.42506
1570286343.44069
1570286343.45631
1570286343.47194
1570286343.48756
1570286343.50319
1570286343.51881
1570286343.53444
1570286343.55007
1570286343.56569
1570286343.58132
1570286343.59694
1570286343.61257
1570286343.62819
1570286343.64382
1570286343.65945
1570286343.67507
1570286343.6907
1570286343.70632
1570286343.72195
1570286343.73757
1570286343.7532
1570286343.76883
1570286343.78445
1570286343.80008
1570286343.8157
1570286343.83133
1570286343.84695
1570286343.86258
1570286343.87821
1570286343.89383
1570286343.90946
1570286343.92508
1570286343.94071
1570286343.95633
1570286343.97196
1570286343.98759
1570286344.00321
1570286344.01884
1570286344.03446
1570286344.05009
1570286344.06571
1570286344.08134
1570286344.09697
1570286344.11259
1570286344.12822
1570286344.14384
1570286344.15947
1570286344.17509
1570286344.19072
1570286344.20635
1570286344.22197
1570286344.2376
1570286344.25322
1570286344.26885
1570286344.28447
1570286344.3001
1570286344.31573
1570286344.33135
1570286344.34698
1570286344.3626
1570286344.37823
1570286344.39385
1570286344.40948
1570286344.42511
1570286344.44073
1570286344.45636
1570286344.47198
1570286344.48761
1570286344.50323
1570286344.51886
1570286344.53449
1570286344.55011
1570286344.56574
1570286344.58136
1570286344.59699
1570286344.61261
1570286344.62824
1570286344.64387
1570286344.65949
1570286344.67512
1570286344.69074
1570286344.70637
1570286344.72199
1570286344.73762
1570286344.75325
1570286344.76887
1570286344.7845
1570286344.80012
1570286344.81575
1570286344.83137
1570286344.847
1570286344.86263
1570286344.87825
1570286344.89388
1570286344.9095
1570286344.92513
1570286344.94075
1570286344.95638
1570286344.97201
1570286344.98763
1570286345.00326
1570286345.01888
1570286345.03451
1570286345.05013
1570286345.06576
1570286345.08139
1570286345.09701
1570286345.11264
1570286345.12826
1570286345.14389
1570286345.15951
1570286345.17514
1570286345.19077
1570286345.20639
1570286345.22202
1570286345.23764
1570286345.25327
1570286345.26889
1570286345.28452
1570286345.30015
1570286345.31577
1570286345.3314
1570286345.34702
1570286345.36265
1570286345.37827
1570286345.3939
1570286345.40953
1570286345.42515
1570286345.44078
1570286345.4564
1570286345.47203
1570286345.48765
1570286345.50328
1570286345.51891
1570286345.53453
1570286345.55016
1570286345.56578
1570286345.58141
1570286345.59703
1570286345.61266
1570286345.62829
1570286345.64391
1570286345.65954
1570286345.67516
1570286345.69079
1570286345.70641
1570286345.72204
1570286345.73767
1570286345.75329
1570286345.76892
1570286345.78454
1570286345.80017
1570286345.81579
1570286345.83142
1570286345.84705
1570286345.86267
1570286345.8783
1570286345.89392
1570286345.90955
1570286345.92517
1570286345.9408
1570286345.95643
1570286345.97205
1570286345.98768
1570286346.0033
1570286346.01893
1570286346.03456
1570286346.05018
1570286346.06581
1570286346.08143
1570286346.09706
1570286346.11268
1570286346.12831
1570286346.14394
1570286346.15956
1570286346.17519
1570286346.19081
1570286346.20644
1570286346.22206
1570286346.23769
1570286346.25332
1570286346.26894
1570286346.28457
1570286346.30019
1570286346.31582
1570286346.33144
1570286346.34707
1570286346.3627
1570286346.37832
1570286346.39395
1570286346.40957
1570286346.4252
1570286346.44082
1570286346.45645
1570286346.47208
1570286346.4877
1570286346.50333
1570286346.51895
1570286346.53458
1570286346.5502
1570286346.56583
1570286346.58146
1570286346.59708
1570286346.61271
1570286346.62833
1570286346.64396
1570286346.65958
1570286346.67521
1570286346.69084
1570286346.70646
1570286346.72209
1570286346.73771
1570286346.75334
1570286346.76896
1570286346.78459
1570286346.80022
1570286346.81584
1570286346.83147
1570286346.84709
1570286346.86272
1570286346.87834
1570286346.89397
1570286346.9096
1570286346.92522
1570286346.94085
1570286346.95647
1570286346.9721
1570286346.98772
1570286347.00335
1570286347.01898
1570286347.0346
1570286347.05023
1570286347.06585
1570286347.08148
1570286347.0971
1570286347.11273
1570286347.12836
1570286347.14398
1570286347.15961
1570286347.17523
1570286347.19086
1570286347.20648
1570286347.22211
1570286347.23774
1570286347.25336
1570286347.26899
1570286347.28461
1570286347.30024
1570286347.31586
1570286347.33149
1570286347.34712
1570286347.36274
1570286347.37837
1570286347.39399
1570286347.40962
1570286347.42524
1570286347.44087
1570286347.4565
1570286347.47212
1570286347.48775
1570286347.50337
1570286347.519
1570286347.53462
1570286347.55025
1570286347.56588
1570286347.5815
1570286347.59713
1570286347.61275
1570286347.62838
1570286347.644
1570286347.65963
1570286347.67526
1570286347.69088
1570286347.70651
1570286347.72213
1570286347.73776
1570286347.75338
1570286347.76901
1570286347.78464
1570286347.80026
1570286347.81589
1570286347.83151
1570286347.84714
1570286347.86276
1570286347.87839
1570286347.89402
1570286347.90964
1570286347.92527
1570286347.94089
1570286347.95652
1570286347.97214
1570286347.98777
1570286348.0034
1570286348.01902
1570286348.03465
1570286348.05027
1570286348.0659
1570286348.08152
1570286348.09715
1570286348.11278
1570286348.1284
1570286348.14403
1570286348.15965
1570286348.17528
1570286348.1909
1570286348.20653
1570286348.22216
1570286348.23778
1570286348.25341
1570286348.26903
1570286348.28466
1570286348.30029
1570286348.31591
1570286348.33154
1570286348.34716
1570286348.36279
1570286348.37841
1570286348.39404
1570286348.40967
1570286348.42529
1570286348.44092
1570286348.45654
1570286348.47217
1570286348.48779
1570286348.50342
1570286348.51905
1570286348.53467
1570286348.5503
1570286348.56592
1570286348.58155
1570286348.59717
1570286348.6128
1570286348.62843
1570286348.64405
1570286348.65968
1570286348.6753
1570286348.69093
1570286348.70655
1570286348.72218
1570286348.73781
1570286348.75343
1570286348.76906
1570286348.78468
1570286348.80031
1570286348.81593
1570286348.83156
1570286348.84719
1570286348.86281
1570286348.87844
1570286348.89406
1570286348.90969
1570286348.92531
1570286348.94094
1570286348.95657
1570286348.97219
1570286348.98782
1570286349.00344
1570286349.01907
1570286349.03469
1570286349.05032
1570286349.06595
1570286349.08157
1570286349.0972
1570286349.11282
1570286349.12845
1570286349.14407
1570286349.1597
1570286349.17533
1570286349.19095
1570286349.20658
1570286349.2222
1570286349.23783
1570286349.25345
1570286349.26908
1570286349.28471
1570286349.30033
1570286349.31596
1570286349.33158
1570286349.34721
1570286349.36283
1570286349.37846
1570286349.39409
1570286349.40971
1570286349.42534
1570286349.44096
1570286349.45659
1570286349.47221
1570286349.48784
1570286349.50347
1570286349.51909
1570286349.53472
1570286349.55034
1570286349.56597
1570286349.58159
1570286349.59722
1570286349.61285
1570286349.62847
1570286349.6441
1570286349.65972
1570286349.67535
1570286349.69097
1570286349.7066
1570286349.72223
1570286349.73785
1570286349.75348
1570286349.7691
1570286349.78473
1570286349.80035
1570286349.81598
1570286349.83161
1570286349.84723
1570286349.86286
1570286349.87848
1570286349.89411
1570286349.90973
1570286349.92536
1570286349.94099
1570286349.95661
1570286349.97224
1570286349.98786
1570286350.00349
1570286350.01911
1570286350.03474
1570286350.05037
1570286350.06599
1570286350.08162
1570286350.09724
1570286350.11287
1570286350.12849
1570286350.14412
1570286350.15975
1570286350.17537
1570286350.191
1570286350.20662
1570286350.22225
1570286350.23787
1570286350.2535
1570286350.26913
1570286350.28475
1570286350.30038
1570286350.316
1570286350.33163
1570286350.34725
1570286350.36288
1570286350.37851
1570286350.39413
1570286350.40976
1570286350.42538
1570286350.44101
1570286350.45664
1570286350.47226
1570286350.48789
1570286350.50351
1570286350.51914
1570286350.53476
1570286350.55039
1570286350.56602
1570286350.58164
1570286350.59727
1570286350.61289
1570286350.62852
1570286350.64414
1570286350.65977
1570286350.6754
1570286350.69102
1570286350.70665
1570286350.72227
1570286350.7379
1570286350.75352
1570286350.76915
1570286350.78478
1570286350.8004
1570286350.81603
1570286350.83165
1570286350.84728
1570286350.8629
1570286350.87853
1570286350.89416
1570286350.90978
1570286350.92541
1570286350.94103
1570286350.95666
1570286350.97228
1570286350.98791
1570286351.00354
1570286351.01916
1570286351.03479
1570286351.05041
1570286351.06604
1570286351.08166
1570286351.09729
1570286351.11292
1570286351.12854
1570286351.14417
1570286351.15979
1570286351.17542
1570286351.19104
1570286351.20667
1570286351.2223
1570286351.23792
1570286351.25355
1570286351.26917
1570286351.2848
1570286351.30042
1570286351.31605
1570286351.33168
1570286351.3473
1570286351.36293
1570286351.37855
1570286351.39418
1570286351.4098
1570286351.42543
1570286351.44106
1570286351.45668
1570286351.47231
1570286351.48793
1570286351.50356
1570286351.51918
1570286351.53481
1570286351.55044
1570286351.56606
1570286351.58169
1570286351.59731
1570286351.61294
1570286351.62856
1570286351.64419
1570286351.65982
1570286351.67544
1570286351.69107
1570286351.70669
1570286351.72232
1570286351.73794
1570286351.75357
1570286351.7692
1570286351.78482
1570286351.80045
1570286351.81607
1570286351.8317
1570286351.84732
1570286351.86295
1570286351.87858
1570286351.8942
1570286351.90983
1570286351.92545
1570286351.94108
1570286351.9567
1570286351.97233
1570286351.98796
1570286352.00358
1570286352.01921
1570286352.03483
1570286352.05046
1570286352.06608
1570286352.08171
1570286352.09734
1570286352.11296
1570286352.12859
1570286352.14421
1570286352.15984
1570286352.17546
1570286352.19109
1570286352.20672
1570286352.22234
1570286352.23797
1570286352.25359
1570286352.26922
1570286352.28484
1570286352.30047
1570286352.3161
1570286352.33172
1570286352.34735
1570286352.36297
1570286352.3786
1570286352.39422
1570286352.40985
1570286352.42548
1570286352.4411
1570286352.45673
1570286352.47235
1570286352.48798
1570286352.5036
1570286352.51923
1570286352.53486
1570286352.55048
1570286352.56611
1570286352.58173
1570286352.59736
1570286352.61298
1570286352.62861
1570286352.64424
1570286352.65986
1570286352.67549
1570286352.69111
1570286352.70674
1570286352.72236
1570286352.73799
1570286352.75362
1570286352.76924
1570286352.78487
1570286352.80049
1570286352.81612
1570286352.83174
1570286352.84737
1570286352.863
1570286352.87862
1570286352.89425
1570286352.90987
1570286352.9255
1570286352.94112
1570286352.95675
1570286352.97238
1570286352.988
1570286353.00363
1570286353.01925
1570286353.03488
1570286353.0505
1570286353.06613
1570286353.08176
1570286353.09738
1570286353.11301
1570286353.12863
1570286353.14426
1570286353.15989
1570286353.17551
1570286353.19114
1570286353.20676
1570286353.22239
1570286353.23801
1570286353.25364
1570286353.26927
1570286353.28489
1570286353.30052
1570286353.31614
1570286353.33177
1570286353.34739
1570286353.36302
1570286353.37865
1570286353.39427
1570286353.4099
1570286353.42552
1570286353.44115
1570286353.45677
1570286353.4724
1570286353.48803
1570286353.50365
1570286353.51928
1570286353.5349
1570286353.55053
1570286353.56615
1570286353.58178
1570286353.59741
1570286353.61303
1570286353.62866
1570286353.64428
1570286353.65991
1570286353.67553
1570286353.69116
1570286353.70679
1570286353.72241
1570286353.73804
1570286353.75366
1570286353.76929
1570286353.78491
1570286353.80054
1570286353.81617
1570286353.83179
1570286353.84742
1570286353.86304
1570286353.87867
1570286353.89429
1570286353.90992
1570286353.92555
1570286353.94117
1570286353.9568
1570286353.97242
1570286353.98805
1570286354.00367
1570286354.0193
1570286354.03493
1570286354.05055
1570286354.06618
1570286354.0818
1570286354.09743
1570286354.11305
1570286354.12868
1570286354.14431
1570286354.15993
1570286354.17556
1570286354.19118
1570286354.20681
1570286354.22243
1570286354.23806
1570286354.25369
1570286354.26931
1570286354.28494
1570286354.30056
1570286354.31619
1570286354.33181
1570286354.34744
1570286354.36307
1570286354.37869
1570286354.39432
1570286354.40994
1570286354.42557
1570286354.44119
1570286354.45682
1570286354.47245
1570286354.48807
1570286354.5037
1570286354.51932
1570286354.53495
1570286354.55057
1570286354.5662
1570286354.58183
1570286354.59745
1570286354.61308
1570286354.6287
1570286354.64433
1570286354.65995
1570286354.67558
1570286354.69121
1570286354.70683
1570286354.72246
1570286354.73808
1570286354.75371
1570286354.76933
1570286354.78496
1570286354.80059
1570286354.81621
1570286354.83184
1570286354.84746
1570286354.86309
1570286354.87871
1570286354.89434
