7.287159
7.010529
6.820995
6.605812
6.237511
5.676228
4.977055
4.242123
3.584862
3.102901
2.776669
2.606499
2.55777
2.569672
2.60289
2.542248
2.282925
1.760708
0.991394
0.07735062
-0.8491249
-1.664906
-2.384399
-3.075356
-3.874805
-4.873497
-6.081188
-7.418789
-8.776081
-10.0772
-11.24026
-12.26376
-13.10294
-13.75045
-14.22535
-14.63951
-15.08096
-15.61426
-16.15021
-16.4322
-16.11856
-14.88819
-12.64011
-9.560719
-6.07037
-2.63929
0.3594933
2.750723
4.522606
5.726101
6.442129
6.735947
6.657242
6.321218
5.869965
5.458237
5.176556
5.061697
5.049345
5.087866
5.133389
5.168179
5.242411
5.375509
5.597534
5.853001
6.067417
6.106773
5.838295
5.210243
4.318836
3.375746
2.631773
2.289337
2.381245
2.805779
3.342043
3.784712
4.003302
3.989752
3.750273
3.293776
2.642756
1.806605
0.8446817
-0.1848965
-1.237258
-2.298759
-3.386724
-4.499718
-5.608858
-6.605301
-7.376816
-7.924451
-8.359575
-8.868823
-9.614183
-10.67455
-12.01131
-13.51612
-15.00502
-16.25692
-17.00082
-16.94675
-15.8558
-13.68808
-10.61682
-7.042527
-3.444616
-0.2292194
2.358947
4.315749
5.735518
6.728404
7.315728
7.472577
7.187965
6.520405
5.652078
4.818037
4.263398
4.121376
4.346299
4.75083
5.118525
5.282775
5.223457
5.061393
4.997619
5.165224
5.604556
6.22169
6.846552
7.329061
7.589936
7.610527
7.460605
7.21098
6.883397
6.443558
5.807915
4.916906
3.753892
2.407234
0.9731789
-0.392087
-1.633796
-2.746445
-3.784946
-4.814357
-5.845313
-6.863762
-7.818099
-8.677356
-9.393036
-9.966088
-10.39827
-10.76746
-11.17207
-11.76508
-12.62712
-13.66976
-14.66304
-15.28849
-15.26412
-14.45292
-12.90384
-10.78065
-8.32275
-5.733896
-3.173168
-0.7584114
1.393322
3.213873
4.670649
5.80444
6.643415
7.25152
7.642168
7.863091
7.932692
7.896755
7.776247
7.589893
7.330841
6.945503
6.448505
5.855982
5.265684
4.743952
4.384022
4.187725
4.120916
4.112806
4.116793
4.112597
4.111603
4.12933
4.155781
4.16184
4.059336
3.780045
3.270237
2.557308
1.664585
0.6116219
-0.5987148
-1.945137
-3.353596
-4.712791
-5.897779
-6.824421
-7.502481
-8.021061
-8.529222
-9.164051
-10.00403
-11.08595
-12.37651
-13.77168
-15.07533
-16.03788
-16.3571
-15.8248
-14.36173
-12.0734
-9.193272
-6.032616
-2.895422
-0.08737373
2.126873
3.585451
4.235863
4.228491
3.816917
3.322805
2.986811
2.881121
2.962286
3.084875
3.169956
3.244598
3.407642
3.755224
4.263618
4.780731
5.090164
5.075928
4.720755
4.155161
3.550911
3.019161
2.558605
2.059568
1.389902
0.4845009
-0.5670528
-1.630839
-2.564521
-3.30288
-3.922521
-4.551596
-5.280344
-6.142369
-7.105554
-8.089405
-9.063847
-10.05596
-11.16908
-12.49509
-14.02397
-15.57979
-16.87091
-17.51666
-17.18152
-15.7048
-13.10297
-9.648697
-5.745039
-1.819338
1.7736
4.78094
7.09516
8.694318
9.589256
9.872254
9.640747
9.017953
8.180897
7.306899
6.547537
6.067562
5.94899
6.1857
6.698542
7.347569
7.958902
8.410114
8.599415
8.508254
8.127978
7.454812
6.490865
5.307584
4.0321
2.784708
1.677334
0.7005672
-0.1891994
-1.102472
-2.126965
-3.300989
-4.599566
-5.959326
-7.354565
-8.755732
-10.17641
-11.6234
-13.10234
-14.61683
-16.17852
-17.72039
-19.10405
-20.1138
-20.47253
-19.91965
-18.34136
-15.79068
-12.5062
-8.865917
-5.236359
-1.866501
1.117237
3.723675
5.998821
7.940033
9.505608
10.64917
11.39071
11.83665
12.18914
12.61634
13.16541
13.69576
13.95895
13.76408
13.07635
12.08164
11.04212
10.21354
9.688972
9.436577
9.286793
9.09399
8.76152
8.266411
7.610146
6.792938
5.808044
4.672073
3.452469
2.208115
0.9953308
-0.1728363
-1.32338
-2.461655
-3.614868
-4.77729
-5.931107
-7.078217
-8.260551
-9.559639
-11.0759
-12.90552
-15.00923
-17.24963
-19.28643
-20.66425
-20.95542
-19.85681
-17.35786
-13.72518
-9.473709
-5.089996
-1.034447
2.488297
5.42009
7.800171
9.664398
10.98141
11.72269
11.89218
11.64358
11.18764
10.8164
10.74214
11.00729
11.51437
12.11213
12.69447
13.24358
13.7914
14.35278
14.83808
15.11037
14.98384
14.423
13.48008
12.33044
11.18401
10.17081
9.30751
8.528427
7.738045
6.827675
5.779526
4.589005
3.335487
2.125862
1.082527
0.2661209
-0.3962936
-1.048271
-1.90493
-3.100037
-4.659363
-6.484848
-8.401299
-10.16851
-11.64404
-12.79636
-13.66505
-14.34322
-14.96645
-15.71277
-16.736
-18.09345
-19.61589
-20.9095
-21.43244
-20.7178
-18.52483
-14.99129
-10.57345
-5.870407
-1.441231
2.360001
5.404335
7.729233
9.427246
10.56834
11.21178
11.45409
11.41841
11.29469
11.27682
11.47873
11.94321
12.59888
13.27498
13.78858
14.01865
13.94403
13.62892
13.17047
12.68861
12.24962
11.88567
11.54698
11.18558
10.77042
10.31297
9.843842
9.417038
9.069244
8.770599
8.468887
8.068695
7.497864
6.735413
5.799622
4.761688
3.728256
2.749161
1.828751
0.8991394
-0.1416473
-1.394913
-2.903534
-4.626129
-6.426331
-8.1259
-9.559204
-10.66202
-11.44177
-12.0013
-12.50856
-13.15425
-14.1239
-15.48415
-17.19135
-19.04016
-20.70789
-21.789
-21.90143
-20.79176
-18.37045
-14.80698
-10.43254
-5.711075
-1.097488
3.054962
6.550186
9.316727
11.37045
12.78316
13.59752
13.85458
13.62468
13.05496
12.32289
11.63861
11.14296
10.90085
10.9101
11.10262
11.41092
11.77312
12.15193
12.51416
12.75829
12.78732
12.53358
12.02551
11.40706
10.84564
10.442
10.19513
9.991257
9.637741
8.99324
7.992599
6.719147
5.321167
3.977585
2.805061
1.861847
1.113274
0.4772491
-0.17556
-0.9956436
-2.071548
-3.446594
-5.034851
-6.70546
-8.27298
-9.630142
-10.74085
-11.64761
-12.45996
-13.2822
-14.13121
-14.99693
-15.85784
-16.68431
-17.44963
-18.04092
-18.21398
-17.64046
-16.03635
-13.29241
-9.616554
-5.487564
-1.499336
1.896713
4.498276
6.397804
7.788292
8.85743
9.629967
10.04531
10.01738
9.593208
8.935715
8.282822
7.867317
7.766884
7.957985
8.322533
8.740211
9.125816
9.483452
9.8181
10.16743
10.53202
10.85938
11.05276
10.95982
10.5209
9.738487
8.730568
7.656723
6.714279
5.996735
5.494644
5.089569
4.567505
3.77494
2.638268
1.203835
-0.3772964
-1.888847
-3.156158
-4.115929
-4.837776
-5.500946
-6.292221
-7.291656
-8.415688
-9.494507
-10.3561
-10.94389
-11.36366
-11.79476
-12.44302
-13.40837
-14.67101
-16.08565
-17.40978
-18.361
-18.64725
-18.04233
-16.44633
-13.95097
-10.74891
-7.112679
-3.38102
0.1886063
3.353676
5.898613
7.636841
8.487137
8.507118
7.950569
7.179794
6.520592
6.176292
6.195862
6.532013
7.12854
7.947273
8.925568
9.959801
10.86564
11.45425
11.62991
11.42144
10.92119
10.24285
9.432915
8.458519
7.300072
6.00193
4.712006
3.568367
2.663292
1.911949
1.18679
0.376297
-0.5534821
-1.500999
-2.336807
-2.966469
-3.420547
-3.792191
-4.22934
-4.763237
-5.345619
-5.911987
-6.406143
-6.873268
-7.404724
-8.127182
-9.126579
-10.46503
-12.13381
-14.06006
-16.13679
-18.13066
-19.77286
-20.76676
-20.86657
-19.94946
-18.07867
-15.4454
-12.30035
-8.938538
-5.582207
-2.400665
0.4912872
3.028107
5.157631
6.852104
8.102463
8.903954
9.285034
9.353645
9.239861
9.124481
9.159111
9.39624
9.801056
10.24678
10.58611
10.72694
10.69846
10.59361
10.49646
10.43327
10.28791
9.885841
9.116409
7.978256
6.614098
5.241631
4.044601
3.046638
2.167938
1.208855
0.01748657
-1.403122
-2.906113
-4.251549
-5.240097
-5.801521
-6.006836
-6.056396
-6.208275
-6.667313
-7.548668
-8.844376
-10.42928
-12.13956
-13.76924
-15.07768
-15.79615
-15.69093
-14.59903
-12.48801
-9.527977
-6.032707
-2.397308
1.009827
3.939667
6.285919
8.006557
9.096844
9.557125
9.402508
8.779011
7.916416
7.100445
6.584873
6.471588
6.654888
6.926048
7.102062
7.120255
7.088032
7.155079
7.402382
7.75705
8.004963
7.898849
7.260796
6.134583
4.711117
3.300072
2.156425
1.380917
0.9029808
0.5210304
0.03516006
-0.694191
-1.682392
-2.840313
-3.973457
-4.9515
-5.713551
-6.357719
-7.050461
-7.96162
-9.195606
-10.73984
-12.49322
-14.23285
-15.72007
-16.67878
-16.81676
-15.87965
-13.74158
-10.50035
-6.488899
-2.254974
1.664352
4.881481
7.248085
8.844097
9.828712
10.33411
10.39936
10.04074
9.308559
8.366516
7.45401
6.774162
6.408737
6.341789
6.48719
6.750027
7.125874
7.643215
8.322075
9.148895
9.99889
10.69553
11.0566
10.94247
10.35232
9.413166
8.27145
7.059261
5.839542
4.575512
3.222885
1.777161
0.3087883
-1.037724
-2.078098
-2.753395
-3.117649
-3.328362
-3.58815
-4.042309
-4.721439
-5.582371
-6.513397
-7.391911
-8.204731
-8.962616
-9.727299
-10.5838
-11.59292
-12.79765
-14.22964
-15.84069
-17.48534
-18.93091
-19.8035
-19.73817
-18.50179
-16.08233
-12.70761
-8.824966
-4.889347
-1.235367
1.9147
4.526138
6.574413
7.999619
8.746548
8.820183
8.297939
7.436676
6.642982
6.2327
6.455475
7.309521
8.57976
9.975515
11.20693
12.08635
12.57451
12.73493
12.6512
12.38327
11.90307
11.14346
10.06209
8.709368
7.242636
5.908024
4.95705
4.507889
4.525391
4.758793
4.90019
4.732264
4.201265
3.442926
2.699213
2.15251
1.783304
1.473673
1.028622
0.3140335
-0.5790958
-1.47389
-2.191103
-2.672659
-3.013023
-3.472471
-4.248875
-5.44437
-6.991781
-8.69808
-10.37017
-11.87138
-13.17763
-14.29285
-15.31851
-16.30417
-17.32872
-18.37627
-19.36414
-20.08606
-20.2331
-19.5387
-17.81432
-15.10952
-11.65538
-7.837772
-4.065429
-0.6248941
2.313252
4.694984
6.531017
7.873567
8.755322
9.27257
9.510623
9.55632
9.521179
9.483754
9.50133
9.619352
9.880937
10.24259
10.62552
10.92076
11.00431
10.85379
10.52908
10.16241
9.852865
9.643312
9.447574
9.137486
8.642797
7.962461
7.213522
6.526758
5.960555
5.477148
4.950557
4.265243
3.422639
2.508754
1.63935
0.9183725
0.3424342
-0.1435247
-0.5828074
-1.012058
-1.420487
-1.74035
-1.973273
-2.17466
-2.421819
-2.802554
-3.373738
-4.099785
-4.915611
-5.734721
-6.468768
-7.109024
-7.713965
-8.392805
-9.266033
-10.46224
-12.02009
-13.9104
-16.04215
-18.21735
-20.15045
-21.50283
-21.93818
-21.21011
-19.24211
-16.1542
-12.26973
-8.023783
-3.839519
-0.06270123
3.091332
5.528966
7.227294
8.23452
8.653864
8.63391
8.335342
7.924032
7.549525
7.323294
7.342505
7.64127
8.228299
9.032589
9.965175
10.89677
11.68507
12.19449
12.36457
12.16667
11.63548
10.82845
9.812691
8.696356
7.586428
6.579245
5.723801
5.00659
4.354479
3.689421
2.9501
2.185667
1.528391
1.115404
0.9904957
1.067945
1.151182
1.035446
0.6223583
-0.07892799
-0.9277611
-1.778917
-2.533016
-3.2351
-3.950392
-4.71401
-5.501509
-6.227673
-6.820402
-7.326439
-7.853006
-8.554949
-9.557009
-10.87873
-12.46493
-14.21025
-16.02
-17.84156
-19.60905
-21.18268
-22.31992
-22.67561
-21.95804
-20.05783
-17.09837
-13.38301
-9.315628
-5.278702
-1.504765
1.825155
4.655323
6.901365
8.46373
9.241116
9.294798
8.808889
8.069733
7.442478
7.168779
7.323671
7.839649
8.529081
9.186848
9.704193
10.01625
10.14805
10.1521
10.09515
10.02587
9.969427
9.908358
9.79114
9.511919
8.968889
8.150724
7.127138
6.020668
4.947823
3.982759
3.106012
2.319073
1.618156
0.9998703
0.4733105
0.007041931
-0.4703865
-1.002941
-1.55825
-2.073891
-2.445971
-2.643536
-2.755293
-2.936422
-3.346355
-4.077324
-5.086349
-6.266409
-7.490379
-8.723301
-9.967468
-11.26635
-12.64546
-14.09452
-15.57587
-17.01507
-18.28617
-19.20241
-19.56147
-19.16125
-17.90855
-15.8132
-13.03671
-9.834873
-6.459955
-3.153885
-0.1118736
2.500599
4.570467
6.048672
6.967062
7.464312
7.701103
7.82192
7.906998
7.974154
7.993437
7.949438
7.816736
7.60018
7.389307
7.254192
7.262695
7.467064
7.811424
8.226555
8.630783
8.92518
9.07515
9.098125
8.999483
8.796062
8.5089
8.151125
7.780121
7.43095
7.077511
6.628393
5.969675
5.003593
3.752129
2.338436
0.9462566
-0.2443352
-1.130308
-1.724028
-2.145042
-2.553986
-3.141165
-3.977425
-5.077414
-6.377934
-7.719271
-8.964014
-10.04719
-10.97693
-11.82493
-12.71787
-13.74377
-15.02243
-16.603
-18.41429
-20.24071
-21.67631
-22.21509
-21.44741
-19.21136
-15.67041
-11.28226
-6.589777
-2.067511
1.947731
5.335875
8.033621
9.988079
11.15159
11.53423
11.23896
10.49017
9.605461
8.82203
8.342028
8.172761
8.203257
8.296711
8.358699
8.36622
8.357577
8.35949
8.333502
8.256199
8.074892
7.780728
7.453927
7.15651
6.919196
6.738934
6.5444
6.250273
5.872215
5.437684
5.00962
4.605886
4.15379
3.569017
2.792013
1.834036
0.7350702
-0.4059696
-1.53051
-2.638698
-3.688481
-4.729327
-5.717926
-6.629359
-7.473913
-8.266551
-9.047096
-9.885736
-10.81764
-11.83638
-12.97703
-14.23637
-15.60503
-17.07285
-18.52003
-19.7313
-20.46586
-20.44841
-19.4742
-17.49968
-14.60907
-11.00622
-7.012925
-2.936728
0.917799
4.327412
7.127542
9.24915
10.6625
11.42476
11.64721
11.40326
10.84219
10.07128
9.284565
8.684424
8.452557
8.687955
9.346519
10.26258
11.14137
11.74589
11.89834
11.57107
10.857
9.927996
8.973259
8.157717
7.574057
7.196741
6.94145
6.690784
6.347048
5.938757
5.535854
5.202841
4.929098
4.601954
4.100662
3.36441
2.441294
1.461777
0.5608273
-0.2402115
-1.040497
-2.014738
-3.268921
-4.738285
-6.256367
-7.593294
-8.603117
-9.283575
-9.803875
-10.40045
-11.29508
-12.61194
-14.34544
-16.38111
-18.44951
-20.2351
-21.34376
-21.4243
-20.29551
-18.01738
-14.84713
-11.1959
-7.464655
-3.951128
-0.7964325
1.970303
4.421684
6.594507
8.464491
9.985931
11.08242
11.72699
11.98706
12.01242
11.95362
11.95961
12.06561
12.19591
12.26528
12.15163
11.82942
11.32263
10.71274
10.0599
9.441025
8.914474
8.557201
8.417011
8.484966
8.718529
9.020767
9.266712
9.348557
9.203831
8.837807
8.261303
7.53793
6.721645
5.852863
4.945053
3.952721
2.826897
1.552826
0.164875
-1.260471
-2.637611
-3.91264
-5.085102
-6.166042
-7.197086
-8.119198
-8.861549
-9.33577
-9.584343
-9.742508
-10.05685
-10.75506
-11.924
-13.52299
-15.35583
-17.14907
-18.56812
-19.35435
-19.27209
-18.21211
-16.20636
-13.40549
-10.1087
-6.673466
-3.437805
-0.5854263
1.866665
4.013004
5.951553
7.714828
9.225712
10.33385
10.95887
11.14069
11.07059
11.02739
11.23565
11.7524
12.43304
13.06326
13.37977
13.2802
12.79103
12.04464
11.23175
10.48986
9.846382
9.236198
8.594994
7.883724
7.155308
6.493549
5.985374
5.686993
5.59116
5.621758
5.670345
5.630066
5.4048
4.941372
4.196384
3.194668
2.026443
0.869297
-0.114994
-0.8119354
-1.200775
-1.381664
-1.478806
-1.634514
-1.957958
-2.476933
-3.146164
-3.908478
-4.719986
-5.598145
-6.579391
-7.688217
-8.969231
-10.45664
-12.14052
-14.02339
-16.0401
-18.05715
-19.84007
-21.07166
-21.36776
-20.45736
-18.26594
-14.96759
-10.95878
-6.77544
-2.864765
0.4836197
3.167583
5.244987
6.816414
7.939754
8.650276
8.948116
8.895039
8.639767
8.380634
8.308846
8.500656
8.917919
9.415947
9.842327
10.05435
10.05614
9.92968
9.796642
9.758076
9.808727
9.881607
9.877296
9.774414
9.573154
9.355648
9.171864
9.001041
8.748455
8.320976
7.66172
6.804379
5.882362
5.04985
4.407085
3.941109
3.51572
2.962227
2.174522
1.173649
0.07275772
-0.9999847
-1.919922
-2.671135
-3.267128
-3.772293
-4.220829
-4.669163
-5.167641
-5.80687
-6.642372
-7.637035
-8.715588
-9.738419
-10.65153
-11.49371
-12.43811
-13.62739
-15.10779
-16.74392
-18.22383
-19.20189
-19.37727
-18.57104
-16.78651
-14.19827
-11.08394
-7.745338
-4.450108
-1.343281
1.546997
4.220417
6.687679
8.798616
10.33624
11.08327
10.98293
10.15991
8.947731
7.737377
6.809738
6.320717
6.228399
6.433599
6.862617
7.49432
8.353718
9.495409
10.84903
12.22088
13.39058
14.06646
14.08202
13.42611
12.22345
10.67029
8.994333
7.347879
5.809504
4.483358
3.40221
2.58301
2.038973
1.694822
1.479643
1.268724
0.9674988
0.4641457
-0.2237301
-1.063168
-1.97221
-2.838465
-3.652817
-4.418425
-5.190575
-6.016588
-6.887247
-7.725811
-8.497171
-9.201887
-9.871428
-10.61638
-11.44667
-12.34509
-13.26471
-14.19992
-15.18048
-16.2655
-17.45955
-18.5602
-19.30449
-19.33015
-18.37792
-16.41044
-13.61887
-10.35169
-6.953239
-3.695836
-0.623971
2.223649
4.874055
7.28259
9.298075
10.75297
11.51876
11.6094
11.16315
10.46417
9.800145
9.413115
9.423144
9.799911
10.40704
11.05074
11.57582
11.8542
11.88016
11.69701
11.40477
11.08061
10.73855
10.38645
10.01545
9.629491
9.218664
8.76443
8.185014
7.409939
6.396163
5.157297
3.832445
2.570604
1.499044
0.6559563
-0.03039646
-0.6732426
-1.346932
-2.061876
-2.775524
-3.426671
-4.005665
-4.51143
-4.993688
-5.50294
-6.1051
-6.822552
-7.665678
-8.597905
-9.536092
-10.4532
-11.29458
-12.12419
-13.04869
-14.17367
-15.49262
-16.86434
-18.0033
-18.55539
-18.25987
-16.933
-14.631
-11.56704
-8.064914
-4.474204
-1.114982
1.796805
4.118725
5.749895
6.702207
7.021144
6.817821
6.281333
5.60133
4.944917
4.425893
4.117166
4.032357
4.191087
4.614393
5.291394
6.197507
7.238724
8.290904
9.229385
9.978094
10.46574
10.67576
10.58455
10.17529
9.463404
8.496479
7.367904
6.165632
5.023653
4.006247
3.144578
2.431972
1.808256
1.190435
0.5140882
-0.2527862
-1.099285
-1.966112
-2.785001
-3.512564
-4.176458
-4.858665
-5.637093
-6.501504
-7.340871
-8.006876
-8.375315
-8.551082
-8.762346
-9.337904
-10.51048
-12.29478
-14.43574
-16.5166
-18.09081
-18.77914
-18.40491
-16.94407
-14.51121
-11.34518
-7.78345
-4.178719
-0.8969622
1.828451
3.938018
5.464525
6.548132
7.346243
7.984251
8.516254
8.95911
9.314189
9.576958
9.794974
9.961576
10.10041
10.19106
10.19158
10.10437
9.95149
9.782106
9.618244
9.444615
9.184527
8.767401
8.158323
7.413897
6.652671
6.010317
5.560855
5.275199
5.07991
4.868888
4.552133
4.065768
3.397684
2.584305
1.696607
0.8673258
0.1675749
-0.3700838
-0.8447485
-1.412979
-2.220529
-3.345047
-4.708791
-6.19656
-7.635742
-8.959742
-10.14779
-11.25582
-12.31707
-13.36435
-14.44032
-15.57033
-16.76112
-17.90436
-18.7782
-19.02956
-18.34192
-16.54256
-13.72565
-10.21049
-6.445451
-2.81905
0.4201355
3.164973
5.382736
7.091418
8.245919
8.844141
8.918762
8.618393
8.170761
7.823552
7.759525
8.000916
8.451339
8.907806
9.233438
9.367641
9.387612
9.419835
9.559897
9.794947
9.96799
9.911717
9.511804
8.768622
7.811587
6.792038
5.820926
4.95985
4.205503
3.5425
2.96523
2.465603
2.007376
1.538726
0.9867134
0.2568617
-0.6570759
-1.714864
-2.79893
-3.792087
-4.642065
-5.394835
-6.105901
-6.845372
-7.643514
-8.471969
-9.29493
-10.0604
-10.76391
-11.4852
-12.34942
-13.46531
-14.86719
-16.42522
-17.82175
-18.6608
-18.56031
-17.31993
-15.02245
-11.97303
-8.572639
-5.217446
-2.181767
0.4312582
2.588346
4.282653
5.530838
6.303188
6.596392
6.474214
6.011674
5.398014
4.862628
4.621898
4.845538
5.614795
6.905706
8.567452
10.39307
12.10417
13.47809
14.31261
14.49946
14.04298
13.03606
11.66688
10.16479
8.760448
7.590375
6.752433
6.233273
5.922211
5.706901
5.424697
4.928538
4.147885
3.076092
1.768667
0.3507466
-1.032986
-2.280445
-3.275511
-4.038515
-4.660563
-5.295101
-6.098406
-7.118056
-8.300067
-9.468027
-10.42911
-11.03406
-11.36716
-11.67077
-12.25773
-13.37051
-15.02713
-16.98553
-18.82238
-20.09134
-20.37818
-19.50948
-17.52012
-14.62173
-11.18794
-7.615675
-4.242624
-1.292963
1.155225
3.208801
5.006901
6.687901
8.259241
9.575891
10.4771
10.86642
10.75831
10.3549
9.914644
9.679901
9.806234
10.25904
10.89557
11.52961
12.00854
12.21228
12.12938
11.80627
11.33171
10.79073
10.20258
9.566199
8.838651
8.022295
7.099939
6.109776
5.08865
4.08498
3.161301
2.334105
1.637772
1.061126
0.5901568
0.1726123
-0.2264165
-0.6596847
-1.116057
-1.55114
-1.975866
-2.372034
-2.825231
-3.403578
-4.144177
-5.04155
-6.022663
-7.026458
-7.984391
-8.948954
-9.975888
-11.14649
-12.50015
-13.96237
-15.4177
-16.65038
-17.44682
-17.56973
-16.89594
-15.3372
-12.95587
-9.93736
-6.549855
-3.164042
-0.1116257
2.314924
4.007087
5.010266
5.567952
5.932553
6.321148
6.843004
7.464038
8.1407
8.797978
9.408142
9.940363
10.39188
10.6936
10.81087
10.78699
10.72182
10.72295
10.85212
11.05933
11.15683
10.99102
10.43608
9.498028
8.333302
7.139592
6.101872
5.315715
4.826927
4.547829
4.389267
4.267037
4.123259
3.945505
3.734305
3.474724
3.110418
2.624001
1.991282
1.298167
0.6494834
0.1418389
-0.2350887
-0.6133093
-1.197803
-2.203399
-3.704487
-5.644822
-7.804822
-9.92997
-11.79653
-13.28396
-14.42512
-15.33478
-16.14029
-16.93119
-17.73156
-18.44506
-18.91981
-18.95546
-18.30258
-16.79836
-14.4086
-11.29909
-7.785485
-4.268112
-1.055192
1.682012
3.929685
5.755018
7.170656
8.115386
8.465549
8.209682
7.490633
6.657501
6.097254
6.108459
6.762131
7.893433
9.228154
10.45597
11.38973
11.97446
12.27808
12.35253
12.24927
12.00246
11.59569
11.08878
10.52317
9.925022
9.315338
8.699818
8.072169
7.448895
6.856002
6.315218
5.867023
5.472316
5.077931
4.621562
4.074803
3.464984
2.872256
2.3439
1.875031
1.386283
0.7305884
-0.1786456
-1.324944
-2.572151
-3.755345
-4.761205
-5.596298
-6.378454
-7.20005
-8.083478
-8.944186
-9.670023
-10.22647
-10.68647
-11.18606
-11.92488
-13.00943
-14.42544
-16.03354
-17.56662
-18.67908
-19.03804
-18.34806
-16.51951
-13.73966
-10.34833
-6.784978
-3.420913
-0.454896
2.015544
3.956314
5.404407
6.346304
6.840099
7.032842
7.152628
7.429445
7.977275
8.772608
9.663836
10.50893
11.17651
11.63586
11.92275
12.08017
12.13117
12.11164
11.98186
11.73039
11.31672
10.694
9.85981
8.867617
7.764009
6.653036
5.645914
4.808683
4.198483
3.840839
3.705364
3.735716
3.859623
3.942497
3.905401
3.706041
3.334089
2.823406
2.208035
1.51174
0.7291908
-0.1305351
-1.064159
-2.043039
-3.00658
-3.933872
-4.819771
-5.723585
-6.71088
-7.789309
-8.900112
-9.940578
-10.79653
-11.42771
-11.90226
-12.33352
-12.89289
-13.65857
-14.60461
-15.55285
-16.27947
-16.5239
-16.08171
-14.83503
-12.81068
-10.19763
-7.26963
-4.343369
-1.695686
0.5364075
2.36607
3.877575
5.122692
6.084709
6.690266
6.901367
6.78587
6.489655
6.185337
5.968002
5.819439
5.629364
5.337524
5.01825
4.850674
5.045277
5.674007
6.666565
7.758804
8.65667
9.159119
9.203289
8.867962
8.299641
7.610012
6.865097
6.164711
5.552971
5.038849
4.604549
4.145206
3.549171
2.78056
1.918415
1.099648
0.4939423
0.1263275
-0.1588554
-0.5593987
-1.249691
-2.21162
-3.264286
-4.163689
-4.768478
-5.080853
-5.227943
-5.359432
-5.503799
-5.596298
-5.483555
-5.070824
-4.351929
-3.41621
-2.386059
-1.408417
-0.5894127
-0.03792572
0.0828476
-0.3906784
-1.525635
-3.217896
-5.118145
-6.708046
-7.46006
-7.036392
-5.386028
-2.824303
0.1646385
3.116398
5.655445
7.636002
9.026604
9.873703
10.19266
9.995232
9.267189
8.102608
6.689941
5.302834
4.197708
3.505844
3.208618
3.099411
2.93557
2.543312
1.938103
1.29718
0.8350601
0.6619492
0.7225571
0.8164139
0.7620697
0.5189438
0.202034
0.06152344
0.2859802
0.9111328
1.770729
2.567398
3.036041
3.047554
2.662697
2.077003
1.492409
1.021156
0.6594086
0.3065033
-0.1889114
-0.8805237
-1.772774
-2.748993
-3.659462
-4.380028
-4.864716
-5.179428
-5.463432
-5.855583
-6.442558
-7.170876
-7.892563
-8.463219
-8.823891
-9.040108
-9.296707
-9.753258
-10.49768
-11.4805
-12.56837
-13.59396
-14.44196
-15.0669
-15.40253
-15.35812
-14.80339
-13.59239
-11.65726
-9.063202
-6.052361
-2.953987
-0.1221695
2.22683
4.001556
5.249748
6.095474
6.619766
6.913734
6.95092
6.741577
6.337845
5.863007
5.458733
5.289513
5.428787
5.828117
6.386368
6.923347
7.309319
7.492226
7.495811
7.395256
7.253761
7.109016
6.874992
6.518761
5.997536
5.350449
4.672279
4.038239
3.518867
3.140144
2.903282
2.752747
2.684418
2.642357
2.5718
2.380989
1.923218
1.120232
-0.04231262
-1.469612
-2.98983
-4.343948
-5.364304
-5.958527
-6.141525
-6.089783
-6.015678
-6.09536
-6.412415
-6.932533
-7.535141
-8.122887
-8.679367
-9.227783
-9.908714
-10.81017
-11.9539
-13.25008
-14.44347
-15.19363
-15.15977
-14.11828
-12.08083
-9.276276
-6.079208
-2.931381
-0.1873474
1.963608
3.50415
4.501259
5.054207
5.243767
5.13015
4.830856
4.505051
4.303955
4.409622
4.893272
5.702446
6.693344
7.632477
8.303871
8.584206
8.483215
8.118927
7.69976
7.362839
7.144531
6.979256
6.701927
6.218544
5.520447
4.701645
3.922432
3.264175
2.681702
2.076767
1.380608
0.5850143
-0.1732407
-0.7082062
-0.8684006
-0.6510849
-0.1768417
0.2734528
0.4592514
0.2405014
-0.4141159
-1.408234
-2.614769
-3.922127
-5.243111
-6.477661
-7.556694
-8.381699
-8.92543
-9.278877
-9.63562
-10.26947
-11.37699
-13.00634
-14.93754
-16.77592
-18.03925
-18.36359
-17.59408
-15.78927
-13.24107
-10.31475
-7.405746
-4.79364
-2.628548
-0.9288559
0.4258728
1.553047
2.616837
3.637741
4.583496
5.363899
5.923279
6.305458
6.611275
6.994568
7.50248
8.12178
8.670624
9.006081
9.035004
8.774704
8.364449
7.910057
7.516655
7.138809
6.707642
6.123703
5.393898
4.610237
3.915016
3.465927
3.274406
3.332771
3.484772
3.595169
3.542068
3.280655
2.860069
2.346123
1.8218
1.298737
0.7747879
0.191597
-0.4663391
-1.221878
-2.0522
-2.945114
-3.907227
-4.948647
-6.082619
-7.252876
-8.338837
-9.239632
-9.900238
-10.37467
-10.81765
-11.43953
-12.41216
-13.78362
-15.44122
-17.12541
-18.50961
-19.25977
-19.13852
-18.01476
-15.96382
-13.2089
-10.07187
-6.910423
-3.973579
-1.369659
0.9108124
2.92334
4.69989
6.167351
7.239594
7.834564
7.996544
7.880333
7.762959
7.88829
8.381031
9.165134
10.03912
10.76077
11.15514
11.22281
11.08814
10.92293
10.82201
10.76627
10.60723
10.23968
9.638054
8.886703
8.133999
7.53183
7.108463
6.797867
6.487854
6.037769
5.407227
4.604645
3.708427
2.751335
1.789131
0.8281784
-0.1529617
-1.133327
-2.094166
-3.006046
-3.857113
-4.655392
-5.438667
-6.211933
-6.9594
-7.622948
-8.135197
-8.46323
-8.634796
-8.781219
-9.066463
-9.634842
-10.57366
-11.87425
-13.41823
-15.02572
-16.48392
-17.53595
-17.92413
-17.45181
-16.04611
-13.79688
-10.93762
-7.790026
-4.642878
-1.714489
0.8986683
3.214893
5.225649
6.898615
8.141714
8.888758
9.185427
9.188274
9.163136
9.340518
9.880983
10.70405
11.59121
12.27866
12.5809
12.4794
12.09905
11.63705
11.2499
10.99089
10.81873
10.64776
10.41278
10.10726
9.72607
9.280397
8.768499
8.182895
7.526566
6.864875
6.265155
5.762805
5.306789
4.79826
4.107811
3.17784
2.068369
0.9360991
0.01003623
-0.5844188
-0.8581271
-0.9938283
-1.184456
-1.613631
-2.334436
-3.293669
-4.428049
-5.668186
-7.031621
-8.533186
-10.1699
-11.8876
-13.56167
-15.10174
-16.47034
-17.70026
-18.81688
-19.76148
-20.35013
-20.293
-19.32207
-17.28285
-14.21931
-10.37958
-6.171528
-2.010528
1.773476
4.951029
7.452532
9.300699
10.56662
11.3222
11.61235
11.4922
11.04084
10.40504
9.788776
9.385019
9.296272
9.498074
9.826038
10.05737
10.05924
9.792366
9.330748
8.839037
8.497931
8.411655
8.585485
8.902424
9.204752
9.363804
9.31345
9.067654
8.711361
8.35717
8.027649
7.717819
7.351746
6.881393
6.341537
5.76292
5.184589
4.605946
3.965206
3.188721
2.294376
1.337212
0.4456978
-0.262085
-0.7625847
-1.092815
-1.336681
-1.614937
-2.066998
-2.726585
-3.655441
-4.840019
-6.236122
-7.790245
-9.392124
-10.93711
-12.3538
-13.6694
-14.90107
-16.12225
-17.32422
-18.38908
-19.14712
-19.32194
-18.67426
-17.08483
-14.54367
-11.22499
-7.477543
-3.71452
-0.2941742
2.466805
4.439671
5.606014
6.038784
5.937565
5.56086
5.152313
4.930641
5.081345
5.663143
6.683224
8.05238
9.59486
11.11623
12.41694
13.32385
13.73777
13.69637
13.2892
12.68373
12.06093
11.52715
11.15573
10.9522
10.91009
11.00245
11.21531
11.44719
11.61894
11.62021
11.34835
10.75555
9.820244
8.590809
7.175686
5.72607
4.316441
3.055069
1.93919
0.91502
-0.05569458
-1.0308
-2.019955
-2.972389
-3.778118
-4.3405
-4.554569
-4.440002
-4.108425
-3.761974
-3.6026
-3.803364
-4.426662
-5.43766
-6.754326
-8.255226
-9.834019
-11.47129
-13.17609
-14.97806
-16.86958
-18.71375
-20.23853
-21.08856
-20.8628
-19.27951
-16.34237
-12.3171
-7.740192
-3.189896
0.8968048
4.265347
6.853649
8.739151
9.975224
10.5747
10.55869
9.978279
8.988735
7.825962
6.770329
5.991489
5.624588
5.690334
6.132263
6.89463
7.834747
8.772247
9.547016
10.0421
10.15563
9.914036
9.38522
8.676109
7.940716
7.303616
6.77803
6.368954
6.004288
5.662338
5.367584
5.150215
5.017056
4.907116
4.697308
4.22934
3.479301
2.516132
1.519173
0.7052612
0.1720886
-0.1504364
-0.3875923
-0.7187119
-1.258152
-2.023052
-2.99493
-4.115341
-5.286335
-6.394978
-7.367947
-8.096272
-8.583649
-8.958115
-9.431602
-10.20788
-11.43848
-13.09388
-15.00455
-16.86956
-18.33447
-19.06353
-18.82285
-17.5447
-15.31294
-12.40506
-9.169384
-5.949768
-2.979107
-0.3580399
1.879669
3.728424
5.173714
6.177662
6.716099
6.843365
6.685661
6.400742
6.174694
6.121624
6.257809
6.547756
6.937611
7.356133
7.805733
8.337284
8.963001
9.659416
10.30853
10.73637
10.77008
10.35886
9.561077
8.556438
7.56535
6.731277
6.103573
5.648239
5.254715
4.785755
4.16058
3.343281
2.383846
1.371372
0.3816566
-0.5161209
-1.327782
-2.148911
-3.096024
-4.236713
-5.601978
-7.03474
-8.353516
-9.418274
-10.12374
-10.51169
-10.71664
-10.89481
-11.22578
-11.86366
-12.85489
-14.15523
-15.57478
-16.77982
-17.40136
-17.14992
-15.91958
-13.80774
-11.06506
-7.985214
-4.786423
-1.602856
1.461433
4.299072
6.730175
8.580589
9.711514
10.12558
9.952705
9.419842
8.797401
8.348461
8.17342
8.276859
8.542568
8.797012
8.916847
8.901478
8.815479
8.784203
8.890343
9.088432
9.249924
9.193504
8.805004
8.085838
7.190414
6.309647
5.613064
5.152943
4.88483
4.682838
4.403976
3.96048
3.316967
2.530884
1.647518
0.7103462
-0.2741165
-1.265812
-2.199368
-3.031269
-3.750957
-4.408291
-5.080227
-5.822857
-6.674103
-7.594273
-8.566673
-9.567764
-10.61041
-11.73974
-12.98947
-14.34922
-15.77755
-17.19813
-18.47288
-19.44952
-19.89254
-19.56361
-18.2933
-16.06146
-13.01553
-9.493851
-5.879951
-2.520111
0.3261795
2.581543
4.304901
5.588802
6.5172
7.157539
7.52972
7.707176
7.815601
8.001682
8.384701
9.025341
9.835182
10.68586
11.46226
12.0485
12.43914
12.66289
12.733
12.65711
12.41023
11.96164
11.34434
10.64127
9.893665
9.151691
8.464062
7.830963
7.260544
6.721767
6.170338
5.5457
4.822544
3.961685
3.004101
2.02969
1.132614
0.3768539
-0.2307625
-0.7571869
-1.326641
-2.050507
-2.984097
-4.108421
-5.356014
-6.644009
-7.905491
-9.124069
-10.28673
-11.39694
-12.43809
-13.40565
-14.34528
-15.32499
-16.40492
-17.58494
-18.76093
-19.67239
-20.03844
-19.52198
-17.9472
-15.36176
-12.00364
-8.309978
-4.713566
-1.561348
1.074581
3.245213
5.145977
6.8563
8.282421
9.226864
9.541233
9.262249
8.664558
8.185486
8.143204
8.69165
9.689575
10.81238
11.7571
12.36901
12.65956
12.78421
12.87397
12.9286
12.90435
12.69102
12.18704
11.41743
10.48145
9.523666
8.685444
8.018768
7.49477
7.090191
6.793148
6.558723
6.365932
6.134762
5.815712
5.335133
4.66785
3.809635
2.812901
1.724838
0.5758553
-0.5828514
-1.736286
-2.821117
-3.791767
-4.633656
-5.417423
-6.180775
-6.972458
-7.798931
-8.590034
-9.308594
-9.92572
-10.4404
-10.88219
-11.31232
-11.77657
-12.37303
-13.18111
-14.23852
-15.4866
-16.70601
-17.56406
-17.68515
-16.84533
-15.0372
-12.50092
-9.62571
-6.809418
-4.308567
-2.187946
-0.3488922
1.345692
2.971161
4.507423
5.847313
6.881374
7.588242
8.037689
8.39859
8.869801
9.511158
10.26584
10.98499
11.47216
11.62427
11.4711
11.17877
10.94523
10.88531
10.98045
11.061
10.95646
10.56902
9.921436
9.169617
8.449223
7.814999
7.218559
6.523426
5.634262
4.600327
3.577084
2.796116
2.451992
2.574953
3.048206
3.651434
4.088745
4.145332
3.718641
2.858089
1.805489
0.8101559
0.07908249
-0.3287678
-0.5192299
-0.7240601
-1.172543
-1.951927
-3.016417
-4.174471
-5.257248
-6.199663
-7.037523
-7.896132
-8.936174
-10.25164
-11.8819
-13.83729
-16.01705
-18.26649
-20.32712
-21.82696
-22.39237
-21.75618
-19.84487
-16.83314
-13.139
-9.181145
-5.364765
-1.932096
1.012554
3.433241
5.331196
6.684818
7.485622
7.750248
7.653042
7.412001
7.264784
7.398689
7.858381
8.571014
9.340725
9.977674
10.37901
10.57649
10.66995
10.78107
10.95635
11.14722
11.246
11.12299
10.73756
10.15304
9.510526
8.963659
8.542557
8.217477
7.837337
7.257023
6.394816
5.304069
4.154162
3.151278
2.459304
2.061873
1.851162
1.614937
1.166182
0.4058495
-0.5800853
-1.613643
-2.477857
-3.028294
-3.284409
-3.36904
-3.45412
-3.696524
-4.14803
-4.729604
-5.354003
-5.98925
-6.629097
-7.427253
-8.49876
-9.874773
-11.5446
-13.383
-15.23539
-16.97193
-18.45021
-19.44038
-19.70284
-19.03917
-17.35635
-14.77686
-11.58762
-8.140599
-4.81548
-1.870603
0.5971813
2.595637
4.179179
5.377921
6.215779
6.707024
6.876887
6.812108
6.667296
6.640897
6.913406
7.576459
8.60923
9.829769
11.0186
11.96571
12.51995
12.66402
12.44116
11.88896
11.07171
10.03646
8.81759
7.496244
6.218953
5.146576
4.4196
4.128398
4.164611
4.370767
4.523831
4.435685
4.037972
3.443893
2.854391
2.453547
2.328619
2.398056
2.472282
2.3638
1.96471
1.2575
0.3687706
-0.5553532
-1.403282
-2.155819
-2.920177
-3.862936
-5.122477
-6.694885
-8.453844
-10.14987
-11.58166
-12.67152
-13.52496
-14.39935
-15.50841
-16.9001
-18.41596
-19.68654
-20.33706
-20.11403
-18.89026
-16.72548
-13.81685
-10.42287
-6.836187
-3.385237
-0.318119
2.188423
4.080605
5.397373
6.265972
6.723295
6.838314
6.661348
6.32781
6.077629
6.167809
6.772678
7.859421
9.241947
10.57646
11.62294
12.21353
12.3833
12.25498
11.9377
11.48472
10.88132
10.07975
9.034706
7.815838
6.513409
5.221977
4.041321
2.997547
2.098038
1.36845
0.7978363
0.3768578
0.09038162
-0.1140366
-0.3042183
-0.5099449
-0.7741051
-1.068752
-1.391922
-1.72747
-2.059364
-2.391262
-2.761765
-3.208675
-3.747498
-4.422169
-5.233547
-6.220684
-7.414932
-8.835358
-10.5058
-12.38591
-14.41203
-16.41677
-18.24033
-19.66921
-20.49196
-20.52226
-19.59711
-17.68333
-14.8442
-11.32047
-7.450001
-3.631153
-0.1846275
2.672874
4.844517
6.374649
7.276428
7.627151
7.476639
6.92926
6.127838
5.282433
4.60611
4.269936
4.377224
4.88105
5.658485
6.520039
7.309158
7.928432
8.310055
8.459789
8.362553
8.043224
7.488346
6.772514
5.952801
5.11507
4.317719
3.62154
3.08157
2.707413
2.528736
2.421059
2.298668
2.06324
1.666447
1.158871
0.6592674
0.2841034
0.05383301
-0.05813599
-0.2064514
-0.5095978
-1.056942
-1.845432
-2.794205
-3.793156
-4.757412
-5.709373
-6.708035
-7.90382
-9.394783
-11.19917
-13.178
-15.04586
-16.51022
-17.28994
-17.26933
-16.41761
-14.89108
-12.84676
-10.44424
-7.853947
-5.158863
-2.507095
-0.04545212
2.072941
3.735039
4.872547
5.526955
5.794857
5.810299
5.700775
5.563507
5.478939
5.485516
5.607616
5.827454
6.110092
6.390053
6.602291
6.734737
6.801491
6.835651
6.852898
6.82806
6.737396
6.552902
6.305325
6.065083
5.918121
5.943043
6.116615
6.305923
6.287327
5.875526
4.986431
3.687679
2.181335
0.6947556
-0.5681725
-1.557205
-2.38776
-3.226048
-4.236942
-5.453224
-6.804745
-8.186623
-9.484894
-10.63907
-11.65601
-12.59802
-13.52798
-14.53649
-15.65347
-16.8517
-17.98612
-18.78862
-18.92827
-18.14837
-16.36372
-13.70988
-10.56042
-7.319107
-4.333483
-1.735466
0.5153618
2.54114
4.46995
6.304602
7.982372
9.32659
10.24749
10.75381
10.93659
10.92572
10.80275
10.59261
10.3017
9.963928
9.656979
9.542362
9.739801
10.22981
10.83532
11.27753
11.2985
10.81998
9.932167
8.875481
7.91704
7.209646
6.79748
6.604866
6.483236
6.29561
5.942602
5.339413
4.496082
3.424513
2.206564
0.9355659
-0.2958107
-1.485981
-2.681362
-3.951283
-5.2932
-6.625217
-7.830864
-8.805552
-9.53676
-10.15443
-10.85527
-11.80971
-13.06899
-14.59176
-16.21901
-17.73252
-18.87779
-19.41423
-19.18252
-18.06474
-16.0978
-13.42322
-10.30429
-7.005759
-3.798915
-0.8508015
1.735368
3.887508
5.613307
6.944713
7.927256
8.590779
8.97473
9.089055
9.002207
8.81229
8.660837
8.679012
8.909712
9.265287
9.611535
9.801483
9.786651
9.63292
9.451382
9.330393
9.266794
9.179965
8.929006
8.460045
7.801812
7.107443
6.552722
6.257591
6.212691
6.272574
6.229546
5.878044
5.132342
4.009464
2.6338
1.167314
-0.2665591
-1.565099
-2.683401
-3.619627
-4.375356
-4.980349
-5.498333
-5.996607
-6.552505
-7.219549
-8.038353
-9.096766
-10.50817
-12.35635
-14.62937
-17.17533
-19.69299
-21.81808
-23.17968
-23.60319
-23.00632
-21.44778
-19.03863
-15.88326
-12.10814
-7.917036
-3.578306
0.5728226
4.189887
7.070677
9.161778
10.59175
11.51104
12.05603
12.25732
12.11283
11.65157
10.97818
10.28092
9.781359
9.621443
9.800625
10.18303
10.5512
10.77302
10.82743
10.79321
10.72173
10.63231
10.41186
9.978546
9.28867
8.455339
7.74287
7.385225
7.495438
7.948402
8.463753
8.706118
8.500221
7.796019
6.694445
5.345139
3.87809
2.420095
1.11944
0.1033134
-0.5374107
-0.7749386
-0.7325306
-0.6230316
-0.6586723
-1.031418
-1.776064
-2.808889
-4.019079
-5.310804
-6.604563
-7.883322
-9.172812
-10.52181
-12.00415
-13.66018
-15.47621
-17.33003
-18.98667
-20.08176
-20.25136
-19.24898
-17.05402
-13.918
-10.27138
-6.568964
-3.14974
-0.2230568
2.260254
4.383848
6.197557
7.67918
8.696012
9.185772
9.149521
8.799858
8.420057
8.311119
8.626688
9.345415
10.30396
11.27118
12.11377
12.75113
13.23631
13.57157
13.72726
13.5947
13.0241
12.01643
10.67647
9.255562
8.005756
7.130844
6.647369
6.430815
6.30619
6.088484
5.716507
5.15822
4.477034
3.723988
2.963333
2.183899
1.377987
0.5791035
-0.2791462
-1.232302
-2.351849
-3.66744
-5.168402
-6.737986
-8.241779
-9.539492
-10.50282
-11.1773
-11.67735
-12.15614
-12.71717
-13.3593
-14.03572
-14.6718
-15.24586
-15.70604
-15.97373
-15.82007
-14.96313
-13.22517
-10.63059
-7.456791
-4.134945
-1.088678
1.477259
3.505655
5.14386
6.506649
7.596764
8.341909
8.689709
8.695986
8.510735
8.39393
8.505564
8.903263
9.457634
9.951241
10.19705
10.13298
9.830053
9.428329
9.091085
8.87488
8.748837
8.628149
8.423685
8.121059
7.77491
7.465193
7.229158
7.047869
6.842541
6.546478
6.118431
5.551281
4.862812
4.043699
3.096849
2.038328
0.942812
-0.06209755
-0.8673582
-1.421759
-1.778114
-2.113909
-2.662761
-3.580015
-4.90685
-6.500632
-8.110057
-9.4955
-10.52279
-11.20599
-11.67135
-12.09487
-12.62
-13.32832
-14.23008
-15.26626
-16.30865
-17.11822
-17.40366
-16.82816
-15.22434
-12.62453
-9.321399
-5.771922
-2.394246
0.5469227
2.982035
4.961258
6.499686
7.569271
8.111876
8.120869
7.724339
7.17293
6.739885
6.609415
6.805233
7.194523
7.612718
7.941022
8.1445
8.288527
8.423818
8.571257
8.675339
8.679162
8.503777
8.122045
7.536482
6.81566
6.045977
5.312111
4.699209
4.254727
4.028619
3.991708
4.052411
4.070195
3.916765
3.513042
2.876997
2.080893
1.195566
0.2364404
-0.8579686
-2.153368
-3.648127
-5.210537
-6.659123
-7.818347
-8.662641
-9.271618
-9.824472
-10.45307
-11.19277
-12.02151
-12.94452
-13.96229
-15.08126
-16.18811
-17.02793
-17.24333
-16.46041
-14.49974
-11.46797
-7.783759
-3.989658
-0.6300572
1.951503
3.664844
4.614286
4.983469
4.954606
4.636094
4.086016
3.418334
2.788602
2.400698
2.47571
3.110434
4.251733
5.737764
7.321644
8.74899
9.865917
10.5499
10.75206
10.53783
9.981233
9.220613
8.392091
7.573521
6.800814
6.055982
5.307958
4.541019
3.778857
3.023861
2.301915
1.576226
0.7955259
-0.08551097
-1.108431
-2.282843
-3.590605
-4.929736
-6.234981
-7.42387
-8.468339
-9.405847
-10.27851
-11.14797
-12.10226
-13.2045
-14.45484
-15.84663
-17.25012
-18.43779
-19.14078
-19.01049
-17.81923
-15.52752
-12.28366
-8.478682
-4.583734
-1.013978
1.973736
4.315173
6.095859
7.387093
8.187492
8.445443
8.135439
7.352428
6.351313
5.454655
4.92761
4.892006
5.274376
5.902115
6.588501
7.196274
7.629994
7.873624
7.905169
7.75456
7.496045
7.206863
6.958867
6.756449
6.510962
6.096691
5.480396
4.666503
3.787855
2.969205
2.289811
1.763611
1.304218
0.7785931
0.05252647
-0.9165993
-2.129866
-3.499933
-4.903786
-6.250889
-7.496792
-8.696894
-9.951635
-11.33259
-12.8453
-14.49173
-16.22104
-17.95543
-19.56424
-20.77867
-21.24451
-20.62155
-18.7195
-15.61988
-11.71302
-7.537981
-3.582745
-0.1620598
2.643198
4.903292
6.704594
8.076357
8.994125
9.438478
9.503384
9.386513
9.285679
9.388588
9.753891
10.29451
10.84938
11.20587
11.24302
10.97377
10.51852
10.00183
9.533924
9.127605
8.721111
8.248344
7.645641
6.895664
6.083096
5.302567
4.641438
4.162868
3.893318
3.801971
3.817596
3.83316
3.72147
3.38195
2.778221
1.936378
0.905201
-0.273468
-1.62204
-3.187553
-4.978828
-6.974541
-9.049717
-11.05795
-12.83829
-14.32903
-15.56109
-16.64116
-17.60724
-18.34674
-18.62243
-18.10691
-16.58025
-14.04109
-10.77065
-7.22673
-3.888561
-1.022186
1.34079
3.311695
5.025963
6.517181
7.686649
8.406311
8.647865
8.552628
8.388966
8.438068
8.882145
9.707527
10.7888
11.88787
12.79214
13.3488
13.51586
13.33507
12.92288
12.44125
12.03323
11.80062
11.7082
11.68037
11.55859
11.22245
10.63252
9.855309
8.994148
8.144653
7.304077
6.394379
5.336891
4.065895
2.673088
1.338173
0.2731247
-0.3970261
-0.7260361
-0.919754
-1.196007
-1.700829
-2.439705
-3.300751
-4.173027
-4.988312
-5.803574
-6.746056
-7.897408
-9.249496
-10.69633
-12.18488
-13.71221
-15.34429
-17.11133
-18.84936
-20.22269
-20.76064
-20.04878
-17.89681
-14.49471
-10.27843
-5.829361
-1.622246
2.089211
5.235634
7.86882
9.984741
11.51522
12.34492
12.44185
11.91592
11.05251
10.20713
9.665245
9.574394
9.836021
10.24821
10.61222
10.81239
10.85642
10.84908
10.90339
11.06593
11.31557
11.54121
11.61072
11.45598
11.07268
10.52514
9.898552
9.277412
8.681496
8.077938
7.419292
6.66153
5.822247
4.962185
4.189766
3.561344
3.068794
2.661018
2.240429
1.742889
1.178688
0.5854073
-0.01612091
-0.6403275
-1.334583
-2.185837
-3.200966
-4.352798
-5.59074
-6.847858
-8.081181
-9.288925
-10.44579
-11.4934
-12.40932
-13.19736
-13.91369
-14.65172
-15.44116
-16.1932
-16.67443
-16.58818
-15.69857
-13.9467
-11.46915
-8.596207
-5.65694
-2.92094
-0.5331078
1.534573
3.327496
4.909531
6.249111
7.322052
8.063251
8.464752
8.563972
8.430759
8.238663
8.143692
8.276432
8.630024
9.163887
9.726013
10.15054
10.344
10.27519
9.981861
9.531384
8.986057
8.393219
7.835033
7.365288
7.08456
7.08128
7.362888
7.877028
8.435394
8.858068
8.90723
8.482
7.612936
6.457432
5.300678
4.314058
3.582794
2.981413
2.355341
1.546352
0.5367756
-0.5289764
-1.519014
-2.275084
-2.839832
-3.321471
-3.882059
-4.600232
-5.453821
-6.320573
-7.076944
-7.69214
-8.214663
-8.751316
-9.3958
-10.20239
-11.18507
-12.37069
-13.73758
-15.21273
-16.6318
-17.64232
-17.88334
-17.0741
-15.13646
-12.26596
-8.892666
-5.490011
-2.416102
0.1514649
2.236697
3.964616
5.442521
6.706022
7.67972
8.255815
8.368339
8.068076
7.54864
7.032566
6.724599
6.69819
6.939008
7.308606
7.672935
7.974966
8.212664
8.416187
8.615103
8.760302
8.747873
8.49107
7.976583
7.287254
6.582666
5.982313
5.527609
5.19676
4.87347
4.45507
3.862904
3.134829
2.313625
1.484493
0.7037506
0.03358459
-0.4569626
-0.6969643
-0.6757813
-0.4388771
-0.05231476
0.3778839
0.7727699
1.049858
1.169235
1.059818
0.652462
-0.122467
-1.22366
-2.572697
-4.047184
-5.541912
-7.068928
-8.683426
-10.47746
-12.42347
-14.40021
-16.17931
-17.55426
-18.31533
-18.34065
-17.55775
-15.93367
-13.56182
-10.63493
-7.460728
-4.380745
-1.710609
0.3879395
1.931522
3.004555
3.757401
4.293945
4.679726
4.929901
5.098167
5.225708
5.364845
5.573067
5.790604
5.984207
6.053459
5.957893
5.695946
5.315483
4.914658
4.561264
4.280098
4.043427
3.840271
3.625313
3.457344
3.417297
3.560272
3.89782
4.348312
4.762703
4.930748
4.741005
4.109665
3.098763
1.883118
0.6448822
-0.4530716
-1.305267
-1.842384
-2.134674
-2.267456
-2.399925
-2.667519
-3.100449
-3.702988
-4.385559
-5.059998
-5.681831
-6.296455
-7.019737
-7.970398
-9.169815
-10.4783
-11.65469
-12.43717
-12.66584
-12.32579
-11.51614
-10.37972
-9.05085
-7.631859
-6.160217
-4.668839
-3.207535
-1.861008
-0.7260818
0.1728897
0.854248
1.444382
2.051765
2.772324
3.630569
4.535614
5.352715
5.923729
6.204094
6.240189
6.163933
6.083725
6.005264
5.869041
5.532372
4.932098
4.09536
3.162003
2.329208
1.780067
1.591034
1.721939
2.092499
2.584084
3.107834
3.57766
3.864861
3.869713
3.517189
2.772194
1.65554
0.2507401
-1.32914
-2.89875
-4.243111
-5.247566
-5.866943
-6.184219
-6.402794
-6.71122
-7.241531
-8.021454
-8.96077
-9.935989
-10.9182
-11.93919
-13.03435
-14.15242
-15.11092
-15.59573
-15.33348
-14.19563
-12.28413
-9.924194
-7.536423
-5.434387
-3.739853
-2.365189
-1.098984
0.1957245
1.551483
2.888672
4.072815
5.004364
5.655319
6.040787
6.197144
6.149261
5.882248
5.465118
5.037155
4.776123
4.868591
5.355362
6.087204
6.828278
7.334747
7.4534
7.188431
6.626724
5.843903
4.896515
3.794388
2.557098
1.278534
0.1422424
-0.7042236
-1.183487
-1.325943
-1.271362
-1.162796
-1.114853
-1.172958
-1.353928
-1.656418
-2.116852
-2.79686
-3.712173
-4.84021
-6.08136
-7.311447
-8.429443
-9.392319
-10.27057
-11.19629
-12.26376
-13.47073
-14.68866
-15.65839
-16.10864
-15.79353
-14.60268
-12.58728
-9.976715
-7.055176
-4.127792
-1.417007
0.9516144
2.892227
4.355377
5.286041
5.699127
5.625626
5.202866
4.604324
4.004044
3.53598
3.274261
3.239105
3.427368
3.875427
4.57811
5.505844
6.560982
7.568588
8.357582
8.801125
8.858543
8.572899
8.0429
7.361481
6.587067
5.73423
4.779671
3.767029
2.745857
1.772835
0.8371887
-0.09664154
-1.075371
-2.09967
-3.08522
-3.963646
-4.61673
-5.030998
-5.275696
-5.473808
-5.71637
-6.105415
-6.646912
-7.351547
-8.255005
-9.345596
-10.6253
-12.05587
-13.54659
-14.91261
-15.96301
-16.45856
-16.21695
-15.17426
-13.3921
-11.08723
-8.535553
-6.010757
-3.713562
-1.765762
-0.187851
1.050331
1.973183
2.651199
3.125725
3.436646
3.653915
3.863701
4.15773
4.639313
5.379608
6.345894
7.453049
8.505035
9.317757
9.793564
9.963882
9.902863
9.722816
9.458664
9.076485
8.532104
7.806984
6.968468
6.15432
5.521553
5.102463
4.832069
4.55584
4.114281
3.445358
2.599495
1.695831
0.8790207
0.2014084
-0.3671722
-0.9019852
-1.485283
-2.193832
-3.070023
-4.12838
-5.380333
-6.821098
-8.423241
-10.16106
-11.9698
-13.77501
-15.57079
-17.32319
-18.94244
-20.24722
-20.99185
-20.92657
-19.8988
-17.90953
-15.07946
-11.6974
-8.045891
-4.395683
-0.975174
2.043865
4.525505
6.343781
7.473965
7.970837
7.981655
7.722565
7.417919
7.235725
7.311882
7.694984
8.346832
9.16235
10.00968
10.74025
11.29185
11.65568
11.84686
11.94177
11.96585
11.85707
11.51616
10.85478
9.85812
8.589035
7.200256
5.799889
4.515148
3.39278
2.411186
1.562943
0.8113327
0.1747284
-0.350914
-0.8127842
-1.318333
-1.933935
-2.731596
-3.743658
-4.874786
-6.028505
-7.099754
-8.016371
-8.803595
-9.588612
-10.49195
-11.64402
-13.08408
-14.73349
-16.41838
-17.87088
-18.77192
-18.83164
-17.85691
-15.83288
-12.91559
-9.380339
-5.553285
-1.760751
1.759531
4.905695
7.611848
9.88264
11.69203
12.97657
13.69672
13.83818
13.45606
12.71066
11.87195
11.15722
10.72895
10.64365
10.81923
11.14452
11.52032
11.89569
12.25463
12.57088
12.79772
12.82229
12.59331
12.11124
11.48399
10.85424
10.30531
9.824051
9.265606
8.484314
7.359473
5.921026
4.276814
2.66366
1.279301
0.2426052
-0.4267483
-0.8566113
-1.227066
-1.746193
-2.532326
-3.609795
-4.819212
-5.993231
-6.980194
-7.755198
-8.428095
-9.175995
-10.10909
-11.26818
-12.6022
-14.02474
-15.5046
-17.04522
-18.60853
-20.05689
-21.13028
-21.46172
-20.7712
-18.95277
-16.15232
-12.69652
-9.002197
-5.363956
-1.99197
1.034321
3.713566
6.009987
7.870243
9.234051
10.06861
10.43576
10.51387
10.48101
10.49271
10.60159
10.76276
10.89131
10.95635
10.9497
10.96017
11.05853
11.21721
11.33866
11.34111
11.19304
10.97975
10.83622
10.80364
10.84142
10.80649
10.52191
9.884304
8.924911
7.746902
6.511177
5.35228
4.313438
3.439461
2.748035
2.232494
1.895687
1.663776
1.422947
1.011421
0.2547188
-0.9595604
-2.624371
-4.615944
-6.71352
-8.674561
-10.33987
-11.65284
-12.7099
-13.6605
-14.69461
-15.90036
-17.26968
-18.6775
-19.92036
-20.73872
-20.87646
-20.11519
-18.33176
-15.56939
-12.01823
-7.996536
-3.850494
0.1573868
3.875801
7.214081
10.09885
12.39149
13.94516
14.6723
14.62617
14.05937
13.31726
12.74142
12.51581
12.62132
12.93111
13.26249
13.51348
13.63081
13.59048
13.35726
12.89679
12.16888
11.23048
10.24828
9.358521
8.705147
8.284058
8.010315
7.746605
7.423424
7.084297
6.855263
6.819611
6.94059
7.063225
6.912865
6.270744
5.084183
3.492821
1.757462
0.1770935
-1.084679
-2.04467
-2.823326
-3.581985
-4.382805
-5.190987
-5.899803
-6.444244
-6.83461
-7.177223
-7.672462
-8.467712
-9.711395
-11.41794
-13.57091
-16.04153
-18.62982
-20.99705
-22.73804
-23.45757
-22.84691
-20.84271
-17.56024
-13.38825
-8.786507
-4.265335
-0.1671066
3.292717
6.027184
8.080681
9.500366
10.37597
10.75499
10.71761
10.37018
9.88768
9.513893
9.387054
9.582214
10.04285
10.63616
11.23158
11.7093
11.99161
12.00431
11.73946
11.14837
10.26699
9.182625
8.052032
7.055206
6.294647
5.811699
5.536392
5.383774
5.254349
5.105721
4.916786
4.659195
4.325401
3.891739
3.351303
2.700424
1.934303
1.018143
-0.125
-1.559692
-3.321411
-5.296951
-7.2537
-8.902611
-10.01907
-10.54819
-10.66423
-10.65036
-10.84239
-11.46289
-12.56842
-14.04448
-15.68216
-17.1749
-18.1922
-18.4174
-17.58412
-15.63528
-12.66379
-8.971962
-4.929909
-0.9606323
2.625847
5.631195
7.994194
9.703751
10.77929
11.28497
11.30798
11.01987
10.59415
10.20232
9.949631
9.842293
9.862381
9.960098
10.10593
10.32002
10.55522
10.70332
10.61443
10.14896
9.240082
8.044212
6.795143
5.748451
5.102959
4.863312
4.932091
5.149292
5.356163
5.430199
5.305962
4.898529
4.154549
3.09346
1.840034
0.5942383
-0.4171448
-1.113052
-1.539398
-1.868752
-2.304184
-2.97567
-3.863136
-4.862312
-5.834152
-6.698212
-7.517319
-8.417091
-9.555878
-11.05462
-12.96724
-15.20538
-17.58402
-19.77549
-21.38266
-22.0628
-21.58411
-19.89309
-17.15685
-13.66534
-9.777176
-5.858475
-2.187454
1.038895
3.702072
5.768173
7.257477
8.202065
8.733803
8.994919
9.128479
9.243279
9.417732
9.678513
9.991951
10.30136
10.57104
10.80632
11.07182
11.43273
11.85313
12.22869
12.40215
12.254
11.74939
10.98393
10.08554
9.17485
8.301796
7.405121
6.466171
5.50441
4.624535
3.963829
3.600014
3.477623
3.446571
3.355774
3.086067
2.63089
2.017769
1.33548
0.6454544
-0.07138062
-0.8681335
-1.787697
-2.818108
-3.911209
-4.966156
-5.962891
-6.926453
-7.944603
-9.125328
-10.56042
-12.2869
-14.25747
-16.42921
-18.6868
-20.94149
-22.9982
-24.55118
-25.23967
-24.74478
-22.91514
-19.84447
-15.88671
-11.47233
-7.050667
-2.882908
0.9256783
4.350697
7.389229
9.926144
11.79788
12.8488
13.06794
12.55456
11.59214
10.49166
9.519756
8.861618
8.58913
8.675064
9.049351
9.641315
10.36666
11.13625
11.85318
12.40107
12.71845
12.78763
12.62186
12.29107
11.85068
11.31955
10.64205
9.750027
8.622082
7.309387
5.917744
4.563091
3.350647
2.301853
1.406616
0.6302032
-0.04269791
-0.59589
-1.015144
-1.322739
-1.576981
-1.862823
-2.279602
-2.922413
-3.835979
-5.028679
-6.438793
-7.954689
-9.430008
-10.71796
-11.74257
-12.53675
-13.25402
-14.04206
-15.0667
-16.36736
-17.85339
-19.3039
-20.44766
-20.99554
-20.69858
-19.45273
-17.22596
-14.17398
-10.61314
-6.920723
-3.456573
-0.4532814
1.993618
3.947392
5.526764
6.83968
7.932598
8.794819
9.350185
9.580997
9.541111
9.360249
9.204693
9.178421
9.329536
9.596249
9.890869
10.16926
10.41069
10.63238
10.8299
10.95974
10.88641
10.55671
9.951885
9.178726
8.418179
7.776836
7.258877
6.790249
6.26086
5.592899
4.805897
3.974037
3.193779
2.536522
2.006027
1.563519
1.157803
0.7599983
0.306118
-0.2439613
-0.9336243
-1.823326
-2.891991
-4.12735
-5.448372
-6.758244
-7.953754
-9.030067
-10.03185
-11.12888
-12.51639
-14.25661
-16.30619
-18.42444
-20.25498
-21.43379
-21.66275
-20.77486
-18.81701
-15.99317
-12.58987
-8.940838
-5.325649
-1.941944
1.027933
3.481544
5.347225
6.564651
7.11153
7.062262
6.539425
5.745062
4.926411
4.261751
3.911919
3.964792
4.459444
5.376307
6.672108
8.170021
9.660366
10.87938
11.57468
11.60004
10.94959
9.768909
8.302116
6.829617
5.517515
4.474119
3.698925
3.123894
2.653492
2.194067
1.64386
0.9950657
0.2932587
-0.3693905
-0.9100189
-1.327486
-1.691385
-2.098
-2.646629
-3.367222
-4.250668
-5.254074
-6.343372
-7.545887
-8.936546
-10.63401
-12.67725
-15.07281
-17.68961
-20.33985
-22.70225
-24.40604
-25.10168
-24.53971
-22.66496
-19.57592
-15.54578
-10.89135
-5.998325
-1.212429
3.150303
6.866608
9.772972
11.82229
13.04198
13.52479
13.45315
12.97976
12.28606
11.53311
10.8858
10.49563
10.44766
10.7108
11.13431
11.49128
11.51217
11.06367
10.18183
9.047916
7.95116
7.119179
6.617401
6.380337
6.214043
5.928402
5.459167
4.870716
4.259407
3.71368
3.238579
2.761379
2.168312
1.427536
0.5284042
-0.4597359
-1.445736
-2.435814
-3.478409
-4.676189
-6.075813
-7.676434
-9.337536
-10.9484
-12.39447
-13.67034
-14.86753
-16.10505
-17.51606
-19.07736
-20.6313
-21.79888
-22.16326
-21.3683
-19.26106
-15.94046
-11.71451
-7.047935
-2.391018
1.847183
5.428986
8.188011
10.05835
11.07698
11.32732
11.04846
10.49963
9.94437
9.562172
9.4244
9.480042
9.594818
9.65712
9.599239
9.506207
9.466152
9.59726
9.921803
10.34861
10.70843
10.83556
10.63632
10.10776
9.391937
8.646061
7.988049
7.444698
6.98497
6.51004
5.959625
5.327335
4.611492
3.848862
3.048019
2.200047
1.296906
0.3213463
-0.7168236
-1.81015
-2.963024
-4.181652
-5.472042
-6.81448
-8.164013
-9.45536
-10.68815
-11.92414
-13.2751
-14.86149
-16.71788
-18.72739
-20.63735
-22.0891
-22.68982
-22.19268
-20.51938
-17.82064
-14.40117
-10.6268
-6.83522
-3.252472
0.01700592
2.942055
5.497002
7.642059
9.274803
10.34983
10.92984
11.14526
11.21591
11.26278
11.30094
11.21031
10.91106
10.42029
9.877434
9.50061
9.443756
9.666176
9.969872
10.11333
9.926537
9.442848
8.797348
8.155128
7.610413
7.127106
6.618584
5.996284
5.249329
4.463127
3.707878
3.006256
2.273827
1.406975
0.3117676
-1.015091
-2.470871
-3.93457
-5.253624
-6.382652
-7.31308
-8.150192
-8.96743
-9.828682
-10.74756
-11.70059
-12.7176
-13.80707
-14.99423
-16.1841
-17.19016
-17.69103
-17.38744
-16.05789
-13.70929
-10.60578
-7.113167
-3.638947
-0.4042358
2.513542
5.118927
7.37748
9.133781
10.22454
10.52091
10.13522
9.348267
8.532944
8.00914
7.907288
8.180634
8.64492
9.192101
9.727097
10.26789
10.81693
11.3684
11.894
12.34027
12.68944
12.89471
12.93465
12.75406
12.31927
11.56991
10.50274
9.16246
7.612236
5.973328
4.37989
2.950104
1.770203
0.8753204
0.228775
-0.2457581
-0.5994263
-0.878891
-1.114151
-1.321487
-1.528053
-1.784302
-2.142868
-2.674385
-3.450943
-4.499763
-5.841293
-7.466003
-9.355476
-11.45291
-13.68221
-15.89043
-17.86544
-19.34166
-20.04052
-19.7528
-18.36762
-15.9465
-12.66536
-8.804008
-4.654472
-0.5341797
3.27549
6.532967
9.019524
10.6212
11.29594
11.14123
10.34154
9.211655
8.015823
6.99044
6.324127
6.062157
6.223976
6.7286
7.465118
8.274757
9.03846
9.637405
10.02503
10.2145
10.18678
9.970528
9.57399
9.053062
8.511482
8.086517
7.817856
7.652168
7.428406
6.942581
6.132858
5.056641
3.8834
2.78524
1.860085
1.063301
0.2568359
-0.6581268
-1.743843
-2.949059
-4.19426
-5.456398
-6.707085
-7.964859
-9.238235
-10.49493
-11.69981
-12.8364
-13.9361
-15.07932
-16.31474
-17.54057
-18.55262
-19.00698
-18.57138
-17.03564
-14.40818
-10.94894
-7.091393
-3.273193
0.1594009
3.034782
5.356651
7.220955
8.714577
9.831894
10.52762
10.78542
10.71117
10.55113
10.56653
10.9528
11.69547
12.56618
13.28837
13.64185
13.57944
13.19746
12.65306
12.02685
11.32475
10.49689
9.508938
8.419018
7.331562
6.382313
5.649269
5.119839
4.745979
4.441849
4.108788
3.650581
3.025162
2.227592
1.289997
0.2776871
-0.7823982
-1.886383
-3.060535
-4.334614
-5.700146
-7.07238
-8.367027
-9.505024
-10.49525
-11.50253
-12.72204
-14.29556
-16.23907
-18.35468
-20.22894
-21.40805
-21.54726
-20.47321
-18.30883
-15.34332
-11.95428
-8.475414
-5.096779
-1.856792
1.24308
4.194981
6.896049
9.149185
10.74212
11.55832
11.64191
11.21137
10.56105
9.933178
9.435078
9.04475
8.682487
8.311672
7.987331
7.8246
7.916672
8.217648
8.557522
8.749245
8.637449
8.142853
7.33942
6.349314
5.272757
4.207161
3.209354
2.335009
1.644133
1.152359
0.7706623
0.3915462
-0.1549854
-0.9646301
-2.034632
-3.248796
-4.460236
-5.576658
-6.569538
-7.514647
-8.491983
-9.588881
-10.86804
-12.34243
-13.95107
-15.50871
-16.715
-17.1696
-16.53132
-14.61544
-11.54432
-7.717647
-3.662059
0.161973
3.476371
6.204773
8.410054
10.1218
11.31675
11.92298
11.90661
11.33858
10.40482
9.329502
8.322407
7.523724
6.995788
6.709135
6.612046
6.593811
6.571023
6.47462
6.292787
6.060323
5.842956
5.680665
5.540236
5.329555
4.890048
4.119443
2.995375
1.626182
0.1862755
-1.138947
-2.266057
-3.209569
-4.067601
-4.941555
-5.882978
-6.880527
-7.83435
-8.678967
-9.417192
-10.16421
-11.07618
-12.237
-13.5766
-14.80973
-15.55747
-15.44162
-14.26203
-12.04627
-9.064937
-5.713245
-2.37781
0.634944
3.184088
5.178216
6.615218
7.477762
7.806082
7.663086
7.197153
6.621605
6.15118
5.944736
6.071795
6.552151
7.282566
8.178009
9.111568
9.968454
10.6182
10.94621
10.88473
10.43516
9.689825
8.756527
7.719664
6.626484
5.455248
4.198141
2.853271
1.484791
0.2059402
-0.9420986
-1.959263
-2.948925
-3.988476
-5.125874
-6.282513
-7.346771
-8.2146
-8.895592
-9.515289
-10.24766
-11.18344
-12.33142
-13.57726
-14.71838
-15.53797
-15.8668
-15.55154
-14.4884
-12.65026
-10.10042
-7.083038
-3.942043
-1.020126
1.456242
3.403435
4.927017
6.124161
7.068325
7.747437
8.083363
8.067356
7.79657
7.45853
7.249702
7.289837
7.520195
7.803925
8.01675
8.051495
7.918446
7.6847
7.36248
6.936741
6.362957
5.590252
4.63773
3.64072
2.69508
1.917015
1.325253
0.8602791
0.4285431
-0.04652023
-0.6070175
-1.300247
-2.130226
-3.126549
-4.215858
-5.2565
-6.063461
-6.501923
-6.555084
-6.399536
-6.30217
-6.533676
-7.254425
-8.419876
-9.876617
-11.45866
-12.97572
-14.23983
-15.04949
-15.13287
-14.2457
-12.30853
-9.43338
-5.974548
-2.38446
0.9454651
3.761192
5.960289
7.538589
8.544586
8.979637
8.861038
8.257118
7.327911
6.315773
5.509933
5.101273
5.159676
5.610313
6.248413
6.848366
7.224266
7.350746
7.312683
7.246964
7.201225
7.162979
7.011269
6.659088
6.077271
5.280563
4.335762
3.289581
2.165779
0.9687881
-0.2553024
-1.374603
-2.248917
-2.76226
-2.928223
-2.883423
-2.853607
-3.035515
-3.52562
-4.272156
-5.134842
-5.982712
-6.735191
-7.41523
-8.14286
-9.09774
-10.42776
-12.11134
-14.01463
-15.85807
-17.30786
-18.00005
-17.65151
-16.12942
-13.55126
-10.23846
-6.618958
-3.131363
-0.08239746
2.384575
4.284889
5.702858
6.679398
7.174675
7.197235
6.796616
6.136566
5.511177
5.137199
5.130417
5.430054
5.866135
6.260033
6.517227
6.636726
6.628143
6.554062
6.424149
6.202454
5.861244
5.373291
4.75901
4.078209
3.368141
2.65303
1.964272
1.326035
0.7701492
0.3030777
-0.1072769
-0.5372314
-1.117203
-1.994621
-3.241737
-4.759377
-6.351395
-7.799004
-8.959839
-9.860832
-10.63428
-11.45977
-12.43142
-13.54424
-14.67639
-15.636
-16.2998
-16.50266
-16.13113
-15.09283
-13.37937
-11.07838
-8.358086
-5.421341
-2.405968
0.5516739
3.359589
5.850304
7.832016
9.093704
9.579353
9.373589
8.699547
7.811241
6.903282
6.101288
5.438004
4.95681
4.691612
4.684814
4.896744
5.230377
5.536606
5.678474
5.628578
5.436829
5.211723
5.060997
4.979965
4.87635
4.616333
4.107132
3.309128
2.294395
1.183327
0.1123123
-0.7984848
-1.548149
-2.187065
-2.884903
-3.783325
-4.987404
-6.417854
-7.919258
-9.281799
-10.35763
-11.13224
-11.72821
-12.40215
-13.35502
-14.69775
-16.35869
-18.12487
-19.70181
-20.71165
-20.81752
-19.7528
-17.49964
-14.19538
-10.18059
-5.88147
-1.735916
1.921951
4.936653
7.25264
8.942184
10.03853
10.65106
10.83973
10.65285
10.16215
9.488914
8.774101
8.119781
7.680397
7.517006
7.676941
8.097015
8.661606
9.231216
9.681183
9.958519
10.00604
9.8218
9.389275
8.69416
7.709824
6.455528
5.032288
3.561996
2.190636
1.017227
0.06787872
-0.7015228
-1.360428
-1.96936
-2.569923
-3.154236
-3.752106
-4.356964
-4.976585
-5.632652
-6.39949
-7.334259
-8.489395
-9.89537
-11.52549
-13.33998
-15.23068
-17.06447
-18.64008
-19.70499
-19.97066
-19.17104
-17.15072
-13.96057
-9.929199
-5.526184
-1.277718
2.411308
5.360489
7.535454
8.96936
9.754868
9.970413
9.68364
9.02475
8.198181
7.40184
6.844955
6.635147
6.758095
7.156338
7.747879
8.42345
9.114655
9.766335
10.34261
10.78699
11.06235
11.11728
10.97113
10.63978
10.14284
9.492168
8.646675
7.596344
6.346851
4.995167
3.638416
2.407146
1.355576
0.4603882
-0.340229
-1.153378
-2.063297
-3.141251
-4.343857
-5.641102
-6.928261
-8.137016
-9.260391
-10.35975
-11.60456
-13.14021
-15.01102
-17.07745
-19.05509
-20.56459
-21.25996
-20.89101
-19.36124
-16.73669
-13.21579
-9.139259
-4.909584
-0.9513016
2.383183
4.920578
6.646
7.669975
8.177299
8.359081
8.386013
8.426067
8.540974
8.760023
9.078865
9.447824
9.847946
10.28159
10.77606
11.35674
12.01019
12.62287
13.03635
13.12006
12.83522
12.22786
11.42799
10.51514
9.492399
8.332392
6.953108
5.358006
3.641474
2.006369
0.6592388
-0.2517624
-0.764843
-1.062681
-1.337509
-1.774918
-2.42128
-3.211931
-4.043079
-4.809536
-5.488987
-6.176291
-7.01926
-8.121182
-9.487521
-11.03819
-12.6579
-14.26817
-15.82193
-17.28967
-18.59387
-19.54255
-19.85997
-19.26543
-17.55136
-14.75574
-11.14193
-7.144648
-3.228947
0.249011
3.111339
5.354541
7.061889
8.329438
9.169394
9.51757
9.362829
8.800627
8.10064
7.567355
7.445558
7.796855
8.524543
9.406886
10.22734
10.87359
11.36609
11.77863
12.13479
12.40537
12.49327
12.33828
11.91234
11.27995
10.49326
9.61333
8.661965
7.642764
6.570968
5.466905
4.387826
3.357834
2.407873
1.490252
0.5340643
-0.5060253
-1.651162
-2.854437
-4.05372
-5.18282
-6.207331
-7.097292
-7.879753
-8.630558
-9.425894
-10.39093
-11.60705
-13.1756
-15.07071
-17.18012
-19.23654
-20.84415
-21.5752
-21.05608
-19.10724
-15.77744
-11.45532
-6.63439
-1.891636
2.338495
5.844744
8.573992
10.62104
12.04579
12.87599
13.06346
12.65527
11.78977
10.75738
9.897245
9.467354
9.577351
10.12431
10.88425
11.59902
12.10269
12.35361
12.34908
12.13311
11.67521
10.91868
9.791363
8.284508
6.50531
4.669144
2.990974
1.622101
0.6187744
-0.08943939
-0.6113892
-1.070343
-1.562439
-2.086842
-2.629585
-3.193478
-3.80479
-4.518772
-5.376179
-6.383614
-7.504601
-8.689613
-9.889538
-11.11384
-12.40112
-13.77277
-15.2199
-16.68609
-18.06898
-19.24909
-20.05957
-20.28424
-19.67953
-18.03292
-15.22058
-11.39694
-6.961723
-2.428646
1.701008
5.113552
7.691402
9.471142
10.53707
11.00868
10.99156
10.63095
10.16446
9.859848
9.945824
10.46626
11.34988
12.36519
13.29212
13.91974
14.17653
14.05809
13.64409
13.01814
12.22207
11.29607
10.3046
9.330185
8.417072
7.596519
6.786079
5.84684
4.695107
3.314041
1.818443
0.4018478
-0.7926788
-1.75975
-2.633415
-3.603104
-4.783379
-6.131805
-7.482559
-8.609932
-9.415962
-9.908867
-10.25062
-10.66736
-11.33494
-12.30292
-13.53866
-14.97595
-16.50513
-18.11758
-19.72182
-21.10316
-21.92678
-21.78242
-20.34258
-17.53623
-13.61605
-9.048325
-4.385765
-0.09951782
3.619736
6.731483
9.259987
11.21455
12.51145
13.06901
12.90084
12.1587
11.11996
10.16891
9.597176
9.571404
10.04261
10.84068
11.74089
12.54978
13.15057
13.53249
13.7413
13.75098
13.51555
12.93137
11.96671
10.72872
9.457893
8.392181
7.714592
7.381317
7.173172
6.788857
6.050095
4.952248
3.668381
2.486137
1.570267
0.9673233
0.5228577
0.02213287
-0.7244492
-1.766411
-3.014626
-4.371658
-5.705673
-7.007271
-8.326431
-9.773788
-11.38586
-13.16748
-15.06268
-17.00322
-18.9411
-20.77956
-22.35813
-23.37763
-23.52054
-22.47765
-20.10176
-16.50713
-12.00176
-7.057976
-2.077629
2.581879
6.722618
10.25506
13.08259
15.13615
16.36092
16.80717
16.61961
16.10326
15.51974
15.03246
14.72449
14.55779
14.48413
14.5004
14.65076
14.94736
15.3578
15.74847
15.91621
15.7172
15.113
14.20793
13.14923
12.09156
11.09435
10.15308
9.227203
8.303101
7.397942
6.511726
5.700157
4.984558
4.356682
3.835678
3.428017
3.11348
2.856018
2.600952
2.253571
1.750496
1.046669
0.08075714
-1.137268
-2.58374
-4.220634
-5.971771
-7.726608
-9.38401
-10.85702
-12.1286
-13.24259
-14.23192
-15.15218
-16.06798
-17.05962
-18.23302
-19.61763
-21.12148
-22.53385
-23.48886
-23.5769
-22.51067
-20.22549
-16.85156
-12.75735
-8.349426
-3.93615
0.2651367
4.136703
7.618057
10.6078
12.98583
14.68899
15.67125
15.98371
15.83333
15.46885
15.1636
15.13931
15.446
15.98997
16.59856
17.04196
17.13821
16.82378
16.13683
15.19789
14.13387
13.04577
12.01268
11.09088
10.2883
9.586731
8.966438
8.32312
7.577515
6.657295
5.514847
4.22718
2.893723
1.631851
0.5184402
-0.4053802
-1.174446
-1.855225
-2.509445
-3.215302
-3.957176
-4.749817
-5.609848
-6.53923
-7.527512
-8.565781
-9.581131
-10.48441
-11.2683
-11.95869
-12.65673
-13.49076
-14.53673
-15.79578
-17.24674
-18.80045
-20.3848
-21.91105
-23.20901
-24.01863
-24.01385
-22.91325
-20.60245
-17.21265
-13.07483
-8.639236
-4.316071
-0.3607254
3.119316
6.083473
8.446632
10.06324
10.81342
10.70963
9.964737
8.994522
8.249344
8.05378
8.456833
9.320442
10.38659
11.42117
12.31094
13.02485
13.57762
14.00477
14.28885
14.38945
14.26891
13.89618
13.22123
12.22041
10.92175
9.392044
7.798019
6.325134
5.112694
4.244011
3.70591
3.411369
3.255249
3.193184
3.1493
3.044159
2.822441
2.406105
1.765728
0.8878021
-0.2396622
-1.586769
-3.112068
-4.700542
-6.206059
-7.452251
-8.364567
-8.962849
-9.421223
-9.96442
-10.79638
-12.05404
-13.7662
-15.87269
-18.19772
-20.52763
-22.47499
-23.63059
-23.60551
-22.15184
-19.29394
-15.3604
-10.86344
-6.342381
-2.247658
1.214867
4.034824
6.321594
8.211285
9.722767
10.82875
11.49762
11.72762
11.67326
11.52005
11.47403
11.65147
12.05748
12.53711
12.94011
13.14275
13.10829
12.88784
12.55266
12.15203
11.67447
11.09925
10.39614
9.598499
8.808983
8.107292
7.553288
7.158142
6.848499
6.545418
6.149052
5.615963
4.957951
4.241714
3.510765
2.769096
1.972492
1.020279
-0.1025238
-1.34837
-2.530064
-3.428993
-3.929827
-4.105452
-4.203876
-4.527296
-5.276808
-6.417995
-7.777287
-9.108227
-10.22934
-11.05462
-11.63542
-12.03786
-12.33805
-12.68106
-13.16154
-13.93698
-15.12965
-16.74065
-18.58541
-20.29723
-21.36488
-21.33294
-19.99465
-17.40639
-13.87569
-9.881454
-5.904579
-2.269079
0.8991146
3.617582
5.957117
7.94521
9.534594
10.65876
11.26427
11.36182
11.05854
10.55241
10.00429
9.567322
9.284605
9.16285
9.133013
9.140779
9.209564
9.379255
9.729569
10.26717
10.95956
11.66854
12.2423
12.52103
12.44463
12.0286
11.36603
10.53912
9.638763
8.720613
7.800964
6.875635
5.958376
5.053997
4.123378
3.140317
2.054711
0.8395942
-0.4887168
-1.859007
-3.158369
-4.228908
-5.003632
-5.557515
-6.032152
-6.607195
-7.365864
-8.26361
-9.1784
-9.993059
-10.67191
-11.31132
-12.02743
-12.86732
-13.82898
-14.84226
-15.894
-16.99177
-18.09964
-19.05713
-19.54292
-19.15205
-17.55444
-14.71997
-10.9207
-6.673065
-2.543653
1.059055
3.944817
6.141106
7.775272
8.964394
9.730291
10.05756
9.937731
9.433167
8.700581
7.914101
7.226419
6.701395
6.331139
6.095089
6.015873
6.147367
6.576628
7.332853
8.306349
9.325064
10.13117
10.54559
10.48473
10.00157
9.25794
8.405989
7.557629
6.735085
5.953888
5.200268
4.506847
3.922394
3.488522
3.174812
2.878654
2.478813
1.87421
1.049965
0.0764389
-0.9186859
-1.84737
-2.704998
-3.582462
-4.598843
-5.794556
-7.097801
-8.343086
-9.37611
-10.06976
-10.45525
-10.65638
-10.86624
-11.28522
-12.03806
-13.17443
-14.70961
-16.58908
-18.59929
-20.42645
-21.66035
-21.89558
-20.90953
-18.71442
-15.57243
-11.87539
-8.072357
-4.490871
-1.335789
1.349495
3.607014
5.44017
6.791191
7.587704
7.830902
7.626621
7.219196
6.890663
6.909714
7.383297
8.186489
9.059925
9.733334
10.04749
10.04185
9.822563
9.511856
9.199718
8.870537
8.437424
7.858482
7.128071
6.295773
5.485714
4.748791
4.119522
3.56955
3.044865
2.507225
1.944794
1.350479
0.7102509
0.04177475
-0.6585541
-1.378529
-2.157707
-3.052448
-4.075165
-5.196468
-6.352985
-7.439041
-8.367256
-9.155441
-9.861603
-10.58726
-11.44563
-12.42304
-13.49553
-14.65293
-15.88332
-17.17259
-18.38726
-19.23951
-19.35093
-18.47737
-16.55297
-13.83603
-10.75171
-7.724991
-5.000786
-2.577755
-0.3179131
1.873108
3.888069
5.516861
6.492031
6.74913
6.447063
5.923988
5.537037
5.519928
5.895382
6.545681
7.337658
8.100487
8.76313
9.283623
9.59869
9.663773
9.470947
9.018463
8.43652
7.85461
7.354603
6.952271
6.634853
6.325905
5.94323
5.469479
4.88031
4.173615
3.382843
2.555012
1.72538
0.9759521
0.2818527
-0.4170952
-1.217213
-2.218147
-3.490574
-5.000698
-6.639908
-8.256226
-9.747143
-11.1068
-12.34651
-13.54902
-14.80819
-16.2112
-17.83675
-19.69991
-21.61998
-23.30353
-24.29503
-24.15639
-22.65023
-19.86817
-16.16122
-11.95875
-7.663029
-3.476074
0.5425644
4.359509
7.829807
10.74731
12.85203
14.01113
14.25856
13.7424
12.71479
11.4553
10.24509
9.311733
8.829239
8.848568
9.320219
10.07544
10.92518
11.71483
12.34381
12.78756
13.00086
12.94463
12.5697
11.87191
10.86974
9.673382
8.424095
7.231382
6.152096
5.16905
4.291842
3.501978
2.804364
2.17363
1.546556
0.8259611
-0.07652473
-1.19296
-2.532543
-4.012014
-5.555085
-7.107831
-8.622462
-10.05924
-11.35666
-12.49543
-13.44732
-14.27573
-15.07754
-15.99097
-17.1329
-18.48934
-19.96207
-21.23394
-21.99053
-21.86843
-20.60365
-18.10997
-14.5131
-10.13698
-5.422928
-0.8830106
3.147231
6.416459
8.896791
10.65978
11.80614
12.40719
12.49653
12.14574
11.4602
10.73734
10.29327
10.38356
11.08697
12.21548
13.48181
14.51469
15.10701
15.22492
15.02796
14.70584
14.37764
14.10377
13.75853
13.27092
12.60565
11.80706
10.95117
10.13041
9.331108
8.475515
7.495374
6.287505
4.885803
3.37431
1.917524
0.6423836
-0.3592548
-1.088882
-1.639858
-2.122326
-2.713009
-3.512186
-4.590178
-5.930422
-7.446215
-9.008572
-10.44641
-11.62877
-12.48306
-13.0768
-13.54079
-14.10271
-14.99454
-16.36614
-18.18311
-20.17817
-21.89505
-22.78527
-22.44216
-20.70493
-17.71488
-13.87388
-9.649267
-5.447575
-1.505699
2.059242
5.264904
8.073858
10.44322
12.30847
13.59393
14.30929
14.52464
14.43562
14.2741
14.26214
14.49521
14.97687
15.58044
16.11781
16.46331
16.55672
16.43707
16.14604
15.73519
15.16947
14.43503
13.5328
12.5061
11.43499
10.39712
9.418396
8.511034
7.683443
6.946709
6.355436
5.903532
5.571365
5.292765
4.986105
4.584671
4.046171
3.315859
2.351254
1.113798
-0.4109974
-2.124346
-3.825462
-5.31875
-6.4678
-7.277767
-7.929573
-8.634809
-9.589687
-10.87942
-12.49039
-14.31014
-16.24003
-18.19626
-20.13315
-21.96069
-23.58577
-24.83904
-25.53479
-25.47108
-24.48379
-22.50424
-19.53896
-15.7799
-11.50698
-7.142757
-3.1014
0.3124866
2.985826
4.956949
6.367672
7.337904
7.947788
8.261366
8.355844
8.370872
8.496876
8.881744
9.570765
10.4936
11.47636
12.3116
12.8375
13.02424
12.92484
12.6908
12.43949
12.26013
12.1178
11.93444
11.55002
10.87732
9.910135
8.721346
7.493345
6.35618
5.429001
4.694185
4.071369
3.421106
2.641483
1.724146
0.7320404
-0.259531
-1.221199
-2.161558
-3.148716
-4.245407
-5.443876
-6.718735
-7.990559
-9.197124
-10.30056
-11.33175
-12.36101
-13.45634
-14.69241
-16.06337
-17.52103
-18.95686
-20.26505
-21.31936
-22.02822
-22.28674
-21.95261
-20.839
-18.7639
-15.6825
-11.73512
-7.299358
-2.841206
1.222824
4.638161
7.329716
9.408798
10.95789
11.98404
12.46522
12.41276
11.98129
11.45866
11.15725
11.29387
11.91439
12.90037
14.02544
15.09505
16.02283
16.78756
17.37906
17.7348
17.73286
17.24852
16.22678
14.72655
12.88952
10.91269
8.99601
7.319515
5.996449
5.068451
4.509083
4.183647
3.956718
3.729816
3.419613
2.979832
2.407379
1.677341
0.7757568
-0.2911606
-1.484062
-2.734673
-3.953297
-5.029762
-5.940147
-6.700546
-7.407501
-8.187748
-9.18074
-10.49201
-12.18232
-14.26065
-16.65335
-19.2517
-21.82033
-24.00563
-25.41317
-25.68787
-24.61935
-22.2163
-18.70366
-14.43607
-9.838436
-5.281651
-1.013874
2.789177
6.05463
8.739132
10.82447
12.26918
13.03878
13.11635
12.62103
11.79654
10.89948
10.18753
9.776203
9.633789
9.630047
9.601749
9.46582
9.261284
9.105042
9.113922
9.36937
9.791691
10.2687
10.64574
10.82275
10.77754
10.59355
10.34854
10.09119
9.825409
9.457912
8.910862
8.157494
7.236454
6.190239
5.082527
3.90033
2.616272
1.289146
-0.05238342
-1.293343
-2.355385
-3.227959
-3.96925
-4.675823
-5.454136
-6.361732
-7.339062
-8.389408
-9.50325
-10.77329
-12.32145
-14.24575
-16.56873
-19.1572
-21.71563
-23.81863
-25.0784
-25.17363
-24.02223
-21.71067
-18.49435
-14.69939
-10.67687
-6.693932
-2.908276
0.5559731
3.674664
6.377186
8.570824
10.13496
10.96149
11.05503
10.58881
9.892937
9.358658
9.312229
9.897404
10.9511
12.19471
13.25896
13.93029
14.16875
14.12545
13.99471
13.92416
13.93498
13.88992
13.63372
13.07213
12.21648
11.14577
9.964699
8.703079
7.345699
5.87838
4.361645
2.960125
1.861115
1.208984
0.9719028
0.9889698
1.010952
0.8324013
0.378231
-0.2787914
-1.004297
-1.721487
-2.417377
-3.151251
-3.990568
-4.936289
-5.940166
-6.903091
-7.823437
-8.745958
-9.790661
-11.05977
-12.62665
-14.51842
-16.70512
-19.09776
-21.52823
-23.74968
-25.39532
-26.07477
-25.46722
-23.42257
-20.07493
-15.75589
-10.9576
-6.150841
-1.746719
2.008293
5.016197
7.267693
8.831774
9.780148
10.20456
10.19334
9.893068
9.50935
9.284616
9.397512
9.902386
10.69135
11.51403
12.13488
12.45663
12.51034
12.42552
12.27991
12.05194
11.63248
10.97882
10.11243
9.176287
8.360641
7.739029
7.26733
6.821674
6.333281
5.786839
5.277487
4.8757
4.54727
4.19644
3.743633
3.197744
2.654398
2.196529
1.807646
1.346608
0.6148348
-0.5584984
-2.203255
-4.155118
-6.136778
-7.911739
-9.403111
-10.62513
-11.73371
-12.84696
-14.08202
-15.49213
-17.08747
-18.80335
-20.53189
-22.07843
-23.17237
-23.52172
-22.84217
-20.97726
-17.94139
-13.97454
-9.492566
-4.963103
-0.7854004
2.757092
5.522019
7.48391
8.642785
9.06942
8.914674
8.408444
7.886375
7.695307
8.019641
8.812624
9.887664
10.95982
11.81574
12.44781
12.91306
13.28951
13.57553
13.69699
13.51785
13.00317
12.16838
11.14064
10.09162
9.138227
8.327389
7.620549
6.930826
6.118327
5.095616
3.815395
2.371152
0.9581108
-0.2366848
-1.090301
-1.69611
-2.259402
-3.047495
-4.166172
-5.59464
-7.13777
-8.587719
-9.83614
-10.86496
-11.77121
-12.69434
-13.77635
-15.07182
-16.60791
-18.32226
-20.08864
-21.67193
-22.71071
-22.88101
-21.91078
-19.78682
-16.67675
-12.93558
-8.969032
-5.105937
-1.532307
1.726622
4.701003
7.418072
9.773586
11.60119
12.72163
13.03574
12.70116
12.02485
11.39541
11.11014
11.28405
11.80934
12.43832
12.97949
13.29659
13.44925
13.49109
13.46511
13.28288
12.84158
12.09644
11.07465
9.9524
8.86845
7.969234
7.234272
6.548749
5.742551
4.678851
3.286413
1.633454
-0.1049228
-1.725967
-3.039861
-3.965631
-4.588514
-5.080823
-5.66863
-6.517476
-7.612052
-8.791807
-9.831668
-10.55619
-10.94059
-11.16916
-11.47055
-12.11287
-13.19059
-14.69401
-16.49161
-18.39566
-20.2095
-21.65554
-22.47034
-22.3089
-20.99577
-18.47454
-14.93573
-10.76383
-6.408098
-2.244533
1.492622
4.699212
7.387852
9.58008
11.28547
12.50872
13.24391
13.53739
13.51838
13.32826
13.06312
12.78349
12.48976
12.16244
11.81713
11.46273
11.18387
11.03159
11.04979
11.17322
11.30143
11.32016
11.10217
10.61119
9.808893
8.814441
7.763461
6.831541
6.129757
5.661613
5.326464
4.953527
4.409133
3.625371
2.691665
1.717673
0.8456665
0.1098789
-0.5500071
-1.256669
-2.137859
-3.223773
-4.476234
-5.82017
-7.204033
-8.568598
-9.916097
-11.26432
-12.64429
-14.08912
-15.59832
-17.17501
-18.85124
-20.63585
-22.40636
-23.95159
-24.93267
-24.98159
-23.81474
-21.36306
-17.80917
-13.55842
-9.142557
-4.949865
-1.2259
1.998918
4.823534
7.291357
9.351224
10.86565
11.73568
11.93895
11.66139
11.17186
10.7544
10.59561
10.6805
10.91258
11.16741
11.39132
11.57129
11.7525
11.94266
12.13068
12.26986
12.27441
12.07256
11.59983
10.84077
9.875744
8.8319
7.863703
7.05915
6.437209
5.882354
5.291138
4.577545
3.740399
2.867239
2.037409
1.281114
0.4786477
-0.4945197
-1.752747
-3.293831
-5.025762
-6.796417
-8.482497
-10.01493
-11.36533
-12.54686
-13.58655
-14.48955
-15.27065
-15.96434
-16.59672
-17.2564
-17.96669
-18.67033
-19.19594
-19.34616
-18.88148
-17.69196
-15.76927
-13.20898
-10.21774
-7.002787
-3.744445
-0.5870266
2.34333
4.961223
7.13942
8.786701
9.825195
10.25848
10.16389
9.735559
9.26098
9.056836
9.375847
10.28693
11.63586
13.12453
14.39289
15.20928
15.48268
15.3083
14.86113
14.31595
13.74671
13.10385
12.32994
11.36509
10.26583
9.162516
8.213943
7.519403
7.028255
6.528891
5.753264
4.544878
2.926185
1.133578
-0.5122242
-1.747863
-2.502612
-2.912073
-3.204556
-3.589411
-4.132032
-4.811141
-5.55699
-6.366643
-7.298419
-8.454144
-9.888828
-11.52468
-13.24874
-14.93722
-16.57147
-18.23922
-19.99663
-21.78749
-23.33602
-24.19893
-23.89627
-22.15585
-19.05817
-15.00033
-10.53641
-6.192773
-2.266603
1.135051
4.038201
6.475
8.401774
9.715168
10.33209
10.27414
9.668276
8.786891
7.933126
7.383144
7.30567
7.740993
8.590572
9.66351
10.73207
11.62827
12.27627
12.64696
12.71498
12.45395
11.84607
10.88087
9.60746
8.126178
6.557079
5.06654
3.75359
2.662709
1.827877
1.22513
0.837882
0.6070881
0.4664326
0.3720827
0.2285128
-0.03220844
-0.4716606
-1.130239
-2.059755
-3.235366
-4.593964
-6.028639
-7.395371
-8.64454
-9.789815
-10.91292
-12.16976
-13.68484
-15.48743
-17.44466
-19.31948
-20.83215
-21.72921
-21.83175
-21.02533
-19.26567
-16.57756
-13.04853
-8.844601
-4.270636
0.2693825
4.352161
7.646734
10.00024
11.42298
12.07708
12.122
11.73224
11.06621
10.34628
9.817968
9.685682
10.08773
10.89301
11.87544
12.75313
13.33037
13.59345
13.70634
13.83699
14.06597
14.35864
14.51972
14.38053
13.83201
12.89838
11.64913
10.22128
8.739943
7.261227
5.871599
4.615108
3.53623
2.621796
1.867563
1.242079
0.7293968
0.32267
-0.03271484
-0.4014931
-0.9075165
-1.673704
-2.752504
-4.117754
-5.622704
-7.106739
-8.457973
-9.649725
-10.69768
-11.71098
-12.7962
-14.04814
-15.52426
-17.19156
-18.93293
-20.56856
-21.87971
-22.62372
-22.63584
-21.78096
-19.94141
-17.10317
-13.36319
-8.978949
-4.318674
0.156271
4.073063
7.196222
9.471689
10.9999
11.88093
12.18032
11.9969
11.47362
10.82348
10.32598
10.19106
10.4774
11.03771
11.6379
12.06616
12.3231
12.55608
12.93735
13.54186
14.19377
14.59062
14.39439
13.48554
12.02681
10.39356
8.990421
8.031055
7.496017
7.147993
6.769033
6.254179
5.682995
5.261707
5.161684
5.404615
5.808249
6.09815
5.934837
5.159559
3.79714
2.05872
0.2130795
-1.478748
-2.870847
-3.988335
-4.908387
-5.799619
-6.713834
-7.575926
-8.267578
-8.687001
-8.854761
-8.919032
-9.148531
-9.756715
-10.88488
-12.50705
-14.51619
-16.79517
-19.15578
-21.41537
-23.26184
-24.32654
-24.20072
-22.63361
-19.61934
-15.46024
-10.70359
-5.881049
-1.474532
2.245563
5.145761
7.235399
8.566381
9.226991
9.354496
9.125881
8.801203
8.590553
8.687504
9.167158
10.01936
11.11171
12.21839
13.13012
13.68974
13.9009
13.82938
13.63883
13.44221
13.22581
12.88399
12.29416
11.46195
10.53533
9.753607
9.289479
9.166854
9.19987
9.108735
8.66104
7.780004
6.577741
5.276384
4.070164
3.039069
2.160945
1.35108
0.5659642
-0.1724253
-0.8399906
-1.420744
-1.993893
-2.702848
-3.676455
-4.965728
-6.450677
-7.914046
-9.10514
-9.904963
-10.31905
-10.50558
-10.63325
-10.83966
-11.245
-11.89854
-12.8756
-14.21022
-15.87775
-17.68228
-19.28595
-20.22375
-20.04994
-18.53557
-15.66786
-11.75366
-7.276558
-2.765421
1.345566
4.806398
7.55418
9.6565
11.13092
11.98093
12.18616
11.7687
10.90484
9.874073
9.021824
8.628294
8.807226
9.407013
10.17105
10.80273
11.11334
11.07378
10.71209
10.16092
9.53598
8.975582
8.54398
8.271191
8.098938
7.918362
7.618561
7.047626
6.14679
4.983536
3.747993
2.659004
1.915527
1.595699
1.651505
1.923203
2.180367
2.20002
1.856178
1.170147
0.239872
-0.7774811
-1.784378
-2.733402
-3.613571
-4.452877
-5.275803
-6.120369
-6.980927
-7.868969
-8.791653
-9.751957
-10.76685
-11.80061
-12.89877
-14.11455
-15.50618
-16.97994
-18.3019
-19.06825
-18.88038
-17.54325
-15.11266
-11.91989
-8.412865
-5.007248
-1.907257
0.809288
3.146759
5.059784
6.407829
7.113785
7.193596
6.815941
6.215286
5.649406
5.277573
5.19352
5.434937
5.946091
6.623848
7.300468
7.790932
7.947014
7.726761
7.204414
6.544922
5.927719
5.44648
5.091881
4.814034
4.533287
4.192558
3.77079
3.23822
2.571716
1.804054
0.9592972
0.08461761
-0.7745819
-1.624931
-2.506706
-3.493324
-4.624931
-5.902229
-7.25518
-8.604012
-9.853386
-10.94782
-11.88602
-12.68772
-13.39435
-14.07377
-14.79827
-15.65958
-16.68497
-17.80365
-18.83307
-19.49153
-19.45743
-18.48837
-16.54494
-13.79776
-10.60397
-7.354362
-4.329071
-1.669304
0.6257782
2.629807
4.332184
5.665352
6.514977
6.82753
6.65934
6.209984
5.759293
5.588425
5.877914
6.600304
7.614006
8.673431
9.571686
10.16467
10.45546
10.54559
10.54507
10.48364
10.24468
9.683121
8.698029
7.334328
5.793877
4.3395
3.152092
2.261482
1.546013
0.8030472
-0.04264069
-0.9539948
-1.802849
-2.418404
-2.792137
-3.064568
-3.447083
-4.116585
-5.141891
-6.450233
-7.883949
-9.304565
-10.58649
-11.71861
-12.75839
-13.77855
-14.80103
-15.84962
-16.92122
-18.032
-19.16378
-20.22999
-21.07082
-21.44655
-21.06185
-19.70007
-17.33475
-14.13396
-10.48437
-6.79438
-3.36412
-0.3517532
2.235466
4.478195
6.414711
8.040512
9.361282
10.34275
11.03558
11.53182
11.95159
12.39306
12.9203
13.53419
14.19852
14.84145
15.35772
15.66056
15.70704
15.50712
15.12557
14.57748
13.88895
13.09241
12.21362
11.31561
10.4736
9.754993
9.133801
8.633286
8.185429
7.708553
7.128433
6.376617
5.457493
4.486732
3.666809
3.142323
3.030449
3.246578
3.552055
3.676758
3.409119
2.713547
1.760605
0.7796021
-0.005958557
-0.5112343
-0.8009834
-1.045589
-1.364624
-1.853352
-2.517708
-3.331882
-4.288479
-5.405052
-6.702534
-8.165005
-9.742188
-11.26289
-12.60732
-13.70422
-14.6325
-15.54654
-16.6347
-18.00639
-19.66491
-21.50439
-23.25925
-24.60964
-25.12228
-24.38315
-22.13717
-18.42102
-13.59005
-8.317837
-3.330505
0.8226509
3.914421
6.079319
7.629711
8.791679
9.626064
10.06874
10.05861
9.698177
9.267609
9.052017
9.24802
9.872906
10.74527
11.6014
12.22324
12.54329
12.65017
12.72859
12.92836
13.31121
13.82035
14.29501
14.55059
14.44311
13.94992
13.17372
12.27784
11.38798
10.60693
9.947285
9.347721
8.769039
8.166393
7.516384
6.812538
6.052574
5.20834
4.308849
3.398914
2.49511
1.650501
0.8636513
0.09867859
-0.6826172
-1.459885
-2.18026
-2.793777
-3.242523
-3.560646
-3.820835
-4.122047
-4.552071
-5.174381
-5.997025
-6.998306
-8.184273
-9.538666
-10.98999
-12.42975
-13.78925
-15.02293
-16.19176
-17.40131
-18.75959
-20.30161
-21.83941
-23.0191
-23.39184
-22.61272
-20.57015
-17.41593
-13.50016
-9.233524
-5.012676
-1.079338
2.393208
5.330917
7.708645
9.505875
10.72434
11.37114
11.49998
11.1903
10.61328
9.976692
9.453953
9.219486
9.285999
9.562637
9.931965
10.30544
10.64267
10.96165
11.2823
11.54753
11.74651
11.7872
11.64785
11.34579
10.87634
10.27134
9.56432
8.82494
8.076073
7.420353
6.852139
6.371365
5.937626
5.507111
5.055969
4.6064
4.213341
3.835842
3.437897
2.894928
2.140232
1.179955
0.1123772
-0.9147072
-1.767143
-2.391483
-2.823158
-3.177715
-3.587482
-4.188736
-5.024101
-6.126163
-7.43021
-8.868931
-10.35633
-11.80315
-13.15688
-14.39473
-15.54882
-16.66965
-17.85118
-19.11526
-20.44224
-21.62792
-22.38003
-22.31825
-21.17476
-18.8899
-15.68564
-11.98101
-8.210804
-4.731693
-1.642212
1.018471
3.289955
5.11018
6.363678
6.950268
6.913528
6.45005
5.849831
5.433544
5.385925
5.75753
6.458382
7.360073
8.319981
9.260895
10.11959
10.85155
11.42661
11.78651
11.87464
11.64315
11.09166
10.3115
9.458931
8.718237
8.189533
7.883629
7.684401
7.415665
6.926634
6.186123
5.312632
4.481766
3.836761
3.389353
3.08996
2.791176
2.397991
1.870293
1.222446
0.510006
-0.2569027
-1.06485
-1.963068
-2.907251
-3.891207
-4.887878
-5.931063
-7.094936
-8.415859
-9.881908
-11.34396
-12.66142
-13.67404
-14.39759
-14.97416
-15.63889
-16.64798
-18.0952
-19.85999
-21.57921
-22.79908
-23.0528
-22.07049
-19.81512
-16.49877
-12.55958
-8.443037
-4.58795
-1.225534
1.529779
3.686779
5.313103
6.486053
7.294886
7.811218
8.176511
8.466596
8.774601
9.156473
9.601105
10.09612
10.63705
11.24211
11.92623
12.67228
13.35254
13.80171
13.85693
13.4266
12.53219
11.3225
10.01631
8.84075
7.970529
7.456255
7.288698
7.309521
7.327962
7.183678
6.747042
6.041208
5.19214
4.351183
3.581176
2.895803
2.165607
1.257323
0.1548756
-1.104021
-2.401729
-3.653763
-4.842095
-6.027126
-7.255769
-8.560254
-9.907337
-11.24071
-12.57911
-13.99355
-15.64371
-17.63033
-20.00226
-22.61546
-25.2453
-27.59329
-29.39332
-30.51227
-30.88602
-30.55091
-29.50024
-27.65386
-24.85776
-21.02073
-16.18358
-10.62478
-4.900408
0.4102783
4.749653
7.807804
9.529835
10.05401
9.658287
8.662468
7.408062
6.13443
5.073483
4.37587
4.185638
4.629711
5.844883
7.905582
10.78705
14.34618
18.19406
21.88747
24.98913
27.24801
28.6034
29.18212
29.14732
28.62394
27.67602
26.31646
24.6191
22.72985
20.85754
19.24702
18.06498
17.38929
17.1586
17.23288
17.408
17.48487
17.29013
16.71439
15.7794
14.51975
13.02413
11.31649
9.448578
7.450653
5.401756
3.40905
1.549301
-0.144825
-1.775063
-3.461887
-5.379162
-7.561008
-9.891994
-12.16545
-14.17041
-15.81264
-17.13961
-18.35967
-19.69522
-21.32011
-23.30431
-25.53585
-27.77021
-29.65045
-30.78652
-30.79729
-29.4698
-26.77897
-22.94383
-18.39586
-13.63614
-9.159702
-5.263996
-2.052704
0.5321159
2.61441
4.286808
5.536987
6.30085
6.522625
6.212673
5.571003
4.916634
4.579967
4.789009
5.548306
6.677002
7.940571
9.143433
10.20441
11.08266
11.77595
12.21512
12.30812
12.00565
11.3661
10.53972
9.754749
9.176197
8.810585
8.507614
8.109261
7.525261
6.789001
6.032734
5.393074
4.931232
4.573475
4.160942
3.524113
2.625248
1.49345
0.2568626
-1.002377
-2.271744
-3.578926
-4.9403
-6.330009
-7.653706
-8.795593
-9.788078
-10.66722
-11.55429
-12.58102
-13.78238
-15.15255
-16.66346
-18.26755
-19.93216
-21.65045
-23.23597
-24.34813
-24.56057
-23.45005
-20.82243
-16.86378
-12.05831
-7.062416
-2.444656
1.540367
4.901466
7.773804
10.24558
12.19495
13.38253
13.65553
13.10294
12.09942
11.21169
10.8839
11.25772
12.19354
13.30944
14.2491
14.82889
15.03046
14.97804
14.85522
14.75092
14.61297
14.37651
13.91176
13.15805
12.14415
10.96545
9.711693
8.481766
7.289368
6.080879
4.879463
3.679573
2.562584
1.629128
0.9829102
0.6213379
0.450676
0.2857513
-0.1301651
-0.9233017
-2.148842
-3.708534
-5.391678
-6.987434
-8.361931
-9.552094
-10.69352
-12.02289
-13.68322
-15.70423
-17.94788
-20.12994
-21.92679
-23.00304
-23.10841
-22.04349
-19.76744
-16.34468
-12.0631
-7.33297
-2.649376
1.536552
4.952065
7.540337
9.424232
10.76089
11.68711
12.20216
12.24724
11.79786
10.94379
9.925369
9.067848
8.639206
8.74659
9.297195
10.05032
10.74894
11.26611
11.57765
11.76319
11.88116
11.94327
11.8853
11.60494
11.04723
10.26985
9.434532
8.676987
8.133514
7.789604
7.571968
7.329124
6.930122
6.297554
5.427818
4.412437
3.330894
2.291
1.35714
0.5652237
-0.09016418
-0.6491241
-1.160561
-1.709747
-2.375832
-3.276756
-4.488136
-6.004135
-7.732063
-9.488937
-11.11159
-12.46174
-13.60348
-14.71609
-16.04654
-17.76954
-19.91196
-22.26225
-24.37824
-25.74304
-25.79829
-24.22648
-21.01998
-16.52796
-11.2794
-5.872597
-0.8241806
3.573349
7.192612
9.994392
11.96421
13.07912
13.35812
12.94917
12.1349
11.25565
10.59364
10.32398
10.46863
10.95635
11.67567
12.49306
13.29602
14.00178
14.54438
14.87072
14.99071
14.87971
14.55115
13.99747
13.21207
12.20981
11.03138
9.766014
8.514885
7.386482
6.41729
5.654884
5.107536
4.777588
4.646835
4.645393
4.643646
4.497452
4.089485
3.349144
2.28289
0.9878693
-0.3846741
-1.705238
-2.893471
-3.967079
-5.015961
-6.142967
-7.384125
-8.658005
-9.819557
-10.77321
-11.45177
-11.95364
-12.41176
-12.97224
-13.78071
-14.89827
-16.3249
-17.98688
-19.78152
-21.39904
-22.43525
-22.41398
-20.9753
-18.02904
-13.79546
-8.761269
-3.49218
1.450653
5.719223
9.141045
11.69241
13.39134
14.30799
14.50912
14.15203
13.48779
12.75802
12.24056
12.04519
12.17764
12.5722
13.08545
13.62251
14.11041
14.54063
14.90047
15.24084
15.4881
15.57776
15.4227
14.91459
14.0497
12.87099
11.51082
10.09928
8.789177
7.627941
6.645489
5.858868
5.213482
4.690346
4.249733
3.84026
3.38895
2.872719
2.250755
1.543995
0.8400192
0.1442299
-0.5267258
-1.181194
-1.834557
-2.480331
-3.074371
-3.588295
-4.031395
-4.424976
-4.916332
-5.572868
-6.435383
-7.432312
-8.457973
-9.465153
-10.45257
-11.53109
-12.83245
-14.49304
-16.48048
-18.63794
-20.67687
-22.21449
-22.90104
-22.45955
-20.7996
-18.00438
-14.35235
-10.24195
-6.073238
-2.213423
1.118362
3.873947
6.081108
7.799371
9.082067
9.951385
10.40989
10.4728
10.22432
9.811092
9.414432
9.162627
9.102953
9.171276
9.316132
9.471717
9.599834
9.713089
9.855579
9.994833
10.04517
9.935678
9.606046
9.075869
8.434934
7.832211
7.387372
7.136329
7.037018
6.95182
6.723775
6.273209
5.567419
4.69278
3.784544
2.972411
2.290878
1.699432
1.126015
0.4862881
-0.2486134
-1.056862
-1.893225
-2.710827
-3.4837
-4.204996
-4.922018
-5.647894
-6.439508
-7.343847
-8.392281
-9.611732
-10.96506
-12.38002
-13.751
-14.9893
-16.07273
-17.03848
-17.96231
-18.93448
-19.97561
-20.9931
-21.81506
-22.11413
-21.58595
-20.04333
-17.47343
-14.09868
-10.28939
-6.472275
-2.96315
0.06890488
2.624851
4.746326
6.429489
7.640915
8.269123
8.298645
7.83205
7.109806
6.40247
5.947708
5.859592
6.096848
6.559044
7.056854
7.46172
7.718838
7.848595
7.897991
7.9417
7.955814
7.88723
7.709602
7.366142
6.868717
6.291893
5.656441
4.961166
4.178009
3.238708
2.178799
1.085064
0.09712219
-0.7073669
-1.296974
-1.761368
-2.179962
-2.623909
-3.120987
-3.64032
-4.201828
-4.80159
-5.47747
-6.197182
-6.918381
-7.585518
-8.170349
-8.709633
-9.240234
-9.796906
-10.32565
-10.75603
-11.05214
-11.26361
-11.57264
-12.13853
-13.11086
-14.46543
-16.11774
-17.8685
-19.48392
-20.67479
-21.15289
-20.70129
-19.13014
-16.47188
-12.87763
-8.723465
-4.422928
-0.3622284
3.27375
6.420708
9.092926
11.34023
13.08097
14.22174
14.70425
14.58723
14.06084
13.38336
12.79058
12.33047
12.01095
11.75776
11.52176
11.35545
11.33136
11.46928
11.66763
11.79033
11.6516
11.16193
10.32416
9.236206
8.009972
6.779572
5.63382
4.587883
3.683907
2.911499
2.283424
1.755104
1.382263
1.138824
1.032478
1.043465
1.126015
1.20063
1.186165
1.021996
0.6273422
0.01389313
-0.834137
-1.909302
-3.22612
-4.774071
-6.509132
-8.352791
-10.18741
-11.90253
-13.40762
-14.69836
-15.7759
-16.76821
-17.78957
-18.90245
-20.15799
-21.47282
-22.63959
-23.30885
-23.12177
-21.76368
-19.14989
-15.46605
-11.08813
-6.530769
-2.255714
1.387428
4.275505
6.326317
7.584923
8.145493
8.100151
7.660606
7.016708
6.404442
6.02272
6.015503
6.416138
7.212502
8.29834
9.473038
10.59179
11.47887
12.11091
12.52363
12.80717
13.01334
13.13919
13.11385
12.83727
12.32244
11.6022
10.77834
9.893806
8.988075
8.045837
7.024109
5.926666
4.692162
3.369652
1.997246
0.657547
-0.552063
-1.527687
-2.225212
-2.68589
-3.027046
-3.417419
-3.95211
-4.689293
-5.584534
-6.560463
-7.525352
-8.462799
-9.36219
-10.22947
-11.05237
-11.76622
-12.32098
-12.69697
-13.0051
-13.38245
-14.06543
-15.23288
-16.9147
-18.95473
-20.98367
-22.47244
-22.89579
-21.9108
-19.45427
-15.79581
-11.4062
-6.806206
-2.453247
1.364265
4.501801
6.905586
8.568932
9.496857
9.771515
9.578758
9.158081
8.741219
8.544868
8.658199
9.088913
9.732197
10.4749
11.26217
12.05241
12.88279
13.7127
14.49311
15.02612
15.1415
14.72256
13.80182
12.57138
11.24569
10.02849
8.99268
8.104637
7.245483
6.376003
5.523319
4.739014
4.075798
3.52977
3.053711
2.602016
2.19627
1.859013
1.647858
1.510742
1.339977
0.9843483
0.3558388
-0.51931
-1.537201
-2.599842
-3.673439
-4.789532
-6.085258
-7.631641
-9.396839
-11.28592
-13.12298
-14.75356
-16.15527
-17.3589
-18.41442
-19.39627
-20.34132
-21.25556
-22.16821
-23.03976
-23.66641
-23.74529
-22.96297
-21.07875
-18.09497
-14.27351
-10.02893
-5.820343
-1.960308
1.387371
4.193676
6.431023
8.071999
9.064587
9.471951
9.470661
9.317089
9.301826
9.567608
10.11541
10.81263
11.48181
11.91737
12.08893
12.04712
11.90762
11.80667
11.81446
11.93407
12.10756
12.27751
12.30248
12.10052
11.63456
10.88587
9.948994
8.934582
7.966625
7.142149
6.540981
6.163134
5.996748
5.993748
6.019165
5.941378
5.593046
4.853374
3.697866
2.221977
0.6193619
-0.8533077
-2.036945
-2.922541
-3.632149
-4.379156
-5.393303
-6.768778
-8.47756
-10.35943
-12.17003
-13.70609
-14.88524
-15.69008
-16.24061
-16.69152
-17.17789
-17.85592
-18.82398
-20.00511
-21.19281
-22.08889
-22.31547
-21.63621
-19.93826
-17.28265
-13.9014
-10.11713
-6.224446
-2.457962
0.9965115
4.050625
6.588645
8.529136
9.830431
10.53153
10.68631
10.46308
10.03401
9.561426
9.206567
9.045463
9.133702
9.498129
10.08247
10.79027
11.49842
12.04855
12.34714
12.39513
12.21439
11.84616
11.31455
10.59837
9.718542
8.764306
7.889259
7.275956
7.061512
7.213099
7.582466
7.941555
8.050177
7.740665
6.985374
5.818199
4.363453
2.783504
1.184452
-0.366806
-1.899233
-3.474409
-5.171255
-6.999266
-8.900604
-10.7424
-12.36753
-13.69299
-14.70315
-15.4651
-16.1347
-16.91984
-18.02233
-19.6212
-21.71169
-24.03384
-26.11609
-27.34952
-27.15587
-25.24142
-21.66566
-16.84494
-11.43172
-6.094765
-1.308788
2.655537
5.754055
8.056778
9.646572
10.60701
10.98376
10.90762
10.51547
10.02924
9.660545
9.548477
9.758522
10.20694
10.8055
11.44112
12.10087
12.82528
13.67514
14.67914
15.73519
16.65098
17.17235
17.14746
16.55699
15.52921
14.28453
13.01986
11.83758
10.78476
9.85762
9.034851
8.339409
7.78447
7.359154
7.049698
6.81826
6.627266
6.427673
6.157051
5.731979
5.037766
4.004715
2.625473
1.04731
-0.5504227
-1.931816
-3.01004
-3.832626
-4.572212
-5.47567
-6.705078
-8.292404
-10.10114
-11.92606
-13.57721
-14.99426
-16.26354
-17.51964
-18.90591
-20.4761
-22.22489
-24.03252
-25.7222
-27.02662
-27.61214
-27.16554
-25.38454
-22.20883
-17.79042
-12.55714
-7.08004
-1.949493
2.398811
5.79023
8.265427
10.05421
11.3099
12.17871
12.70761
12.93302
12.96138
12.99223
13.30167
14.10627
15.44867
17.13102
18.86595
20.36175
21.42258
22.01682
22.16001
21.92688
21.35769
20.42713
19.12836
17.50918
15.67725
13.73473
11.87787
10.25666
9.064674
8.435295
8.433876
8.978874
9.872566
10.86268
11.66738
12.18298
12.37744
12.30938
12.05027
11.59383
10.89405
9.895699
8.577927
7.027328
5.415474
3.857346
2.433586
1.182068
0.04165649
-1.020271
-2.034462
-3.039673
-4.025726
-4.985558
-5.947456
-6.986336
-8.170609
-9.583176
-11.21125
-12.94885
-14.64995
-16.18097
-17.48614
-18.64443
-19.8427
-21.23751
-22.91133
-24.75957
-26.54129
-27.93322
-28.56749
-28.1262
-26.41514
-23.41856
-19.31714
-14.46278
-9.314507
-4.324318
0.1216736
3.819183
6.720871
8.860146
10.33096
11.24248
11.72559
11.94732
12.12688
12.4501
13.05668
13.95158
14.97871
15.93269
16.64748
17.03767
17.15076
17.12918
17.0734
17.02179
16.91634
16.67299
16.21667
15.5366
14.64787
13.57483
12.43643
11.32274
10.30634
9.432762
8.703751
8.070412
7.485062
6.887436
6.226913
5.534683
4.823418
4.138382
3.53907
3.076675
2.756958
2.529762
2.261932
1.800934
1.028282
-0.05901337
-1.327057
-2.543213
-3.522858
-4.24498
-4.829056
-5.490768
-6.383026
-7.511055
-8.762077
-9.991791
-11.13245
-12.29819
-13.65923
-15.3647
-17.43894
-19.81108
-22.31985
-24.81121
-27.09544
-28.85793
-29.75201
-29.37085
-27.45514
-23.9707
-19.25245
-13.83261
-8.339146
-3.287201
1.057373
4.616959
7.448368
9.655972
11.31579
12.44122
13.09757
13.34459
13.28553
13.03569
12.69194
12.34625
12.07747
11.94689
11.98203
12.16291
12.45339
12.77282
13.05345
13.24989
13.34341
13.32289
13.12525
12.66697
11.86231
10.71997
9.303089
7.775139
6.321732
5.05558
4.016609
3.154366
2.433758
1.855946
1.506332
1.438644
1.662376
2.053082
2.409336
2.516125
2.223595
1.501141
0.450676
-0.777565
-2.049023
-3.298836
-4.5527
-5.882313
-7.329002
-8.856461
-10.40001
-11.83611
-13.10758
-14.22009
-15.27029
-16.36568
-17.57983
-18.90394
-20.17302
-21.19207
-21.69341
-21.45787
-20.33771
-18.28415
-15.33779
-11.7001
-7.680883
-3.598459
0.2068882
3.490129
6.156086
8.207781
9.724792
10.78946
11.43614
11.7273
11.76031
11.69331
11.72339
12.00607
12.57645
13.35844
14.11918
14.63116
14.75118
14.47399
13.89677
13.14932
12.29545
11.27717
10.03114
8.494398
6.749166
5.011183
3.569748
2.657278
2.351578
2.543837
2.943841
3.239545
3.173466
2.618925
1.618571
0.3548002
-0.9317398
-2.006041
-2.735815
-3.150805
-3.396617
-3.729077
-4.369271
-5.437119
-6.867908
-8.482952
-10.03393
-11.34238
-12.34896
-13.12575
-13.8405
-14.65595
-15.69344
-16.96318
-18.39005
-19.77614
-20.80388
-21.10072
-20.33521
-18.35424
-15.23973
-11.33106
-7.112418
-3.047388
0.5127618
3.444209
5.763829
7.544582
8.828695
9.608246
9.849791
9.558067
8.879627
8.028423
7.285508
6.872131
6.922683
7.373665
8.086761
8.866419
9.552652
10.07931
10.42356
10.62417
10.73141
10.80564
10.86882
10.92254
10.89913
10.70891
10.25748
9.483104
8.419605
7.180031
5.911257
4.766915
3.808348
3.006993
2.309443
1.668049
1.034643
0.4273014
-0.1834164
-0.8577976
-1.602747
-2.443384
-3.329317
-4.158859
-4.813528
-5.306852
-5.72411
-6.26086
-7.071169
-8.15926
-9.384882
-10.54448
-11.484
-12.19985
-12.88819
-13.78372
-15.14117
-17.00438
-19.21119
-21.37895
-23.0459
-23.73815
-23.13352
-21.1576
-17.96244
-13.98885
-9.725298
-5.614569
-1.928173
1.232841
3.885006
6.048664
7.696434
8.82159
9.418087
9.612072
9.618937
9.65103
9.874886
10.3413
10.99915
11.73254
12.40191
12.87116
13.07743
13.03236
12.76041
12.36867
11.96043
11.6111
11.31689
11.03929
10.67232
10.18304
9.61298
9.037346
8.543991
8.156704
7.828537
7.438839
6.914276
6.246666
5.489235
4.731934
3.978527
3.152775
2.118023
0.7568779
-0.9523849
-2.87075
-4.730888
-6.282089
-7.341103
-7.94257
-8.2477
-8.496513
-8.887604
-9.487225
-10.17913
-10.79647
-11.24152
-11.52118
-11.8315
-12.38546
-13.34994
-14.76805
-16.50716
-18.28149
-19.82442
-20.89851
-21.2689
-20.74987
-19.24983
-16.77703
-13.55037
-9.912075
-6.238728
-2.841026
0.1419182
2.740639
5.054878
7.098324
8.815964
10.05671
10.73834
10.92287
10.78865
10.5904
10.52662
10.65421
10.88697
11.11649
11.22919
11.24345
11.24326
11.29974
11.41443
11.46938
11.29745
10.76397
9.890339
8.789745
7.651081
6.654419
5.901436
5.385635
5.065582
4.908974
4.889389
4.993813
5.224258
5.476227
5.648663
5.614731
5.293846
4.717407
3.951828
3.091278
2.187141
1.225906
0.1818848
-0.9322357
-2.052536
-3.0345
-3.778046
-4.301605
-4.790649
-5.474785
-6.535927
-8.029755
-9.851654
-11.80725
-13.70978
-15.47304
-17.12371
-18.80059
-20.56326
-22.35263
-23.99623
-25.18427
-25.58108
-24.9318
-23.08442
-20.0703
-16.12312
-11.54611
-6.743973
-2.134483
1.934509
5.19709
7.564232
9.078476
9.878792
10.12057
9.943497
9.429901
8.655258
7.781342
7.005684
6.572273
6.657288
7.335022
8.518883
9.980782
11.41884
12.58673
13.3448
13.6285
13.44541
12.8265
11.86179
10.64061
9.310555
7.988647
6.778923
5.752411
4.88208
4.115547
3.402802
2.716003
2.035156
1.348305
0.641655
-0.06916046
-0.7487488
-1.346008
-1.830231
-2.235252
-2.672699
-3.306374
-4.26329
-5.562111
-7.087578
-8.613312
-9.893402
-10.7505
-11.22301
-11.48571
-11.81572
-12.4417
-13.46848
-14.88077
-16.5205
-18.21371
-19.72984
-20.81394
-21.12393
-20.34356
-18.2141
-14.74183
-10.29397
-5.49646
-1.056335
2.520821
5.032997
6.66877
7.681137
8.337296
8.725693
8.814369
8.589798
8.1035
7.542854
7.101219
6.951164
7.112762
7.503998
8.028595
8.56131
9.081154
9.554802
9.988419
10.36472
10.6627
10.83543
10.81551
10.55585
10.00825
9.221031
8.223305
7.103203
5.934845
4.784172
3.710335
2.776634
2.085243
1.648109
1.478241
1.492287
1.593079
1.678047
1.647301
1.434288
0.9381332
0.1254959
-1.05584
-2.548561
-4.228806
-5.9226
-7.477837
-8.881699
-10.18053
-11.49843
-12.91055
-14.4546
-16.09574
-17.79306
-19.48168
-21.07183
-22.39925
-23.17351
-23.10507
-21.94162
-19.63811
-16.34885
-12.41854
-8.268631
-4.268959
-0.6964645
2.314697
4.71386
6.526001
7.831604
8.730026
9.312737
9.614555
9.65136
9.457474
9.166092
8.931015
8.94352
9.310555
9.992271
10.81202
11.50439
11.88927
11.90083
11.63494
11.23373
10.85513
10.55445
10.32616
10.10242
9.809113
9.457764
9.044006
8.637772
8.26873
7.927795
7.578827
7.110275
6.397835
5.371895
4.070999
2.597221
1.143745
-0.1198196
-1.119484
-1.85099
-2.46051
-3.091072
-3.888817
-4.921883
-6.182159
-7.582214
-9.020996
-10.43415
-11.75684
-12.96008
-14.03097
-14.99017
-15.91455
-16.92917
-18.17912
-19.76211
-21.661
-23.62127
-25.16748
-25.75884
-24.93085
-22.54945
-18.81964
-14.23213
-9.382664
-4.757092
-0.6119461
3.006161
6.123478
8.721584
10.6556
11.80528
12.125
11.79618
11.16864
10.60279
10.35017
10.46887
10.82888
11.20758
11.42572
11.42903
11.31468
11.23626
11.25711
11.35819
11.39639
11.25629
10.88374
10.2889
9.602806
8.934814
8.379169
7.861675
7.328075
6.705719
5.950382
5.081913
4.135174
3.168331
2.281609
1.596146
1.164524
1.011929
1.049473
1.111942
1.018787
0.6034241
-0.2294731
-1.518982
-3.218922
-5.206543
-7.31728
-9.423721
-11.3743
-13.10603
-14.64165
-16.08176
-17.5311
-19.06847
-20.64663
-22.07909
-23.17212
-23.64053
-23.18519
-21.60659
-18.83573
-14.9707
-10.36458
-5.51873
-0.9247551
2.988216
6.064449
8.322674
9.89875
10.86992
11.28555
11.1518
10.52115
9.599577
8.662437
8.024242
7.837536
8.111094
8.69475
9.411741
10.11644
10.73938
11.29783
11.78383
12.21395
12.57269
12.7784
12.78521
12.55389
12.05507
11.32456
10.44412
9.51086
8.591244
7.698336
6.752232
5.696939
4.512014
3.304272
2.209122
1.387856
0.8885937
0.6030617
0.3312759
-0.1353416
-0.9348488
-2.121429
-3.635211
-5.3954
-7.262855
-9.165318
-11.04113
-12.85598
-14.60098
-16.29051
-17.96895
-19.68896
-21.44154
-23.07545
-24.33153
-24.85899
-24.25708
-22.29622
-18.99355
-14.59042
-9.571618
-4.455591
0.3045788
4.45394
7.83426
10.46015
12.3393
13.44782
13.8103
13.48497
12.63868
11.53228
10.48539
9.68216
9.227887
9.098413
9.199991
9.51348
10.08211
10.94128
12.07727
13.31283
14.31562
14.82671
14.65243
13.81173
12.5456
11.13655
9.866334
8.910384
8.26121
7.780811
7.302582
6.681812
5.837998
4.808587
3.660265
2.503762
1.458875
0.5613322
-0.1689637
-0.7733426
-1.307329
-1.890451
-2.625456
-3.651056
-5.03093
-6.688373
-8.44454
-10.10705
-11.48525
-12.54923
-13.42294
-14.26385
-15.29312
-16.61366
-18.23837
-20.06749
-21.97412
-23.72552
-25.0678
-25.67925
-25.18804
-23.34514
-20.08735
-15.66226
-10.49175
-5.154799
-0.1782932
4.05815
7.407929
9.911928
11.68801
12.8554
13.49409
13.67276
13.4925
13.12409
12.73668
12.47981
12.46257
12.65802
12.9402
13.21175
13.38862
13.47642
13.49054
13.45114
13.3425
13.18149
12.95486
12.65278
12.29723
11.82664
11.18027
10.34482
9.373489
8.370058
7.516047
6.905615
6.446384
5.974518
5.247442
4.135008
2.718193
1.202654
-0.1445808
-1.149887
-1.824839
-2.286636
-2.709461
-3.252941
-3.994236
-4.935349
-6.099552
-7.496933
-9.147493
-11.01479
-12.99423
-14.90549
-16.61101
-18.06096
-19.34158
-20.63025
-22.00578
-23.41932
-24.57494
-25.01277
-24.30123
-22.26107
-19.01202
-14.92234
-10.52128
-6.223843
-2.295353
1.177027
4.195652
6.733074
8.721958
10.11172
10.87795
11.06537
10.86363
10.4729
10.11488
9.954819
10.1202
10.63224
11.39418
12.23272
12.87817
13.14019
12.93214
12.3984
11.7293
11.19035
10.97863
11.11026
11.44125
11.74118
11.81371
11.52096
10.89
9.979771
8.898773
7.72736
6.530903
5.361435
4.29686
3.447594
2.870914
2.564396
2.393803
2.165188
1.704857
0.9343376
-0.07215118
-1.206417
-2.359554
-3.526722
-4.802315
-6.300484
-8.040462
-9.91312
-11.77032
-13.40703
-14.75911
-15.84716
-16.76596
-17.62113
-18.50304
-19.41864
-20.29601
-21.02011
-21.33495
-20.99629
-19.74237
-17.48832
-14.31521
-10.52828
-6.491989
-2.534378
1.129326
4.485733
7.501205
10.15646
12.31579
13.84623
14.67545
14.8797
14.66521
14.27618
13.93492
13.68496
13.53311
13.43682
13.3783
13.34462
13.32056
13.24367
13.07027
12.78629
12.39948
11.9802
11.58717
11.23487
10.90046
10.49837
9.987587
9.397041
8.840351
8.373646
8.017582
7.658249
7.113548
6.283215
5.130676
3.736404
2.304169
1.044117
0.03822327
-0.6912117
-1.264565
-1.89138
-2.703678
-3.770821
-5.098812
-6.574574
-8.082832
-9.556892
-10.92771
-12.17522
-13.34593
-14.46403
-15.62305
-16.95655
-18.54767
-20.40754
-22.29598
-23.75877
-24.26627
-23.42113
-21.11843
-17.61583
-13.3659
-8.828663
-4.384884
-0.2049026
3.632057
7.020767
9.787697
11.78345
12.90316
13.18403
12.84625
12.14831
11.35313
10.66931
10.20207
10.01051
10.14877
10.56849
11.20773
11.94368
12.60349
13.0533
13.23185
13.12686
12.78893
12.28456
11.62571
10.80403
9.790361
8.611139
7.342165
6.114159
5.044844
4.222847
3.649778
3.263987
2.931875
2.533022
2.025099
1.41991
0.8103237
0.2728424
-0.1685715
-0.610466
-1.188101
-2.093262
-3.430294
-5.141697
-7.028414
-8.841616
-10.34286
-11.45452
-12.24464
-12.88892
-13.62333
-14.63518
-16.02581
-17.76744
-19.70083
-21.47344
-22.67084
-22.83517
-21.62669
-18.96235
-15.019
-10.30376
-5.435137
-1.012671
2.632254
5.360422
7.263842
8.479544
9.143412
9.367588
9.229507
8.818769
8.287474
7.827272
7.577061
7.637526
7.997965
8.577816
9.264127
9.898466
10.39819
10.64779
10.61622
10.33515
9.865661
9.288537
8.618246
7.83326
6.903612
5.912447
5.009594
4.38756
4.189478
4.384871
4.779401
5.05842
4.964455
4.379277
3.393469
2.177993
0.9063587
-0.3244371
-1.531803
-2.798041
-4.203353
-5.752375
-7.404667
-9.027068
-10.53494
-11.85406
-12.99194
-14.08655
-15.23849
-16.57928
-18.13754
-19.80482
-21.36035
-22.53024
-22.99983
-22.4959
-20.90272
-18.19651
-14.55193
-10.33047
-5.950109
-1.82306
1.733572
4.571818
6.738052
8.332804
9.495485
10.31094
10.77803
10.8986
10.7332
10.45935
10.28739
10.43879
10.91034
11.58391
12.20491
12.546
12.57167
12.36831
12.14052
11.99512
11.92506
11.74366
11.32221
10.62598
9.704203
8.732164
7.833249
7.050771
6.373318
5.772054
5.182033
4.575974
3.96826
3.278005
2.509997
1.673088
0.7760878
-0.1450891
-1.092524
-2.099371
-3.213974
-4.435673
-5.754055
-7.100965
-8.46076
-9.840448
-11.25893
-12.74199
-14.30608
-15.95043
-17.67968
-19.50105
-21.36018
-23.1197
-24.57507
-25.41321
-25.31467
-24.06931
-21.62452
-18.09618
-13.8225
-9.214317
-4.71013
-0.7027059
2.625117
5.24966
7.282111
8.875622
10.13668
11.07782
11.66227
11.86608
11.74571
11.47212
11.31489
11.52697
12.21107
13.29036
14.4988
15.54638
16.22404
16.47937
16.39048
16.05426
15.47556
14.55707
13.2201
11.42553
9.356218
7.339109
5.643089
4.44588
3.690387
3.177931
2.663362
2.053066
1.354271
0.7401288
0.3376074
0.09158361
-0.1494877
-0.6121252
-1.436198
-2.600999
-3.941554
-5.278963
-6.436934
-7.37346
-8.210161
-9.099004
-10.20435
-11.59304
-13.20277
-14.92509
-16.68177
-18.43053
-20.18396
-21.95313
-23.57187
-24.77084
-25.15111
-24.30874
-22.06905
-18.57007
-14.18659
-9.413681
-4.739274
-0.45221
3.257419
6.341098
8.805193
10.64679
11.8777
12.54054
12.72711
12.58472
12.35627
12.19903
12.25648
12.54163
12.97209
13.4153
13.8055
14.09064
14.30298
14.49325
14.63309
14.61765
14.3282
13.64647
12.53751
11.07695
9.379286
7.574556
5.814665
4.207044
2.832827
1.799856
1.149992
0.8895858
1.017247
1.450977
2.053816
2.655226
3.0571
3.097904
2.73929
1.983099
0.9213519
-0.3195357
-1.687836
-3.198904
-4.854434
-6.680187
-8.592585
-10.4702
-12.23745
-13.87143
-15.41616
-16.9818
-18.63981
-20.33433
-21.93302
-23.20139
-23.84876
-23.63372
-22.41784
-20.11524
-16.81458
-12.7046
-8.109841
-3.463019
0.8322244
4.459095
7.245351
9.130782
10.17704
10.46967
10.16791
9.465397
8.595659
7.819778
7.359885
7.292089
7.564248
8.037766
8.516172
8.90885
9.186659
9.389967
9.560837
9.734589
9.885281
9.980397
10.00638
9.905594
9.63722
9.160518
8.427782
7.457463
6.336995
5.154285
4.008226
2.941057
1.915699
0.9091201
-0.09579515
-1.08816
-2.01772
-2.840413
-3.567638
-4.255961
-4.986062
-5.810871
-6.708344
-7.619139
-8.50075
-9.342283
-10.21096
-11.23251
-12.53294
-14.19549
-16.21755
-18.42572
-20.50015
-22.01802
-22.59169
-21.95147
-20.04243
-17.01519
-13.19655
-8.962725
-4.710545
-0.7618634
2.668326
5.413192
7.383711
8.592007
9.116547
9.085861
8.705151
8.219593
7.834008
7.739411
7.989766
8.522201
9.212091
9.88883
10.47259
10.92004
11.30374
11.64027
11.92277
12.09626
12.05375
11.74937
11.15366
10.32513
9.354487
8.389066
7.499245
6.773477
6.162818
5.525081
4.714677
3.632597
2.335968
0.9557109
-0.3811035
-1.676984
-3.052821
-4.697457
-6.713219
-8.975833
-11.22576
-13.19027
-14.71207
-15.85342
-16.81945
-17.84508
-19.04034
-20.45346
-22.02144
-23.67902
-25.39282
-26.96657
-28.12762
-28.48549
-27.68658
-25.49986
-22.01315
-17.50935
-12.4259
-7.246403
-2.278954
2.234074
6.141174
9.370884
11.86626
13.55749
14.49348
14.81314
14.6725
14.35093
14.11081
14.13404
14.55166
15.27787
16.04139
16.58468
16.72922
16.49004
16.08363
15.76797
15.66417
15.78107
15.92107
15.86155
15.49429
14.82723
13.9488
12.99209
12.04962
11.11728
10.22209
9.35392
8.494747
7.635616
6.708096
5.65744
4.499126
3.277233
2.050209
0.9487648
0.0284996
-0.7296371
-1.317043
-1.843643
-2.417717
-3.120274
-4.086452
-5.415245
-7.112732
-9.114017
-11.28828
-13.43098
-15.47761
-17.44501
-19.46826
-21.68904
-24.10061
-26.4639
-28.36805
-29.32333
-28.91028
-26.99409
-23.68605
-19.30564
-14.25658
-8.927414
-3.594799
1.467125
6.023781
9.823307
12.63667
14.31512
14.8945
14.58487
13.75971
12.87901
12.32872
12.35621
12.9973
14.05482
15.22644
16.1987
16.76826
16.9286
16.7665
16.46686
16.14238
15.79969
15.39325
14.89187
14.31436
13.70097
13.09092
12.4405
11.66978
10.69227
9.481709
8.100235
6.682957
5.315598
4.010647
2.716061
1.426678
0.1900597
-0.8581238
-1.539791
-1.816978
-1.80085
-1.772079
-2.051678
-2.814884
-4.021118
-5.450684
-6.842609
-7.996433
-8.882896
-9.663956
-10.55882
-11.7283
-13.25738
-15.09235
-17.12027
-19.21074
-21.18221
-22.8547
-23.96855
-24.20157
-23.26733
-21.05591
-17.67822
-13.47327
-8.933235
-4.502987
-0.5385704
2.908215
5.917225
8.565254
10.8384
12.61235
13.71089
14.09815
13.85796
13.23491
12.57076
12.09877
11.89091
11.89841
12.07288
12.35052
12.75774
13.24443
13.7051
13.9585
13.80204
13.13638
12.04453
10.7432
9.476254
8.475273
7.781322
7.31662
6.944798
6.524246
5.966072
5.270763
4.383961
3.275688
1.982414
0.5461407
-0.9177876
-2.243557
-3.334908
-4.118309
-4.603884
-4.921162
-5.218645
-5.584919
-6.114012
-6.841021
-7.76647
-8.928547
-10.30561
-11.90879
-13.75669
-15.83387
-18.11762
-20.54546
-22.9603
-25.06523
-26.53205
-26.95514
-26.02612
-23.63994
-19.9141
-15.20614
-10.04169
-4.929026
-0.2394562
3.764076
7.011707
9.496914
11.21435
12.159
12.37335
11.94916
11.10981
10.22298
9.596561
9.47003
9.940336
10.91776
12.21567
13.60641
14.86794
15.80199
16.32898
16.32942
15.77515
14.72339
13.29068
11.67725
10.07823
8.665733
7.517498
6.646441
5.954065
5.336803
4.694683
3.971138
3.161741
2.304914
1.471058
0.7353191
0.1377068
-0.3636436
-0.8351231
-1.332939
-1.971434
-2.800501
-3.86108
-5.154053
-6.624229
-8.184576
-9.759172
-11.29776
-12.76563
-14.23381
-15.71063
-17.23829
-18.81177
-20.42119
-22.01668
-23.45728
-24.52624
-24.88311
-24.21338
-22.25663
-19.01817
-14.76191
-9.962714
-5.147865
-0.6931925
3.185204
6.407817
8.941704
10.75565
11.7745
11.94817
11.38933
10.34207
9.205488
8.374539
8.05109
8.234544
8.771803
9.423862
10.03013
10.60641
11.24089
12.06598
13.10207
14.17987
15.05721
15.47645
15.26723
14.44645
13.1728
11.64935
10.11484
8.695963
7.426877
6.295281
5.19987
4.098411
2.994921
1.971934
1.092172
0.4128428
-0.1089182
-0.5772972
-1.110783
-1.845615
-2.864593
-4.14332
-5.592604
-7.115894
-8.570624
-9.854352
-10.91577
-11.75256
-12.45049
-13.17733
-14.09044
-15.34712
-16.9533
-18.74962
-20.42791
-21.53566
-21.63663
-20.46183
-17.95447
-14.34855
-10.10553
-5.700784
-1.560705
2.075349
5.125549
7.615449
9.578947
11.01149
11.86015
12.06205
11.66974
10.81814
9.763634
8.798418
8.172207
8.020616
8.292197
8.800335
9.306301
9.684762
9.889839
9.968635
9.995905
9.957363
9.772022
9.362261
8.650564
7.647833
6.481385
5.270331
4.115358
3.080112
2.164727
1.326658
0.572081
-0.1112424
-0.6958168
-1.167277
-1.531361
-1.852015
-2.196605
-2.610371
-3.138066
-3.76477
-4.490314
-5.320816
-6.320689
-7.54502
-9.020139
-10.66971
-12.38026
-14.06569
-15.69379
-17.3489
-19.05547
-20.68413
-21.91555
-22.28104
-21.33512
-18.9011
-15.17504
-10.60695
-5.800074
-1.267811
2.717282
6.000178
8.611885
10.55267
11.80972
12.34379
12.17176
11.42199
10.2783
9.036707
7.939999
7.20785
6.902796
6.97368
7.280457
7.67893
8.074212
8.398007
8.666966
8.854052
8.922812
8.810159
8.495382
8.011549
7.416076
6.768795
6.033531
5.174585
4.151063
3.015851
1.883975
0.8924739
0.09714222
-0.6155877
-1.394197
-2.433607
-3.78438
-5.369772
-7.031385
-8.586747
-9.921654
-11.00103
-11.9221
-12.76443
-13.61283
-14.5278
-15.54231
-16.66173
-17.81522
-18.86813
-19.57731
-19.69332
-18.9217
-17.10796
-14.27731
-10.7008
-6.840203
-3.145683
0.08005092
2.767565
4.998288
6.925605
8.557298
9.846519
10.67981
11.04282
11.06366
11.00142
11.114
11.52216
12.19551
12.99912
13.77323
14.43663
14.93429
15.21523
15.22759
14.88379
14.12262
12.9784
11.57494
10.07287
8.713902
7.608427
6.777399
6.154483
5.638113
5.165875
4.745875
4.413485
4.144868
3.887253
3.501338
2.873809
1.953945
0.7890195
-0.5724652
-2.080486
-3.727209
-5.549386
-7.475722
-9.308195
-10.83295
-11.87302
-12.43558
-12.74871
-13.1978
-14.12728
-15.67996
-17.71855
-19.91315
-21.84133
-23.07554
-23.32627
-22.43395
-20.37032
-17.24596
-13.24105
-8.608458
-3.683704
1.16204
5.565731
9.22456
11.91454
13.58992
14.2743
14.12671
13.35822
12.22002
10.92132
9.727913
8.82411
8.308228
8.232206
8.496527
8.99683
9.60519
10.25214
10.88109
11.48787
12.01095
12.37314
12.43721
12.06863
11.25245
10.09877
8.840519
7.744284
6.994692
6.600729
6.413005
6.195755
5.722496
4.910693
3.852503
2.711789
1.689189
0.9165096
0.404707
0.01766205
-0.4026742
-1.017497
-1.920789
-3.08388
-4.432297
-5.832647
-7.20155
-8.536454
-9.897414
-11.38567
-13.05272
-14.91302
-16.91931
-18.9963
-21.01645
-22.82426
-24.26077
-25.07015
-25.00699
-23.81223
-21.36854
-17.73763
-13.22798
-8.292132
-3.470076
0.7722731
4.16686
6.66564
8.397489
9.475158
9.991199
9.97733
9.475476
8.624049
7.665087
6.905898
6.614826
6.941527
7.823772
9.043174
10.34117
11.4878
12.35295
12.84869
12.9911
12.77112
12.22997
11.43988
10.48907
9.509909
8.638803
8.012723
7.673307
7.631475
7.757971
7.894658
7.861218
7.503371
6.763486
5.647321
4.278172
2.772623
1.273012
-0.1770124
-1.563107
-2.907281
-4.214232
-5.438587
-6.547386
-7.450094
-8.114313
-8.510494
-8.702894
-8.803751
-8.886806
-9.087797
-9.47637
-10.18348
-11.31191
-12.97883
-15.14896
-17.64396
-20.08881
-21.8744
-22.4552
-21.43682
-18.82642
-14.94005
-10.34616
-5.584473
-1.032286
3.11442
6.789228
9.819214
12.0319
13.23418
13.38044
12.65384
11.45811
10.27116
9.448921
9.110023
9.108641
9.219568
9.272251
9.241892
9.235815
9.408043
9.822294
10.41967
11.03682
11.42512
11.40446
10.91968
10.02427
8.864008
7.612326
6.374279
5.182745
4.068892
3.037468
2.123211
1.377213
0.8421364
0.5136776
0.3391933
0.2336979
0.148243
0.07089996
-0.02769089
-0.2011299
-0.5917721
-1.301281
-2.36791
-3.712212
-5.16839
-6.590313
-7.844931
-8.960533
-10.023
-11.1946
-12.60707
-14.37856
-16.50149
-18.90041
-21.40397
-23.63991
-25.19477
-25.61339
-24.60176
-22.07598
-18.28722
-13.7006
-8.886806
-4.383194
-0.45895
2.833553
5.631001
8.04557
10.084
11.65652
12.61334
12.99091
12.96225
12.85132
12.91119
13.24866
13.77303
14.28282
14.64162
14.81216
14.8655
14.8151
14.65217
14.2106
13.35733
12.08113
10.46717
8.757153
7.166756
5.837688
4.798527
4.04678
3.538139
3.227943
3.05378
2.859737
2.519619
1.915562
1.036129
0.002616882
-1.000332
-1.823082
-2.4114
-2.815006
-3.181747
-3.65271
-4.307568
-5.170517
-6.215263
-7.394604
-8.650486
-9.91436
-11.1582
-12.39956
-13.68592
-15.09122
-16.67075
-18.37763
-20.09304
-21.57796
-22.50237
-22.54728
-21.46689
-19.11721
-15.62685
-11.34867
-6.777515
-2.457882
1.235371
4.161564
6.347485
7.921227
8.984066
9.515408
9.470177
8.871849
7.882584
6.822208
6.081158
5.956558
6.516258
7.616192
8.984669
10.3791
11.68321
12.87411
13.97197
14.92336
15.61201
15.85387
15.52396
14.59373
13.1608
11.44624
9.6404
7.954144
6.509098
5.33633
4.387508
3.501637
2.539066
1.38744
0.05990982
-1.324093
-2.574314
-3.527004
-4.141575
-4.477501
-4.771503
-5.2029
-5.888908
-6.795067
-7.759953
-8.603504
-9.213043
-9.620037
-9.952198
-10.41238
-11.14214
-12.2652
-13.77687
-15.59515
-17.58314
-19.48928
-20.98617
-21.6874
-21.24774
-19.46035
-16.37658
-12.32185
-7.768116
-3.313896
0.5954552
3.736633
6.114876
7.875233
9.191975
10.12561
10.65284
10.76231
10.4397
9.861893
9.301533
8.996162
9.077106
9.50172
10.06303
10.53395
10.79656
10.8198
10.73692
10.67309
10.60345
10.43843
10.04262
9.316193
8.290592
7.148239
6.055466
5.116199
4.281746
3.337761
2.14257
0.7181587
-0.7709274
-2.08876
-3.059155
-3.718563
-4.23024
-4.860985
-5.810909
-7.076828
-8.556995
-10.10364
-11.57072
-12.88227
-14.0583
-15.07278
-16.00282
-16.94322
-17.94393
-19.05759
-20.24246
-21.24411
-21.72767
-21.38622
-19.97593
-17.49741
-14.13976
-10.22718
-6.154148
-2.28688
1.202129
4.220665
6.718266
8.692818
10.10212
10.88591
11.03563
10.61814
9.790329
8.856262
8.117451
7.807205
8.047684
8.753246
9.715996
10.75908
11.72444
12.57677
13.32882
13.91957
14.23775
14.15133
13.49535
12.2631
10.59722
8.74366
6.957741
5.357395
3.920071
2.582756
1.30756
0.1242142
-0.8674316
-1.566399
-1.948902
-2.108112
-2.159359
-2.261879
-2.532204
-3.023819
-3.764301
-4.76685
-6.046776
-7.615456
-9.466347
-11.5138
-13.72982
-16.0864
-18.57341
-21.14691
-23.62724
-25.71546
-26.96634
-26.93287
-25.31111
-22.09616
-17.61084
-12.41993
-7.149857
-2.317862
1.759359
5.043194
7.576204
9.425756
10.64355
11.25989
11.38867
11.20428
10.96211
10.86877
11.11019
11.71442
12.57524
13.5213
14.32654
14.82278
14.89835
14.58887
13.96569
13.18095
12.35604
11.53882
10.74797
9.979416
9.272011
8.657593
8.128832
7.605103
6.9513
6.047266
4.898668
3.603447
2.252209
0.9206009
-0.4192505
-1.809925
-3.286522
-4.836224
-6.413412
-7.956874
-9.421252
-10.80568
-12.15037
-13.45883
-14.76579
-16.12933
-17.62677
-19.31428
-21.13621
-22.88602
-24.28843
-25.01175
-24.77584
-23.38554
-20.81259
-17.14135
-12.63455
-7.655455
-2.657259
1.927875
5.792951
8.752861
10.78714
11.91798
12.21645
11.7816
10.81225
9.581766
8.48566
7.874065
7.943708
8.664905
9.77735
10.9608
11.8753
12.38815
12.4996
12.34518
12.04393
11.65997
11.19174
10.61577
9.957142
9.281316
8.684598
8.23986
7.92065
7.618637
7.172129
6.436051
5.354218
3.949474
2.308877
0.5108404
-1.369
-3.295641
-5.211617
-7.034109
-8.693854
-10.13294
-11.3254
-12.30184
-13.08561
-13.73739
-14.37846
-15.1341
-16.12306
-17.35913
-18.68872
-19.7958
-20.32143
-19.95621
-18.5125
-16.05739
-12.81207
-9.072624
-5.135904
-1.219082
2.505297
5.864803
8.684998
10.80651
12.12695
12.65566
12.51604
11.94929
11.29249
10.83949
10.768
11.14367
11.82371
12.60652
13.31841
13.79154
13.94807
13.76332
13.25388
12.47732
11.56232
10.6659
9.959454
9.535152
9.334339
9.174381
8.824833
8.15757
7.163216
5.965294
4.69714
3.456165
2.22683
0.9481316
-0.4640007
-2.062843
-3.848747
-5.811722
-7.884274
-9.993252
-11.99723
-13.76728
-15.24236
-16.38861
-17.30173
-18.15656
-19.13923
-20.36505
-21.86299
-23.4195
-24.65897
-25.10331
-24.25883
-21.89909
-18.08234
-13.23663
-7.959747
-2.864952
1.667759
5.532997
8.775333
11.47472
13.54963
14.87844
15.39613
15.26224
14.81223
14.48931
14.59588
15.14782
15.93481
16.6039
16.93601
16.90075
16.64596
16.37464
16.22133
16.18237
16.13047
15.94836
15.53063
14.87173
14.0061
12.99689
11.94856
10.89531
9.858826
8.761307
7.55983
6.175751
4.581413
2.836594
1.071266
-0.4836273
-1.700562
-2.568916
-3.240814
-3.921722
-4.851265
-6.12748
-7.656624
-9.201401
-10.48545
-11.4175
-12.0454
-12.59158
-13.33207
-14.48278
-16.11565
-18.15897
-20.38815
-22.5007
-24.14844
-24.9509
-24.57816
-22.84158
-19.70338
-15.33672
-10.0965
-4.470016
1.01001
5.888977
9.880386
12.85461
14.79583
15.78895
15.96792
15.48818
14.59322
13.61762
12.93466
12.86926
13.53626
14.80127
16.33365
17.72759
18.68901
19.12395
19.1036
18.78164
18.27505
17.58849
16.65401
15.41557
13.90717
12.27631
10.71632
9.381531
8.298264
7.387512
6.482071
5.471695
4.322273
3.052795
1.75499
0.5410385
-0.4569931
-1.136002
-1.422523
-1.340469
-1.040039
-0.7191849
-0.6384277
-0.9938011
-1.82645
-3.020687
-4.388157
-5.770027
-7.071148
-8.351418
-9.695538
-11.17965
-12.83915
-14.65028
-16.58993
-18.66489
-20.84629
-23.011
-24.92831
-26.21141
-26.42854
-25.24885
-22.53892
-18.46745
-13.48182
-8.12812
-2.930061
1.741314
5.737541
9.069866
11.734
13.69468
14.82734
15.061
14.46477
13.34171
12.08916
11.02395
10.32892
9.937191
9.777607
9.819073
10.12028
10.75303
11.71343
12.85979
13.93838
14.72692
15.06123
14.94693
14.4466
13.68135
12.67526
11.46056
10.08601
8.66341
7.339745
6.193916
5.247799
4.420254
3.566944
2.529579
1.255836
-0.1907539
-1.613651
-2.733646
-3.379066
-3.513611
-3.27557
-2.96067
-2.876009
-3.199816
-3.973614
-5.135225
-6.51174
-7.951765
-9.36294
-10.64976
-11.79727
-12.86703
-13.93061
-15.11539
-16.5701
-18.27196
-20.09523
-21.75855
-22.86088
-23.05411
-22.11018
-19.96164
-16.75394
-12.77344
-8.374228
-3.961965
0.1080341
3.616858
6.433455
8.492712
9.796656
10.37136
10.31637
9.837141
9.168911
8.578424
8.307851
8.453381
8.9655
9.72398
10.5518
11.30283
11.92213
12.34502
12.58165
12.65145
12.56882
12.30325
11.80988
11.0184
9.901366
8.500966
6.936798
5.40296
4.083658
3.14669
2.660144
2.615227
2.872519
3.222509
3.439272
3.3372
2.833408
1.993246
0.9810348
-0.01352644
-0.8729162
-1.664855
-2.526825
-3.603009
-4.887888
-6.260106
-7.539656
-8.660026
-9.682789
-10.8028
-12.28084
-14.24293
-16.64804
-19.29881
-21.92381
-24.2534
-26.03791
-27.04352
-26.98926
-25.66826
-23.0333
-19.22982
-14.64383
-9.746264
-4.965321
-0.5889874
3.251242
6.536255
9.273554
11.41232
12.85423
13.52065
13.43103
12.73404
11.72832
10.73028
10.03448
9.829554
10.1492
10.79721
11.52774
12.10246
12.37022
12.37282
12.23139
12.06798
11.89662
11.6229
11.04704
10.02878
8.593441
6.949638
5.400238
4.194954
3.425514
2.989029
2.703453
2.357944
1.878189
1.270283
0.6359863
0.1258125
-0.2105255
-0.3935051
-0.528244
-0.7359047
-1.13504
-1.824131
-2.805954
-4.072853
-5.471172
-6.929878
-8.385921
-9.831245
-11.3431
-12.99708
-14.84514
-16.85047
-18.92638
-20.83204
-22.41488
-23.50559
-23.96395
-23.7043
-22.62252
-20.62722
-17.68362
-13.9523
-9.719437
-5.442719
-1.511395
1.87558
4.682556
7.027081
9.030231
10.66754
11.74785
12.13205
11.81067
10.96736
9.975239
9.177727
8.777054
8.838848
9.248741
9.8507
10.512
11.12051
11.57336
11.80363
11.73034
11.37509
10.79419
10.0369
9.133862
8.115475
7.030846
5.963261
5.077671
4.458294
4.102375
3.860382
3.493607
2.809216
1.79203
0.5632286
-0.6451645
-1.61002
-2.275818
-2.742882
-3.189499
-3.806351
-4.691666
-5.760201
-6.926704
-8.060738
-9.101112
-10.06622
-11.03828
-12.07111
-13.24601
-14.61344
-16.17419
-17.92233
-19.78115
-21.56486
-22.97436
-23.65194
-23.28268
-21.72424
-19.0339
-15.4616
-11.35536
-7.069298
-2.868591
1.035179
4.497856
7.39798
9.579025
10.95061
11.49283
11.31588
10.69669
9.958633
9.363213
9.103729
9.172791
9.439369
9.741669
9.965515
10.06776
10.15527
10.34504
10.67329
11.07108
11.35556
11.27338
10.65781
9.461716
7.82177
6.002472
4.311646
2.933937
1.917999
1.144135
0.4542923
-0.2473831
-0.9388962
-1.504227
-1.816963
-1.833946
-1.61834
-1.279221
-0.9803238
-0.8179092
-0.8814697
-1.217613
-1.882896
-2.90332
-4.262238
-5.872429
-7.587326
-9.327431
-11.07343
-12.90492
-14.90282
-17.13627
-19.52681
-21.85828
-23.78617
-24.87847
-24.7589
-23.22749
-20.28561
-16.18233
-11.37334
-6.392197
-1.708221
2.341362
5.584373
7.989502
9.594101
10.42577
10.54812
10.07484
9.204399
8.254829
7.55291
7.335388
7.662254
8.40316
9.33844
10.22449
10.91943
11.38862
11.64732
11.68462
11.43953
10.84708
9.866898
8.583687
7.155548
5.776604
4.656975
3.920784
3.586472
3.599312
3.87587
4.288368
4.690186
4.940979
4.845451
4.347664
3.472008
2.321358
1.066223
-0.1584091
-1.339767
-2.59095
-4.029533
-5.745476
-7.644676
-9.575409
-11.32672
-12.77055
-13.87144
-14.79729
-15.81065
-17.12163
-18.85111
-20.90477
-23.04296
-24.88132
-25.95775
-25.87066
-24.41039
-21.59616
-17.65355
-13.03788
-8.201939
-3.53801
0.6801682
4.420471
7.618176
10.24858
12.23009
13.49527
13.98689
13.80828
13.11404
12.15884
11.2362
10.55005
10.24074
10.34075
10.81131
11.46201
12.13564
12.66839
12.93892
12.94773
12.70761
12.29173
11.76053
11.14335
10.42845
9.626953
8.774921
7.900425
7.093632
6.385551
5.830975
5.437737
5.145504
4.867573
4.511837
4.021156
3.397984
