1570288189.99495
1570288190.01058
1570288190.02621
1570288190.04183
1570288190.05746
1570288190.07308
1570288190.08871
1570288190.10433
1570288190.11996
1570288190.13559
1570288190.15121
1570288190.16684
1570288190.18246
1570288190.19809
1570288190.21371
1570288190.22934
1570288190.24497
1570288190.26059
1570288190.27622
1570288190.29184
1570288190.30747
1570288190.32309
1570288190.33872
1570288190.35435
1570288190.36997
1570288190.3856
1570288190.40122
1570288190.41685
1570288190.43247
1570288190.4481
1570288190.46373
1570288190.47935
1570288190.49498
1570288190.5106
1570288190.52623
1570288190.54185
1570288190.55748
1570288190.57311
1570288190.58873
1570288190.60436
1570288190.61998
1570288190.63561
1570288190.65123
1570288190.66686
1570288190.68249
1570288190.69811
1570288190.71374
1570288190.72936
1570288190.74499
1570288190.76061
1570288190.77624
1570288190.79187
1570288190.80749
1570288190.82312
1570288190.83874
1570288190.85437
1570288190.86999
1570288190.88562
1570288190.90125
1570288190.91687
1570288190.9325
1570288190.94812
1570288190.96375
1570288190.97937
1570288190.995
1570288191.01063
1570288191.02625
1570288191.04188
1570288191.0575
1570288191.07313
1570288191.08875
1570288191.10438
1570288191.12001
1570288191.13563
1570288191.15126
1570288191.16688
1570288191.18251
1570288191.19813
1570288191.21376
1570288191.22939
1570288191.24501
1570288191.26064
1570288191.27626
1570288191.29189
1570288191.30751
1570288191.32314
1570288191.33877
1570288191.35439
1570288191.37002
1570288191.38564
1570288191.40127
1570288191.41689
1570288191.43252
1570288191.44815
1570288191.46377
1570288191.4794
1570288191.49502
1570288191.51065
1570288191.52627
1570288191.5419
1570288191.55753
1570288191.57315
1570288191.58878
1570288191.6044
1570288191.62003
1570288191.63566
1570288191.65128
1570288191.66691
1570288191.68253
1570288191.69816
1570288191.71378
1570288191.72941
1570288191.74504
1570288191.76066
1570288191.77629
1570288191.79191
1570288191.80754
1570288191.82316
1570288191.83879
1570288191.85442
1570288191.87004
1570288191.88567
1570288191.90129
1570288191.91692
1570288191.93254
1570288191.94817
1570288191.9638
1570288191.97942
1570288191.99505
1570288192.01067
1570288192.0263
1570288192.04192
1570288192.05755
1570288192.07318
1570288192.0888
1570288192.10443
1570288192.12005
1570288192.13568
1570288192.1513
1570288192.16693
1570288192.18256
1570288192.19818
1570288192.21381
1570288192.22943
1570288192.24506
1570288192.26068
1570288192.27631
1570288192.29194
1570288192.30756
1570288192.32319
1570288192.33881
1570288192.35444
1570288192.37006
1570288192.38569
1570288192.40132
1570288192.41694
1570288192.43257
1570288192.44819
1570288192.46382
1570288192.47944
1570288192.49507
1570288192.5107
1570288192.52632
1570288192.54195
1570288192.55757
1570288192.5732
1570288192.58882
1570288192.60445
1570288192.62008
1570288192.6357
1570288192.65133
1570288192.66695
1570288192.68258
1570288192.6982
1570288192.71383
1570288192.72946
1570288192.74508
1570288192.76071
1570288192.77633
1570288192.79196
1570288192.80758
1570288192.82321
1570288192.83884
1570288192.85446
1570288192.87009
1570288192.88571
1570288192.90134
1570288192.91696
1570288192.93259
1570288192.94822
1570288192.96384
1570288192.97947
1570288192.99509
1570288193.01072
1570288193.02634
1570288193.04197
1570288193.0576
1570288193.07322
1570288193.08885
1570288193.10447
1570288193.1201
1570288193.13572
1570288193.15135
1570288193.16698
1570288193.1826
1570288193.19823
1570288193.21385
1570288193.22948
1570288193.2451
1570288193.26073
1570288193.27636
1570288193.29198
1570288193.30761
1570288193.32323
1570288193.33886
1570288193.35448
1570288193.37011
1570288193.38574
1570288193.40136
1570288193.41699
1570288193.43261
1570288193.44824
1570288193.46386
1570288193.47949
1570288193.49512
1570288193.51074
1570288193.52637
1570288193.54199
1570288193.55762
1570288193.57324
1570288193.58887
1570288193.6045
1570288193.62012
1570288193.63575
1570288193.65137
1570288193.667
1570288193.68262
1570288193.69825
1570288193.71388
1570288193.7295
1570288193.74513
1570288193.76075
1570288193.77638
1570288193.792
1570288193.80763
1570288193.82326
1570288193.83888
1570288193.85451
1570288193.87013
1570288193.88576
1570288193.90139
1570288193.91701
1570288193.93264
1570288193.94826
1570288193.96389
1570288193.97951
1570288193.99514
1570288194.01077
1570288194.02639
1570288194.04202
1570288194.05764
1570288194.07327
1570288194.08889
1570288194.10452
1570288194.12015
1570288194.13577
1570288194.1514
1570288194.16702
1570288194.18265
1570288194.19827
1570288194.2139
1570288194.22953
1570288194.24515
1570288194.26078
1570288194.2764
1570288194.29203
1570288194.30765
1570288194.32328
1570288194.33891
1570288194.35453
1570288194.37016
1570288194.38578
1570288194.40141
1570288194.41703
1570288194.43266
1570288194.44829
1570288194.46391
1570288194.47954
1570288194.49516
1570288194.51079
1570288194.52641
1570288194.54204
1570288194.55767
1570288194.57329
1570288194.58892
1570288194.60454
1570288194.62017
1570288194.63579
1570288194.65142
1570288194.66705
1570288194.68267
1570288194.6983
1570288194.71392
1570288194.72955
1570288194.74517
1570288194.7608
1570288194.77643
1570288194.79205
1570288194.80768
1570288194.8233
1570288194.83893
1570288194.85455
1570288194.87018
1570288194.88581
1570288194.90143
1570288194.91706
1570288194.93268
1570288194.94831
1570288194.96393
1570288194.97956
1570288194.99519
1570288195.01081
1570288195.02644
1570288195.04206
1570288195.05769
1570288195.07331
1570288195.08894
1570288195.10457
1570288195.12019
1570288195.13582
1570288195.15144
1570288195.16707
1570288195.18269
1570288195.19832
1570288195.21395
1570288195.22957
1570288195.2452
1570288195.26082
1570288195.27645
1570288195.29207
1570288195.3077
1570288195.32333
1570288195.33895
1570288195.35458
1570288195.3702
1570288195.38583
1570288195.40145
1570288195.41708
1570288195.43271
1570288195.44833
1570288195.46396
1570288195.47958
1570288195.49521
1570288195.51083
1570288195.52646
1570288195.54209
1570288195.55771
1570288195.57334
1570288195.58896
1570288195.60459
1570288195.62021
1570288195.63584
1570288195.65147
1570288195.66709
1570288195.68272
1570288195.69834
1570288195.71397
1570288195.72959
1570288195.74522
1570288195.76085
1570288195.77647
1570288195.7921
1570288195.80772
1570288195.82335
1570288195.83897
1570288195.8546
1570288195.87023
1570288195.88585
1570288195.90148
1570288195.9171
1570288195.93273
1570288195.94835
1570288195.96398
1570288195.97961
1570288195.99523
1570288196.01086
1570288196.02648
1570288196.04211
1570288196.05773
1570288196.07336
1570288196.08899
1570288196.10461
1570288196.12024
1570288196.13586
1570288196.15149
1570288196.16711
1570288196.18274
1570288196.19837
1570288196.21399
1570288196.22962
1570288196.24524
1570288196.26087
1570288196.27649
1570288196.29212
1570288196.30775
1570288196.32337
1570288196.339
1570288196.35462
1570288196.37025
1570288196.38587
1570288196.4015
1570288196.41713
1570288196.43275
1570288196.44838
1570288196.464
1570288196.47963
1570288196.49526
1570288196.51088
1570288196.52651
1570288196.54213
1570288196.55776
1570288196.57338
1570288196.58901
1570288196.60464
1570288196.62026
1570288196.63589
1570288196.65151
1570288196.66714
1570288196.68276
1570288196.69839
1570288196.71402
1570288196.72964
1570288196.74527
1570288196.76089
1570288196.77652
1570288196.79214
1570288196.80777
1570288196.8234
1570288196.83902
1570288196.85465
1570288196.87027
1570288196.8859
1570288196.90152
1570288196.91715
1570288196.93278
1570288196.9484
1570288196.96403
1570288196.97965
1570288196.99528
1570288197.0109
1570288197.02653
1570288197.04216
1570288197.05778
1570288197.07341
1570288197.08903
1570288197.10466
1570288197.12028
1570288197.13591
1570288197.15154
1570288197.16716
1570288197.18279
1570288197.19841
1570288197.21404
1570288197.22966
1570288197.24529
1570288197.26092
1570288197.27654
1570288197.29217
1570288197.30779
1570288197.32342
1570288197.33904
1570288197.35467
1570288197.3703
1570288197.38592
1570288197.40155
1570288197.41717
1570288197.4328
1570288197.44842
1570288197.46405
1570288197.47968
1570288197.4953
1570288197.51093
1570288197.52655
1570288197.54218
1570288197.5578
1570288197.57343
1570288197.58906
1570288197.60468
1570288197.62031
1570288197.63593
1570288197.65156
1570288197.66718
1570288197.68281
1570288197.69844
1570288197.71406
1570288197.72969
1570288197.74531
1570288197.76094
1570288197.77656
1570288197.79219
1570288197.80782
1570288197.82344
1570288197.83907
1570288197.85469
1570288197.87032
1570288197.88594
1570288197.90157
1570288197.9172
1570288197.93282
1570288197.94845
1570288197.96407
1570288197.9797
1570288197.99532
1570288198.01095
1570288198.02658
1570288198.0422
1570288198.05783
1570288198.07345
1570288198.08908
1570288198.1047
1570288198.12033
1570288198.13596
1570288198.15158
1570288198.16721
1570288198.18283
1570288198.19846
1570288198.21408
1570288198.22971
1570288198.24534
1570288198.26096
1570288198.27659
1570288198.29221
1570288198.30784
1570288198.32346
1570288198.33909
1570288198.35472
1570288198.37034
1570288198.38597
1570288198.40159
1570288198.41722
1570288198.43284
1570288198.44847
1570288198.4641
1570288198.47972
1570288198.49535
1570288198.51097
1570288198.5266
1570288198.54222
1570288198.55785
1570288198.57348
1570288198.5891
1570288198.60473
1570288198.62035
1570288198.63598
1570288198.6516
1570288198.66723
1570288198.68286
1570288198.69848
1570288198.71411
1570288198.72973
1570288198.74536
1570288198.76099
1570288198.77661
1570288198.79224
1570288198.80786
1570288198.82349
1570288198.83911
1570288198.85474
1570288198.87037
1570288198.88599
1570288198.90162
1570288198.91724
1570288198.93287
1570288198.94849
1570288198.96412
1570288198.97975
1570288198.99537
1570288199.011
1570288199.02662
1570288199.04225
1570288199.05787
1570288199.0735
1570288199.08913
1570288199.10475
1570288199.12038
1570288199.136
1570288199.15163
1570288199.16725
1570288199.18288
1570288199.19851
1570288199.21413
1570288199.22976
1570288199.24538
1570288199.26101
1570288199.27663
1570288199.29226
1570288199.30789
1570288199.32351
1570288199.33914
1570288199.35476
1570288199.37039
1570288199.38601
1570288199.40164
1570288199.41727
1570288199.43289
1570288199.44852
1570288199.46414
1570288199.47977
1570288199.49539
1570288199.51102
1570288199.52665
1570288199.54227
1570288199.5579
1570288199.57352
1570288199.58915
1570288199.60477
1570288199.6204
1570288199.63603
1570288199.65165
1570288199.66728
1570288199.6829
1570288199.69853
1570288199.71415
1570288199.72978
1570288199.74541
1570288199.76103
1570288199.77666
1570288199.79228
1570288199.80791
1570288199.82353
1570288199.83916
1570288199.85479
1570288199.87041
1570288199.88604
1570288199.90166
1570288199.91729
1570288199.93291
1570288199.94854
1570288199.96417
1570288199.97979
1570288199.99542
1570288200.01104
1570288200.02667
1570288200.04229
1570288200.05792
1570288200.07355
1570288200.08917
1570288200.1048
1570288200.12042
1570288200.13605
1570288200.15167
1570288200.1673
1570288200.18293
1570288200.19855
1570288200.21418
1570288200.2298
1570288200.24543
1570288200.26105
1570288200.27668
1570288200.29231
1570288200.30793
1570288200.32356
1570288200.33918
1570288200.35481
1570288200.37043
1570288200.38606
1570288200.40169
1570288200.41731
1570288200.43294
1570288200.44856
1570288200.46419
1570288200.47981
1570288200.49544
1570288200.51107
1570288200.52669
1570288200.54232
1570288200.55794
1570288200.57357
1570288200.58919
1570288200.60482
1570288200.62045
1570288200.63607
1570288200.6517
1570288200.66732
1570288200.68295
1570288200.69857
1570288200.7142
1570288200.72983
1570288200.74545
1570288200.76108
1570288200.7767
1570288200.79233
1570288200.80795
1570288200.82358
1570288200.83921
1570288200.85483
1570288200.87046
1570288200.88608
1570288200.90171
1570288200.91734
1570288200.93296
1570288200.94859
1570288200.96421
1570288200.97984
1570288200.99546
1570288201.01109
1570288201.02672
1570288201.04234
1570288201.05797
1570288201.07359
1570288201.08922
1570288201.10484
1570288201.12047
1570288201.1361
1570288201.15172
1570288201.16735
1570288201.18297
1570288201.1986
1570288201.21422
1570288201.22985
1570288201.24548
1570288201.2611
1570288201.27673
1570288201.29235
1570288201.30798
1570288201.3236
1570288201.33923
1570288201.35486
1570288201.37048
1570288201.38611
1570288201.40173
1570288201.41736
1570288201.43298
1570288201.44861
1570288201.46424
1570288201.47986
1570288201.49549
1570288201.51111
1570288201.52674
1570288201.54236
1570288201.55799
1570288201.57362
1570288201.58924
1570288201.60487
1570288201.62049
1570288201.63612
1570288201.65174
1570288201.66737
1570288201.683
1570288201.69862
1570288201.71425
1570288201.72987
1570288201.7455
1570288201.76112
1570288201.77675
1570288201.79238
1570288201.808
1570288201.82363
1570288201.83925
1570288201.85488
1570288201.8705
1570288201.88613
1570288201.90176
1570288201.91738
1570288201.93301
1570288201.94863
1570288201.96426
1570288201.97988
1570288201.99551
1570288202.01114
1570288202.02676
1570288202.04239
1570288202.05801
1570288202.07364
1570288202.08926
1570288202.10489
1570288202.12052
1570288202.13614
1570288202.15177
1570288202.16739
1570288202.18302
1570288202.19864
1570288202.21427
1570288202.2299
1570288202.24552
1570288202.26115
1570288202.27677
1570288202.2924
1570288202.30802
1570288202.32365
1570288202.33928
1570288202.3549
1570288202.37053
1570288202.38615
1570288202.40178
1570288202.4174
1570288202.43303
1570288202.44866
1570288202.46428
1570288202.47991
1570288202.49553
1570288202.51116
1570288202.52678
1570288202.54241
1570288202.55804
1570288202.57366
1570288202.58929
1570288202.60491
1570288202.62054
1570288202.63616
1570288202.65179
1570288202.66742
1570288202.68304
1570288202.69867
1570288202.71429
1570288202.72992
1570288202.74554
1570288202.76117
1570288202.7768
1570288202.79242
1570288202.80805
1570288202.82367
1570288202.8393
1570288202.85492
1570288202.87055
1570288202.88618
1570288202.9018
1570288202.91743
1570288202.93305
1570288202.94868
1570288202.9643
1570288202.97993
1570288202.99556
1570288203.01118
1570288203.02681
1570288203.04243
1570288203.05806
1570288203.07368
1570288203.08931
1570288203.10494
1570288203.12056
1570288203.13619
1570288203.15181
1570288203.16744
1570288203.18306
1570288203.19869
1570288203.21432
1570288203.22994
1570288203.24557
1570288203.26119
1570288203.27682
1570288203.29244
1570288203.30807
1570288203.3237
1570288203.33932
1570288203.35495
1570288203.37057
1570288203.3862
1570288203.40182
1570288203.41745
1570288203.43308
1570288203.4487
1570288203.46433
1570288203.47995
1570288203.49558
1570288203.5112
1570288203.52683
1570288203.54246
1570288203.55808
1570288203.57371
1570288203.58933
1570288203.60496
1570288203.62059
1570288203.63621
1570288203.65184
1570288203.66746
1570288203.68309
1570288203.69871
1570288203.71434
1570288203.72997
1570288203.74559
1570288203.76122
1570288203.77684
1570288203.79247
1570288203.80809
1570288203.82372
1570288203.83935
1570288203.85497
1570288203.8706
1570288203.88622
1570288203.90185
1570288203.91747
1570288203.9331
1570288203.94873
1570288203.96435
1570288203.97998
1570288203.9956
1570288204.01123
1570288204.02685
1570288204.04248
1570288204.05811
1570288204.07373
1570288204.08936
1570288204.10498
1570288204.12061
1570288204.13623
1570288204.15186
1570288204.16749
1570288204.18311
1570288204.19874
1570288204.21436
1570288204.22999
1570288204.24561
1570288204.26124
1570288204.27687
1570288204.29249
1570288204.30812
1570288204.32374
1570288204.33937
1570288204.35499
1570288204.37062
1570288204.38625
1570288204.40187
1570288204.4175
1570288204.43312
1570288204.44875
1570288204.46437
1570288204.48
1570288204.49563
1570288204.51125
1570288204.52688
1570288204.5425
1570288204.55813
1570288204.57375
1570288204.58938
1570288204.60501
1570288204.62063
1570288204.63626
1570288204.65188
1570288204.66751
1570288204.68313
1570288204.69876
1570288204.71439
1570288204.73001
1570288204.74564
1570288204.76126
1570288204.77689
1570288204.79251
1570288204.80814
1570288204.82377
1570288204.83939
1570288204.85502
1570288204.87064
1570288204.88627
1570288204.90189
1570288204.91752
1570288204.93315
1570288204.94877
1570288204.9644
1570288204.98002
1570288204.99565
1570288205.01127
1570288205.0269
1570288205.04253
1570288205.05815
1570288205.07378
1570288205.0894
1570288205.10503
1570288205.12065
1570288205.13628
1570288205.15191
1570288205.16753
1570288205.18316
1570288205.19878
1570288205.21441
1570288205.23003
1570288205.24566
1570288205.26129
1570288205.27691
1570288205.29254
1570288205.30816
1570288205.32379
1570288205.33941
1570288205.35504
1570288205.37067
1570288205.38629
1570288205.40192
1570288205.41754
1570288205.43317
1570288205.44879
1570288205.46442
1570288205.48005
1570288205.49567
1570288205.5113
1570288205.52692
1570288205.54255
1570288205.55817
1570288205.5738
1570288205.58943
1570288205.60505
1570288205.62068
1570288205.6363
1570288205.65193
1570288205.66755
1570288205.68318
1570288205.69881
1570288205.71443
1570288205.73006
1570288205.74568
1570288205.76131
1570288205.77694
1570288205.79256
1570288205.80819
1570288205.82381
1570288205.83944
1570288205.85506
1570288205.87069
1570288205.88632
1570288205.90194
1570288205.91757
1570288205.93319
1570288205.94882
1570288205.96444
1570288205.98007
1570288205.9957
1570288206.01132
1570288206.02695
1570288206.04257
1570288206.0582
1570288206.07382
1570288206.08945
1570288206.10508
1570288206.1207
1570288206.13633
1570288206.15195
1570288206.16758
1570288206.1832
1570288206.19883
1570288206.21446
1570288206.23008
1570288206.24571
1570288206.26133
1570288206.27696
1570288206.29258
1570288206.30821
1570288206.32384
1570288206.33946
1570288206.35509
1570288206.37071
1570288206.38634
1570288206.40196
1570288206.41759
1570288206.43322
1570288206.44884
1570288206.46447
1570288206.48009
1570288206.49572
1570288206.51134
1570288206.52697
1570288206.5426
1570288206.55822
1570288206.57385
1570288206.58947
1570288206.6051
1570288206.62072
1570288206.63635
1570288206.65198
1570288206.6676
1570288206.68323
1570288206.69885
1570288206.71448
1570288206.7301
1570288206.74573
1570288206.76136
1570288206.77698
1570288206.79261
1570288206.80823
1570288206.82386
1570288206.83948
1570288206.85511
1570288206.87074
1570288206.88636
1570288206.90199
1570288206.91761
1570288206.93324
1570288206.94886
1570288206.96449
1570288206.98012
1570288206.99574
1570288207.01137
1570288207.02699
1570288207.04262
1570288207.05824
1570288207.07387
1570288207.0895
1570288207.10512
1570288207.12075
1570288207.13637
1570288207.152
1570288207.16762
1570288207.18325
1570288207.19888
1570288207.2145
1570288207.23013
1570288207.24575
1570288207.26138
1570288207.277
1570288207.29263
1570288207.30826
1570288207.32388
1570288207.33951
1570288207.35513
1570288207.37076
1570288207.38638
1570288207.40201
1570288207.41764
1570288207.43326
1570288207.44889
1570288207.46451
1570288207.48014
1570288207.49576
1570288207.51139
1570288207.52702
1570288207.54264
1570288207.55827
1570288207.57389
1570288207.58952
1570288207.60514
1570288207.62077
1570288207.6364
1570288207.65202
1570288207.66765
1570288207.68327
1570288207.6989
1570288207.71452
1570288207.73015
1570288207.74578
1570288207.7614
1570288207.77703
1570288207.79265
1570288207.80828
1570288207.8239
1570288207.83953
1570288207.85516
1570288207.87078
1570288207.88641
1570288207.90203
1570288207.91766
1570288207.93328
1570288207.94891
1570288207.96454
1570288207.98016
1570288207.99579
1570288208.01141
1570288208.02704
1570288208.04267
1570288208.05829
1570288208.07392
1570288208.08954
1570288208.10517
1570288208.12079
1570288208.13642
1570288208.15205
1570288208.16767
1570288208.1833
1570288208.19892
1570288208.21455
1570288208.23017
1570288208.2458
1570288208.26143
1570288208.27705
1570288208.29268
1570288208.3083
1570288208.32393
1570288208.33955
1570288208.35518
1570288208.37081
1570288208.38643
1570288208.40206
1570288208.41768
1570288208.43331
1570288208.44893
1570288208.46456
1570288208.48019
1570288208.49581
1570288208.51144
1570288208.52706
1570288208.54269
1570288208.55831
1570288208.57394
1570288208.58957
1570288208.60519
1570288208.62082
1570288208.63644
1570288208.65207
1570288208.66769
1570288208.68332
1570288208.69895
1570288208.71457
1570288208.7302
1570288208.74582
1570288208.76145
1570288208.77707
1570288208.7927
1570288208.80833
1570288208.82395
1570288208.83958
1570288208.8552
1570288208.87083
1570288208.88645
1570288208.90208
1570288208.91771
1570288208.93333
1570288208.94896
1570288208.96458
1570288208.98021
1570288208.99583
1570288209.01146
1570288209.02709
1570288209.04271
1570288209.05834
1570288209.07396
1570288209.08959
1570288209.10521
1570288209.12084
1570288209.13647
1570288209.15209
1570288209.16772
1570288209.18334
1570288209.19897
1570288209.21459
1570288209.23022
1570288209.24585
1570288209.26147
1570288209.2771
1570288209.29272
1570288209.30835
1570288209.32397
1570288209.3396
1570288209.35523
1570288209.37085
1570288209.38648
1570288209.4021
1570288209.41773
1570288209.43335
1570288209.44898
1570288209.46461
1570288209.48023
1570288209.49586
1570288209.51148
1570288209.52711
1570288209.54273
1570288209.55836
1570288209.57399
1570288209.58961
1570288209.60524
1570288209.62086
1570288209.63649
1570288209.65211
1570288209.66774
1570288209.68337
1570288209.69899
1570288209.71462
1570288209.73024
1570288209.74587
1570288209.76149
1570288209.77712
1570288209.79275
1570288209.80837
1570288209.824
1570288209.83962
1570288209.85525
1570288209.87087
1570288209.8865
1570288209.90213
1570288209.91775
1570288209.93338
1570288209.949
1570288209.96463
1570288209.98025
1570288209.99588
1570288210.01151
1570288210.02713
1570288210.04276
1570288210.05838
1570288210.07401
1570288210.08963
1570288210.10526
1570288210.12089
1570288210.13651
1570288210.15214
1570288210.16776
1570288210.18339
1570288210.19901
1570288210.21464
1570288210.23027
1570288210.24589
1570288210.26152
1570288210.27714
1570288210.29277
1570288210.30839
1570288210.32402
1570288210.33965
1570288210.35527
1570288210.3709
1570288210.38652
1570288210.40215
1570288210.41777
1570288210.4334
1570288210.44903
1570288210.46465
1570288210.48028
1570288210.4959
1570288210.51153
1570288210.52715
1570288210.54278
1570288210.55841
1570288210.57403
1570288210.58966
1570288210.60528
1570288210.62091
1570288210.63654
1570288210.65216
1570288210.66779
1570288210.68341
1570288210.69904
1570288210.71466
1570288210.73029
1570288210.74592
1570288210.76154
1570288210.77717
1570288210.79279
1570288210.80842
1570288210.82404
1570288210.83967
1570288210.8553
1570288210.87092
1570288210.88655
1570288210.90217
1570288210.9178
1570288210.93342
1570288210.94905
1570288210.96468
1570288210.9803
1570288210.99593
1570288211.01155
1570288211.02718
1570288211.0428
1570288211.05843
1570288211.07406
1570288211.08968
1570288211.10531
1570288211.12093
1570288211.13656
1570288211.15218
1570288211.16781
1570288211.18344
1570288211.19906
1570288211.21469
1570288211.23031
1570288211.24594
1570288211.26156
1570288211.27719
1570288211.29282
1570288211.30844
1570288211.32407
1570288211.33969
1570288211.35532
1570288211.37094
1570288211.38657
1570288211.4022
1570288211.41782
1570288211.43345
1570288211.44907
1570288211.4647
1570288211.48032
1570288211.49595
1570288211.51158
1570288211.5272
1570288211.54283
1570288211.55845
1570288211.57408
1570288211.5897
1570288211.60533
1570288211.62096
1570288211.63658
1570288211.65221
1570288211.66783
1570288211.68346
1570288211.69908
1570288211.71471
1570288211.73034
1570288211.74596
1570288211.76159
1570288211.77721
1570288211.79284
1570288211.80846
1570288211.82409
1570288211.83972
1570288211.85534
1570288211.87097
1570288211.88659
1570288211.90222
1570288211.91784
1570288211.93347
1570288211.9491
1570288211.96472
1570288211.98035
1570288211.99597
1570288212.0116
1570288212.02722
1570288212.04285
1570288212.05848
1570288212.0741
1570288212.08973
1570288212.10535
1570288212.12098
1570288212.1366
1570288212.15223
1570288212.16786
1570288212.18348
1570288212.19911
1570288212.21473
1570288212.23036
1570288212.24598
1570288212.26161
1570288212.27724
1570288212.29286
1570288212.30849
1570288212.32411
1570288212.33974
1570288212.35536
1570288212.37099
1570288212.38662
1570288212.40224
1570288212.41787
1570288212.43349
1570288212.44912
1570288212.46474
1570288212.48037
1570288212.496
1570288212.51162
1570288212.52725
1570288212.54287
1570288212.5585
1570288212.57412
1570288212.58975
1570288212.60538
1570288212.621
1570288212.63663
1570288212.65225
1570288212.66788
1570288212.6835
1570288212.69913
1570288212.71476
1570288212.73038
1570288212.74601
1570288212.76163
1570288212.77726
1570288212.79288
1570288212.80851
1570288212.82414
1570288212.83976
1570288212.85539
1570288212.87101
1570288212.88664
1570288212.90227
1570288212.91789
1570288212.93352
1570288212.94914
1570288212.96477
1570288212.98039
1570288212.99602
1570288213.01165
1570288213.02727
1570288213.0429
1570288213.05852
1570288213.07415
1570288213.08977
1570288213.1054
1570288213.12103
1570288213.13665
1570288213.15228
1570288213.1679
1570288213.18353
1570288213.19915
1570288213.21478
1570288213.23041
1570288213.24603
1570288213.26166
1570288213.27728
1570288213.29291
1570288213.30853
1570288213.32416
1570288213.33979
1570288213.35541
1570288213.37104
1570288213.38666
1570288213.40229
1570288213.41791
1570288213.43354
1570288213.44917
1570288213.46479
1570288213.48042
1570288213.49604
1570288213.51167
1570288213.52729
1570288213.54292
1570288213.55855
1570288213.57417
1570288213.5898
1570288213.60542
1570288213.62105
1570288213.63667
1570288213.6523
1570288213.66793
1570288213.68355
1570288213.69918
1570288213.7148
1570288213.73043
1570288213.74605
1570288213.76168
1570288213.77731
1570288213.79293
1570288213.80856
1570288213.82418
1570288213.83981
1570288213.85543
1570288213.87106
1570288213.88669
1570288213.90231
1570288213.91794
1570288213.93356
1570288213.94919
1570288213.96481
1570288213.98044
1570288213.99607
1570288214.01169
1570288214.02732
1570288214.04294
1570288214.05857
1570288214.07419
1570288214.08982
1570288214.10545
1570288214.12107
1570288214.1367
1570288214.15232
1570288214.16795
1570288214.18357
1570288214.1992
1570288214.21483
1570288214.23045
1570288214.24608
1570288214.2617
1570288214.27733
1570288214.29295
1570288214.30858
1570288214.32421
1570288214.33983
1570288214.35546
1570288214.37108
1570288214.38671
1570288214.40233
1570288214.41796
1570288214.43359
1570288214.44921
1570288214.46484
1570288214.48046
1570288214.49609
1570288214.51171
1570288214.52734
1570288214.54297
1570288214.55859
1570288214.57422
1570288214.58984
1570288214.60547
1570288214.62109
1570288214.63672
1570288214.65235
1570288214.66797
1570288214.6836
1570288214.69922
1570288214.71485
1570288214.73047
1570288214.7461
1570288214.76173
1570288214.77735
1570288214.79298
1570288214.8086
1570288214.82423
1570288214.83985
1570288214.85548
1570288214.87111
1570288214.88673
1570288214.90236
1570288214.91798
1570288214.93361
1570288214.94923
1570288214.96486
1570288214.98049
1570288214.99611
1570288215.01174
1570288215.02736
1570288215.04299
1570288215.05861
1570288215.07424
1570288215.08987
1570288215.10549
1570288215.12112
1570288215.13674
1570288215.15237
1570288215.16799
1570288215.18362
1570288215.19925
1570288215.21487
1570288215.2305
1570288215.24612
1570288215.26175
1570288215.27737
1570288215.293
1570288215.30863
1570288215.32425
1570288215.33988
1570288215.3555
1570288215.37113
1570288215.38675
1570288215.40238
1570288215.41801
1570288215.43363
1570288215.44926
1570288215.46488
1570288215.48051
1570288215.49614
1570288215.51176
1570288215.52739
1570288215.54301
1570288215.55864
1570288215.57426
1570288215.58989
1570288215.60552
1570288215.62114
1570288215.63677
1570288215.65239
1570288215.66802
1570288215.68364
1570288215.69927
1570288215.7149
1570288215.73052
1570288215.74615
1570288215.76177
1570288215.7774
1570288215.79302
1570288215.80865
1570288215.82428
1570288215.8399
1570288215.85553
1570288215.87115
1570288215.88678
1570288215.9024
1570288215.91803
1570288215.93366
1570288215.94928
1570288215.96491
1570288215.98053
1570288215.99616
1570288216.01178
1570288216.02741
1570288216.04304
1570288216.05866
1570288216.07429
1570288216.08991
1570288216.10554
1570288216.12116
1570288216.13679
1570288216.15242
1570288216.16804
1570288216.18367
1570288216.19929
1570288216.21492
1570288216.23054
1570288216.24617
1570288216.2618
1570288216.27742
1570288216.29305
1570288216.30867
1570288216.3243
1570288216.33992
1570288216.35555
1570288216.37118
1570288216.3868
1570288216.40243
1570288216.41805
1570288216.43368
1570288216.4493
1570288216.46493
1570288216.48056
1570288216.49618
1570288216.51181
1570288216.52743
1570288216.54306
1570288216.55868
1570288216.57431
1570288216.58994
1570288216.60556
1570288216.62119
1570288216.63681
1570288216.65244
1570288216.66806
1570288216.68369
1570288216.69932
1570288216.71494
1570288216.73057
1570288216.74619
1570288216.76182
1570288216.77744
1570288216.79307
1570288216.8087
1570288216.82432
1570288216.83995
1570288216.85557
1570288216.8712
1570288216.88682
1570288216.90245
1570288216.91808
1570288216.9337
1570288216.94933
1570288216.96495
1570288216.98058
1570288216.9962
1570288217.01183
1570288217.02746
1570288217.04308
1570288217.05871
1570288217.07433
1570288217.08996
1570288217.10558
1570288217.12121
1570288217.13684
1570288217.15246
1570288217.16809
1570288217.18371
1570288217.19934
1570288217.21496
1570288217.23059
1570288217.24622
1570288217.26184
1570288217.27747
1570288217.29309
1570288217.30872
1570288217.32434
1570288217.33997
1570288217.3556
1570288217.37122
1570288217.38685
1570288217.40247
1570288217.4181
1570288217.43372
1570288217.44935
1570288217.46498
1570288217.4806
1570288217.49623
1570288217.51185
1570288217.52748
1570288217.5431
1570288217.55873
1570288217.57436
1570288217.58998
1570288217.60561
1570288217.62123
1570288217.63686
1570288217.65248
1570288217.66811
1570288217.68374
1570288217.69936
1570288217.71499
1570288217.73061
1570288217.74624
1570288217.76187
1570288217.77749
1570288217.79312
1570288217.80874
1570288217.82437
1570288217.83999
1570288217.85562
1570288217.87125
1570288217.88687
1570288217.9025
1570288217.91812
1570288217.93375
1570288217.94937
1570288217.965
1570288217.98063
1570288217.99625
1570288218.01188
1570288218.0275
1570288218.04313
1570288218.05875
1570288218.07438
1570288218.09001
1570288218.10563
1570288218.12126
1570288218.13688
1570288218.15251
1570288218.16813
1570288218.18376
1570288218.19939
1570288218.21501
1570288218.23064
1570288218.24626
1570288218.26189
1570288218.27751
1570288218.29314
1570288218.30877
1570288218.32439
1570288218.34002
1570288218.35564
1570288218.37127
1570288218.38689
1570288218.40252
1570288218.41815
1570288218.43377
1570288218.4494
1570288218.46502
1570288218.48065
1570288218.49627
1570288218.5119
1570288218.52753
1570288218.54315
1570288218.55878
1570288218.5744
1570288218.59003
1570288218.60565
1570288218.62128
1570288218.63691
1570288218.65253
1570288218.66816
1570288218.68378
1570288218.69941
1570288218.71503
1570288218.73066
1570288218.74629
1570288218.76191
1570288218.77754
1570288218.79316
1570288218.80879
1570288218.82441
1570288218.84004
1570288218.85567
1570288218.87129
1570288218.88692
1570288218.90254
1570288218.91817
1570288218.93379
1570288218.94942
1570288218.96505
1570288218.98067
1570288218.9963
1570288219.01192
1570288219.02755
1570288219.04317
1570288219.0588
1570288219.07443
1570288219.09005
1570288219.10568
1570288219.1213
1570288219.13693
1570288219.15255
1570288219.16818
1570288219.18381
1570288219.19943
1570288219.21506
1570288219.23068
1570288219.24631
1570288219.26193
1570288219.27756
1570288219.29319
1570288219.30881
1570288219.32444
1570288219.34006
1570288219.35569
1570288219.37131
1570288219.38694
1570288219.40257
1570288219.41819
1570288219.43382
1570288219.44944
1570288219.46507
1570288219.48069
1570288219.49632
1570288219.51195
1570288219.52757
1570288219.5432
1570288219.55882
1570288219.57445
1570288219.59007
1570288219.6057
1570288219.62133
1570288219.63695
1570288219.65258
1570288219.6682
1570288219.68383
1570288219.69945
1570288219.71508
1570288219.73071
1570288219.74633
1570288219.76196
1570288219.77758
1570288219.79321
1570288219.80883
1570288219.82446
1570288219.84009
1570288219.85571
1570288219.87134
1570288219.88696
1570288219.90259
1570288219.91821
1570288219.93384
1570288219.94947
1570288219.96509
1570288219.98072
1570288219.99634
1570288220.01197
1570288220.0276
1570288220.04322
1570288220.05885
1570288220.07447
1570288220.0901
1570288220.10572
1570288220.12135
1570288220.13698
1570288220.1526
1570288220.16823
1570288220.18385
1570288220.19948
1570288220.2151
1570288220.23073
1570288220.24636
1570288220.26198
1570288220.27761
1570288220.29323
1570288220.30886
1570288220.32448
1570288220.34011
1570288220.35574
1570288220.37136
1570288220.38699
1570288220.40261
1570288220.41824
1570288220.43386
1570288220.44949
1570288220.46512
1570288220.48074
1570288220.49637
1570288220.51199
1570288220.52762
1570288220.54324
1570288220.55887
1570288220.5745
1570288220.59012
1570288220.60575
1570288220.62137
1570288220.637
1570288220.65262
1570288220.66825
1570288220.68388
1570288220.6995
1570288220.71513
1570288220.73075
1570288220.74638
1570288220.762
1570288220.77763
1570288220.79326
1570288220.80888
1570288220.82451
1570288220.84013
1570288220.85576
1570288220.87138
1570288220.88701
1570288220.90264
1570288220.91826
1570288220.93389
1570288220.94951
1570288220.96514
1570288220.98076
1570288220.99639
1570288221.01202
1570288221.02764
1570288221.04327
1570288221.05889
1570288221.07452
1570288221.09014
1570288221.10577
1570288221.1214
1570288221.13702
1570288221.15265
1570288221.16827
1570288221.1839
1570288221.19952
1570288221.21515
1570288221.23078
1570288221.2464
1570288221.26203
1570288221.27765
1570288221.29328
1570288221.3089
1570288221.32453
1570288221.34016
1570288221.35578
1570288221.37141
1570288221.38703
1570288221.40266
1570288221.41828
1570288221.43391
1570288221.44954
1570288221.46516
1570288221.48079
1570288221.49641
1570288221.51204
1570288221.52766
1570288221.54329
1570288221.55892
1570288221.57454
1570288221.59017
1570288221.60579
1570288221.62142
1570288221.63704
1570288221.65267
1570288221.6683
1570288221.68392
1570288221.69955
1570288221.71517
1570288221.7308
1570288221.74642
1570288221.76205
1570288221.77768
1570288221.7933
1570288221.80893
1570288221.82455
1570288221.84018
1570288221.8558
1570288221.87143
1570288221.88706
1570288221.90268
1570288221.91831
1570288221.93393
1570288221.94956
1570288221.96518
1570288221.98081
1570288221.99644
1570288222.01206
1570288222.02769
1570288222.04331
1570288222.05894
1570288222.07456
1570288222.09019
1570288222.10582
1570288222.12144
1570288222.13707
1570288222.15269
1570288222.16832
1570288222.18394
1570288222.19957
1570288222.2152
1570288222.23082
1570288222.24645
1570288222.26207
1570288222.2777
1570288222.29332
1570288222.30895
1570288222.32458
1570288222.3402
1570288222.35583
1570288222.37145
1570288222.38708
1570288222.4027
1570288222.41833
1570288222.43396
1570288222.44958
1570288222.46521
1570288222.48083
1570288222.49646
1570288222.51208
1570288222.52771
1570288222.54334
1570288222.55896
1570288222.57459
1570288222.59021
1570288222.60584
1570288222.62147
1570288222.63709
1570288222.65272
1570288222.66834
1570288222.68397
1570288222.69959
1570288222.71522
1570288222.73085
1570288222.74647
1570288222.7621
1570288222.77772
1570288222.79335
1570288222.80897
1570288222.8246
1570288222.84023
1570288222.85585
1570288222.87148
1570288222.8871
1570288222.90273
1570288222.91835
1570288222.93398
1570288222.94961
1570288222.96523
1570288222.98086
1570288222.99648
1570288223.01211
1570288223.02773
1570288223.04336
1570288223.05899
1570288223.07461
1570288223.09024
1570288223.10586
1570288223.12149
1570288223.13711
1570288223.15274
1570288223.16837
1570288223.18399
1570288223.19962
1570288223.21524
1570288223.23087
1570288223.24649
1570288223.26212
1570288223.27775
1570288223.29337
1570288223.309
1570288223.32462
1570288223.34025
1570288223.35587
1570288223.3715
1570288223.38713
1570288223.40275
1570288223.41838
1570288223.434
1570288223.44963
1570288223.46525
1570288223.48088
1570288223.49651
1570288223.51213
1570288223.52776
1570288223.54338
1570288223.55901
1570288223.57463
1570288223.59026
1570288223.60589
1570288223.62151
1570288223.63714
1570288223.65276
1570288223.66839
1570288223.68401
1570288223.69964
1570288223.71527
1570288223.73089
1570288223.74652
1570288223.76214
1570288223.77777
1570288223.79339
1570288223.80902
1570288223.82465
1570288223.84027
1570288223.8559
1570288223.87152
1570288223.88715
1570288223.90277
1570288223.9184
1570288223.93403
1570288223.94965
1570288223.96528
1570288223.9809
1570288223.99653
1570288224.01215
1570288224.02778
1570288224.04341
1570288224.05903
1570288224.07466
1570288224.09028
1570288224.10591
1570288224.12153
1570288224.13716
1570288224.15279
1570288224.16841
1570288224.18404
1570288224.19966
1570288224.21529
1570288224.23091
1570288224.24654
1570288224.26217
1570288224.27779
1570288224.29342
1570288224.30904
1570288224.32467
1570288224.34029
1570288224.35592
1570288224.37155
1570288224.38717
1570288224.4028
1570288224.41842
1570288224.43405
1570288224.44967
1570288224.4653
1570288224.48093
1570288224.49655
1570288224.51218
1570288224.5278
1570288224.54343
1570288224.55905
1570288224.57468
1570288224.59031
1570288224.60593
1570288224.62156
1570288224.63718
1570288224.65281
1570288224.66843
1570288224.68406
1570288224.69969
1570288224.71531
1570288224.73094
1570288224.74656
1570288224.76219
1570288224.77781
1570288224.79344
1570288224.80907
1570288224.82469
1570288224.84032
1570288224.85594
1570288224.87157
1570288224.8872
1570288224.90282
1570288224.91845
1570288224.93407
1570288224.9497
1570288224.96532
1570288224.98095
1570288224.99658
1570288225.0122
1570288225.02783
1570288225.04345
1570288225.05908
1570288225.0747
1570288225.09033
1570288225.10596
1570288225.12158
1570288225.13721
1570288225.15283
1570288225.16846
1570288225.18408
1570288225.19971
1570288225.21534
1570288225.23096
1570288225.24659
1570288225.26221
1570288225.27784
1570288225.29346
1570288225.30909
1570288225.32472
1570288225.34034
1570288225.35597
1570288225.37159
1570288225.38722
1570288225.40284
1570288225.41847
1570288225.4341
1570288225.44972
1570288225.46535
1570288225.48097
1570288225.4966
1570288225.51222
1570288225.52785
1570288225.54348
1570288225.5591
1570288225.57473
1570288225.59035
1570288225.60598
1570288225.6216
1570288225.63723
1570288225.65286
1570288225.66848
1570288225.68411
1570288225.69973
1570288225.71536
1570288225.73098
1570288225.74661
1570288225.76224
1570288225.77786
1570288225.79349
1570288225.80911
1570288225.82474
1570288225.84036
1570288225.85599
1570288225.87162
1570288225.88724
1570288225.90287
1570288225.91849
1570288225.93412
1570288225.94974
1570288225.96537
1570288225.981
1570288225.99662
1570288226.01225
1570288226.02787
1570288226.0435
1570288226.05912
1570288226.07475
1570288226.09038
1570288226.106
1570288226.12163
1570288226.13725
1570288226.15288
1570288226.1685
1570288226.18413
1570288226.19976
1570288226.21538
1570288226.23101
1570288226.24663
1570288226.26226
1570288226.27788
1570288226.29351
1570288226.30914
1570288226.32476
1570288226.34039
1570288226.35601
1570288226.37164
1570288226.38726
1570288226.40289
1570288226.41852
1570288226.43414
1570288226.44977
1570288226.46539
1570288226.48102
1570288226.49664
1570288226.51227
1570288226.5279
1570288226.54352
1570288226.55915
1570288226.57477
1570288226.5904
1570288226.60602
1570288226.62165
1570288226.63728
1570288226.6529
1570288226.66853
1570288226.68415
1570288226.69978
1570288226.7154
1570288226.73103
1570288226.74666
1570288226.76228
1570288226.77791
1570288226.79353
1570288226.80916
1570288226.82478
1570288226.84041
1570288226.85604
1570288226.87166
1570288226.88729
1570288226.90291
1570288226.91854
1570288226.93416
1570288226.94979
1570288226.96542
1570288226.98104
1570288226.99667
1570288227.01229
1570288227.02792
1570288227.04355
1570288227.05917
1570288227.0748
1570288227.09042
1570288227.10605
1570288227.12167
1570288227.1373
1570288227.15293
1570288227.16855
1570288227.18418
1570288227.1998
1570288227.21543
1570288227.23105
1570288227.24668
1570288227.26231
1570288227.27793
1570288227.29356
1570288227.30918
1570288227.32481
1570288227.34043
1570288227.35606
1570288227.37169
1570288227.38731
1570288227.40294
1570288227.41856
1570288227.43419
1570288227.44981
1570288227.46544
1570288227.48107
1570288227.49669
1570288227.51232
1570288227.52794
1570288227.54357
1570288227.55919
1570288227.57482
1570288227.59045
1570288227.60607
1570288227.6217
1570288227.63732
1570288227.65295
1570288227.66857
1570288227.6842
1570288227.69983
1570288227.71545
1570288227.73108
1570288227.7467
1570288227.76233
1570288227.77795
1570288227.79358
1570288227.80921
1570288227.82483
1570288227.84046
1570288227.85608
1570288227.87171
1570288227.88733
1570288227.90296
1570288227.91859
1570288227.93421
1570288227.94984
1570288227.96546
1570288227.98109
1570288227.99671
1570288228.01234
1570288228.02797
1570288228.04359
1570288228.05922
1570288228.07484
1570288228.09047
1570288228.10609
1570288228.12172
1570288228.13735
1570288228.15297
1570288228.1686
1570288228.18422
1570288228.19985
1570288228.21547
1570288228.2311
1570288228.24673
1570288228.26235
1570288228.27798
1570288228.2936
1570288228.30923
1570288228.32485
1570288228.34048
1570288228.35611
1570288228.37173
1570288228.38736
1570288228.40298
1570288228.41861
1570288228.43423
1570288228.44986
1570288228.46549
1570288228.48111
1570288228.49674
1570288228.51236
1570288228.52799
1570288228.54361
1570288228.55924
1570288228.57487
1570288228.59049
1570288228.60612
1570288228.62174
1570288228.63737
1570288228.65299
1570288228.66862
1570288228.68425
1570288228.69987
1570288228.7155
1570288228.73112
1570288228.74675
1570288228.76237
1570288228.778
1570288228.79363
1570288228.80925
1570288228.82488
1570288228.8405
1570288228.85613
1570288228.87175
1570288228.88738
1570288228.90301
1570288228.91863
1570288228.93426
1570288228.94988
1570288228.96551
1570288228.98113
1570288228.99676
1570288229.01239
1570288229.02801
1570288229.04364
1570288229.05926
1570288229.07489
1570288229.09051
1570288229.10614
1570288229.12177
1570288229.13739
1570288229.15302
1570288229.16864
1570288229.18427
1570288229.19989
1570288229.21552
1570288229.23115
1570288229.24677
1570288229.2624
1570288229.27802
1570288229.29365
1570288229.30927
1570288229.3249
1570288229.34053
1570288229.35615
1570288229.37178
1570288229.3874
1570288229.40303
1570288229.41865
1570288229.43428
1570288229.44991
1570288229.46553
1570288229.48116
1570288229.49678
1570288229.51241
1570288229.52803
1570288229.54366
1570288229.55929
1570288229.57491
1570288229.59054
1570288229.60616
1570288229.62179
1570288229.63741
1570288229.65304
1570288229.66867
1570288229.68429
1570288229.69992
1570288229.71554
1570288229.73117
1570288229.7468
1570288229.76242
1570288229.77805
1570288229.79367
1570288229.8093
1570288229.82492
1570288229.84055
1570288229.85618
1570288229.8718
1570288229.88743
1570288229.90305
1570288229.91868
1570288229.9343
1570288229.94993
1570288229.96556
1570288229.98118
1570288229.99681
1570288230.01243
1570288230.02806
1570288230.04368
1570288230.05931
1570288230.07494
1570288230.09056
1570288230.10619
1570288230.12181
1570288230.13744
1570288230.15306
1570288230.16869
1570288230.18432
1570288230.19994
1570288230.21557
1570288230.23119
1570288230.24682
1570288230.26244
1570288230.27807
1570288230.2937
1570288230.30932
1570288230.32495
1570288230.34057
1570288230.3562
1570288230.37182
1570288230.38745
1570288230.40308
1570288230.4187
1570288230.43433
1570288230.44995
1570288230.46558
1570288230.4812
1570288230.49683
1570288230.51246
1570288230.52808
1570288230.54371
1570288230.55933
1570288230.57496
1570288230.59058
1570288230.60621
1570288230.62184
1570288230.63746
1570288230.65309
1570288230.66871
1570288230.68434
1570288230.69996
1570288230.71559
1570288230.73122
1570288230.74684
1570288230.76247
1570288230.77809
1570288230.79372
1570288230.80934
1570288230.82497
1570288230.8406
1570288230.85622
1570288230.87185
1570288230.88747
1570288230.9031
1570288230.91872
1570288230.93435
1570288230.94998
1570288230.9656
1570288230.98123
1570288230.99685
1570288231.01248
1570288231.0281
1570288231.04373
1570288231.05936
1570288231.07498
1570288231.09061
1570288231.10623
1570288231.12186
1570288231.13748
1570288231.15311
1570288231.16874
1570288231.18436
1570288231.19999
1570288231.21561
1570288231.23124
1570288231.24686
1570288231.26249
1570288231.27812
1570288231.29374
1570288231.30937
1570288231.32499
1570288231.34062
1570288231.35624
1570288231.37187
1570288231.3875
1570288231.40312
1570288231.41875
1570288231.43437
1570288231.45
1570288231.46562
1570288231.48125
1570288231.49688
1570288231.5125
1570288231.52813
1570288231.54375
1570288231.55938
1570288231.575
1570288231.59063
1570288231.60626
1570288231.62188
1570288231.63751
1570288231.65313
1570288231.66876
1570288231.68438
1570288231.70001
1570288231.71564
1570288231.73126
1570288231.74689
1570288231.76251
1570288231.77814
1570288231.79376
1570288231.80939
1570288231.82502
1570288231.84064
1570288231.85627
1570288231.87189
1570288231.88752
1570288231.90315
1570288231.91877
1570288231.9344
1570288231.95002
1570288231.96565
1570288231.98127
1570288231.9969
1570288232.01253
1570288232.02815
1570288232.04378
1570288232.0594
1570288232.07503
1570288232.09065
1570288232.10628
1570288232.12191
1570288232.13753
1570288232.15316
1570288232.16878
1570288232.18441
1570288232.20003
1570288232.21566
1570288232.23129
1570288232.24691
1570288232.26254
1570288232.27816
1570288232.29379
1570288232.30941
1570288232.32504
1570288232.34067
1570288232.35629
1570288232.37192
1570288232.38754
1570288232.40317
1570288232.41879
1570288232.43442
1570288232.45005
1570288232.46567
1570288232.4813
1570288232.49692
1570288232.51255
1570288232.52817
1570288232.5438
1570288232.55943
1570288232.57505
1570288232.59068
1570288232.6063
1570288232.62193
1570288232.63755
1570288232.65318
1570288232.66881
1570288232.68443
1570288232.70006
1570288232.71568
1570288232.73131
1570288232.74693
1570288232.76256
1570288232.77819
1570288232.79381
1570288232.80944
1570288232.82506
1570288232.84069
1570288232.85631
1570288232.87194
1570288232.88757
1570288232.90319
1570288232.91882
1570288232.93444
1570288232.95007
1570288232.96569
1570288232.98132
1570288232.99695
1570288233.01257
1570288233.0282
1570288233.04382
1570288233.05945
1570288233.07507
1570288233.0907
1570288233.10633
1570288233.12195
1570288233.13758
1570288233.1532
1570288233.16883
1570288233.18445
1570288233.20008
1570288233.21571
1570288233.23133
1570288233.24696
1570288233.26258
1570288233.27821
1570288233.29383
1570288233.30946
1570288233.32509
1570288233.34071
1570288233.35634
1570288233.37196
1570288233.38759
1570288233.40321
1570288233.41884
1570288233.43447
1570288233.45009
1570288233.46572
1570288233.48134
1570288233.49697
1570288233.51259
1570288233.52822
1570288233.54385
1570288233.55947
1570288233.5751
1570288233.59072
1570288233.60635
1570288233.62197
1570288233.6376
1570288233.65323
1570288233.66885
1570288233.68448
1570288233.7001
1570288233.71573
1570288233.73135
1570288233.74698
1570288233.76261
1570288233.77823
1570288233.79386
1570288233.80948
1570288233.82511
1570288233.84073
1570288233.85636
1570288233.87199
1570288233.88761
1570288233.90324
1570288233.91886
1570288233.93449
1570288233.95011
1570288233.96574
1570288233.98137
1570288233.99699
1570288234.01262
1570288234.02824
1570288234.04387
1570288234.05949
1570288234.07512
1570288234.09075
1570288234.10637
1570288234.122
1570288234.13762
1570288234.15325
1570288234.16887
1570288234.1845
1570288234.20013
1570288234.21575
1570288234.23138
1570288234.247
1570288234.26263
1570288234.27825
1570288234.29388
1570288234.30951
1570288234.32513
1570288234.34076
1570288234.35638
1570288234.37201
1570288234.38763
1570288234.40326
1570288234.41889
1570288234.43451
1570288234.45014
1570288234.46576
1570288234.48139
1570288234.49702
1570288234.51264
1570288234.52827
1570288234.54389
1570288234.55952
1570288234.57514
1570288234.59077
1570288234.6064
1570288234.62202
1570288234.63765
1570288234.65327
1570288234.6689
1570288234.68452
1570288234.70015
1570288234.71578
1570288234.7314
1570288234.74703
1570288234.76265
1570288234.77828
1570288234.7939
1570288234.80953
1570288234.82516
1570288234.84078
1570288234.85641
1570288234.87203
1570288234.88766
1570288234.90328
1570288234.91891
1570288234.93454
1570288234.95016
1570288234.96579
1570288234.98141
1570288234.99704
1570288235.01266
1570288235.02829
1570288235.04392
1570288235.05954
1570288235.07517
1570288235.09079
1570288235.10642
1570288235.12204
1570288235.13767
1570288235.1533
1570288235.16892
1570288235.18455
1570288235.20017
1570288235.2158
1570288235.23142
1570288235.24705
1570288235.26268
1570288235.2783
1570288235.29393
1570288235.30955
1570288235.32518
1570288235.3408
1570288235.35643
1570288235.37206
1570288235.38768
1570288235.40331
1570288235.41893
1570288235.43456
1570288235.45018
1570288235.46581
1570288235.48144
1570288235.49706
1570288235.51269
1570288235.52831
1570288235.54394
1570288235.55956
1570288235.57519
1570288235.59082
1570288235.60644
1570288235.62207
1570288235.63769
1570288235.65332
1570288235.66894
1570288235.68457
1570288235.7002
1570288235.71582
1570288235.73145
1570288235.74707
1570288235.7627
1570288235.77832
1570288235.79395
1570288235.80958
1570288235.8252
1570288235.84083
1570288235.85645
1570288235.87208
1570288235.8877
1570288235.90333
1570288235.91896
1570288235.93458
1570288235.95021
1570288235.96583
1570288235.98146
1570288235.99708
1570288236.01271
1570288236.02834
1570288236.04396
1570288236.05959
1570288236.07521
1570288236.09084
1570288236.10646
1570288236.12209
1570288236.13772
1570288236.15334
1570288236.16897
1570288236.18459
1570288236.20022
1570288236.21584
1570288236.23147
1570288236.2471
1570288236.26272
1570288236.27835
1570288236.29397
1570288236.3096
1570288236.32522
1570288236.34085
1570288236.35648
1570288236.3721
1570288236.38773
1570288236.40335
1570288236.41898
1570288236.4346
1570288236.45023
1570288236.46586
1570288236.48148
1570288236.49711
1570288236.51273
1570288236.52836
1570288236.54398
1570288236.55961
1570288236.57524
1570288236.59086
1570288236.60649
1570288236.62211
1570288236.63774
1570288236.65336
1570288236.66899
1570288236.68462
1570288236.70024
1570288236.71587
1570288236.73149
1570288236.74712
1570288236.76275
1570288236.77837
1570288236.794
1570288236.80962
1570288236.82525
1570288236.84087
1570288236.8565
1570288236.87213
1570288236.88775
1570288236.90338
1570288236.919
1570288236.93463
1570288236.95025
1570288236.96588
1570288236.98151
1570288236.99713
1570288237.01276
1570288237.02838
1570288237.04401
1570288237.05963
1570288237.07526
1570288237.09089
1570288237.10651
1570288237.12214
1570288237.13776
1570288237.15339
1570288237.16901
1570288237.18464
1570288237.20027
1570288237.21589
1570288237.23152
1570288237.24714
1570288237.26277
1570288237.27839
1570288237.29402
1570288237.30965
1570288237.32527
1570288237.3409
1570288237.35652
1570288237.37215
1570288237.38777
1570288237.4034
1570288237.41903
1570288237.43465
1570288237.45028
1570288237.4659
1570288237.48153
1570288237.49715
1570288237.51278
1570288237.52841
1570288237.54403
1570288237.55966
1570288237.57528
1570288237.59091
1570288237.60653
1570288237.62216
1570288237.63779
1570288237.65341
1570288237.66904
1570288237.68466
1570288237.70029
1570288237.71591
1570288237.73154
1570288237.74717
1570288237.76279
1570288237.77842
1570288237.79404
1570288237.80967
1570288237.82529
1570288237.84092
1570288237.85655
1570288237.87217
1570288237.8878
1570288237.90342
1570288237.91905
1570288237.93467
1570288237.9503
1570288237.96593
1570288237.98155
1570288237.99718
1570288238.0128
1570288238.02843
1570288238.04405
1570288238.05968
1570288238.07531
1570288238.09093
1570288238.10656
1570288238.12218
1570288238.13781
1570288238.15343
1570288238.16906
1570288238.18469
1570288238.20031
1570288238.21594
1570288238.23156
1570288238.24719
1570288238.26281
1570288238.27844
1570288238.29407
1570288238.30969
1570288238.32532
1570288238.34094
1570288238.35657
1570288238.37219
1570288238.38782
1570288238.40345
1570288238.41907
1570288238.4347
1570288238.45032
1570288238.46595
1570288238.48157
1570288238.4972
1570288238.51283
1570288238.52845
1570288238.54408
1570288238.5597
1570288238.57533
1570288238.59095
1570288238.60658
1570288238.62221
1570288238.63783
1570288238.65346
1570288238.66908
1570288238.68471
1570288238.70033
1570288238.71596
1570288238.73159
1570288238.74721
1570288238.76284
1570288238.77846
1570288238.79409
1570288238.80971
1570288238.82534
1570288238.84097
1570288238.85659
1570288238.87222
1570288238.88784
1570288238.90347
1570288238.91909
1570288238.93472
1570288238.95035
1570288238.96597
1570288238.9816
1570288238.99722
1570288239.01285
1570288239.02848
1570288239.0441
1570288239.05973
1570288239.07535
1570288239.09098
1570288239.1066
1570288239.12223
1570288239.13786
1570288239.15348
1570288239.16911
1570288239.18473
1570288239.20036
1570288239.21598
1570288239.23161
1570288239.24724
1570288239.26286
1570288239.27849
1570288239.29411
1570288239.30974
1570288239.32536
1570288239.34099
1570288239.35662
1570288239.37224
1570288239.38787
1570288239.40349
1570288239.41912
1570288239.43474
1570288239.45037
1570288239.466
1570288239.48162
1570288239.49725
1570288239.51287
1570288239.5285
1570288239.54412
1570288239.55975
1570288239.57538
1570288239.591
1570288239.60663
1570288239.62225
1570288239.63788
1570288239.6535
1570288239.66913
1570288239.68476
1570288239.70038
1570288239.71601
1570288239.73163
1570288239.74726
1570288239.76288
1570288239.77851
1570288239.79414
1570288239.80976
1570288239.82539
1570288239.84101
1570288239.85664
1570288239.87226
1570288239.88789
1570288239.90352
1570288239.91914
1570288239.93477
1570288239.95039
1570288239.96602
1570288239.98164
1570288239.99727
1570288240.0129
1570288240.02852
1570288240.04415
1570288240.05977
1570288240.0754
1570288240.09102
1570288240.10665
1570288240.12228
1570288240.1379
1570288240.15353
1570288240.16915
1570288240.18478
1570288240.2004
1570288240.21603
1570288240.23166
1570288240.24728
1570288240.26291
1570288240.27853
1570288240.29416
1570288240.30978
1570288240.32541
1570288240.34104
1570288240.35666
1570288240.37229
1570288240.38791
1570288240.40354
1570288240.41916
1570288240.43479
1570288240.45042
1570288240.46604
1570288240.48167
1570288240.49729
1570288240.51292
1570288240.52854
1570288240.54417
1570288240.5598
1570288240.57542
1570288240.59105
1570288240.60667
1570288240.6223
1570288240.63792
1570288240.65355
1570288240.66918
1570288240.6848
1570288240.70043
1570288240.71605
1570288240.73168
1570288240.7473
1570288240.76293
1570288240.77856
1570288240.79418
1570288240.80981
1570288240.82543
1570288240.84106
1570288240.85668
1570288240.87231
1570288240.88794
1570288240.90356
1570288240.91919
1570288240.93481
1570288240.95044
1570288240.96606
1570288240.98169
1570288240.99732
1570288241.01294
1570288241.02857
1570288241.04419
1570288241.05982
1570288241.07544
1570288241.09107
1570288241.1067
1570288241.12232
1570288241.13795
1570288241.15357
1570288241.1692
1570288241.18482
1570288241.20045
1570288241.21608
1570288241.2317
1570288241.24733
1570288241.26295
1570288241.27858
1570288241.2942
1570288241.30983
1570288241.32546
1570288241.34108
1570288241.35671
1570288241.37233
1570288241.38796
1570288241.40358
1570288241.41921
1570288241.43484
1570288241.45046
1570288241.46609
1570288241.48171
1570288241.49734
1570288241.51296
1570288241.52859
1570288241.54422
1570288241.55984
1570288241.57547
1570288241.59109
1570288241.60672
1570288241.62235
1570288241.63797
1570288241.6536
1570288241.66922
1570288241.68485
1570288241.70047
1570288241.7161
1570288241.73173
1570288241.74735
1570288241.76298
1570288241.7786
1570288241.79423
1570288241.80985
1570288241.82548
1570288241.84111
1570288241.85673
1570288241.87236
1570288241.88798
1570288241.90361
1570288241.91923
1570288241.93486
1570288241.95049
1570288241.96611
1570288241.98174
1570288241.99736
1570288242.01299
1570288242.02861
1570288242.04424
1570288242.05987
1570288242.07549
1570288242.09112
1570288242.10674
1570288242.12237
1570288242.13799
1570288242.15362
1570288242.16925
1570288242.18487
1570288242.2005
1570288242.21612
1570288242.23175
1570288242.24737
1570288242.263
1570288242.27863
1570288242.29425
1570288242.30988
1570288242.3255
1570288242.34113
1570288242.35675
1570288242.37238
1570288242.38801
1570288242.40363
1570288242.41926
1570288242.43488
1570288242.45051
1570288242.46613
1570288242.48176
1570288242.49739
1570288242.51301
1570288242.52864
1570288242.54426
1570288242.55989
1570288242.57551
1570288242.59114
1570288242.60677
1570288242.62239
1570288242.63802
1570288242.65364
1570288242.66927
1570288242.68489
1570288242.70052
1570288242.71615
1570288242.73177
1570288242.7474
1570288242.76302
1570288242.77865
1570288242.79427
1570288242.8099
1570288242.82553
1570288242.84115
1570288242.85678
1570288242.8724
1570288242.88803
1570288242.90365
1570288242.91928
1570288242.93491
1570288242.95053
1570288242.96616
1570288242.98178
1570288242.99741
1570288243.01303
1570288243.02866
1570288243.04429
1570288243.05991
1570288243.07554
1570288243.09116
1570288243.10679
1570288243.12241
1570288243.13804
1570288243.15367
1570288243.16929
1570288243.18492
1570288243.20054
1570288243.21617
1570288243.23179
1570288243.24742
1570288243.26305
1570288243.27867
1570288243.2943
1570288243.30992
1570288243.32555
1570288243.34117
1570288243.3568
1570288243.37243
1570288243.38805
1570288243.40368
1570288243.4193
1570288243.43493
1570288243.45055
1570288243.46618
1570288243.48181
1570288243.49743
1570288243.51306
1570288243.52868
1570288243.54431
1570288243.55993
1570288243.57556
1570288243.59119
1570288243.60681
1570288243.62244
1570288243.63806
1570288243.65369
1570288243.66931
1570288243.68494
1570288243.70057
1570288243.71619
1570288243.73182
1570288243.74744
1570288243.76307
1570288243.77869
1570288243.79432
1570288243.80995
1570288243.82557
1570288243.8412
1570288243.85682
1570288243.87245
1570288243.88808
1570288243.9037
1570288243.91933
1570288243.93495
1570288243.95058
1570288243.9662
1570288243.98183
1570288243.99746
1570288244.01308
1570288244.02871
1570288244.04433
1570288244.05996
1570288244.07558
1570288244.09121
1570288244.10684
1570288244.12246
1570288244.13809
1570288244.15371
1570288244.16934
1570288244.18496
1570288244.20059
1570288244.21622
1570288244.23184
1570288244.24747
1570288244.26309
1570288244.27872
1570288244.29434
1570288244.30997
1570288244.3256
1570288244.34122
1570288244.35685
1570288244.37247
1570288244.3881
1570288244.40372
1570288244.41935
1570288244.43498
1570288244.4506
1570288244.46623
1570288244.48185
1570288244.49748
1570288244.5131
1570288244.52873
1570288244.54436
1570288244.55998
1570288244.57561
1570288244.59123
1570288244.60686
1570288244.62248
1570288244.63811
1570288244.65374
1570288244.66936
1570288244.68499
1570288244.70061
1570288244.71624
1570288244.73186
1570288244.74749
1570288244.76312
1570288244.77874
1570288244.79437
1570288244.80999
1570288244.82562
1570288244.84124
1570288244.85687
1570288244.8725
1570288244.88812
1570288244.90375
1570288244.91937
1570288244.935
1570288244.95062
1570288244.96625
1570288244.98188
1570288244.9975
1570288245.01313
1570288245.02875
1570288245.04438
1570288245.06
1570288245.07563
1570288245.09126
1570288245.10688
1570288245.12251
1570288245.13813
1570288245.15376
1570288245.16938
1570288245.18501
1570288245.20064
1570288245.21626
1570288245.23189
1570288245.24751
1570288245.26314
1570288245.27876
1570288245.29439
1570288245.31002
1570288245.32564
1570288245.34127
1570288245.35689
1570288245.37252
1570288245.38814
1570288245.40377
1570288245.4194
1570288245.43502
1570288245.45065
1570288245.46627
1570288245.4819
1570288245.49752
1570288245.51315
1570288245.52878
1570288245.5444
1570288245.56003
1570288245.57565
1570288245.59128
1570288245.6069
1570288245.62253
1570288245.63816
1570288245.65378
1570288245.66941
1570288245.68503
1570288245.70066
1570288245.71628
1570288245.73191
1570288245.74754
1570288245.76316
1570288245.77879
1570288245.79441
1570288245.81004
1570288245.82566
1570288245.84129
1570288245.85692
1570288245.87254
1570288245.88817
1570288245.90379
1570288245.91942
1570288245.93504
1570288245.95067
1570288245.9663
1570288245.98192
1570288245.99755
1570288246.01317
1570288246.0288
1570288246.04443
1570288246.06005
1570288246.07568
1570288246.0913
1570288246.10693
1570288246.12255
1570288246.13818
1570288246.15381
1570288246.16943
1570288246.18506
1570288246.20068
1570288246.21631
1570288246.23193
1570288246.24756
1570288246.26319
1570288246.27881
1570288246.29444
1570288246.31006
1570288246.32569
1570288246.34131
1570288246.35694
1570288246.37257
1570288246.38819
1570288246.40382
1570288246.41944
1570288246.43507
1570288246.45069
1570288246.46632
1570288246.48195
1570288246.49757
1570288246.5132
1570288246.52882
1570288246.54445
1570288246.56007
1570288246.5757
1570288246.59133
1570288246.60695
1570288246.62258
1570288246.6382
1570288246.65383
1570288246.66945
1570288246.68508
1570288246.70071
1570288246.71633
1570288246.73196
1570288246.74758
1570288246.76321
1570288246.77883
1570288246.79446
1570288246.81009
1570288246.82571
1570288246.84134
1570288246.85696
1570288246.87259
1570288246.88821
1570288246.90384
1570288246.91947
1570288246.93509
1570288246.95072
1570288246.96634
1570288246.98197
1570288246.99759
1570288247.01322
1570288247.02885
1570288247.04447
1570288247.0601
1570288247.07572
1570288247.09135
1570288247.10697
1570288247.1226
1570288247.13823
1570288247.15385
1570288247.16948
1570288247.1851
1570288247.20073
1570288247.21635
1570288247.23198
1570288247.24761
1570288247.26323
1570288247.27886
1570288247.29448
1570288247.31011
1570288247.32573
1570288247.34136
1570288247.35699
1570288247.37261
1570288247.38824
1570288247.40386
1570288247.41949
1570288247.43511
1570288247.45074
1570288247.46637
1570288247.48199
1570288247.49762
1570288247.51324
1570288247.52887
1570288247.54449
1570288247.56012
1570288247.57575
1570288247.59137
1570288247.607
1570288247.62262
1570288247.63825
1570288247.65387
1570288247.6695
1570288247.68513
1570288247.70075
1570288247.71638
1570288247.732
1570288247.74763
1570288247.76325
1570288247.77888
1570288247.79451
1570288247.81013
1570288247.82576
1570288247.84138
1570288247.85701
1570288247.87263
1570288247.88826
1570288247.90389
1570288247.91951
1570288247.93514
1570288247.95076
1570288247.96639
1570288247.98201
1570288247.99764
1570288248.01327
1570288248.02889
1570288248.04452
1570288248.06014
1570288248.07577
1570288248.09139
1570288248.10702
1570288248.12265
1570288248.13827
1570288248.1539
1570288248.16952
1570288248.18515
1570288248.20077
1570288248.2164
1570288248.23203
1570288248.24765
1570288248.26328
1570288248.2789
1570288248.29453
1570288248.31015
1570288248.32578
1570288248.34141
1570288248.35703
1570288248.37266
1570288248.38828
1570288248.40391
1570288248.41953
1570288248.43516
1570288248.45079
1570288248.46641
1570288248.48204
1570288248.49766
1570288248.51329
1570288248.52891
1570288248.54454
1570288248.56017
1570288248.57579
1570288248.59142
1570288248.60704
1570288248.62267
1570288248.63829
1570288248.65392
1570288248.66955
1570288248.68517
1570288248.7008
1570288248.71642
1570288248.73205
1570288248.74768
1570288248.7633
1570288248.77893
1570288248.79455
1570288248.81018
1570288248.8258
1570288248.84143
1570288248.85706
1570288248.87268
1570288248.88831
1570288248.90393
1570288248.91956
1570288248.93518
1570288248.95081
1570288248.96644
1570288248.98206
1570288248.99769
1570288249.01331
1570288249.02894
1570288249.04456
1570288249.06019
1570288249.07582
1570288249.09144
1570288249.10707
1570288249.12269
1570288249.13832
1570288249.15394
1570288249.16957
1570288249.1852
1570288249.20082
1570288249.21645
1570288249.23207
1570288249.2477
1570288249.26332
1570288249.27895
1570288249.29458
1570288249.3102
1570288249.32583
1570288249.34145
1570288249.35708
1570288249.3727
1570288249.38833
1570288249.40396
1570288249.41958
1570288249.43521
1570288249.45083
1570288249.46646
1570288249.48208
1570288249.49771
1570288249.51334
1570288249.52896
1570288249.54459
1570288249.56021
1570288249.57584
1570288249.59146
1570288249.60709
1570288249.62272
1570288249.63834
1570288249.65397
1570288249.66959
1570288249.68522
1570288249.70084
1570288249.71647
1570288249.7321
1570288249.74772
1570288249.76335
1570288249.77897
1570288249.7946
1570288249.81022
1570288249.82585
1570288249.84148
1570288249.8571
1570288249.87273
1570288249.88835
1570288249.90398
1570288249.9196
1570288249.93523
1570288249.95086
1570288249.96648
1570288249.98211
1570288249.99773
1570288250.01336
1570288250.02898
1570288250.04461
1570288250.06024
1570288250.07586
1570288250.09149
1570288250.10711
1570288250.12274
1570288250.13836
1570288250.15399
1570288250.16962
1570288250.18524
1570288250.20087
1570288250.21649
1570288250.23212
1570288250.24774
1570288250.26337
1570288250.279
1570288250.29462
1570288250.31025
1570288250.32587
1570288250.3415
1570288250.35712
1570288250.37275
1570288250.38838
1570288250.404
1570288250.41963
1570288250.43525
1570288250.45088
1570288250.4665
1570288250.48213
1570288250.49776
1570288250.51338
1570288250.52901
1570288250.54463
1570288250.56026
1570288250.57588
1570288250.59151
1570288250.60714
1570288250.62276
1570288250.63839
1570288250.65401
1570288250.66964
1570288250.68526
1570288250.70089
1570288250.71652
1570288250.73214
1570288250.74777
1570288250.76339
1570288250.77902
1570288250.79464
1570288250.81027
1570288250.8259
1570288250.84152
1570288250.85715
1570288250.87277
1570288250.8884
1570288250.90402
1570288250.91965
1570288250.93528
1570288250.9509
1570288250.96653
1570288250.98215
1570288250.99778
1570288251.01341
1570288251.02903
1570288251.04466
1570288251.06028
1570288251.07591
1570288251.09153
1570288251.10716
1570288251.12279
1570288251.13841
1570288251.15404
1570288251.16966
1570288251.18529
1570288251.20091
1570288251.21654
1570288251.23217
1570288251.24779
1570288251.26342
1570288251.27904
1570288251.29467
1570288251.31029
1570288251.32592
1570288251.34155
1570288251.35717
1570288251.3728
1570288251.38842
1570288251.40405
1570288251.41967
1570288251.4353
1570288251.45093
1570288251.46655
1570288251.48218
1570288251.4978
1570288251.51343
1570288251.52905
1570288251.54468
1570288251.56031
1570288251.57593
1570288251.59156
1570288251.60718
1570288251.62281
1570288251.63843
1570288251.65406
1570288251.66969
1570288251.68531
1570288251.70094
1570288251.71656
1570288251.73219
1570288251.74781
1570288251.76344
1570288251.77907
1570288251.79469
1570288251.81032
1570288251.82594
1570288251.84157
1570288251.85719
1570288251.87282
1570288251.88845
1570288251.90407
1570288251.9197
1570288251.93532
1570288251.95095
1570288251.96657
1570288251.9822
1570288251.99783
1570288252.01345
1570288252.02908
1570288252.0447
1570288252.06033
1570288252.07595
1570288252.09158
1570288252.10721
1570288252.12283
1570288252.13846
1570288252.15408
1570288252.16971
1570288252.18533
1570288252.20096
1570288252.21659
1570288252.23221
1570288252.24784
1570288252.26346
1570288252.27909
1570288252.29471
1570288252.31034
1570288252.32597
1570288252.34159
1570288252.35722
1570288252.37284
1570288252.38847
1570288252.40409
1570288252.41972
1570288252.43535
1570288252.45097
1570288252.4666
1570288252.48222
1570288252.49785
1570288252.51347
1570288252.5291
1570288252.54473
1570288252.56035
1570288252.57598
1570288252.5916
1570288252.60723
1570288252.62285
1570288252.63848
1570288252.65411
1570288252.66973
1570288252.68536
1570288252.70098
1570288252.71661
1570288252.73223
1570288252.74786
1570288252.76349
1570288252.77911
1570288252.79474
1570288252.81036
1570288252.82599
1570288252.84161
1570288252.85724
1570288252.87287
1570288252.88849
1570288252.90412
1570288252.91974
1570288252.93537
1570288252.95099
1570288252.96662
1570288252.98225
1570288252.99787
1570288253.0135
1570288253.02912
1570288253.04475
1570288253.06037
1570288253.076
1570288253.09163
1570288253.10725
1570288253.12288
1570288253.1385
1570288253.15413
1570288253.16975
1570288253.18538
1570288253.20101
1570288253.21663
1570288253.23226
1570288253.24788
1570288253.26351
1570288253.27913
1570288253.29476
1570288253.31039
1570288253.32601
1570288253.34164
1570288253.35726
1570288253.37289
1570288253.38852
1570288253.40414
1570288253.41977
1570288253.43539
1570288253.45102
1570288253.46664
1570288253.48227
1570288253.4979
1570288253.51352
1570288253.52915
1570288253.54477
1570288253.5604
1570288253.57602
1570288253.59165
1570288253.60728
1570288253.6229
1570288253.63853
1570288253.65415
1570288253.66978
1570288253.6854
1570288253.70103
1570288253.71666
1570288253.73228
1570288253.74791
1570288253.76353
1570288253.77916
1570288253.79478
1570288253.81041
1570288253.82604
1570288253.84166
1570288253.85729
1570288253.87291
1570288253.88854
1570288253.90416
1570288253.91979
1570288253.93542
1570288253.95104
1570288253.96667
1570288253.98229
1570288253.99792
1570288254.01354
1570288254.02917
1570288254.0448
1570288254.06042
1570288254.07605
1570288254.09167
1570288254.1073
1570288254.12292
1570288254.13855
1570288254.15418
1570288254.1698
1570288254.18543
1570288254.20105
1570288254.21668
1570288254.2323
1570288254.24793
1570288254.26356
1570288254.27918
1570288254.29481
1570288254.31043
1570288254.32606
1570288254.34168
1570288254.35731
1570288254.37294
1570288254.38856
1570288254.40419
1570288254.41981
1570288254.43544
1570288254.45106
1570288254.46669
1570288254.48232
1570288254.49794
1570288254.51357
1570288254.52919
1570288254.54482
1570288254.56044
1570288254.57607
1570288254.5917
1570288254.60732
1570288254.62295
1570288254.63857
1570288254.6542
1570288254.66982
1570288254.68545
1570288254.70108
1570288254.7167
1570288254.73233
1570288254.74795
1570288254.76358
1570288254.7792
1570288254.79483
1570288254.81046
1570288254.82608
1570288254.84171
1570288254.85733
1570288254.87296
1570288254.88858
1570288254.90421
1570288254.91984
1570288254.93546
1570288254.95109
1570288254.96671
1570288254.98234
1570288254.99796
1570288255.01359
1570288255.02922
1570288255.04484
1570288255.06047
1570288255.07609
1570288255.09172
1570288255.10734
1570288255.12297
1570288255.1386
1570288255.15422
1570288255.16985
1570288255.18547
1570288255.2011
1570288255.21672
1570288255.23235
1570288255.24798
1570288255.2636
1570288255.27923
1570288255.29485
1570288255.31048
1570288255.3261
1570288255.34173
1570288255.35736
1570288255.37298
1570288255.38861
1570288255.40423
1570288255.41986
1570288255.43548
1570288255.45111
1570288255.46674
1570288255.48236
1570288255.49799
1570288255.51361
1570288255.52924
1570288255.54486
1570288255.56049
1570288255.57612
1570288255.59174
1570288255.60737
1570288255.62299
1570288255.63862
1570288255.65424
1570288255.66987
1570288255.6855
1570288255.70112
1570288255.71675
1570288255.73237
1570288255.748
1570288255.76362
1570288255.77925
1570288255.79488
1570288255.8105
1570288255.82613
1570288255.84175
1570288255.85738
1570288255.87301
1570288255.88863
1570288255.90426
1570288255.91988
1570288255.93551
1570288255.95113
1570288255.96676
1570288255.98239
1570288255.99801
1570288256.01364
1570288256.02926
1570288256.04489
1570288256.06051
1570288256.07614
1570288256.09177
1570288256.10739
1570288256.12302
1570288256.13864
1570288256.15427
1570288256.16989
1570288256.18552
1570288256.20115
1570288256.21677
1570288256.2324
1570288256.24802
1570288256.26365
1570288256.27927
1570288256.2949
1570288256.31053
1570288256.32615
1570288256.34178
1570288256.3574
1570288256.37303
1570288256.38865
1570288256.40428
1570288256.41991
1570288256.43553
1570288256.45116
1570288256.46678
1570288256.48241
1570288256.49803
1570288256.51366
1570288256.52929
1570288256.54491
1570288256.56054
1570288256.57616
1570288256.59179
1570288256.60741
1570288256.62304
1570288256.63867
1570288256.65429
1570288256.66992
1570288256.68554
1570288256.70117
1570288256.71679
1570288256.73242
1570288256.74805
1570288256.76367
1570288256.7793
1570288256.79492
1570288256.81055
1570288256.82617
1570288256.8418
1570288256.85743
1570288256.87305
1570288256.88868
1570288256.9043
1570288256.91993
1570288256.93555
1570288256.95118
1570288256.96681
1570288256.98243
1570288256.99806
1570288257.01368
1570288257.02931
1570288257.04493
1570288257.06056
1570288257.07619
1570288257.09181
1570288257.10744
1570288257.12306
1570288257.13869
1570288257.15431
1570288257.16994
1570288257.18557
1570288257.20119
1570288257.21682
1570288257.23244
1570288257.24807
1570288257.26369
1570288257.27932
1570288257.29495
1570288257.31057
1570288257.3262
1570288257.34182
1570288257.35745
1570288257.37307
1570288257.3887
1570288257.40433
1570288257.41995
1570288257.43558
1570288257.4512
1570288257.46683
1570288257.48245
1570288257.49808
1570288257.51371
1570288257.52933
1570288257.54496
1570288257.56058
1570288257.57621
1570288257.59183
1570288257.60746
1570288257.62309
1570288257.63871
1570288257.65434
1570288257.66996
1570288257.68559
1570288257.70121
1570288257.71684
1570288257.73247
1570288257.74809
1570288257.76372
1570288257.77934
1570288257.79497
1570288257.81059
1570288257.82622
1570288257.84185
1570288257.85747
1570288257.8731
1570288257.88872
1570288257.90435
1570288257.91997
1570288257.9356
1570288257.95123
1570288257.96685
1570288257.98248
1570288257.9981
1570288258.01373
1570288258.02936
1570288258.04498
1570288258.06061
1570288258.07623
1570288258.09186
1570288258.10748
1570288258.12311
1570288258.13874
1570288258.15436
1570288258.16999
1570288258.18561
1570288258.20124
1570288258.21686
1570288258.23249
1570288258.24812
1570288258.26374
1570288258.27937
1570288258.29499
1570288258.31062
1570288258.32624
1570288258.34187
1570288258.3575
1570288258.37312
1570288258.38875
1570288258.40437
1570288258.42
1570288258.43562
1570288258.45125
1570288258.46688
1570288258.4825
1570288258.49813
1570288258.51375
1570288258.52938
1570288258.545
1570288258.56063
1570288258.57626
1570288258.59188
1570288258.60751
1570288258.62313
1570288258.63876
1570288258.65438
1570288258.67001
1570288258.68564
1570288258.70126
1570288258.71689
1570288258.73251
1570288258.74814
1570288258.76376
1570288258.77939
1570288258.79502
1570288258.81064
1570288258.82627
1570288258.84189
1570288258.85752
1570288258.87314
1570288258.88877
1570288258.9044
1570288258.92002
1570288258.93565
1570288258.95127
1570288258.9669
1570288258.98252
1570288258.99815
1570288259.01378
1570288259.0294
1570288259.04503
1570288259.06065
1570288259.07628
1570288259.0919
1570288259.10753
1570288259.12316
1570288259.13878
1570288259.15441
1570288259.17003
1570288259.18566
1570288259.20128
1570288259.21691
1570288259.23254
1570288259.24816
1570288259.26379
1570288259.27941
1570288259.29504
1570288259.31066
1570288259.32629
1570288259.34192
1570288259.35754
1570288259.37317
1570288259.38879
1570288259.40442
1570288259.42004
1570288259.43567
1570288259.4513
1570288259.46692
1570288259.48255
1570288259.49817
1570288259.5138
1570288259.52942
1570288259.54505
1570288259.56068
1570288259.5763
1570288259.59193
1570288259.60755
1570288259.62318
1570288259.6388
1570288259.65443
1570288259.67006
1570288259.68568
1570288259.70131
1570288259.71693
1570288259.73256
1570288259.74818
1570288259.76381
1570288259.77944
1570288259.79506
1570288259.81069
1570288259.82631
1570288259.84194
1570288259.85756
1570288259.87319
1570288259.88882
1570288259.90444
1570288259.92007
1570288259.93569
1570288259.95132
1570288259.96694
1570288259.98257
1570288259.9982
1570288260.01382
1570288260.02945
1570288260.04507
1570288260.0607
1570288260.07632
1570288260.09195
1570288260.10758
1570288260.1232
1570288260.13883
1570288260.15445
1570288260.17008
1570288260.1857
1570288260.20133
1570288260.21696
1570288260.23258
1570288260.24821
1570288260.26383
1570288260.27946
1570288260.29508
1570288260.31071
1570288260.32634
1570288260.34196
1570288260.35759
1570288260.37321
1570288260.38884
1570288260.40446
1570288260.42009
1570288260.43572
1570288260.45134
1570288260.46697
1570288260.48259
1570288260.49822
1570288260.51384
1570288260.52947
1570288260.5451
1570288260.56072
1570288260.57635
1570288260.59197
1570288260.6076
1570288260.62322
1570288260.63885
1570288260.65448
1570288260.6701
1570288260.68573
1570288260.70135
1570288260.71698
1570288260.73261
1570288260.74823
1570288260.76386
1570288260.77948
1570288260.79511
1570288260.81073
1570288260.82636
1570288260.84199
1570288260.85761
1570288260.87324
1570288260.88886
1570288260.90449
1570288260.92011
1570288260.93574
1570288260.95137
1570288260.96699
1570288260.98262
1570288260.99824
1570288261.01387
1570288261.02949
1570288261.04512
1570288261.06075
1570288261.07637
1570288261.092
1570288261.10762
1570288261.12325
1570288261.13887
1570288261.1545
1570288261.17013
1570288261.18575
1570288261.20138
1570288261.217
1570288261.23263
1570288261.24825
1570288261.26388
1570288261.27951
1570288261.29513
1570288261.31076
1570288261.32638
1570288261.34201
1570288261.35763
1570288261.37326
1570288261.38889
1570288261.40451
1570288261.42014
1570288261.43576
1570288261.45139
1570288261.46701
1570288261.48264
1570288261.49827
1570288261.51389
1570288261.52952
1570288261.54514
1570288261.56077
1570288261.57639
1570288261.59202
1570288261.60765
1570288261.62327
1570288261.6389
1570288261.65452
1570288261.67015
1570288261.68577
1570288261.7014
1570288261.71703
1570288261.73265
1570288261.74828
1570288261.7639
1570288261.77953
1570288261.79515
1570288261.81078
1570288261.82641
1570288261.84203
1570288261.85766
1570288261.87328
1570288261.88891
1570288261.90453
1570288261.92016
1570288261.93579
1570288261.95141
1570288261.96704
1570288261.98266
1570288261.99829
1570288262.01391
1570288262.02954
1570288262.04517
1570288262.06079
1570288262.07642
1570288262.09204
1570288262.10767
1570288262.12329
1570288262.13892
1570288262.15455
1570288262.17017
1570288262.1858
1570288262.20142
1570288262.21705
1570288262.23267
1570288262.2483
1570288262.26393
1570288262.27955
1570288262.29518
1570288262.3108
1570288262.32643
1570288262.34205
1570288262.35768
1570288262.37331
1570288262.38893
1570288262.40456
1570288262.42018
1570288262.43581
1570288262.45143
1570288262.46706
1570288262.48269
1570288262.49831
1570288262.51394
1570288262.52956
1570288262.54519
1570288262.56081
1570288262.57644
1570288262.59207
1570288262.60769
1570288262.62332
1570288262.63894
1570288262.65457
1570288262.67019
1570288262.68582
1570288262.70145
1570288262.71707
1570288262.7327
1570288262.74832
1570288262.76395
1570288262.77957
1570288262.7952
1570288262.81083
1570288262.82645
1570288262.84208
1570288262.8577
1570288262.87333
1570288262.88896
1570288262.90458
1570288262.92021
1570288262.93583
1570288262.95146
1570288262.96708
1570288262.98271
1570288262.99834
1570288263.01396
1570288263.02959
1570288263.04521
1570288263.06084
1570288263.07646
1570288263.09209
1570288263.10772
1570288263.12334
1570288263.13897
1570288263.15459
1570288263.17022
1570288263.18584
1570288263.20147
1570288263.2171
1570288263.23272
1570288263.24835
1570288263.26397
1570288263.2796
1570288263.29522
1570288263.31085
1570288263.32648
1570288263.3421
1570288263.35773
1570288263.37335
1570288263.38898
1570288263.4046
1570288263.42023
1570288263.43586
1570288263.45148
1570288263.46711
1570288263.48273
1570288263.49836
1570288263.51398
1570288263.52961
1570288263.54524
1570288263.56086
1570288263.57649
1570288263.59211
1570288263.60774
1570288263.62336
1570288263.63899
1570288263.65462
1570288263.67024
1570288263.68587
1570288263.70149
1570288263.71712
1570288263.73274
1570288263.74837
1570288263.764
1570288263.77962
1570288263.79525
1570288263.81087
1570288263.8265
1570288263.84212
1570288263.85775
1570288263.87338
1570288263.889
1570288263.90463
1570288263.92025
1570288263.93588
1570288263.9515
1570288263.96713
1570288263.98276
1570288263.99838
1570288264.01401
1570288264.02963
1570288264.04526
1570288264.06088
1570288264.07651
1570288264.09214
1570288264.10776
1570288264.12339
1570288264.13901
1570288264.15464
1570288264.17026
1570288264.18589
1570288264.20152
1570288264.21714
1570288264.23277
1570288264.24839
1570288264.26402
1570288264.27964
1570288264.29527
1570288264.3109
1570288264.32652
1570288264.34215
1570288264.35777
1570288264.3734
1570288264.38902
1570288264.40465
1570288264.42028
1570288264.4359
1570288264.45153
1570288264.46715
1570288264.48278
1570288264.4984
1570288264.51403
1570288264.52966
1570288264.54528
1570288264.56091
1570288264.57653
1570288264.59216
1570288264.60778
1570288264.62341
1570288264.63904
1570288264.65466
1570288264.67029
1570288264.68591
1570288264.70154
1570288264.71716
1570288264.73279
1570288264.74842
1570288264.76404
1570288264.77967
1570288264.79529
1570288264.81092
1570288264.82654
1570288264.84217
1570288264.8578
1570288264.87342
1570288264.88905
1570288264.90467
1570288264.9203
1570288264.93592
1570288264.95155
1570288264.96718
1570288264.9828
1570288264.99843
1570288265.01405
1570288265.02968
1570288265.0453
1570288265.06093
1570288265.07656
1570288265.09218
1570288265.10781
1570288265.12343
1570288265.13906
1570288265.15469
1570288265.17031
1570288265.18594
1570288265.20156
1570288265.21719
1570288265.23281
1570288265.24844
1570288265.26407
1570288265.27969
1570288265.29532
1570288265.31094
1570288265.32657
1570288265.34219
1570288265.35782
1570288265.37345
1570288265.38907
1570288265.4047
1570288265.42032
1570288265.43595
1570288265.45157
1570288265.4672
1570288265.48283
1570288265.49845
1570288265.51408
1570288265.5297
1570288265.54533
1570288265.56095
1570288265.57658
1570288265.59221
1570288265.60783
1570288265.62346
1570288265.63908
1570288265.65471
1570288265.67033
1570288265.68596
1570288265.70159
1570288265.71721
1570288265.73284
1570288265.74846
1570288265.76409
1570288265.77971
1570288265.79534
1570288265.81097
1570288265.82659
1570288265.84222
1570288265.85784
1570288265.87347
1570288265.88909
1570288265.90472
1570288265.92035
1570288265.93597
1570288265.9516
1570288265.96722
1570288265.98285
1570288265.99847
1570288266.0141
1570288266.02973
1570288266.04535
1570288266.06098
1570288266.0766
1570288266.09223
1570288266.10785
1570288266.12348
1570288266.13911
1570288266.15473
1570288266.17036
1570288266.18598
1570288266.20161
1570288266.21723
1570288266.23286
1570288266.24849
1570288266.26411
1570288266.27974
1570288266.29536
1570288266.31099
1570288266.32661
1570288266.34224
1570288266.35787
1570288266.37349
1570288266.38912
1570288266.40474
1570288266.42037
1570288266.43599
1570288266.45162
1570288266.46725
1570288266.48287
1570288266.4985
1570288266.51412
1570288266.52975
1570288266.54537
1570288266.561
1570288266.57663
1570288266.59225
1570288266.60788
1570288266.6235
1570288266.63913
1570288266.65475
1570288266.67038
1570288266.68601
1570288266.70163
1570288266.71726
1570288266.73288
1570288266.74851
1570288266.76413
1570288266.77976
1570288266.79539
1570288266.81101
1570288266.82664
1570288266.84226
1570288266.85789
1570288266.87351
1570288266.88914
1570288266.90477
1570288266.92039
1570288266.93602
1570288266.95164
1570288266.96727
1570288266.98289
1570288266.99852
1570288267.01415
1570288267.02977
1570288267.0454
1570288267.06102
1570288267.07665
1570288267.09227
1570288267.1079
1570288267.12353
1570288267.13915
1570288267.15478
1570288267.1704
1570288267.18603
1570288267.20165
1570288267.21728
1570288267.23291
1570288267.24853
1570288267.26416
1570288267.27978
1570288267.29541
1570288267.31103
1570288267.32666
1570288267.34229
1570288267.35791
1570288267.37354
1570288267.38916
1570288267.40479
1570288267.42041
1570288267.43604
1570288267.45167
1570288267.46729
1570288267.48292
1570288267.49854
1570288267.51417
1570288267.52979
1570288267.54542
1570288267.56105
1570288267.57667
1570288267.5923
1570288267.60792
1570288267.62355
1570288267.63917
1570288267.6548
1570288267.67043
1570288267.68605
1570288267.70168
1570288267.7173
1570288267.73293
1570288267.74856
1570288267.76418
1570288267.77981
1570288267.79543
1570288267.81106
1570288267.82668
1570288267.84231
1570288267.85794
1570288267.87356
1570288267.88919
1570288267.90481
1570288267.92044
1570288267.93606
1570288267.95169
1570288267.96732
1570288267.98294
1570288267.99857
1570288268.01419
1570288268.02982
1570288268.04544
1570288268.06107
1570288268.0767
1570288268.09232
1570288268.10795
1570288268.12357
1570288268.1392
1570288268.15482
1570288268.17045
1570288268.18608
1570288268.2017
1570288268.21733
1570288268.23295
1570288268.24858
1570288268.2642
1570288268.27983
1570288268.29546
1570288268.31108
1570288268.32671
1570288268.34233
1570288268.35796
1570288268.37358
1570288268.38921
1570288268.40484
1570288268.42046
1570288268.43609
1570288268.45171
1570288268.46734
1570288268.48296
1570288268.49859
1570288268.51422
1570288268.52984
1570288268.54547
1570288268.56109
1570288268.57672
1570288268.59234
1570288268.60797
1570288268.6236
1570288268.63922
1570288268.65485
1570288268.67047
1570288268.6861
1570288268.70172
1570288268.71735
1570288268.73298
1570288268.7486
1570288268.76423
1570288268.77985
1570288268.79548
1570288268.8111
1570288268.82673
1570288268.84236
1570288268.85798
1570288268.87361
1570288268.88923
1570288268.90486
1570288268.92048
1570288268.93611
1570288268.95174
1570288268.96736
1570288268.98299
1570288268.99861
1570288269.01424
1570288269.02986
1570288269.04549
1570288269.06112
1570288269.07674
1570288269.09237
1570288269.10799
1570288269.12362
1570288269.13924
1570288269.15487
1570288269.1705
1570288269.18612
1570288269.20175
1570288269.21737
1570288269.233
1570288269.24862
1570288269.26425
1570288269.27988
1570288269.2955
1570288269.31113
1570288269.32675
1570288269.34238
1570288269.358
1570288269.37363
1570288269.38926
1570288269.40488
1570288269.42051
1570288269.43613
1570288269.45176
1570288269.46738
1570288269.48301
1570288269.49864
1570288269.51426
1570288269.52989
1570288269.54551
1570288269.56114
1570288269.57676
1570288269.59239
1570288269.60802
1570288269.62364
1570288269.63927
1570288269.65489
1570288269.67052
1570288269.68614
1570288269.70177
1570288269.7174
1570288269.73302
1570288269.74865
1570288269.76427
1570288269.7799
1570288269.79552
1570288269.81115
1570288269.82678
1570288269.8424
1570288269.85803
1570288269.87365
1570288269.88928
1570288269.9049
1570288269.92053
1570288269.93616
1570288269.95178
1570288269.96741
1570288269.98303
1570288269.99866
1570288270.01429
1570288270.02991
1570288270.04554
1570288270.06116
1570288270.07679
1570288270.09241
1570288270.10804
1570288270.12367
1570288270.13929
1570288270.15492
1570288270.17054
1570288270.18617
1570288270.20179
1570288270.21742
1570288270.23305
1570288270.24867
1570288270.2643
1570288270.27992
1570288270.29555
1570288270.31117
1570288270.3268
1570288270.34243
1570288270.35805
1570288270.37368
1570288270.3893
1570288270.40493
1570288270.42055
1570288270.43618
1570288270.45181
1570288270.46743
1570288270.48306
1570288270.49868
1570288270.51431
1570288270.52993
1570288270.54556
1570288270.56119
1570288270.57681
1570288270.59244
1570288270.60806
1570288270.62369
1570288270.63931
1570288270.65494
1570288270.67057
1570288270.68619
1570288270.70182
1570288270.71744
1570288270.73307
1570288270.74869
1570288270.76432
1570288270.77995
1570288270.79557
1570288270.8112
1570288270.82682
1570288270.84245
1570288270.85807
1570288270.8737
1570288270.88933
1570288270.90495
1570288270.92058
1570288270.9362
1570288270.95183
1570288270.96745
1570288270.98308
1570288270.99871
1570288271.01433
1570288271.02996
1570288271.04558
1570288271.06121
1570288271.07683
1570288271.09246
1570288271.10809
1570288271.12371
1570288271.13934
1570288271.15496
1570288271.17059
1570288271.18621
1570288271.20184
1570288271.21747
1570288271.23309
1570288271.24872
1570288271.26434
1570288271.27997
1570288271.29559
1570288271.31122
1570288271.32685
1570288271.34247
1570288271.3581
1570288271.37372
1570288271.38935
1570288271.40497
1570288271.4206
1570288271.43623
1570288271.45185
1570288271.46748
1570288271.4831
1570288271.49873
1570288271.51435
1570288271.52998
1570288271.54561
1570288271.56123
1570288271.57686
1570288271.59248
1570288271.60811
1570288271.62373
1570288271.63936
1570288271.65499
1570288271.67061
1570288271.68624
1570288271.70186
1570288271.71749
1570288271.73311
1570288271.74874
1570288271.76437
1570288271.77999
1570288271.79562
1570288271.81124
1570288271.82687
1570288271.84249
1570288271.85812
1570288271.87375
1570288271.88937
1570288271.905
1570288271.92062
1570288271.93625
1570288271.95187
1570288271.9675
1570288271.98313
1570288271.99875
1570288272.01438
1570288272.03
1570288272.04563
1570288272.06125
1570288272.07688
1570288272.09251
1570288272.10813
1570288272.12376
1570288272.13938
1570288272.15501
1570288272.17063
1570288272.18626
1570288272.20189
1570288272.21751
1570288272.23314
1570288272.24876
1570288272.26439
1570288272.28001
1570288272.29564
1570288272.31127
1570288272.32689
1570288272.34252
1570288272.35814
1570288272.37377
1570288272.3894
1570288272.40502
1570288272.42065
1570288272.43627
1570288272.4519
1570288272.46752
1570288272.48315
1570288272.49878
1570288272.5144
1570288272.53003
1570288272.54565
1570288272.56128
1570288272.5769
1570288272.59253
1570288272.60816
1570288272.62378
1570288272.63941
1570288272.65503
1570288272.67066
1570288272.68628
1570288272.70191
1570288272.71754
1570288272.73316
1570288272.74879
1570288272.76441
1570288272.78004
1570288272.79566
1570288272.81129
1570288272.82692
1570288272.84254
1570288272.85817
1570288272.87379
1570288272.88942
1570288272.90504
1570288272.92067
1570288272.9363
1570288272.95192
1570288272.96755
1570288272.98317
1570288272.9988
1570288273.01442
1570288273.03005
1570288273.04568
1570288273.0613
1570288273.07693
1570288273.09255
1570288273.10818
1570288273.1238
1570288273.13943
1570288273.15506
1570288273.17068
1570288273.18631
1570288273.20193
1570288273.21756
1570288273.23318
1570288273.24881
1570288273.26444
1570288273.28006
1570288273.29569
1570288273.31131
1570288273.32694
1570288273.34256
1570288273.35819
1570288273.37382
1570288273.38944
1570288273.40507
1570288273.42069
1570288273.43632
1570288273.45194
1570288273.46757
1570288273.4832
1570288273.49882
1570288273.51445
1570288273.53007
1570288273.5457
1570288273.56132
1570288273.57695
1570288273.59258
1570288273.6082
1570288273.62383
1570288273.63945
1570288273.65508
1570288273.6707
1570288273.68633
1570288273.70196
1570288273.71758
1570288273.73321
1570288273.74883
1570288273.76446
1570288273.78008
1570288273.79571
1570288273.81134
1570288273.82696
1570288273.84259
1570288273.85821
1570288273.87384
1570288273.88946
1570288273.90509
1570288273.92072
1570288273.93634
1570288273.95197
1570288273.96759
1570288273.98322
1570288273.99884
1570288274.01447
1570288274.0301
1570288274.04572
1570288274.06135
1570288274.07697
1570288274.0926
1570288274.10822
1570288274.12385
1570288274.13948
1570288274.1551
1570288274.17073
1570288274.18635
1570288274.20198
1570288274.2176
1570288274.23323
1570288274.24886
1570288274.26448
1570288274.28011
1570288274.29573
1570288274.31136
1570288274.32698
1570288274.34261
1570288274.35824
1570288274.37386
1570288274.38949
1570288274.40511
1570288274.42074
1570288274.43636
1570288274.45199
1570288274.46762
1570288274.48324
1570288274.49887
1570288274.51449
1570288274.53012
1570288274.54574
1570288274.56137
1570288274.577
1570288274.59262
1570288274.60825
1570288274.62387
1570288274.6395
1570288274.65512
1570288274.67075
1570288274.68638
1570288274.702
1570288274.71763
1570288274.73325
1570288274.74888
1570288274.7645
1570288274.78013
1570288274.79576
1570288274.81138
1570288274.82701
1570288274.84263
1570288274.85826
1570288274.87389
1570288274.88951
1570288274.90514
1570288274.92076
1570288274.93639
1570288274.95201
1570288274.96764
1570288274.98327
1570288274.99889
1570288275.01452
1570288275.03014
1570288275.04577
1570288275.06139
1570288275.07702
1570288275.09265
1570288275.10827
1570288275.1239
1570288275.13952
1570288275.15515
1570288275.17077
1570288275.1864
1570288275.20203
1570288275.21765
1570288275.23328
1570288275.2489
1570288275.26453
1570288275.28015
1570288275.29578
1570288275.31141
1570288275.32703
1570288275.34266
1570288275.35828
1570288275.37391
1570288275.38953
1570288275.40516
1570288275.42079
1570288275.43641
1570288275.45204
1570288275.46766
1570288275.48329
1570288275.49891
1570288275.51454
1570288275.53017
1570288275.54579
1570288275.56142
1570288275.57704
1570288275.59267
1570288275.60829
1570288275.62392
1570288275.63955
1570288275.65517
1570288275.6708
1570288275.68642
1570288275.70205
1570288275.71767
1570288275.7333
1570288275.74893
1570288275.76455
1570288275.78018
1570288275.7958
1570288275.81143
1570288275.82705
1570288275.84268
1570288275.85831
1570288275.87393
1570288275.88956
1570288275.90518
1570288275.92081
1570288275.93643
1570288275.95206
1570288275.96769
1570288275.98331
1570288275.99894
1570288276.01456
1570288276.03019
1570288276.04581
1570288276.06144
1570288276.07707
1570288276.09269
1570288276.10832
1570288276.12394
1570288276.13957
1570288276.15519
1570288276.17082
1570288276.18645
1570288276.20207
1570288276.2177
1570288276.23332
1570288276.24895
1570288276.26457
1570288276.2802
1570288276.29583
1570288276.31145
1570288276.32708
1570288276.3427
1570288276.35833
1570288276.37395
1570288276.38958
1570288276.40521
1570288276.42083
1570288276.43646
1570288276.45208
1570288276.46771
1570288276.48333
1570288276.49896
1570288276.51459
1570288276.53021
1570288276.54584
1570288276.56146
1570288276.57709
1570288276.59271
1570288276.60834
1570288276.62397
1570288276.63959
1570288276.65522
1570288276.67084
1570288276.68647
1570288276.70209
1570288276.71772
1570288276.73335
1570288276.74897
1570288276.7646
1570288276.78022
1570288276.79585
1570288276.81147
1570288276.8271
1570288276.84273
1570288276.85835
1570288276.87398
1570288276.8896
1570288276.90523
1570288276.92085
1570288276.93648
1570288276.95211
1570288276.96773
1570288276.98336
1570288276.99898
1570288277.01461
1570288277.03024
1570288277.04586
1570288277.06149
1570288277.07711
1570288277.09274
1570288277.10836
1570288277.12399
1570288277.13962
1570288277.15524
1570288277.17087
1570288277.18649
1570288277.20212
1570288277.21774
1570288277.23337
1570288277.249
1570288277.26462
1570288277.28025
1570288277.29587
1570288277.3115
1570288277.32712
1570288277.34275
1570288277.35838
1570288277.374
1570288277.38963
1570288277.40525
1570288277.42088
1570288277.4365
1570288277.45213
1570288277.46776
1570288277.48338
1570288277.49901
1570288277.51463
1570288277.53026
1570288277.54588
1570288277.56151
1570288277.57714
1570288277.59276
1570288277.60839
1570288277.62401
1570288277.63964
1570288277.65526
1570288277.67089
1570288277.68652
1570288277.70214
1570288277.71777
1570288277.73339
1570288277.74902
1570288277.76464
1570288277.78027
1570288277.7959
1570288277.81152
1570288277.82715
1570288277.84277
1570288277.8584
1570288277.87402
1570288277.88965
1570288277.90528
1570288277.9209
1570288277.93653
1570288277.95215
1570288277.96778
1570288277.9834
1570288277.99903
1570288278.01466
1570288278.03028
1570288278.04591
1570288278.06153
1570288278.07716
1570288278.09278
1570288278.10841
1570288278.12404
1570288278.13966
1570288278.15529
1570288278.17091
1570288278.18654
1570288278.20216
1570288278.21779
1570288278.23342
1570288278.24904
1570288278.26467
1570288278.28029
1570288278.29592
1570288278.31154
1570288278.32717
1570288278.3428
1570288278.35842
1570288278.37405
1570288278.38967
1570288278.4053
1570288278.42092
1570288278.43655
1570288278.45218
1570288278.4678
1570288278.48343
1570288278.49905
1570288278.51468
1570288278.5303
1570288278.54593
1570288278.56156
1570288278.57718
1570288278.59281
1570288278.60843
1570288278.62406
1570288278.63968
1570288278.65531
1570288278.67094
1570288278.68656
1570288278.70219
1570288278.71781
1570288278.73344
1570288278.74906
1570288278.76469
1570288278.78032
1570288278.79594
1570288278.81157
1570288278.82719
1570288278.84282
1570288278.85844
1570288278.87407
1570288278.8897
1570288278.90532
1570288278.92095
1570288278.93657
1570288278.9522
1570288278.96782
1570288278.98345
1570288278.99908
1570288279.0147
1570288279.03033
1570288279.04595
1570288279.06158
1570288279.0772
1570288279.09283
1570288279.10846
1570288279.12408
1570288279.13971
1570288279.15533
1570288279.17096
1570288279.18658
1570288279.20221
1570288279.21784
1570288279.23346
1570288279.24909
1570288279.26471
1570288279.28034
1570288279.29596
1570288279.31159
1570288279.32722
1570288279.34284
1570288279.35847
1570288279.37409
1570288279.38972
1570288279.40534
1570288279.42097
1570288279.4366
1570288279.45222
1570288279.46785
1570288279.48347
1570288279.4991
1570288279.51472
1570288279.53035
1570288279.54598
1570288279.5616
1570288279.57723
1570288279.59285
1570288279.60848
1570288279.6241
1570288279.63973
1570288279.65536
1570288279.67098
1570288279.68661
1570288279.70223
1570288279.71786
1570288279.73349
1570288279.74911
1570288279.76474
1570288279.78036
1570288279.79599
1570288279.81161
1570288279.82724
1570288279.84287
1570288279.85849
1570288279.87412
1570288279.88974
1570288279.90537
1570288279.92099
1570288279.93662
1570288279.95225
1570288279.96787
1570288279.9835
1570288279.99912
1570288280.01475
1570288280.03037
1570288280.046
1570288280.06163
1570288280.07725
1570288280.09288
1570288280.1085
1570288280.12413
1570288280.13975
1570288280.15538
1570288280.17101
1570288280.18663
1570288280.20226
1570288280.21788
1570288280.23351
1570288280.24913
1570288280.26476
1570288280.28039
1570288280.29601
1570288280.31164
1570288280.32726
1570288280.34289
1570288280.35851
1570288280.37414
1570288280.38977
1570288280.40539
1570288280.42102
1570288280.43664
1570288280.45227
1570288280.46789
1570288280.48352
1570288280.49915
1570288280.51477
1570288280.5304
1570288280.54602
1570288280.56165
1570288280.57727
1570288280.5929
1570288280.60853
1570288280.62415
1570288280.63978
1570288280.6554
1570288280.67103
1570288280.68665
1570288280.70228
1570288280.71791
1570288280.73353
1570288280.74916
1570288280.76478
1570288280.78041
1570288280.79603
1570288280.81166
1570288280.82729
1570288280.84291
1570288280.85854
1570288280.87416
1570288280.88979
1570288280.90541
1570288280.92104
1570288280.93667
1570288280.95229
1570288280.96792
1570288280.98354
1570288280.99917
1570288281.01479
1570288281.03042
1570288281.04605
1570288281.06167
1570288281.0773
1570288281.09292
1570288281.10855
1570288281.12417
1570288281.1398
1570288281.15543
1570288281.17105
1570288281.18668
1570288281.2023
1570288281.21793
1570288281.23355
1570288281.24918
1570288281.26481
1570288281.28043
1570288281.29606
1570288281.31168
1570288281.32731
1570288281.34293
1570288281.35856
1570288281.37419
1570288281.38981
1570288281.40544
1570288281.42106
1570288281.43669
1570288281.45231
1570288281.46794
1570288281.48357
1570288281.49919
1570288281.51482
1570288281.53044
1570288281.54607
1570288281.56169
1570288281.57732
1570288281.59295
1570288281.60857
1570288281.6242
1570288281.63982
1570288281.65545
1570288281.67107
1570288281.6867
1570288281.70233
1570288281.71795
1570288281.73358
1570288281.7492
1570288281.76483
1570288281.78045
1570288281.79608
1570288281.81171
1570288281.82733
1570288281.84296
1570288281.85858
1570288281.87421
1570288281.88983
1570288281.90546
1570288281.92109
1570288281.93671
1570288281.95234
1570288281.96796
1570288281.98359
1570288281.99922
1570288282.01484
1570288282.03047
1570288282.04609
1570288282.06172
1570288282.07734
1570288282.09297
1570288282.1086
1570288282.12422
1570288282.13985
1570288282.15547
1570288282.1711
1570288282.18672
1570288282.20235
1570288282.21798
1570288282.2336
1570288282.24923
1570288282.26485
1570288282.28048
1570288282.2961
1570288282.31173
1570288282.32736
1570288282.34298
1570288282.35861
1570288282.37423
1570288282.38986
1570288282.40548
1570288282.42111
1570288282.43674
1570288282.45236
1570288282.46799
1570288282.48361
1570288282.49924
1570288282.51486
1570288282.53049
1570288282.54612
1570288282.56174
1570288282.57737
1570288282.59299
1570288282.60862
1570288282.62424
1570288282.63987
1570288282.6555
1570288282.67112
1570288282.68675
1570288282.70237
1570288282.718
1570288282.73362
1570288282.74925
1570288282.76488
1570288282.7805
1570288282.79613
1570288282.81175
1570288282.82738
1570288282.843
1570288282.85863
1570288282.87426
1570288282.88988
1570288282.90551
1570288282.92113
1570288282.93676
1570288282.95238
1570288282.96801
1570288282.98364
1570288282.99926
1570288283.01489
1570288283.03051
1570288283.04614
1570288283.06176
1570288283.07739
1570288283.09302
1570288283.10864
1570288283.12427
1570288283.13989
1570288283.15552
1570288283.17114
1570288283.18677
1570288283.2024
1570288283.21802
1570288283.23365
1570288283.24927
1570288283.2649
1570288283.28052
1570288283.29615
1570288283.31178
1570288283.3274
1570288283.34303
1570288283.35865
1570288283.37428
1570288283.3899
1570288283.40553
1570288283.42116
1570288283.43678
1570288283.45241
1570288283.46803
1570288283.48366
1570288283.49928
1570288283.51491
1570288283.53054
1570288283.54616
1570288283.56179
1570288283.57741
1570288283.59304
1570288283.60866
1570288283.62429
1570288283.63992
1570288283.65554
1570288283.67117
1570288283.68679
1570288283.70242
1570288283.71804
1570288283.73367
1570288283.7493
1570288283.76492
1570288283.78055
1570288283.79617
1570288283.8118
1570288283.82742
1570288283.84305
1570288283.85868
1570288283.8743
1570288283.88993
1570288283.90555
1570288283.92118
1570288283.9368
1570288283.95243
1570288283.96806
1570288283.98368
1570288283.99931
1570288284.01493
1570288284.03056
1570288284.04618
1570288284.06181
1570288284.07744
1570288284.09306
1570288284.10869
1570288284.12431
1570288284.13994
1570288284.15557
1570288284.17119
1570288284.18682
1570288284.20244
1570288284.21807
1570288284.23369
1570288284.24932
1570288284.26495
1570288284.28057
1570288284.2962
1570288284.31182
1570288284.32745
1570288284.34307
1570288284.3587
1570288284.37433
1570288284.38995
1570288284.40558
1570288284.4212
1570288284.43683
1570288284.45245
1570288284.46808
1570288284.48371
1570288284.49933
1570288284.51496
1570288284.53058
1570288284.54621
1570288284.56183
1570288284.57746
1570288284.59309
1570288284.60871
1570288284.62434
1570288284.63996
1570288284.65559
1570288284.67121
1570288284.68684
1570288284.70247
1570288284.71809
1570288284.73372
1570288284.74934
1570288284.76497
1570288284.78059
1570288284.79622
1570288284.81185
1570288284.82747
1570288284.8431
1570288284.85872
1570288284.87435
1570288284.88997
1570288284.9056
1570288284.92123
1570288284.93685
1570288284.95248
1570288284.9681
1570288284.98373
1570288284.99935
1570288285.01498
1570288285.03061
1570288285.04623
1570288285.06186
1570288285.07748
1570288285.09311
1570288285.10873
1570288285.12436
1570288285.13999
1570288285.15561
1570288285.17124
1570288285.18686
1570288285.20249
1570288285.21811
1570288285.23374
1570288285.24937
1570288285.26499
1570288285.28062
1570288285.29624
1570288285.31187
1570288285.32749
1570288285.34312
1570288285.35875
1570288285.37437
1570288285.39
1570288285.40562
1570288285.42125
1570288285.43687
1570288285.4525
1570288285.46813
1570288285.48375
1570288285.49938
1570288285.515
1570288285.53063
1570288285.54625
1570288285.56188
1570288285.57751
1570288285.59313
1570288285.60876
1570288285.62438
1570288285.64001
1570288285.65563
1570288285.67126
1570288285.68689
1570288285.70251
1570288285.71814
1570288285.73376
1570288285.74939
1570288285.76501
1570288285.78064
1570288285.79627
1570288285.81189
1570288285.82752
1570288285.84314
1570288285.85877
1570288285.87439
1570288285.89002
1570288285.90565
1570288285.92127
1570288285.9369
1570288285.95252
1570288285.96815
1570288285.98377
1570288285.9994
1570288286.01503
1570288286.03065
1570288286.04628
1570288286.0619
1570288286.07753
1570288286.09315
1570288286.10878
1570288286.12441
1570288286.14003
1570288286.15566
1570288286.17128
1570288286.18691
1570288286.20253
1570288286.21816
1570288286.23379
1570288286.24941
1570288286.26504
1570288286.28066
1570288286.29629
1570288286.31191
1570288286.32754
1570288286.34317
1570288286.35879
1570288286.37442
1570288286.39004
1570288286.40567
1570288286.42129
1570288286.43692
1570288286.45255
1570288286.46817
1570288286.4838
1570288286.49942
1570288286.51505
1570288286.53067
1570288286.5463
1570288286.56193
1570288286.57755
1570288286.59318
1570288286.6088
1570288286.62443
1570288286.64005
1570288286.65568
1570288286.67131
1570288286.68693
1570288286.70256
1570288286.71818
1570288286.73381
1570288286.74943
1570288286.76506
1570288286.78069
1570288286.79631
1570288286.81194
1570288286.82756
1570288286.84319
1570288286.85882
1570288286.87444
1570288286.89007
1570288286.90569
1570288286.92132
1570288286.93694
1570288286.95257
1570288286.9682
1570288286.98382
1570288286.99945
1570288287.01507
1570288287.0307
1570288287.04632
1570288287.06195
1570288287.07758
1570288287.0932
1570288287.10883
1570288287.12445
1570288287.14008
1570288287.1557
1570288287.17133
1570288287.18696
1570288287.20258
1570288287.21821
1570288287.23383
1570288287.24946
1570288287.26508
1570288287.28071
1570288287.29634
1570288287.31196
1570288287.32759
1570288287.34321
1570288287.35884
1570288287.37446
1570288287.39009
1570288287.40572
1570288287.42134
1570288287.43697
1570288287.45259
1570288287.46822
1570288287.48384
1570288287.49947
1570288287.5151
1570288287.53072
1570288287.54635
1570288287.56197
1570288287.5776
1570288287.59322
1570288287.60885
1570288287.62448
1570288287.6401
1570288287.65573
1570288287.67135
1570288287.68698
1570288287.7026
1570288287.71823
1570288287.73386
1570288287.74948
1570288287.76511
1570288287.78073
1570288287.79636
1570288287.81198
1570288287.82761
1570288287.84324
1570288287.85886
1570288287.87449
1570288287.89011
1570288287.90574
1570288287.92136
1570288287.93699
1570288287.95262
1570288287.96824
1570288287.98387
1570288287.99949
1570288288.01512
1570288288.03074
1570288288.04637
1570288288.062
1570288288.07762
1570288288.09325
1570288288.10887
1570288288.1245
1570288288.14012
1570288288.15575
1570288288.17138
1570288288.187
1570288288.20263
1570288288.21825
1570288288.23388
1570288288.2495
1570288288.26513
1570288288.28076
1570288288.29638
1570288288.31201
1570288288.32763
1570288288.34326
1570288288.35888
1570288288.37451
1570288288.39014
1570288288.40576
1570288288.42139
1570288288.43701
1570288288.45264
1570288288.46826
1570288288.48389
1570288288.49952
1570288288.51514
1570288288.53077
1570288288.54639
1570288288.56202
1570288288.57764
1570288288.59327
1570288288.6089
1570288288.62452
1570288288.64015
1570288288.65577
1570288288.6714
1570288288.68702
1570288288.70265
1570288288.71828
1570288288.7339
1570288288.74953
1570288288.76515
1570288288.78078
1570288288.7964
1570288288.81203
1570288288.82766
1570288288.84328
1570288288.85891
1570288288.87453
1570288288.89016
1570288288.90578
1570288288.92141
1570288288.93704
1570288288.95266
1570288288.96829
1570288288.98391
1570288288.99954
1570288289.01517
1570288289.03079
1570288289.04642
1570288289.06204
1570288289.07767
1570288289.09329
1570288289.10892
1570288289.12455
1570288289.14017
1570288289.1558
1570288289.17142
1570288289.18705
1570288289.20267
1570288289.2183
1570288289.23393
1570288289.24955
1570288289.26518
1570288289.2808
1570288289.29643
1570288289.31205
1570288289.32768
1570288289.34331
1570288289.35893
1570288289.37456
1570288289.39018
1570288289.40581
1570288289.42143
1570288289.43706
1570288289.45269
1570288289.46831
1570288289.48394
1570288289.49956
1570288289.51519
1570288289.53081
1570288289.54644
1570288289.56207
1570288289.57769
1570288289.59332
1570288289.60894
1570288289.62457
1570288289.64019
1570288289.65582
1570288289.67145
1570288289.68707
1570288289.7027
1570288289.71832
1570288289.73395
1570288289.74957
1570288289.7652
1570288289.78083
1570288289.79645
1570288289.81208
1570288289.8277
1570288289.84333
1570288289.85895
1570288289.87458
1570288289.89021
1570288289.90583
1570288289.92146
1570288289.93708
1570288289.95271
1570288289.96833
1570288289.98396
1570288289.99959
1570288290.01521
1570288290.03084
1570288290.04646
1570288290.06209
1570288290.07771
1570288290.09334
1570288290.10897
1570288290.12459
1570288290.14022
1570288290.15584
1570288290.17147
1570288290.18709
1570288290.20272
1570288290.21835
1570288290.23397
1570288290.2496
1570288290.26522
1570288290.28085
1570288290.29647
1570288290.3121
1570288290.32773
1570288290.34335
1570288290.35898
1570288290.3746
1570288290.39023
1570288290.40585
1570288290.42148
1570288290.43711
1570288290.45273
1570288290.46836
1570288290.48398
1570288290.49961
1570288290.51523
1570288290.53086
1570288290.54649
1570288290.56211
1570288290.57774
1570288290.59336
1570288290.60899
1570288290.62461
1570288290.64024
1570288290.65587
1570288290.67149
1570288290.68712
1570288290.70274
1570288290.71837
1570288290.73399
1570288290.74962
1570288290.76525
1570288290.78087
1570288290.7965
1570288290.81212
1570288290.82775
1570288290.84337
1570288290.859
1570288290.87463
1570288290.89025
1570288290.90588
1570288290.9215
1570288290.93713
1570288290.95275
1570288290.96838
1570288290.98401
1570288290.99963
1570288291.01526
1570288291.03088
1570288291.04651
1570288291.06213
1570288291.07776
1570288291.09339
1570288291.10901
1570288291.12464
1570288291.14026
1570288291.15589
1570288291.17151
1570288291.18714
1570288291.20277
1570288291.21839
1570288291.23402
1570288291.24964
1570288291.26527
1570288291.28089
1570288291.29652
1570288291.31215
1570288291.32777
1570288291.3434
1570288291.35902
1570288291.37465
1570288291.39028
1570288291.4059
1570288291.42153
1570288291.43715
1570288291.45278
1570288291.4684
1570288291.48403
1570288291.49966
1570288291.51528
1570288291.53091
1570288291.54653
1570288291.56216
1570288291.57778
1570288291.59341
1570288291.60904
1570288291.62466
1570288291.64029
1570288291.65591
1570288291.67154
1570288291.68716
1570288291.70279
1570288291.71842
1570288291.73404
1570288291.74967
1570288291.76529
1570288291.78092
1570288291.79654
1570288291.81217
1570288291.8278
1570288291.84342
1570288291.85905
1570288291.87467
1570288291.8903
1570288291.90592
1570288291.92155
1570288291.93718
1570288291.9528
1570288291.96843
1570288291.98405
1570288291.99968
1570288292.0153
1570288292.03093
1570288292.04656
1570288292.06218
1570288292.07781
1570288292.09343
1570288292.10906
1570288292.12468
1570288292.14031
1570288292.15594
1570288292.17156
1570288292.18719
1570288292.20281
1570288292.21844
1570288292.23406
1570288292.24969
1570288292.26532
1570288292.28094
1570288292.29657
1570288292.31219
1570288292.32782
1570288292.34344
1570288292.35907
1570288292.3747
1570288292.39032
1570288292.40595
1570288292.42157
1570288292.4372
1570288292.45282
1570288292.46845
1570288292.48408
1570288292.4997
1570288292.51533
1570288292.53095
1570288292.54658
1570288292.5622
1570288292.57783
1570288292.59346
1570288292.60908
1570288292.62471
1570288292.64033
1570288292.65596
1570288292.67158
1570288292.68721
1570288292.70284
1570288292.71846
1570288292.73409
1570288292.74971
1570288292.76534
1570288292.78096
1570288292.79659
1570288292.81222
1570288292.82784
1570288292.84347
1570288292.85909
1570288292.87472
1570288292.89034
1570288292.90597
1570288292.9216
1570288292.93722
1570288292.95285
1570288292.96847
1570288292.9841
1570288292.99972
1570288293.01535
1570288293.03098
1570288293.0466
1570288293.06223
1570288293.07785
1570288293.09348
1570288293.1091
1570288293.12473
1570288293.14036
1570288293.15598
1570288293.17161
1570288293.18723
1570288293.20286
1570288293.21848
1570288293.23411
1570288293.24974
1570288293.26536
1570288293.28099
1570288293.29661
1570288293.31224
1570288293.32786
1570288293.34349
1570288293.35912
1570288293.37474
1570288293.39037
1570288293.40599
1570288293.42162
1570288293.43724
1570288293.45287
1570288293.4685
1570288293.48412
1570288293.49975
1570288293.51537
1570288293.531
1570288293.54662
1570288293.56225
1570288293.57788
1570288293.5935
1570288293.60913
1570288293.62475
1570288293.64038
1570288293.656
1570288293.67163
1570288293.68726
1570288293.70288
1570288293.71851
1570288293.73413
1570288293.74976
1570288293.76538
1570288293.78101
1570288293.79664
1570288293.81226
1570288293.82789
1570288293.84351
1570288293.85914
1570288293.87477
1570288293.89039
1570288293.90602
1570288293.92164
1570288293.93727
1570288293.95289
1570288293.96852
1570288293.98415
1570288293.99977
1570288294.0154
1570288294.03102
1570288294.04665
1570288294.06227
1570288294.0779
1570288294.09353
1570288294.10915
1570288294.12478
1570288294.1404
1570288294.15603
1570288294.17165
1570288294.18728
1570288294.20291
1570288294.21853
1570288294.23416
1570288294.24978
1570288294.26541
1570288294.28103
1570288294.29666
1570288294.31229
1570288294.32791
1570288294.34354
1570288294.35916
1570288294.37479
1570288294.39041
1570288294.40604
1570288294.42167
1570288294.43729
1570288294.45292
1570288294.46854
1570288294.48417
1570288294.49979
1570288294.51542
1570288294.53105
1570288294.54667
1570288294.5623
1570288294.57792
1570288294.59355
1570288294.60917
1570288294.6248
1570288294.64043
1570288294.65605
1570288294.67168
1570288294.6873
1570288294.70293
1570288294.71855
1570288294.73418
1570288294.74981
1570288294.76543
1570288294.78106
1570288294.79668
1570288294.81231
1570288294.82793
1570288294.84356
1570288294.85919
1570288294.87481
1570288294.89044
1570288294.90606
1570288294.92169
1570288294.93731
1570288294.95294
1570288294.96857
1570288294.98419
1570288294.99982
1570288295.01544
1570288295.03107
1570288295.04669
1570288295.06232
1570288295.07795
1570288295.09357
1570288295.1092
1570288295.12482
1570288295.14045
1570288295.15607
1570288295.1717
1570288295.18733
1570288295.20295
1570288295.21858
1570288295.2342
1570288295.24983
1570288295.26545
1570288295.28108
1570288295.29671
1570288295.31233
1570288295.32796
1570288295.34358
1570288295.35921
1570288295.37483
1570288295.39046
1570288295.40609
1570288295.42171
1570288295.43734
1570288295.45296
1570288295.46859
1570288295.48421
1570288295.49984
1570288295.51547
1570288295.53109
1570288295.54672
1570288295.56234
1570288295.57797
1570288295.59359
1570288295.60922
1570288295.62485
1570288295.64047
1570288295.6561
1570288295.67172
1570288295.68735
1570288295.70297
1570288295.7186
1570288295.73423
1570288295.74985
1570288295.76548
1570288295.7811
1570288295.79673
1570288295.81235
1570288295.82798
1570288295.84361
1570288295.85923
1570288295.87486
1570288295.89048
1570288295.90611
1570288295.92173
1570288295.93736
1570288295.95299
1570288295.96861
1570288295.98424
1570288295.99986
1570288296.01549
1570288296.03111
1570288296.04674
1570288296.06237
1570288296.07799
1570288296.09362
1570288296.10924
1570288296.12487
1570288296.1405
1570288296.15612
1570288296.17175
1570288296.18737
1570288296.203
1570288296.21862
1570288296.23425
1570288296.24988
1570288296.2655
1570288296.28113
1570288296.29675
1570288296.31238
1570288296.328
1570288296.34363
1570288296.35926
1570288296.37488
1570288296.39051
1570288296.40613
1570288296.42176
1570288296.43738
1570288296.45301
1570288296.46864
1570288296.48426
1570288296.49989
1570288296.51551
1570288296.53114
1570288296.54676
1570288296.56239
1570288296.57802
1570288296.59364
1570288296.60927
1570288296.62489
1570288296.64052
1570288296.65614
1570288296.67177
1570288296.6874
1570288296.70302
1570288296.71865
1570288296.73427
1570288296.7499
1570288296.76552
1570288296.78115
1570288296.79678
1570288296.8124
1570288296.82803
1570288296.84365
1570288296.85928
1570288296.8749
1570288296.89053
1570288296.90616
1570288296.92178
1570288296.93741
1570288296.95303
1570288296.96866
1570288296.98428
1570288296.99991
1570288297.01554
1570288297.03116
1570288297.04679
1570288297.06241
1570288297.07804
1570288297.09366
1570288297.10929
1570288297.12492
1570288297.14054
1570288297.15617
1570288297.17179
1570288297.18742
1570288297.20304
1570288297.21867
1570288297.2343
1570288297.24992
1570288297.26555
1570288297.28117
1570288297.2968
1570288297.31242
1570288297.32805
1570288297.34368
1570288297.3593
1570288297.37493
1570288297.39055
1570288297.40618
1570288297.4218
1570288297.43743
1570288297.45306
1570288297.46868
1570288297.48431
1570288297.49993
1570288297.51556
1570288297.53118
1570288297.54681
1570288297.56244
1570288297.57806
1570288297.59369
1570288297.60931
1570288297.62494
1570288297.64056
1570288297.65619
1570288297.67182
1570288297.68744
1570288297.70307
1570288297.71869
1570288297.73432
1570288297.74994
1570288297.76557
1570288297.7812
1570288297.79682
1570288297.81245
1570288297.82807
1570288297.8437
1570288297.85932
1570288297.87495
1570288297.89058
1570288297.9062
1570288297.92183
1570288297.93745
1570288297.95308
1570288297.9687
1570288297.98433
1570288297.99996
1570288298.01558
1570288298.03121
1570288298.04683
1570288298.06246
1570288298.07808
1570288298.09371
1570288298.10934
1570288298.12496
1570288298.14059
1570288298.15621
1570288298.17184
1570288298.18746
1570288298.20309
1570288298.21872
1570288298.23434
1570288298.24997
1570288298.26559
1570288298.28122
1570288298.29684
1570288298.31247
1570288298.3281
1570288298.34372
1570288298.35935
1570288298.37497
1570288298.3906
1570288298.40622
1570288298.42185
1570288298.43748
1570288298.4531
1570288298.46873
1570288298.48435
1570288298.49998
1570288298.5156
1570288298.53123
1570288298.54686
1570288298.56248
1570288298.57811
1570288298.59373
1570288298.60936
1570288298.62498
1570288298.64061
1570288298.65624
1570288298.67186
1570288298.68749
1570288298.70311
1570288298.71874
1570288298.73437
1570288298.74999
1570288298.76562
1570288298.78124
1570288298.79687
1570288298.81249
1570288298.82812
1570288298.84375
1570288298.85937
1570288298.875
1570288298.89062
1570288298.90625
1570288298.92187
1570288298.9375
1570288298.95313
1570288298.96875
1570288298.98438
1570288299.0
1570288299.01563
1570288299.03125
1570288299.04688
1570288299.06251
1570288299.07813
1570288299.09376
1570288299.10938
1570288299.12501
1570288299.14063
1570288299.15626
1570288299.17189
1570288299.18751
1570288299.20314
1570288299.21876
1570288299.23439
1570288299.25001
1570288299.26564
1570288299.28127
1570288299.29689
1570288299.31252
1570288299.32814
1570288299.34377
1570288299.35939
1570288299.37502
1570288299.39065
1570288299.40627
1570288299.4219
1570288299.43752
1570288299.45315
1570288299.46877
1570288299.4844
1570288299.50003
1570288299.51565
1570288299.53128
1570288299.5469
1570288299.56253
1570288299.57815
1570288299.59378
1570288299.60941
1570288299.62503
1570288299.64066
1570288299.65628
1570288299.67191
1570288299.68753
1570288299.70316
1570288299.71879
1570288299.73441
1570288299.75004
1570288299.76566
1570288299.78129
1570288299.79691
1570288299.81254
1570288299.82817
1570288299.84379
1570288299.85942
1570288299.87504
1570288299.89067
1570288299.90629
1570288299.92192
1570288299.93755
1570288299.95317
1570288299.9688
1570288299.98442
1570288300.00005
1570288300.01567
1570288300.0313
1570288300.04693
1570288300.06255
1570288300.07818
1570288300.0938
1570288300.10943
1570288300.12505
1570288300.14068
1570288300.15631
1570288300.17193
1570288300.18756
1570288300.20318
1570288300.21881
1570288300.23443
1570288300.25006
1570288300.26569
1570288300.28131
1570288300.29694
1570288300.31256
1570288300.32819
1570288300.34381
1570288300.35944
1570288300.37507
1570288300.39069
1570288300.40632
1570288300.42194
1570288300.43757
1570288300.45319
1570288300.46882
1570288300.48445
1570288300.50007
1570288300.5157
1570288300.53132
1570288300.54695
1570288300.56257
1570288300.5782
1570288300.59383
1570288300.60945
1570288300.62508
1570288300.6407
1570288300.65633
1570288300.67195
1570288300.68758
1570288300.70321
1570288300.71883
1570288300.73446
1570288300.75008
1570288300.76571
1570288300.78133
1570288300.79696
1570288300.81259
1570288300.82821
1570288300.84384
1570288300.85946
1570288300.87509
1570288300.89071
1570288300.90634
1570288300.92197
1570288300.93759
1570288300.95322
1570288300.96884
1570288300.98447
1570288301.0001
