6.218169
7.325708
8.05788
8.571128
8.933156
9.186264
9.351233
9.488012
9.648121
9.859628
10.10378
10.35907
10.60844
10.83567
11.00303
11.03457
10.84577
10.38767
9.697171
8.848615
7.95302
7.057109
6.170156
5.249549
4.267675
3.24535
2.222238
1.230128
0.2815161
-0.6731281
-1.678898
-2.776705
-3.983072
-5.311865
-6.794559
-8.492449
-10.44634
-12.61994
-14.87057
-16.91171
-18.36838
-18.87671
-18.20879
-16.34283
-13.50554
-10.09332
-6.548185
-3.246141
-0.3886108
1.982222
3.909613
5.444344
6.602703
7.341427
7.651018
7.599861
7.367775
7.205717
7.356482
7.938322
8.908335
10.05768
11.13411
11.93133
12.36774
12.48732
12.37257
12.07578
11.57539
10.81058
9.776997
8.540854
7.236761
5.99464
4.842083
3.714809
2.538368
1.282421
0.01719666
-1.156284
-2.208714
-3.215679
-4.355186
-5.759747
-7.464279
-9.315029
-11.0698
-12.47182
-13.31801
-13.51501
-13.03583
-11.89221
-10.13387
-7.884777
-5.302105
-2.608246
-0.03010178
2.256893
4.136086
5.561192
6.542892
7.13567
7.402966
7.441399
7.34137
7.176285
6.99789
6.8209
6.645702
6.468464
6.290165
6.111076
5.930882
5.757023
5.560223
5.341305
5.094849
4.810345
4.460461
3.978909
3.297543
2.361397
1.181358
-0.1547089
-1.49939
-2.701073
-3.656738
-4.392006
-5.029091
-5.732536
-6.660774
-7.881004
-9.386093
-11.06976
-12.77408
-14.29444
-15.40301
-15.89002
-15.58724
-14.43199
-12.48415
-9.938614
-7.064957
-4.148041
-1.387314
1.118073
3.329895
5.235519
6.798012
7.959923
8.662956
8.90345
8.739197
8.287315
7.684906
7.067123
6.510651
6.065971
5.754944
5.570221
5.473137
5.422668
5.372948
5.300323
5.201981
5.067841
4.872406
4.559975
4.066238
3.360367
2.457382
1.429008
0.3417435
-0.7354202
-1.791725
-2.867493
-4.001007
-5.251076
-6.660736
-8.264786
-10.03474
-11.85983
-13.50945
-14.66363
-14.99427
-14.26262
-12.43886
-9.719658
-6.513496
-3.303528
-0.5426025
1.499275
2.770798
3.422272
3.718712
3.916985
4.160583
4.45475
4.702812
4.805756
4.759911
4.665833
4.690674
4.96656
5.494865
6.149132
6.75013
7.123383
7.241974
7.171333
7.032333
6.875801
6.661095
6.254051
5.54351
4.505562
3.23465
1.907425
0.6780853
-0.3837662
-1.31958
-2.216736
-3.152504
-4.164658
-5.248337
-6.398483
-7.642258
-9.027802
-10.58813
-12.26015
-13.85132
-15.03116
-15.42189
-14.74628
-12.92317
-10.14935
-6.831558
-3.444778
-0.3500214
2.269165
4.415634
6.17157
7.577438
8.61615
9.211487
9.343933
9.088959
8.627335
8.164337
7.825378
7.609116
7.397964
7.025513
6.314209
5.193176
3.710678
2.056763
0.4806519
-0.8049622
-1.73143
-2.394028
-2.976532
-3.6819
-4.593964
-5.661011
-6.749771
-7.734879
-8.579285
-9.335983
-10.08463
-10.84758
-11.56021
-12.08614
-12.27303
-12.02876
-11.3266
-10.20233
-8.739075
-7.05719
-5.300339
-3.579865
-1.93811
-0.3556061
1.214096
2.817017
4.427551
5.932816
7.174515
8.012253
8.391922
8.400436
8.178741
7.847977
7.467148
7.025513
6.471863
5.80748
5.109634
4.505997
4.136124
4.017319
4.045135
4.040024
3.842377
3.359985
2.63118
1.732483
0.7009583
-0.4705353
-1.808548
-3.279312
-4.738007
-5.99501
-6.951248
-7.649673
-8.296875
-9.137634
-10.25761
-11.50749
-12.51527
-12.86391
-12.29893
-10.80112
-8.567902
-5.908371
-3.104477
-0.3614502
2.202515
4.511551
6.498444
8.111359
9.315918
10.11375
10.48964
10.44606
10.0323
9.366425
8.627136
8.007614
7.610016
7.406006
7.270935
7.056732
6.657272
6.100204
5.462448
4.802124
4.070084
3.119415
1.791199
0.02740479
-2.023987
-4.061066
-5.753723
-6.92305
-7.625977
-8.124695
-8.71756
-9.581467
-10.65514
-11.66647
-12.28325
-12.24857
-11.49214
-10.0787
-8.168839
-5.939697
-3.560211
-1.200989
0.9517365
2.724533
3.989975
4.692551
4.854965
4.583374
4.017471
3.310623
2.611755
2.034821
1.629837
1.408447
1.332123
1.348862
1.419235
1.534409
1.702057
1.936417
2.227814
2.524567
2.726761
2.702286
2.334763
1.572113
0.4763031
-0.8075714
-2.085373
-3.203857
-4.119232
-4.91391
-5.726151
-6.654266
-7.748413
-8.973862
-10.2502
-11.47061
-12.51314
-13.21295
-13.38922
-12.87257
-11.59416
-9.633957
-7.229279
-4.688431
-2.281601
-0.1874542
1.545471
2.963013
4.113205
5.012177
5.635773
5.960251
6.006363
5.855911
5.613556
5.344604
5.085052
4.803101
4.473801
4.080795
3.657806
3.236343
2.813492
2.333939
1.710709
0.8877716
-0.118576
-1.203949
-2.23114
-3.10817
-3.84671
-4.524796
-5.267883
-6.138382
-7.15274
-8.294998
-9.505844
-10.74034
-11.92136
-12.89668
-13.45715
-13.38136
-12.5441
-10.98671
-8.94577
-6.758148
-4.725723
-3.012848
-1.598679
-0.326355
0.9473724
2.262726
3.517975
4.533386
5.181046
5.463959
5.508133
5.475784
5.44519
5.377838
5.179352
4.797119
4.292938
3.860504
3.645325
3.650696
3.677216
3.401031
2.565903
1.092438
-0.883194
-3.088531
-5.220657
-7.083221
-8.592529
-9.776352
-10.70479
-11.51347
-12.34685
-13.33075
-14.47775
-15.6194
-16.47734
-16.711
-16.09911
-14.59216
-12.35091
-9.627182
-6.684814
-3.691864
-0.7655029
2.001144
4.495728
6.597672
8.209076
9.286011
9.883148
10.11697
10.13583
10.06854
9.999115
9.967606
9.926865
9.800491
9.504013
8.993835
8.312775
7.566833
6.868164
6.2659
5.711319
5.059677
4.143143
2.911942
1.437302
-0.06137085
-1.392838
-2.474716
-3.402237
-4.363098
-5.529968
-6.927597
-8.456268
-9.970078
-11.42986
-12.94865
-14.68866
-16.69496
-18.75456
-20.39713
-21.10265
-20.50977
-18.63017
-15.79701
-12.51681
-9.212463
-6.087982
-3.139694
-0.2674713
2.583733
5.340019
7.827782
9.883728
11.40968
12.38399
12.85661
12.90548
12.62611
12.14736
11.60529
11.11827
10.77275
10.58192
10.48534
10.37122
10.15334
9.781013
9.265419
8.687218
8.107491
7.508774
6.828308
5.94783
4.764366
3.250107
1.468803
-0.4460831
-2.333313
-4.069923
-5.615067
-7.011902
-8.31813
-9.640007
-11.07664
-12.7331
-14.67229
-16.84082
-19.00016
-20.73016
-21.5461
-21.03506
-19.06715
-15.85249
-11.87019
-7.683983
-3.740616
-0.2868576
2.686375
5.30711
7.684196
9.809895
11.5644
12.78324
13.3886
13.44345
13.15234
12.77829
12.55693
12.5825
12.8118
13.14205
13.44809
13.63884
13.68407
13.56747
13.27909
12.81601
12.18271
11.40445
10.53556
9.55835
8.405621
6.974522
5.19733
3.125914
0.9171658
-1.208302
-3.089012
-4.652868
-5.973597
-7.187038
-8.455469
-9.872
-11.48532
-13.28438
-15.22452
-17.21541
-19.09582
-20.59582
-21.37308
-21.08638
-19.52555
-16.70769
-12.90406
-8.584617
-4.257637
-0.3197308
3.050173
5.878797
8.316004
10.49344
12.43078
14.01978
15.13046
15.71186
15.8384
15.69029
15.45844
15.26089
15.101
14.8646
14.43119
13.75666
12.88529
11.98157
11.21047
10.64762
10.22571
9.75407
8.978144
7.733712
6.020167
3.995996
1.910297
-0.02596664
-1.738293
-3.302402
-4.840149
-6.452213
-8.110699
-9.722561
-11.23003
-12.66541
-14.18167
-15.9447
-17.96758
-20.01707
-21.63832
-22.28326
-21.53465
-19.2878
-15.7436
-11.37821
-6.732353
-2.2584
1.750278
5.150249
7.899014
9.994598
11.43241
12.25035
12.525
12.40005
12.07014
11.73525
11.54311
11.56608
11.7855
12.06722
12.24943
12.16059
11.72186
10.97335
10.03584
9.055946
8.111485
7.185738
6.176262
4.99939
3.631691
2.147209
0.6619301
-0.7220726
-1.976643
-3.165009
-4.405155
-5.830765
-7.55286
-9.637379
-12.09793
-14.84328
-17.6574
-20.19994
-22.03691
-22.75634
-22.09346
-20.02473
-16.80395
-12.84254
-8.581902
-4.342117
-0.2769089
3.565758
7.174599
10.43267
13.10963
14.93423
15.74911
15.61194
14.81209
13.74876
12.79069
12.16423
11.90596
11.89309
11.93551
11.8493
11.52764
10.95591
10.21151
9.380836
8.551743
7.714966
6.778778
5.592247
4.038719
2.080811
-0.138382
-2.366364
-4.348373
-5.943291
-7.231087
-8.470772
-9.985321
-12.03705
-14.72548
-17.90482
-21.24867
-24.31475
-26.62298
-27.76161
-27.45925
-25.62061
-22.36189
-17.99711
-12.96489
-7.715874
-2.67067
1.891273
5.80674
9.025528
11.54027
13.37094
14.56104
15.20042
15.43526
15.44375
15.4001
15.37111
15.33905
15.19653
14.82889
14.2251
13.48524
12.77597
12.23904
11.87633
11.5097
10.86514
9.679337
7.861404
5.547653
3.013763
0.567337
-1.593719
-3.427628
-5.055008
-6.717819
-8.667908
-11.08136
-13.99292
-17.30144
-20.71515
-23.78624
-25.96391
-26.73108
-25.75372
-23.01401
-18.82117
-13.70885
-8.28009
-3.018738
1.78183
5.989777
9.548172
12.38431
14.39273
15.51543
15.81139
15.4852
14.85532
14.20895
13.70259
13.33092
12.9953
12.59517
12.10757
11.57275
11.02873
10.45886
9.754059
8.795975
7.494751
5.860825
3.974777
1.95253
-0.08816528
-2.10289
-4.057693
-5.967178
-7.855026
-9.799728
-11.91617
-14.3634
-17.19281
-20.30655
-23.36644
-25.83969
-27.15593
-26.84369
-24.70888
-20.88422
-15.78331
-9.998047
-4.125778
1.339157
6.102524
10.0464
13.16843
15.51825
17.13373
18.02719
18.23564
17.86038
17.09529
16.20898
15.41589
14.82388
14.3756
13.91745
13.3181
12.52948
11.58513
10.52574
9.338165
7.906052
6.101868
3.888565
1.369461
-1.230484
-3.699158
-5.94519
-8.042343
-10.17207
-12.50296
-15.12343
-18.0072
-21.02707
-23.98097
-26.56648
-28.39476
-29.02725
-28.0647
-25.32411
-20.90837
-15.23981
-8.939102
-2.678268
2.989609
7.745438
11.50383
14.35245
16.43201
17.88055
18.73096
18.99005
18.64038
17.7626
16.53781
15.22836
14.0657
13.16107
12.50671
11.99585
11.50916
10.95221
10.28555
9.451141
8.363495
6.928741
5.100037
2.942688
0.5957642
-1.758728
-4.020935
-6.214783
-8.491028
-11.04297
-14.00891
-17.37576
-20.92215
-24.21738
-26.68512
-27.74344
-26.99124
-24.33615
-20.04465
-14.67059
-8.875427
-3.225616
1.925537
6.46109
10.39615
13.74915
16.45251
18.3642
19.38873
19.55423
19.07974
18.30716
17.55804
17.02527
16.70581
16.43057
15.98709
15.25992
14.25253
13.06665
11.77679
10.35428
8.69577
6.668671
4.230621
1.478729
-1.35495
-4.006897
-6.31485
-8.291718
-10.12457
-12.10239
-14.49521
-17.3959
-20.66537
-23.8978
-26.5278
-27.95474
-27.72949
-25.69644
-22.00574
-17.06418
-11.38788
-5.48526
0.2432556
5.501862
10.11023
13.94537
16.92139
19.03171
20.33923
20.99338
21.17432
21.03226
20.66373
20.10239
19.39966
18.60373
17.80649
17.07928
16.42316
15.76971
14.98267
13.91577
12.40628
10.35291
7.731354
4.636627
1.28717
-2.01889
-5.017059
-7.589874
-9.83432
-12.02072
-14.46515
-17.36343
-20.68549
-24.16299
-27.362
-29.78952
-30.98288
-30.5929
-28.45615
-24.6344
-19.42749
-13.32391
-6.842621
-0.443573
5.553009
10.96298
15.6347
19.39246
22.05945
23.55054
23.95786
23.5853
22.84351
22.09824
21.54236
21.16937
20.83713
20.38925
19.76053
18.94708
18.00027
16.96005
15.77914
14.36984
12.59366
10.31729
7.481903
4.160858
0.5691833
-2.934387
-5.991272
-8.391602
-10.20706
-11.78558
-13.60876
-16.07486
-19.30536
-23.02454
-26.63904
-29.40158
-30.63547
-29.91949
-27.18179
-22.73306
-17.13693
-11.02905
-4.941803
0.8632507
6.357788
11.61072
16.5921
21.08167
24.69806
27.09995
28.13647
28.00354
27.12701
26.00961
25.03885
24.37772
23.98108
23.66205
23.22961
22.54578
21.55618
20.28232
18.79794
17.16391
15.37933
13.39297
11.12048
8.536133
5.706909
2.790314
0.01190186
-2.460876
-4.544067
-6.274139
-7.806061
-9.359985
-11.20035
-13.56033
-16.56201
-20.14133
-23.992
-27.57382
-30.25327
-31.42566
-30.71555
-28.07022
-23.74811
-18.26239
-12.19601
-6.059784
-0.1949463
5.219116
10.12939
14.48691
18.17007
21.02664
22.92706
23.83917
23.87228
23.27118
22.30765
21.23373
20.23917
19.41904
18.77966
18.24048
17.64145
16.84824
15.7919
14.55014
13.28693
12.12628
11.05283
9.895325
8.381134
6.349731
3.847107
1.131622
-1.462433
-3.709198
-5.614685
-7.3526
-9.123962
-11.05933
-13.15228
-15.33191
-17.55795
-19.85431
-22.21756
-24.51065
-26.39279
-27.34335
-26.85339
-24.64014
-20.79568
-15.7695
-10.20547
-4.702667
0.3744507
4.933777
9.041046
12.73972
15.93738
18.39346
19.85605
20.23776
19.69736
18.64227
17.5224
16.68848
16.24927
16.10507
16.04483
15.89108
15.56262
15.04922
14.37112
13.50183
12.35818
10.83881
8.897034
6.604858
4.136749
1.729156
-0.4438782
-2.301392
-3.921356
-5.4487
-7.062897
-8.90863
-11.04718
-13.49069
-16.22217
-19.20367
-22.31888
-25.32275
-27.76981
-29.10629
-28.82739
-26.6846
-22.85202
-17.87192
-12.46771
-7.275665
-2.629822
1.474487
5.215912
8.755737
12.05234
14.89978
17.00003
18.20731
18.57465
18.38455
17.96487
17.5806
17.31699
17.09976
16.7959
16.2977
15.60693
14.80188
13.99652
13.24036
12.48242
11.57813
10.35196
8.687714
6.574799
4.115265
1.454132
-1.239197
-3.841736
-6.251678
-8.395294
-10.24039
-11.8175
-13.21701
-14.61893
-16.23273
-18.26361
-20.78372
-23.6875
-26.65912
-29.19373
-30.71411
-30.71071
-28.90379
-25.33987
-20.38907
-14.63881
-8.700439
-3.036911
2.136368
6.799377
10.99596
14.69353
17.73059
19.91051
21.12598
21.45413
21.14098
20.49763
19.77658
19.04692
18.25179
17.27357
16.0647
14.6972
13.3479
12.17369
11.267
10.57114
9.914627
9.103989
7.996979
6.553406
4.835648
2.969742
1.082031
-0.7420349
-2.475098
-4.152512
-5.841705
-7.590347
-9.37439
-11.1304
-12.77795
-14.31482
-15.866
-17.64642
-19.84836
-22.47603
-25.22702
-27.51563
-28.64571
-28.09593
-25.74483
-21.90932
-17.21562
-12.3042
-7.582138
-3.166901
1.027924
5.08017
8.926025
12.31754
14.94658
16.63708
17.42749
17.53963
17.26347
16.79671
16.23485
15.57924
14.84486
14.09425
13.41203
12.86151
12.4129
11.9483
11.36815
10.63945
9.806473
8.951141
8.089432
7.128021
5.900787
4.281982
2.281036
0.05715942
-2.17868
-4.238144
-6.079971
-7.759888
-9.396133
-11.12383
-13.04303
-15.23956
-17.77208
-20.63623
-23.63587
-26.38101
-28.32819
-28.95633
-27.92835
-25.27016
-21.31595
-16.62797
-11.7813
-7.179367
-2.997009
0.7596207
4.154823
7.213692
9.836174
11.89101
13.25172
13.94133
14.13689
14.09772
14.05689
14.11106
14.19812
14.15395
13.85012
13.23312
12.36517
11.36365
10.31812
9.270874
8.205254
7.057655
5.760262
4.264191
2.52475
0.5250778
-1.679558
-4.004242
-6.296005
-8.42572
-10.33648
-12.05482
-13.72358
-15.52905
-17.66355
-20.20142
-23.08312
-26.04452
-28.66505
-30.46494
-30.98065
-29.93223
-27.25287
-23.16483
-18.07528
-12.52921
-7.01897
-1.914516
2.592823
6.475716
9.754044
12.47325
14.62448
16.16881
17.08152
17.40074
17.24893
16.76453
16.08855
15.29378
14.43578
13.56817
12.75404
12.09073
11.63067
11.33714
11.07542
10.67059
9.946907
8.835522
7.326038
5.465889
3.34647
1.102757
-1.111694
-3.128113
-4.804913
-6.131828
-7.207422
-8.242977
-9.439672
-10.90696
-12.62602
-14.52325
-16.55416
-18.74387
-21.12906
-23.59042
-25.78715
-27.19446
-27.25555
-25.63978
-22.3773
-17.86556
-12.70502
-7.490019
-2.618376
1.720989
5.500797
8.744695
11.42354
13.4817
14.88796
15.69608
16.02365
16.05457
15.93429
15.73493
15.48449
15.17575
14.79794
14.35182
13.84912
13.25958
12.58024
11.80372
10.94706
10.04377
9.090134
8.055201
6.850149
5.397125
3.661132
1.708871
-0.3276472
-2.30224
-4.108444
-5.724262
-7.179263
-8.580809
-10.04386
-11.67127
-13.52454
-15.6353
-17.99498
-20.52758
-23.0921
-25.4055
-27.05066
-27.54833
-26.51604
-23.81816
-19.69464
-14.68681
-9.453653
-4.573919
-0.3448887
3.230671
6.298756
8.967632
11.21651
12.8909
13.84574
14.03634
13.60733
12.83758
12.03833
11.43251
11.07116
10.85826
10.63113
10.25201
9.667091
8.925022
8.127485
7.337429
6.539698
5.634258
4.467892
2.910259
0.9477158
-1.315277
-3.652187
-5.802467
-7.589287
-8.988579
-10.12207
-11.23803
-12.58132
-14.30453
-16.41856
-18.80749
-21.24799
-23.47253
-25.13969
-25.88173
-25.35429
-23.33012
-19.80874
-15.06657
-9.640114
-4.150528
0.8787994
5.146057
8.602333
11.31583
13.3852
14.83098
15.6244
15.7779
15.41586
14.76208
14.06842
13.50793
13.07874
12.64739
12.03624
11.14983
10.05023
8.921455
7.961281
7.250862
6.700401
6.071846
5.077885
3.503292
1.303417
-1.355423
-4.171989
-6.814465
-9.054878
-10.83867
-12.3051
-13.73015
-15.4235
-17.61926
-20.34659
-23.37678
-26.25374
-28.34957
-29.08156
-28.04777
-25.21595
-20.91868
-15.75719
-10.40539
-5.392666
-0.9897423
2.798611
6.105118
9.045986
11.61469
13.70015
15.16939
15.96762
16.18039
16.00203
15.65833
15.30971
14.98386
14.61022
14.07498
13.30088
12.29773
11.15679
9.997585
8.909771
7.897625
6.870251
5.688015
4.215019
2.377338
0.2019463
-2.181561
-4.602692
-6.911625
-9.015133
-10.94037
-12.81046
-14.79992
-17.0871
-19.72234
-22.56089
-25.24805
-27.28085
-28.13257
-27.42327
-25.05941
-21.26123
-16.47956
-11.25441
-6.051674
-1.164761
3.282455
7.278465
10.83767
13.89217
16.35019
18.10513
19.13945
19.5396
19.49756
19.21043
18.79311
18.24376
17.45175
16.31859
14.84402
13.14317
11.42923
9.897079
8.629965
7.546911
6.474993
5.234985
3.733347
1.987329
0.08052444
-1.851633
-3.697466
-5.384497
-6.878164
-8.202765
-9.489561
-10.97324
-12.91403
-15.47985
-18.5563
-21.71353
-24.24895
-25.42117
-24.70163
-22.012
-17.70801
-12.42891
-6.871407
-1.582397
3.102171
7.054218
10.27309
12.82134
14.76167
16.17034
17.11341
17.6506
17.84541
17.74605
17.39211
16.84614
16.1449
15.34286
14.50566
13.72024
13.06281
12.57944
12.22318
11.82536
11.14938
9.996141
8.269407
6.058228
3.595579
1.154083
-1.045156
-2.919582
-4.5375
-6.089764
-7.779434
-9.794422
-12.19876
-14.92899
-17.78445
-20.42985
-22.44346
-23.37852
-22.86944
-20.74713
-17.11639
-12.37932
-7.145126
-2.078993
2.31118
5.793556
8.432245
10.44699
12.04177
13.27614
14.06691
14.27532
13.87909
13.04183
12.04584
11.1603
10.47905
9.901707
9.227556
8.314987
7.214088
6.134048
5.307529
4.789207
4.399334
3.790476
2.625605
0.7778225
-1.595812
-4.143188
-6.481606
-8.400194
-9.942621
-11.33175
-12.87542
-14.82004
-17.25942
-20.1093
-23.12572
-25.93401
-28.062
-29.01484
-28.37991
-25.95211
-21.85323
-16.48499
-10.43471
-4.362619
1.198748
5.900217
9.612232
12.38868
14.3793
15.77077
16.72616
17.34648
17.68237
17.76245
17.60859
17.25571
16.74746
16.11314
15.35016
14.45893
13.46246
12.42519
11.43441
10.49756
9.522301
8.325396
6.7367
4.727768
2.452316
0.1523495
-1.926487
-3.693899
-5.241688
-6.781475
-8.510773
-10.54787
-12.9102
-15.51377
-18.19944
-20.69727
-22.61017
-23.47365
-22.86037
-20.58796
-16.80263
-11.96276
-6.676903
-1.504581
3.204908
7.30349
10.75962
13.54589
15.58845
16.8089
17.20832
16.9184
16.19148
15.28913
14.40585
13.59052
12.80452
11.9456
10.99596
10.01634
9.134621
8.464117
8.005178
7.63553
7.110964
6.208616
4.791733
2.906183
0.7276955
-1.501783
-3.570795
-5.374537
-6.934572
-8.357992
-9.793741
-11.42452
-13.37146
-15.70605
-18.334
-20.96494
-23.13919
-24.32181
-24.05335
-22.1282
-18.66463
-14.04091
-8.801657
-3.486961
1.473864
5.792259
9.327215
12.03539
13.92176
15.01072
15.38621
15.16356
14.51162
13.64372
12.73354
11.89874
11.15616
10.46183
9.771662
9.082977
8.453569
7.955254
7.58992
7.233858
6.657646
5.629881
4.042328
1.974024
-0.3431244
-2.622349
-4.661707
-6.403929
-7.968361
-9.550636
-11.35036
-13.47433
-15.86654
-18.31388
-20.47026
-21.90818
-22.19109
-21.04086
-18.38007
-14.42656
-9.645882
-4.613771
0.1211071
4.18186
7.407808
9.812496
11.52122
12.6724
13.37331
13.66473
13.55474
13.04543
12.19543
11.10689
9.953772
8.927073
8.137657
7.615683
7.268419
6.949726
6.484846
5.75242
4.68535
3.279837
1.566647
-0.4134674
-2.615032
-4.991196
-7.471447
-9.976494
-12.42744
-14.77749
-17.03664
-19.27139
-21.52659
-23.72009
-25.55597
-26.53594
-26.10543
-23.89598
-19.93838
-14.67537
-8.834728
-3.136236
1.92948
6.175222
9.641123
12.42663
14.56886
16.00635
16.66534
16.53096
15.71085
14.4332
12.9842
11.60572
10.42812
9.472734
8.667336
7.94627
7.257175
6.592846
5.936676
5.221148
4.313765
3.071777
1.434166
-0.5389175
-2.658976
-4.714958
-6.570009
-8.240317
-9.870868
-11.64552
-13.73498
-16.19611
-18.96503
-21.82598
-24.40269
-26.18467
-26.67696
-25.51798
-22.62597
-18.2415
-12.87196
-7.140129
-1.594224
3.388085
7.642462
11.16063
14.00978
16.2433
17.86205
18.87024
19.27486
19.13628
18.59608
17.8344
17.02544
16.28107
15.62086
14.96302
14.22179
13.3149
12.2385
11.02838
9.726631
8.345438
6.84364
5.150527
3.217873
1.074697
-1.174057
-3.378092
-5.421937
-7.260337
-8.996725
-10.81309
-12.93798
-15.50055
-18.4375
-21.46789
-24.07552
-25.64564
-25.61449
-23.65859
-19.81261
-14.51673
-8.462808
-2.416309
2.996138
7.437605
10.84486
13.33602
15.06466
16.15738
16.69267
16.7634
16.50611
16.10278
15.69217
15.31964
14.93478
14.42644
13.71786
12.82556
11.84659
10.9164
10.09928
9.371954
8.605639
7.622005
6.262888
4.438814
2.187185
-0.345726
-2.945005
-5.428503
-7.707289
-9.84939
-12.02021
-14.42529
-17.19494
-20.27624
-23.3748
-25.98905
-27.5095
-27.37821
-25.27099
-21.22302
-15.66183
-9.268915
-2.811462
3.067688
7.992115
11.85562
14.7301
16.73871
17.95859
18.43856
18.24439
17.51019
16.42881
15.23825
14.11027
13.10997
12.2109
11.33674
10.43648
9.53215
8.675028
7.877047
7.07972
6.13814
4.895828
3.266958
1.320637
-0.7561569
-2.764235
-4.615444
-6.394426
-8.310535
-10.56279
-13.23771
-16.23933
-19.3525
-22.29923
-24.79621
-26.52168
-27.12649
-26.23566
-23.60832
-19.28194
-13.66351
-7.471609
-1.464802
3.805658
8.147778
11.67774
14.61948
17.07389
18.98571
20.20446
20.65728
20.42636
19.72787
18.80374
17.80368
16.7509
15.60814
14.36776
13.127
12.02582
11.1653
10.52151
9.894787
9.021507
7.662277
5.73259
3.367947
0.8461227
-1.503147
-3.439064
-4.91209
-6.073254
-7.223129
-8.716766
-10.83107
-13.66288
-17.09184
-20.74308
-24.02165
-26.24655
-26.81633
-25.40842
-22.08352
-17.26023
-11.56412
-5.63995
0.03081894
5.182785
9.708805
13.55693
16.66273
18.90014
20.18599
20.54493
20.10659
19.10412
17.79476
16.37595
14.97571
13.68922
12.57238
11.70038
11.12562
10.82
10.64529
10.36871
9.732224
8.548754
6.79985
4.602415
2.168859
-0.2750587
-2.596638
-4.754171
-6.757679
-8.670437
-10.56098
-12.52859
-14.70542
-17.17217
-19.85442
-22.44341
-24.38006
-25.02008
-23.88773
-20.85094
-16.20895
-10.59261
-4.708975
0.8427486
5.680956
9.658962
12.74307
14.92531
16.219
16.69013
16.46356
15.73577
14.72979
13.63946
12.62619
11.78949
11.18973
10.83493
10.66604
10.53026
10.25892
9.686646
8.713938
7.379532
5.763588
3.968315
2.070025
0.1153622
-1.879185
-3.872197
-5.828936
-7.751282
-9.685421
-11.74747
-14.04785
-16.60915
-19.28324
-21.70898
-23.35821
-23.721
-22.45562
-19.51037
-15.18376
-10.00252
-4.581466
0.5345488
4.976711
8.591749
11.34309
13.28781
14.4839
14.97589
14.84718
14.21934
13.24409
12.1046
10.96018
9.877114
8.854962
7.832062
6.753777
5.584232
4.342178
3.079331
1.813379
0.5280418
-0.8382971
-2.330145
-3.969644
-5.715034
-7.490091
-9.230821
-10.96484
-12.79393
-14.88939
-17.38673
-20.25618
-23.24092
-25.8531
-27.47384
-27.59221
-25.9433
-22.62581
-18.05263
-12.79289
-7.386426
-2.221242
2.494491
6.657568
10.17439
12.92403
14.79837
15.77616
15.96224
15.5819
14.8969
14.11757
13.36152
12.66295
12.01929
11.4093
10.80241
10.15096
9.390635
8.443473
7.269641
5.888238
4.334557
2.656981
0.8923316
-0.9562626
-2.871222
-4.867442
-6.976541
-9.272111
-11.86019
-14.8417
-18.20596
-21.71523
-24.92173
-27.1986
-27.96398
-26.8496
-23.84727
-19.29256
-13.75944
-7.875604
-2.129268
3.139523
7.767884
11.64027
14.66769
16.79051
18.04124
18.57386
18.59293
18.3373
17.89947
17.2864
16.42676
15.26986
13.86125
12.34378
10.90932
9.683589
8.686988
7.778733
6.7575
5.44794
3.760049
1.790125
-0.2796879
-2.268772
-4.095396
-5.810996
-7.547082
-9.454087
-11.60635
-14.04413
-16.75549
-19.72296
-22.82097
-25.75827
-28.03699
-29.0222
-28.18102
-25.27755
-20.56777
-14.65122
-8.323435
-2.260187
3.16106
7.853123
11.8784
15.24368
17.84626
19.50362
20.14154
19.88134
19.06176
18.13061
17.40912
16.97087
16.63187
16.10795
15.21428
13.99864
12.70304
11.5927
10.77357
10.09436
9.241318
7.893824
5.973
3.646019
1.260036
-0.8420105
-2.506546
-3.819052
-5.063883
-6.573347
-8.580494
-11.16053
-14.20106
-17.41954
-20.37809
-22.56062
-23.4534
-22.69629
-20.20425
-16.19009
-11.12607
-5.586763
-0.08610725
5.000681
9.45451
13.17043
16.07438
18.12305
19.33
19.77535
19.62565
19.08725
18.3441
17.4993
16.57674
15.53806
14.33814
12.98204
11.54038
10.15096
8.946892
7.973627
7.16164
6.316494
5.21664
3.715055
1.810305
-0.3476305
-2.533734
-4.546588
-6.30403
-7.858423
-9.386783
-11.09991
-13.13187
-15.49347
-18.02215
-20.41659
-22.28379
-23.23888
-22.95553
-21.27763
-18.25262
-14.11104
-9.266068
-4.172029
0.7575989
5.240573
9.129642
12.36997
14.92059
16.71203
17.69601
17.88517
17.42859
16.60591
15.72837
15.01138
14.51375
14.14448
13.74662
13.21523
12.51424
11.69814
10.81438
9.888505
8.882219
7.753026
6.480137
5.052401
3.469532
1.724235
-0.1562762
-2.114501
-4.060264
-5.875789
-7.508801
-8.988477
-10.4336
-11.99912
-13.817
-15.93482
-18.30037
-20.73688
-22.92014
-24.40189
-24.73076
-23.55226
-20.74801
-16.55312
-11.47398
-6.131367
-1.084869
3.346161
7.069872
10.11738
12.52414
14.27215
15.27482
15.53006
15.16809
14.47162
13.76296
13.26247
13.00246
12.85031
12.60568
12.13597
11.47387
10.78302
10.26637
9.986984
9.826269
9.501629
8.693722
7.226166
5.132713
2.699665
0.2855148
-1.82568
-3.525902
-4.916622
-6.232876
-7.673405
-9.341579
-11.25982
-13.36887
-15.62554
-17.94736
-20.13288
-21.81989
-22.51711
-21.78499
-19.44395
-15.71194
-11.13419
-6.402863
-2.058361
1.650688
4.806957
7.612019
10.23317
12.64065
14.6158
15.9074
16.37397
16.07284
15.23265
14.16086
13.15531
12.41053
11.99716
11.85424
11.83347
11.72653
11.35052
10.62698
9.596085
8.405304
7.202721
6.043488
4.852318
3.489563
1.850212
-0.03105164
-1.98999
-3.822914
-5.41803
-6.791718
-8.06356
-9.370476
-10.76775
-12.30157
-13.98824
-15.89696
-18.08975
-20.5173
-22.88577
-24.67917
-25.27801
-24.21318
-21.36951
-17.08855
-12.05861
-7.037292
-2.584175
1.098251
4.126678
6.730385
9.070557
11.10002
12.60109
13.35662
13.31521
12.67414
11.80592
11.09436
10.75053
10.73798
10.81152
10.71656
10.31467
9.664047
8.949577
8.335495
7.861969
7.39946
6.710327
5.59108
3.992722
2.021812
-0.09742737
-2.154404
-4.027008
-5.697433
-7.240242
-8.735573
-10.24238
-11.78081
-13.36652
-15.0398
-16.82088
-18.67366
-20.40888
-21.69733
-22.13589
-21.3759
-19.26128
-15.92627
-11.7573
-7.244171
-2.873741
1.056747
4.410347
7.185379
9.400085
11.06689
12.17894
12.7802
12.96046
12.86508
12.64404
12.39839
12.16206
11.88759
11.50888
10.98149
10.31064
9.564514
8.830124
8.172684
7.579514
6.967743
6.24115
5.320129
4.23349
3.023178
1.730698
0.3413391
-1.200821
-2.942642
-4.853638
-6.795929
-8.61731
-10.21762
-11.6434
-13.0591
-14.67162
-16.61514
-18.86472
-21.21281
-23.32625
-24.80856
-25.28069
-24.46777
-22.25555
-18.76041
-14.32088
-9.412796
-4.557419
-0.1452179
3.592194
6.591293
8.898758
10.57207
11.65787
12.15538
12.12599
11.69031
11.02737
10.33342
9.758011
9.364838
9.128296
8.937073
8.661575
8.21489
7.596252
6.903671
6.291992
5.869507
5.648224
5.499466
5.187744
4.491241
3.290497
1.636414
-0.305481
-2.323547
-4.264587
-6.066589
-7.759995
-9.382507
-10.97815
-12.60886
-14.35179
-16.28519
-18.39067
-20.51456
-22.31775
-23.35303
-23.21695
-21.69672
-18.86894
-15.04961
-10.70622
-6.264557
-2.049805
1.75235
5.047089
7.783051
9.915039
11.39738
12.26599
12.60289
12.54878
12.24648
11.80621
11.29413
10.74193
10.13625
9.462051
8.71785
7.913162
7.116104
6.412125
5.862671
5.463638
5.091415
4.562271
3.683945
2.375168
0.6751556
-1.231308
-3.117386
-4.836945
-6.331757
-7.696136
-9.04184
-10.47191
-11.99403
-13.59271
-15.23271
-16.93146
-18.7392
-20.64656
-22.48508
-23.85374
-24.20726
-23.04344
-20.16466
-15.8026
-10.60448
-5.365799
-0.7346497
2.994812
5.907486
8.270157
10.30579
12.06384
13.41905
14.20456
14.34407
13.92967
13.1895
12.3759
11.68509
11.20892
10.89784
10.64409
10.34331
9.936218
9.453674
8.950943
8.451599
7.882095
7.084976
5.891495
4.227203
2.178909
-0.03108215
-2.162766
-4.065796
-5.724564
-7.247543
-8.753906
-10.32222
-11.95374
-13.61497
-15.30276
-17.07683
-19.0018
-21.05472
-23.0463
-24.6019
-25.24736
-24.55714
-22.31575
-18.62753
-13.85463
-8.534027
-3.172546
1.849045
6.301697
10.06912
13.06291
15.19859
16.42441
16.80173
16.50647
15.81213
15.00467
14.29214
13.76782
13.40672
13.11392
12.77299
12.31335
11.69366
10.93543
10.10375
9.262001
8.441063
7.591148
6.600037
5.333679
3.692337
1.665924
-0.6291885
-3.016464
-5.322403
-7.446747
-9.387268
-11.21817
-13.03768
-14.92338
-16.91109
-18.95873
-20.92696
-22.58482
-23.60893
-23.64042
-22.41055
-19.80812
-15.9435
-11.14355
-5.825706
-0.4420395
4.603134
9.033539
12.67149
15.43555
17.3137
18.35857
18.6798
18.42497
17.77386
16.91134
16.01647
15.23263
14.66508
14.30932
14.0792
13.81489
13.34596
12.58238
11.51033
10.23976
8.890457
7.534019
6.13372
4.552071
2.663773
0.4255142
-2.068672
-4.6008
-6.936546
-8.97361
-10.76462
-12.49281
-14.38486
-16.59148
-19.12483
-21.82023
-24.38007
-26.39076
-27.44235
-27.19869
-25.49096
-22.39173
-18.20831
-13.37982
-8.337959
-3.429321
1.14003
5.258774
8.836189
11.7931
14.04196
15.53047
16.29962
16.48085
16.2674
15.82951
15.3045
14.74425
14.11147
13.33797
12.35444
11.17544
9.877151
8.598526
7.455505
6.495262
5.659462
4.801796
3.794876
2.567528
1.14415
-0.4221191
-2.04792
-3.703201
-5.421951
-7.258835
-9.287811
-11.53205
-13.99548
-16.63166
-19.35154
-21.96007
-24.14571
-25.4882
-25.54784
-23.99675
-20.76508
-16.13029
-10.66043
-5.047367
0.1010132
4.411804
7.801083
10.38477
12.33083
13.77696
14.75895
15.29412
15.43178
15.27992
15.00012
14.72219
14.50279
14.29448
14.00145
13.56135
12.94434
12.2062
11.40253
10.58827
9.765652
8.882072
7.829525
6.514431
4.880592
2.93631
0.7962608
-1.402843
-3.526707
-5.520849
-7.435501
-9.421646
-11.66304
-14.29561
-17.31673
-20.52329
-23.54701
-25.86882
-26.93736
-26.29556
-23.74224
-19.42826
-13.82537
-7.624681
-1.511723
3.972912
8.547157
12.13483
14.79636
16.61172
17.6372
17.92769
17.60999
16.91178
16.09399
15.37589
14.84482
14.42837
13.9618
13.2995
12.39393
11.32389
10.2635
9.353986
8.631167
7.955642
7.09724
5.835966
4.089391
1.924212
-0.4730129
-2.916244
-5.278597
-7.545157
-9.762126
-12.00693
-14.34725
-16.86092
-19.60196
-22.55861
-25.57195
-28.23209
-29.94268
-30.08675
-28.26198
-24.46504
-19.16748
-13.12605
-7.122621
-1.721076
2.859053
6.701258
9.987304
12.83827
15.23192
17.02397
18.05514
18.28002
17.81787
16.9179
15.87499
14.88735
14.03159
13.25774
12.47425
11.63911
10.78387
9.984812
9.267441
8.54104
7.591831
6.21629
4.297655
1.935932
-0.6094437
-3.01148
-5.049294
-6.715481
-8.216614
-9.873886
-11.99675
-14.75331
-18.13488
-21.90102
-25.58854
-28.57971
-30.20507
-29.90008
-27.41054
-22.88049
-16.84945
-10.07329
-3.303478
2.919506
8.32547
12.85938
16.53174
19.30995
21.08875
21.80798
21.54712
20.57758
19.33908
18.25718
17.57878
17.28145
17.15548
16.8986
16.33991
15.4947
14.51196
13.56051
12.68269
11.75017
10.51983
8.793053
6.510597
3.804649
0.9382401
-1.823555
-4.311752
-6.485947
-8.416641
-10.22897
-12.06889
-14.08797
-16.40975
-19.12399
-22.21084
-25.44354
-28.37804
-30.40056
-30.85547
-29.28804
-25.62463
-20.22036
-13.75333
-7.002388
-0.6097794
5.038452
9.779602
13.61539
16.5722
18.66111
19.88738
20.2924
20.00088
19.2142
18.15482
17.03091
16.01299
15.18676
14.58173
14.15868
13.83683
13.52177
13.12592
12.57332
11.79398
10.70232
9.168846
7.105263
4.500481
1.496315
-1.614464
-4.503937
-6.911079
-8.7883
-10.33704
-11.90607
-13.86303
-16.38312
-19.38933
-22.54213
-25.34318
-27.24342
-27.7556
-26.55638
-23.57372
-19.00788
-13.31125
-7.093124
-0.9690475
4.575691
9.295547
13.13123
16.13303
18.3247
19.66717
20.09231
19.6332
18.48383
16.98038
15.52104
14.37071
13.61428
13.13866
12.7514
12.28146
11.66457
10.91492
10.03976
8.982956
7.590897
5.722816
3.325073
0.5298538
-2.417496
-5.223969
-7.68512
-9.738922
-11.46182
-13.04399
-14.72737
-16.76973
-19.38315
-22.60217
-26.19255
-29.58501
-31.97652
-32.5549
-30.81572
-26.74225
-20.83633
-13.94391
-6.921448
-0.4083862
5.307007
10.23184
14.5258
18.27792
21.43849
23.84169
25.27875
25.68106
25.17886
24.10123
22.8374
21.69962
20.79089
20.01056
19.18051
18.16591
16.98999
15.75862
14.57124
13.42725
12.15092
10.50897
8.330215
5.59613
2.473022
-0.7418823
-3.761047
-6.406006
-8.65921
-10.68274
-12.70349
-14.97932
-17.70442
-20.96849
-24.67773
-28.5461
-32.06824
-34.56454
-35.3371
-33.87611
-30.04207
-24.16562
-16.99533
-9.38501
-2.077972
4.506134
10.2803
15.32426
19.69452
23.30998
25.99319
27.63127
28.29764
28.25696
27.8698
27.4297
27.04604
26.64766
26.09094
25.2603
24.13809
22.80315
21.36137
19.88409
18.36057
16.72191
14.88577
12.80409
10.47256
7.933456
5.246201
2.472458
-0.3126984
-3.054749
-5.715958
-8.251694
-10.65169
-12.91722
-15.10362
-17.30789
-19.67023
-22.31035
-25.24074
-28.32193
-31.19724
-33.34186
-34.20352
-33.33789
-30.5443
-25.93277
-19.88042
-12.90337
-5.572113
1.586746
8.167023
13.87186
18.54099
22.12651
24.65158
26.21779
26.9382
26.95763
26.45834
25.64352
24.72588
23.89214
23.22977
22.74434
22.36263
21.99596
21.52174
20.84448
19.89357
18.62083
17.02478
15.15215
13.09604
10.96748
8.867905
6.845718
4.88002
2.90564
0.8166046
-1.443771
-3.862991
-6.347885
-8.740097
-10.92888
-12.88411
-14.73047
-16.68051
-18.96231
-21.69264
-24.80585
-28.01651
-30.81454
-32.59813
-32.78706
-31.01332
-27.23715
-21.82451
-15.40695
-8.735031
-2.438843
3.137283
7.909882
11.97
15.41165
18.22478
20.29565
21.50626
21.8667
21.54104
20.84332
20.10116
19.57465
19.35981
19.41367
19.60715
19.77674
19.77882
19.48042
18.77255
17.5977
15.97866
14.02573
11.91156
9.844315
7.970589
6.332367
4.850517
3.386192
1.777039
-0.07980347
-2.203445
-4.537949
-6.938499
-9.256363
-11.35428
-13.16339
-14.73951
-16.23593
-17.88107
-19.85188
-22.21983
-24.859
-27.45261
-29.51951
-30.50529
-29.91963
-27.50147
-23.31262
-17.75042
-11.47713
-5.220848
0.4476929
5.259148
9.253517
12.62644
15.53179
17.97005
19.78571
20.82404
21.04995
20.63343
19.87866
19.09358
18.43712
17.90168
17.36267
16.71189
15.97415
15.27858
14.79714
14.58156
14.52605
14.36963
13.81365
12.64775
10.86767
8.666786
6.365738
4.257141
2.4804
0.9943409
-0.3902378
-1.878284
-3.598343
-5.541609
-7.595831
-9.628338
-11.53877
-13.29599
-14.94571
-16.57483
-18.26177
-20.09306
-22.0934
-24.19543
-26.16632
-27.60424
-27.99596
-26.88639
-24.05735
-19.64474
-14.18228
-8.385403
-2.954662
1.679049
5.407209
8.359395
10.71109
12.52705
13.73744
14.21081
13.92392
13.04468
11.90911
10.88361
10.2254
9.960976
9.936329
9.904921
9.643688
9.076702
8.244081
7.269829
6.267025
5.278725
4.271523
3.181221
1.9557
0.5798874
-0.8948936
-2.414505
-3.940899
-5.475536
-7.058594
-8.74173
-10.52322
-12.34927
-14.14878
-15.87202
-17.52253
-19.15951
-20.83833
-22.5629
-24.22043
-25.55539
-26.19329
-25.74083
-23.90791
-20.67102
-16.32328
-11.38949
-6.468025
-2.029839
1.684998
4.66803
7.042694
8.930389
10.37247
11.29436
11.63678
11.3911
10.65372
9.626915
8.547699
7.606033
6.909477
6.427742
6.024368
5.533752
4.863892
4.025032
3.151215
2.402626
1.838829
1.357101
0.7552414
-0.1949387
-1.579605
-3.335182
-5.266052
-7.15126
-8.847549
-10.33523
-11.70839
-13.09653
-14.59598
-16.2343
-18.00829
-19.90747
-21.91223
-23.98238
-25.96699
-27.54117
-28.24553
-27.61446
-25.35851
-21.51762
-16.48573
-10.88037
-5.332245
-0.2950668
4.041618
7.662392
10.62111
12.92109
14.50863
15.33901
15.48616
15.15032
14.62239
14.17436
13.9621
13.98494
14.11095
14.12825
13.87468
13.27448
12.37635
11.32054
10.27655
9.365372
8.620934
7.971825
7.267464
6.356339
5.132011
3.56778
1.724655
-0.3004074
-2.381256
-4.40332
-6.265854
-7.919312
-9.36586
-10.67555
-11.99729
-13.48865
-15.26439
-17.2722
-19.24675
-20.73361
-21.2188
-20.27608
-17.78445
-13.94411
-9.218201
-4.2043
0.5815811
4.822327
8.391769
11.28087
13.49915
15.03953
15.87454
16.05495
15.71174
15.04231
14.25231
13.50052
12.85387
12.31243
11.83998
11.3593
10.81836
10.17546
9.436134
8.639709
7.851837
7.117439
6.396126
5.568771
4.46431
2.980774
1.111839
-0.9773026
-3.069107
-4.962944
-6.579651
-7.977837
-9.276016
-10.60814
-12.03408
-13.56274
-15.15253
-16.73351
-18.19512
-19.35827
-19.97139
-19.73534
-18.45269
-16.07198
-12.7737
-8.905663
-4.852493
-0.9644775
2.533287
5.510048
7.913727
9.669014
10.73194
11.09985
10.88161
10.2941
9.595055
9.014717
8.665306
8.513588
8.386436
8.107231
7.540443
6.718719
5.770821
4.887321
4.196373
3.715408
3.300858
2.723656
1.777565
0.3292618
-1.575745
-3.75293
-5.957405
-7.957748
-9.628174
-10.98215
-12.12371
-13.2254
-14.45182
-15.91013
-17.61526
-19.49293
-21.33324
-22.82946
-23.57365
-23.17596
-21.37164
-18.18327
-13.91942
-9.094353
-4.267273
0.1625748
3.990677
7.21524
9.9245
12.17005
13.91699
15.0868
15.61829
15.56104
15.1042
14.48907
13.93383
13.57892
13.4353
13.3895
13.28516
12.95598
12.30921
11.36232
10.20529
8.983841
7.839615
6.865471
6.065804
5.367714
4.651878
3.745689
2.531181
0.9376678
-0.9914627
-3.097679
-5.159637
-6.977089
-8.433929
-9.592094
-10.67329
-11.97853
-13.78564
-16.19104
-19.03812
-21.9067
-24.21532
-25.32715
-24.77542
-22.37981
-18.33227
-13.1479
-7.510551
-2.038094
2.844063
6.95118
10.29719
12.93452
14.8969
16.17942
16.80223
16.8715
16.59495
16.1926
15.81926
15.52011
15.21838
14.78596
14.14611
13.3002
12.32408
11.3434
10.45635
9.694923
9.011612
8.28241
7.334602
6.052628
4.378494
2.363052
0.1397705
-2.115501
-4.248032
-6.154259
-7.857056
-9.457169
-11.07796
-12.85745
-14.82941
-16.93797
-18.97992
-20.672
-21.65801
-21.60388
-20.26264
-17.55129
-13.62345
-8.867638
-3.821724
0.9570923
5.052704
8.312332
10.77409
12.57515
13.81995
14.49561
14.56862
14.05804
13.11899
12.05779
11.20105
10.74658
10.68736
10.80814
10.80118
10.43626
9.643425
8.530083
7.312157
6.191269
5.232605
4.366135
3.419388
2.190262
0.58535
-1.361595
-3.486664
-5.569725
-7.431107
-9.014717
-10.40244
-11.77552
-13.3364
-15.20714
-17.39127
-19.70993
-21.84644
-23.36897
-23.84739
-22.93407
-20.49368
-16.66944
-11.87528
-6.687988
-1.689453
2.698265
6.300682
9.131493
11.29092
12.85921
13.82251
14.16603
13.92268
13.28835
12.54838
11.9788
11.70737
11.66103
11.62663
11.34998
10.71394
9.765144
8.681114
7.651985
6.780991
6.012428
5.143417
3.961845
2.294487
0.1477356
-2.295578
-4.741096
-6.898674
-8.613869
-9.952766
-11.14009
-12.45402
-14.11823
-16.20166
-18.64104
-21.25079
-23.73392
-25.72175
-26.79532
-26.58184
-24.84055
-21.58917
-17.13995
-12.01322
-6.763931
-1.806824
2.651611
6.575478
9.971748
12.80755
14.97417
16.33257
16.83366
16.57353
15.79494
14.81556
13.93501
13.33305
13.02988
12.92273
12.82848
12.59634
12.1459
11.50072
10.71365
9.829224
8.828159
7.628887
6.162197
4.401562
2.429161
0.3851776
-1.576862
-3.363846
-4.995277
-6.544762
-8.113251
-9.768917
-11.55895
-13.50039
-15.63083
-17.94224
-20.31411
-22.44452
-23.85202
-23.9939
-22.44791
-19.1324
-14.3395
-8.689087
-2.899906
2.457542
7.050934
10.80441
13.73786
15.87915
17.19128
17.6339
17.25651
16.27225
15.03669
13.91494
13.15901
12.79666
12.68378
12.56572
12.223
11.56872
10.67174
9.679394
8.717117
7.777317
6.711418
5.302044
3.394241
1.020737
-1.582104
-4.070595
-6.176159
-7.824684
-9.151852
-10.44531
-11.97478
-13.89532
-16.20983
-18.7816
-21.37629
-23.66451
-25.26092
-25.7457
-24.80858
-22.32703
-18.45402
-13.57236
-8.204803
-2.861126
2.095379
6.415878
9.980244
12.72803
14.62503
15.68863
16.01455
15.73706
15.0683
14.25068
13.50884
13.0046
12.81872
12.87687
13.01201
12.98756
12.63716
11.92364
10.95214
9.890162
8.874079
7.919514
6.933046
5.775541
4.324392
2.555513
0.5355682
-1.635605
-3.840075
-5.994846
-8.052906
-10.03083
-11.97145
-13.99786
-16.2687
-18.88723
-21.84208
-24.90224
-27.63127
-29.50043
-30.01636
-28.87378
-26.03893
-21.76996
-16.50943
-10.79595
-5.103258
0.2186861
4.978779
9.123168
12.64604
15.52305
17.7192
19.18063
19.90417
19.94543
19.46313
18.64012
17.6856
16.76436
15.96017
15.32432
14.86705
14.55068
14.30421
14.02778
13.57691
12.8449
11.74781
10.27198
8.452691
6.376159
4.141992
1.866464
-0.337134
-2.376828
-4.182396
-5.764432
-7.184975
-8.585492
-10.13844
-11.99431
-14.24091
-16.87255
-19.79622
-22.8102
-25.61716
-27.82503
-28.9702
-28.64327
-26.5817
-22.77418
-17.50474
-11.30236
-4.777708
1.49326
7.083261
11.76547
15.43562
18.0597
19.64958
20.29185
20.14544
19.48606
18.60944
17.76873
17.11872
16.69328
16.42838
16.22478
16.00728
15.70445
15.29789
14.7737
14.10478
13.2911
12.31629
11.15709
9.777052
8.145805
6.252764
4.163301
2.013113
-0.05468559
-1.919209
-3.578873
-5.122858
-6.702248
-8.455231
-10.4647
-12.74544
-15.27873
-17.98931
-20.69966
-23.09523
-24.7338
-25.1153
-23.86506
-20.91693
-16.54395
-11.30034
-5.819521
-0.5970783
4.069344
8.105865
11.53757
14.36091
16.50204
17.86287
18.41726
18.24608
17.55124
16.58019
15.56396
14.68262
14.00161
13.51114
13.11292
12.69828
12.15955
11.46061
10.61568
9.67786
8.692036
7.617224
6.381866
4.897503
3.120634
1.086554
-1.066534
-3.176783
-5.127886
-6.898018
-8.571537
-10.26076
-12.0434
-13.93462
-15.8995
-17.8903
-19.88859
-21.93463
-23.98868
-25.8759
-27.21799
-27.49757
-26.24181
-23.24897
-18.7148
-13.19184
-7.387968
-1.893618
2.974688
7.192335
10.86281
14.03861
16.65173
18.53628
19.58331
19.83345
19.50428
18.86121
18.12687
17.41941
16.75376
16.12939
15.55575
15.07178
14.6616
14.27116
13.79617
13.12683
12.22737
11.10066
9.78668
8.32473
6.731234
4.981997
3.060591
0.9857635
-1.19104
-3.407757
-5.575321
-7.649956
-9.600403
-11.43009
-13.19142
-14.96429
-16.8253
-18.86995
-21.13763
-23.56734
-25.93186
-27.8157
-28.71889
-28.18156
-25.94799
-22.0868
-17.01158
-11.3333
-5.673476
-0.4717493
4.062566
7.925498
11.18134
13.87682
15.98231
17.40036
18.08511
18.10134
17.60789
16.84659
16.06485
15.41499
14.94493
14.60354
14.30011
13.97886
13.6163
13.20894
12.73137
12.1321
11.34638
10.36875
9.237747
8.031959
6.783741
5.444865
3.912414
2.098133
0.01827335
-2.198572
-4.35174
-6.285714
-7.958557
-9.455149
-10.94614
-12.60715
-14.55669
-16.85771
-19.4652
-22.17642
-24.64694
-26.37761
-26.85247
-25.69694
-22.82856
-18.4869
-13.17863
-7.474458
-1.886954
3.235057
7.726036
11.50901
14.54852
16.80527
18.23116
18.81897
18.62759
17.84122
16.70699
15.49626
14.42557
13.62167
13.09753
12.77509
12.54643
12.29575
11.94741
11.42642
10.70823
9.769564
8.623511
7.30686
5.839892
4.236506
2.476559
0.5436852
-1.560634
-3.778134
-6.017026
-8.168012
-10.15927
-11.97978
-13.68218
-15.373
-17.16488
-19.16774
-21.40442
-23.74874
-25.88154
-27.30144
-27.45848
-25.95538
-22.71043
-18.04176
-12.56276
-6.953748
-1.743285
2.823087
6.734756
10.05906
12.79122
14.82892
16.03431
16.36594
15.94618
15.07278
14.08453
13.23438
12.63298
12.2146
11.84339
11.41275
10.90602
10.40883
10.02338
9.78826
9.617681
9.333703
8.74145
7.722929
6.292748
4.578091
2.711246
0.7526875
-1.327592
-3.592772
-6.046112
-8.581929
-11.01172
-13.14723
-14.90614
-16.37297
-17.75784
-19.32603
-21.26546
-23.53885
-25.86872
-27.73891
-28.53588
-27.72596
-25.04775
-20.58031
-14.75419
-8.217964
-1.662548
4.322378
9.346746
13.23256
15.97406
17.66488
18.48518
18.62831
18.335
17.84217
17.30889
16.85801
16.50312
16.19183
15.83214
15.34909
14.70698
13.94712
13.15472
12.40633
11.75675
11.16909
10.55563
9.809071
8.811546
7.50519
5.883686
4.009378
1.973598
-0.131546
-2.241425
-4.310896
-6.32296
-8.238314
-10.03035
-11.71469
-13.36005
-15.13241
-17.19544
-19.65331
-22.39368
-25.04793
-27.07464
-27.9102
-27.16978
-24.75855
-20.88946
-15.9664
-10.46354
-4.827795
0.5441856
5.307682
9.187263
11.96877
13.59818
14.20223
14.07666
13.57707
13.02801
12.61545
12.39554
12.29894
12.21902
12.06181
11.74949
11.27618
10.63754
9.859612
8.986294
8.076771
7.170141
6.246319
5.237761
4.018127
2.503756
0.696167
-1.284407
-3.243578
-4.980568
-6.427298
-7.664696
-8.896399
-10.40883
-12.42946
-15.03766
-18.15086
-21.46479
-24.48078
-26.61494
-27.30965
-26.2149
-23.31053
-18.9126
-13.5574
-7.847187
-2.266815
2.857262
7.360506
11.11536
14.0041
15.92216
16.85321
16.90625
16.30746
15.34896
14.27025
13.24455
12.34398
11.59782
10.99875
10.52589
10.13092
9.724239
9.250723
8.657759
7.911795
6.976183
5.781069
4.261404
2.393675
0.2549973
-1.994846
-4.184881
-6.21785
-8.127916
-10.04054
-12.07242
-14.28959
-16.67513
-19.20339
-21.85128
-24.57176
-27.20559
-29.39496
-30.6224
-30.37411
-28.3199
-24.51174
-19.35519
-13.49947
-7.586744
-2.086478
2.77416
6.952406
10.46396
13.29303
15.35996
16.57367
16.9168
16.50948
15.60669
14.52058
13.52919
12.78629
12.29706
11.97767
11.70187
11.38984
11.02683
10.59814
10.06471
9.343568
8.290562
6.780877
4.740956
2.217019
-0.6173565
-3.49187
-6.132354
-8.351894
-10.08343
-11.46081
-12.6976
-14.07051
-15.79174
-17.95572
-20.48954
-23.14061
-25.51486
-27.09459
-27.39693
-26.06024
-22.99975
-18.45214
-12.93417
-7.101449
-1.560468
3.269921
7.217363
10.29294
12.63454
14.38455
15.63753
16.4419
16.81428
16.79134
16.4551
15.9277
15.31153
14.66791
14.0019
13.28835
12.53037
11.79179
11.15952
10.69454
10.35659
9.966921
9.268957
8.052769
6.201889
3.785488
1.016979
-1.833546
-4.494423
-6.789314
-8.673683
-10.25174
-11.76112
-13.51049
-15.7705
-18.63811
-22.00735
-25.49552
-28.55013
-30.54588
-30.95848
-29.47272
-26.09919
-21.15364
-15.17135
-8.774033
-2.508698
3.245255
8.265148
12.47348
15.83476
18.32238
19.94037
20.7379
20.86683
20.55284
20.05627
19.57877
19.20809
18.93357
18.64981
18.25523
17.66071
16.84645
15.82457
14.66392
13.41112
12.0952
10.71954
9.238136
7.597305
5.755516
3.720604
1.530144
-0.7188187
-2.929611
-5.064064
-7.148102
-9.266808
-11.49494
-13.87169
-16.39141
-19.03727
-21.7362
-24.34415
-26.60106
-28.0719
-28.25536
-26.72627
-23.30948
-18.19492
-11.91599
-5.160675
1.402855
7.310333
12.35093
16.47227
19.71834
22.10645
23.61542
24.24918
24.12733
23.46936
22.60808
21.87326
21.42919
21.24015
21.0978
20.73377
19.96693
18.80932
17.42149
16.01828
14.75702
13.6115
12.42342
10.98305
9.162186
6.958519
4.535454
2.085686
-0.2171478
-2.320816
-4.283257
-6.190613
-8.105827
-10.00304
-11.84029
-13.63579
-15.53538
-17.73751
-20.3485
-23.19526
-25.731
-27.16125
-26.75565
-24.13538
-19.48409
-13.48561
-7.043945
-0.9382172
4.371887
8.820549
12.54605
15.69614
18.27673
20.15512
21.18582
21.3512
20.839
19.97148
19.11289
18.49487
18.19279
18.08753
17.98257
17.69948
17.16147
16.39542
15.46851
14.41559
13.21892
11.82256
10.18256
8.350967
6.427902
4.543907
2.76931
1.097031
-0.5596313
-2.298447
-4.160049
-6.123108
-8.101906
-10.02084
-11.89365
-13.81779
-15.94261
-18.41682
-21.24129
-24.23177
-27.01396
-29.061
-29.85105
-28.98808
-26.34698
-22.10893
-16.71946
-10.77122
-4.833603
0.6576385
5.465591
9.485405
12.70861
15.12871
16.72677
17.55265
17.75235
17.60895
17.4197
17.41874
17.64726
17.94877
18.09527
17.91165
17.40884
16.76744
16.19078
15.78363
15.45705
14.97049
14.07932
12.69548
10.93798
9.071201
7.337086
5.858826
4.586346
3.364079
2.027485
0.4903336
-1.244762
-3.117706
-5.079666
-7.072994
-9.019615
-10.82099
-12.38117
-13.69859
-14.89952
-16.25328
-18.04848
-20.44324
-23.27726
-26.04624
-28.02072
-28.47835
-26.9663
-23.45735
-18.37724
-12.42982
-6.377432
-0.8262272
3.894674
7.711245
10.75214
13.18022
15.10169
16.52222
17.40876
17.74953
17.61102
17.1463
16.54966
15.99634
15.55962
15.2367
14.99698
14.83789
14.781
14.84174
14.97538
15.06758
14.93301
14.41285
13.44106
12.06697
10.46759
8.865229
7.470372
6.391767
5.612185
4.998395
4.379161
3.615235
2.64924
1.514484
0.2848167
-0.9842739
-2.28895
-3.667091
-5.167496
-6.765594
-8.40731
-10.01626
-11.53722
-12.97289
-14.39005
-15.86813
-17.52881
-19.46389
-21.68752
-24.08633
-26.3905
-28.14715
-28.87726
-28.19955
-25.98265
-22.39883
-17.85048
-12.84998
-7.867573
-3.233894
0.8827744
4.423119
7.407997
9.854729
11.7949
13.25452
14.2557
14.82296
14.99873
14.85265
14.4733
13.97798
13.43304
12.88956
12.34086
11.7902
11.23466
10.72227
10.28789
9.94133
9.650749
9.337883
8.902542
8.260414
7.360771
6.233147
4.965454
3.685791
2.509041
1.499428
0.6193542
-0.2460709
-1.265755
-2.602829
-4.2882
-6.240753
-8.259384
-10.10953
-11.64703
-12.85835
-13.86234
-14.84385
-15.97987
-17.34943
-18.97458
-20.80221
-22.73545
-24.64082
-26.31532
-27.42995
-27.59846
-26.46219
-23.81433
-19.7709
-14.71391
-9.213737
-3.907768
0.7298584
4.460762
7.302185
9.406891
10.97453
12.1119
12.84554
13.16721
13.09671
12.761
12.35331
12.04322
11.90622
11.90971
11.91824
11.81212
11.55586
11.18343
10.79445
10.45271
10.12929
9.73027
9.137543
8.244064
7.040756
5.596802
4.045837
2.543976
1.219193
0.1253967
-0.7614441
-1.535492
-2.337631
-3.322662
-4.561203
-6.030624
-7.581253
-9.003342
-10.14664
-10.9866
-11.66368
-12.41782
-13.48239
-15.01463
-17.04839
-19.44484
-21.90709
-24.01283
-25.27371
-25.26324
-23.71858
-20.67216
-16.44955
-11.58144
-6.6315
-2.046631
1.912918
5.158218
7.675873
9.450882
10.49754
10.87953
10.75082
10.34839
9.938461
9.697266
9.68364
9.821472
9.954666
9.958817
9.785919
9.481979
9.141449
8.803238
8.4384
7.953506
7.260651
6.323257
5.178192
3.915237
2.630112
1.383102
0.2008514
-0.9278412
-2.054367
-3.272263
-4.665192
-6.274246
-8.052551
-9.882263
-11.61693
-13.17612
-14.56
-15.84872
-17.15347
-18.5529
-20.08292
-21.77592
-23.61955
-25.5273
-27.24445
-28.32698
-28.25333
-26.62692
-23.36208
-18.80655
-13.61421
-8.484985
-3.902313
-0.007064819
3.325424
6.283813
8.938171
11.19354
12.85271
13.78148
13.99942
13.67941
13.05896
12.34866
11.6591
10.99922
10.35069
9.711441
9.145447
8.749725
8.607773
8.726563
8.998459
9.218369
9.11676
8.485764
7.279037
5.642166
3.813065
2.015488
0.3460236
-1.275436
-2.977097
-4.849304
-6.822388
-8.707199
-10.30318
-11.5414
-12.54628
-13.55611
-14.81476
-16.45633
-18.47804
-20.76639
-23.15007
-25.41373
-27.26132
-28.30051
-28.10951
-26.38319
-23.06009
-18.43297
-13.06892
-7.625229
-2.653137
1.602768
5.172226
8.229767
10.93761
13.31439
15.22281
16.51408
17.13889
17.18066
16.86227
16.39568
15.91705
15.46771
15.03484
14.62293
14.26163
14.00574
13.87103
13.76929
13.54613
12.9892
11.98128
10.50549
8.662422
6.644806
4.634285
2.757408
1.057213
-0.5077438
-2.008812
-3.504143
-5.017937
-6.534531
-8.043404
-9.576653
-11.19617
-12.99888
-15.1054
-17.56911
-20.35329
-23.24353
-25.81393
-27.47991
-27.64287
-25.91588
-22.29462
-17.22498
-11.42828
-5.670509
-0.4790497
3.961441
7.763206
11.10423
14.05858
16.51408
18.27382
19.21557
19.39169
19.02714
18.42055
17.78495
17.21417
16.68581
16.13129
15.51901
14.84972
14.13574
13.39064
12.64498
11.90869
11.18781
10.45063
9.605782
8.536507
7.148697
5.419975
3.431763
1.355469
-0.654335
-2.477562
-4.08493
-5.529572
-6.93055
-8.410606
-10.06383
-11.90741
-13.89893
-15.98228
-18.11243
-20.25375
-22.31228
-24.02046
-24.90996
-24.3875
-22.0181
-17.81384
-12.27037
-6.250153
-0.625576
4.048447
7.680477
10.52365
12.91718
15.02151
16.73632
17.81477
18.09937
17.66862
16.83793
16.02225
15.53307
15.45857
15.65737
15.85223
15.77324
15.29535
14.46311
13.43837
12.39969
11.40447
10.37512
9.145664
7.568737
5.607243
3.376869
1.120369
-0.9158669
-2.623779
-4.063576
-5.42968
-6.942238
-8.702396
-10.68354
-12.78712
-14.93218
-17.14663
-19.49738
-21.99343
-24.40923
-26.25744
-26.89698
-25.77686
-22.68502
-17.86238
-11.92377
-5.641289
0.3017807
5.464497
9.64452
12.82346
15.03255
16.30996
16.69718
16.29448
15.29454
13.99634
12.71
11.68771
11.0424
10.71552
10.53347
10.29339
9.854404
9.216904
8.469282
7.729984
7.05195
6.326637
5.356495
3.947662
2.013657
-0.3644962
-2.961321
-5.514147
-7.824144
-9.836941
-11.63521
-13.39866
-15.33388
-17.59155
-20.19759
-22.98568
-25.59342
-27.50575
-28.1711
-27.15297
-24.28871
-19.74644
-14.00446
-7.716593
-1.524776
4.069836
8.770632
12.47511
15.18991
16.95682
17.85128
17.96242
17.43811
16.47379
15.28215
14.04433
12.87341
11.819
10.84944
9.964152
9.177549
8.530945
8.033817
7.644444
7.227286
6.608208
5.603665
4.058008
1.931002
-0.6882823
-3.618209
-6.60388
-9.426364
-11.9789
-14.32587
-16.65947
-19.23132
-22.1784
-25.4159
-28.60064
-31.14772
-32.41927
-31.89954
-29.35267
-24.8991
-19.02243
-12.37336
-5.639606
0.6285419
6.149178
10.81913
14.65784
17.67794
19.83112
21.04214
21.31007
20.77685
19.74705
18.61292
17.69414
17.13593
16.86371
16.65354
16.2621
15.54295
14.50415
13.25482
11.9577
10.6651
9.302967
7.704575
5.667385
3.092892
0.06498718
-3.159733
-6.248978
-8.90546
-11.05342
-12.85167
-14.63232
-16.79472
-19.62554
-23.17532
-27.20363
-31.19088
-34.4062
-36.09677
-35.65829
-32.81799
-27.72251
-20.93485
-13.2592
-5.523071
1.628212
7.855049
13.07673
17.3649
20.79668
23.34414
24.93216
25.5117
25.15147
24.10918
22.78014
21.56013
20.72204
20.34192
20.27168
20.24627
19.99413
19.35847
18.33572
17.07809
15.76925
14.5332
13.3577
12.09684
10.55882
8.582069
6.141624
3.33902
0.3770447
-2.561684
-5.366379
-8.04171
-10.65939
-13.28086
-15.95845
-18.71795
-21.61051
-24.70276
-27.9808
-31.26149
-34.11553
-35.89251
-35.88141
-33.57278
-28.87218
-22.19708
-14.33942
-6.221939
1.387718
8.043785
13.59966
18.11034
21.65674
24.26627
25.94575
26.75629
26.85103
26.49467
25.96597
25.469
25.06165
24.67767
24.23162
23.67856
23.05988
22.45991
21.94417
21.47451
20.90509
20.00848
18.60159
16.64084
14.23155
11.57274
8.851707
6.193596
3.63092
1.121658
-1.359291
-3.820816
-6.213257
-8.487091
-10.61015
-12.59599
-14.4886
-16.34793
-18.22794
-20.21416
-22.44397
-25.06618
-28.15176
-31.50247
-34.5741
-36.53391
-36.49681
-33.88203
-28.6759
-21.49677
-13.36826
-5.343414
1.837845
7.884171
12.84598
16.88693
20.07417
22.34875
23.60074
23.84969
23.31693
22.38033
21.44225
20.75903
20.39366
20.21378
20.0349
19.73734
19.31886
18.87027
18.47784
18.13156
17.67737
16.89662
15.61711
13.81757
11.66788
9.437195
7.348022
5.481461
3.718445
1.846466
-0.3356628
-2.857346
-5.611435
-8.359634
-10.89865
-13.11899
-15.0522
-16.84059
-18.6698
-20.73412
-23.19807
-26.13173
-29.42052
-32.69101
-35.29668
-36.47699
-35.58264
-32.30769
-26.82516
-19.75249
-11.95149
-4.23819
2.778259
8.793793
13.68768
17.47456
20.18504
21.88287
22.68604
22.76479
22.37335
21.75912
21.13948
20.62877
20.26607
20.02139
19.81622
19.58234
19.27671
18.90712
18.48762
18.01668
17.423
16.59404
15.3756
13.66562
11.4822
8.984741
6.416199
4.028954
1.981789
0.2669067
-1.260811
-2.835793
-4.668396
-6.841255
-9.286247
-11.8133
-14.20014
-16.32629
-18.22173
-20.07329
-22.14407
-24.64869
-27.67168
-31.09361
-34.57301
-37.57302
-39.44044
-39.54542
-37.44155
-33.02859
-26.62082
-18.91202
-10.77187
-3.003555
3.855927
9.58876
14.2172
17.87325
20.6319
22.50248
23.48321
23.63483
23.14086
22.28807
21.39864
20.70583
20.30321
20.13433
20.05412
19.92098
19.64043
19.22187
18.7128
18.16483
17.56303
16.80676
15.771
14.3485
12.56145
10.51437
8.395035
6.364861
4.518272
2.816551
1.094933
-0.8287354
-3.096466
-5.705299
-8.518272
-11.27103
-13.687
-15.59892
-17.02904
-18.18455
-19.3832
-20.94855
-23.06059
-25.75169
-28.87767
-32.11827
-34.98156
-36.84681
-37.05208
-35.091
-30.7761
-24.37726
-16.60051
-8.393997
-0.68396
5.885284
11.05127
14.88435
17.63014
19.55121
20.80505
21.47439
21.58548
21.24451
20.631
19.97872
19.48629
19.22589
19.14029
19.08131
18.93967
18.7084
18.48106
18.3474
18.27699
18.06816
17.40501
16.03479
13.88681
11.17355
8.292259
5.657677
3.534302
1.959145
0.7639313
-0.3266983
-1.573891
-3.138161
-5.054169
-7.232048
-9.523598
-11.75198
-13.82819
-15.75018
-17.654
-19.73802
-22.19913
-25.11762
-28.38245
-31.65677
-34.40877
-35.99976
-35.82689
-33.52438
-29.05726
-22.80029
-15.40708
-7.684074
-0.3862915
5.943886
11.00721
14.73573
17.21891
18.64285
19.24218
19.27886
18.99717
18.59727
18.2244
17.96719
17.87701
17.94208
18.10757
18.26833
18.29023
18.06417
17.55293
16.78448
15.80052
14.62864
13.2422
11.612
9.739952
7.71431
5.672554
3.753204
2.00666
0.3572235
-1.337547
-3.199234
-5.261368
-7.422157
-9.558838
-11.57578
-13.49618
-15.44791
-17.60345
-20.08473
-22.91663
-26.00329
-29.16608
-32.14144
-34.55942
-35.96699
-35.87125
-33.87514
-29.86005
-24.0882
-17.15787
-9.848557
-2.861183
3.326225
8.553726
12.82153
16.19213
18.66416
20.18439
20.7642
20.53634
19.79531
18.89793
18.14407
17.6559
17.41887
17.29604
17.15228
16.90426
16.54136
16.0593
15.42842
14.56245
13.37778
11.84274
10.05368
8.208221
6.504417
5.078957
3.893791
2.773674
1.45401
-0.2917252
-2.565437
-5.275017
-8.193855
-11.03445
-13.56099
-15.66375
-17.36842
-18.88374
-20.50051
-22.55042
-25.24105
-28.54059
-32.06498
-35.10201
-36.78156
-36.35142
-33.45823
-28.28918
-21.48029
-13.8763
-6.276031
0.7591934
6.904457
12.01271
16.01617
18.89141
20.67138
21.50466
21.62605
21.32114
20.85088
20.3833
19.97675
19.58309
19.11556
18.4963
17.69324
16.75002
15.771
14.85367
14.04385
13.31072
12.56095
11.68517
10.60246
9.263969
7.651703
5.782471
3.695763
1.429695
-0.9357071
-3.333084
-5.685127
-7.946922
-10.10476
-12.17624
-14.22898
-16.38618
-18.83031
-21.68195
-24.96069
-28.44635
-31.70521
-34.14574
-35.16204
-34.3229
-31.47321
-26.78465
-20.69278
-13.8087
-6.777252
-0.1474228
5.690086
10.54934
14.38115
17.2341
19.15176
20.20245
20.44022
19.99503
19.08069
17.94628
16.8549
15.97853
15.40947
15.11976
15.0291
14.98631
14.8507
14.50711
13.88315
12.99856
11.92523
10.76485
9.546074
8.202187
6.56662
4.479416
1.894043
-1.064186
-4.123299
-6.971054
-9.418396
-11.47462
-13.30097
-15.12527
-17.12707
-19.35823
-21.82973
-24.53231
-27.42724
-30.36972
-33.01478
-34.74001
-34.80337
-32.61602
-28.02474
-21.4622
-13.83076
-6.170097
0.6971512
6.378204
10.89542
14.46167
17.26584
19.35638
20.68867
21.22284
21.0752
20.50161
19.82524
19.30322
19.01572
18.89719
18.80704
18.62408
18.29871
17.84504
17.27198
16.55734
15.64411
14.43766
12.9017
11.05756
8.982491
6.776299
4.54129
2.32679
0.1135178
-2.135689
-4.479607
-6.930908
-9.434685
-11.89562
-14.18446
-16.23434
-18.07385
-19.86561
-21.8353
-24.21823
-27.12768
-30.47669
-33.93431
-36.92852
-38.74571
-38.70541
-36.3674
-31.69343
-25.07809
-17.263
-9.102058
-1.356964
5.460426
11.13271
15.64146
19.06432
21.4796
22.95607
23.57454
23.45757
22.77345
21.74006
20.58259
19.52643
18.73006
18.2372
18.00249
17.86195
17.61883
17.12158
16.30145
15.19707
13.89369
12.46064
10.93794
9.310875
7.532486
5.57618
3.443512
1.170418
-1.194977
-3.617813
-6.053955
-8.471596
-10.8372
-13.13576
-15.37592
-17.58738
-19.83876
-22.20621
-24.74335
-27.37642
-29.84023
-31.65836
-32.23827
-31.02486
-27.7276
-22.49493
-15.86162
-8.637833
-1.62236
4.633377
9.898651
14.21204
17.70988
20.4481
22.3557
23.3026
23.2095
22.21458
20.65709
19.01387
17.73489
17.05711
16.96902
17.23817
17.54602
17.61543
17.29601
16.59656
15.60597
14.42859
13.10583
11.60515
9.833008
7.728668
5.308487
2.708908
0.1418457
-2.204376
-4.236542
-5.979691
-7.580948
-9.199432
-10.94949
-12.8849
-15.02209
-17.3994
-20.09885
-23.20123
-26.6698
-30.23473
-33.34451
-35.25497
-35.24196
-32.87782
-28.18735
-21.70468
-14.28496
-6.822311
0.0171814
5.921814
10.84276
14.84142
17.91026
19.98936
21.00977
21.06682
20.46623
19.63893
18.99304
18.7467
18.86923
19.15608
19.38477
19.42462
19.27594
18.99759
18.60641
18.01794
17.062
15.60101
13.60759
11.22932
8.710251
6.303253
4.154617
2.248001
0.4669647
-1.324524
-3.182846
-5.095001
-6.999725
-8.863419
-10.70561
-12.60667
-14.664
-16.93227
-19.43881
-22.16081
-25.10191
-28.20399
-31.31668
-34.11537
-36.07164
-36.55145
-35.01419
-31.24806
-25.47772
-18.34154
-10.6772
-3.24176
3.486099
9.362274
14.42981
18.75896
22.3083
24.94037
26.54984
27.1842
27.10315
26.67522
26.25282
26.0273
25.97116
25.90306
25.63655
25.07033
24.2473
23.31226
22.42303
21.64529
20.94069
20.17169
19.20045
17.93245
16.38
14.63539
12.82468
11.04849
9.334244
7.699371
6.13208
4.656937
3.292953
2.033264
0.7903748
-0.5572815
-2.152039
-4.085373
-6.348618
-8.846405
-11.41605
-13.90332
-16.2417
-18.4489
-20.64401
-22.98157
-25.6032
-28.54001
-31.6319
-34.51289
-36.62276
-37.36185
-36.24017
-33.05725
-27.96875
-21.4679
-14.20251
-6.814545
0.1918335
6.516113
11.98123
16.49918
19.98849
22.39268
23.72731
24.12353
23.83127
23.15598
22.39883
21.7766
21.40268
21.27827
21.34934
21.53876
21.76412
21.96822
22.09041
22.09499
21.93475
21.54524
20.85941
19.83799
18.48096
16.85083
15.06428
13.2471
11.54121
10.02953
8.704483
7.499428
6.319221
5.083481
3.767616
2.384766
0.9564514
-0.5219803
-2.06897
-3.70961
-5.402061
-7.067696
-8.630501
-10.06787
-11.47361
-13.02279
-14.89223
-17.18923
-19.8866
-22.83311
-25.77513
-28.40069
-30.35065
-31.25333
-30.7877
-28.79357
-25.32732
-20.6652
-15.24238
-9.5382
-3.922787
1.352386
6.133366
10.2835
13.6601
16.10303
17.5105
17.92812
17.57509
16.80568
16.00203
15.46239
15.32332
15.56654
16.04913
16.59824
17.04947
17.28655
17.26812
16.95566
16.3356
15.40625
14.22115
12.9002
11.60259
10.46218
9.531313
8.731648
7.866288
6.763238
5.34779
3.677974
1.95367
0.3793473
-0.9347634
-2.047104
-3.107526
-4.316209
-5.776354
-7.480927
-9.320242
-11.1232
-12.78486
-14.26586
-15.62714
-16.96234
-18.40195
-20.03825
-21.92784
-24.03102
-26.13383
-27.85926
-28.72485
-28.26231
-26.21486
-22.65487
-17.98296
-12.80106
-7.709095
-3.139233
0.7330551
3.934322
6.595387
8.827835
10.67368
12.11284
13.11229
13.63671
13.72184
13.45766
12.96476
12.3775
11.80742
11.32113
10.95258
10.73976
10.67992
10.76364
10.92425
11.06201
11.07313
10.89855
10.51789
9.954002
9.22451
8.32328
7.254814
6.03643
4.737358
3.447777
2.26638
1.196083
0.1936264
-0.8054352
-1.868324
-3.000771
-4.187233
-5.418854
-6.698204
-8.034424
-9.420547
-10.78801
-12.06938
-13.23124
-14.30501
-15.41492
-16.74335
-18.44946
-20.58173
-23.00986
-25.37416
-27.18063
-27.91386
-27.17429
-24.84012
-21.12563
-16.49327
-11.56042
-6.853714
-2.693939
0.8221436
3.757797
6.226028
8.245468
9.762054
10.72044
11.11201
11.05574
10.74545
10.38121
10.11958
10.01933
10.05759
10.1711
10.28333
10.31781
10.22786
9.989243
9.609955
9.141434
8.655792
8.203156
7.780487
7.352692
6.84111
6.190979
5.371536
4.379562
3.228317
1.9207
0.4485321
-1.168747
-2.864792
-4.546127
-6.082001
-7.403427
-8.509827
-9.49382
-10.49109
-11.59764
-12.81223
-14.04187
-15.15984
-16.12961
-17.04015
-18.0936
-19.50667
-21.35799
-23.50858
-25.55457
-26.93948
-27.13708
-25.80502
-22.90717
-18.72757
-13.79416
-8.725189
-4.057724
-0.1447601
2.900208
5.142487
6.748657
7.906769
8.755814
9.382996
9.810562
10.05632
10.14009
10.11713
10.02208
9.888046
9.717072
9.475159
9.153809
8.787079
8.431747
8.152634
7.942886
7.691269
7.248306
6.459198
5.26088
3.731674
2.051361
0.4288177
-1.009293
-2.217636
-3.280441
-4.305923
-5.39975
-6.644333
-8.06105
-9.605911
-11.19753
-12.73769
-14.13272
-15.3613
-16.49117
-17.6783
-19.11797
-20.95436
-23.18488
-25.59679
-27.77524
-29.18707
-29.32832
-27.875
-24.82069
-20.49669
-15.48492
-10.45233
-5.929367
-2.163696
0.9198914
3.575882
6.072571
8.521973
10.82253
12.76801
14.13161
14.82341
14.92564
14.62109
14.10912
13.5647
13.07025
12.69475
12.46921
12.39513
12.46356
12.6037
12.70909
12.64798
12.32153
11.66997
10.69151
9.424667
7.934265
6.322739
4.717026
3.240219
1.941483
0.8057251
-0.2855988
-1.495758
-2.956543
-4.732147
-6.774551
-8.92746
-10.9877
-12.78842
-14.26938
-15.52097
-16.74887
-18.18184
-20.01639
-22.35536
-25.17439
-28.276
-31.26323
-33.59595
-34.66087
-33.95062
-31.26308
-26.79773
-21.1212
-14.97252
-8.999115
-3.549301
1.333694
5.769974
9.855759
13.53134
16.58528
18.78783
20.03989
20.41081
20.14272
19.53185
18.84674
18.26866
17.87843
17.65649
17.55106
17.49232
17.40216
17.24699
16.9892
16.58737
15.99695
15.15897
14.05348
12.70641
11.21516
9.705811
8.299881
7.040344
5.914871
4.848785
3.754822
2.562897
1.21376
-0.3222809
-2.054733
-3.935608
-5.87265
-7.737885
-9.424454
-10.89923
-12.23146
-13.58485
-15.14552
-17.08002
-19.45062
-22.17003
-24.95897
-27.37616
-28.90704
-29.05516
-27.52112
-24.29117
-19.67902
-14.21536
-8.509918
-3.060364
1.825745
6.05603
9.66333
12.69586
15.16174
17.00018
18.1456
18.59039
18.45335
17.96191
17.38979
16.96396
16.76964
16.75282
16.75098
16.62076
16.30768
15.83556
15.30667
14.7934
14.30833
13.77693
13.10928
12.22684
11.13905
9.920242
8.669189
7.489639
6.390198
5.347641
4.280655
3.112137
1.767639
0.2133636
-1.559204
-3.521591
-5.578064
-7.59108
-9.375687
-10.81683
-11.89908
-12.82494
-13.90517
-15.4557
-17.64951
-20.36877
-23.23514
-25.69211
-27.14174
-27.10962
-25.36113
-21.92635
-17.11354
-11.44595
-5.539467
0.02129364
4.792671
8.576347
11.38895
13.39416
14.73426
15.54064
15.85435
15.72563
15.24708
14.56036
13.84322
13.24718
12.85143
12.63409
12.55396
12.54238
12.57951
12.65488
12.72249
12.69657
12.43939
11.83736
10.85134
9.579918
8.195946
6.888885
5.776054
4.844009
3.957237
2.924385
1.604759
-0.05382538
-1.987007
-4.081146
-6.217239
-8.286377
-10.25051
-12.08798
-13.78274
-15.36379
-16.92949
-18.63098
-20.62525
-22.91567
-25.24546
-27.07836
-27.75333
-26.73022
-23.84606
-19.39702
-14.00358
-8.40181
-3.160065
1.42971
5.332924
8.634377
11.39886
13.58865
15.13436
16.0136
16.28603
16.10246
15.65901
15.12219
14.59184
14.12
13.69545
13.28493
12.85878
12.39609
11.90277
11.43864
11.07202
10.83114
10.6721
10.45808
9.969025
9.053947
7.696587
6.074135
4.501099
3.231026
2.34346
1.65361
0.8378983
-0.4329758
-2.262985
-4.504204
-6.824883
-8.891388
-10.54774
-11.86557
-13.10565
-14.57523
-16.50328
-18.9458
-21.79752
-24.80895
-27.59624
-29.68051
-30.53818
-29.74646
-27.11437
-22.82611
-17.36373
-11.42886
-5.703331
-0.644722
3.564987
6.991508
9.800659
12.13122
14.01405
15.38794
16.19051
16.40461
16.14249
15.56165
14.84744
14.15545
13.57201
13.1389
12.87306
12.81966
12.99289
13.3562
13.76612
13.99865
13.82798
13.1338
11.95959
10.50213
9.014801
7.654602
6.423744
5.161377
3.692932
1.901932
-0.1857834
-2.429825
-4.648544
-6.697502
-8.552551
-10.27045
-11.93599
-13.62749
-15.41336
-17.34923
-19.45382
-21.65705
-23.71651
-25.20396
-25.58224
-24.40686
-21.51095
-17.10523
-11.75001
-6.141411
-0.9107513
3.553291
7.164581
10.0144
12.2553
13.93745
15.01009
15.38984
15.07992
14.2256
13.13256
12.17323
11.61378
11.54924
11.82854
12.1965
12.39136
12.28177
11.86842
11.23445
10.4382
9.454971
8.24514
6.805954
5.236176
3.665977
2.217293
0.8801498
-0.4610825
-1.96035
-3.750488
-5.781281
-7.905655
-9.91658
-11.69678
-13.27578
-14.80128
-16.45615
-18.36427
-20.53401
-22.78468
-24.81667
-26.22243
-26.60764
-25.68296
-23.32362
-19.63155
-14.88428
-9.528442
-4.022636
1.208527
5.857758
9.731117
12.7307
14.82722
16.02743
16.41341
16.11583
15.37368
14.46917
13.68719
13.22883
13.13366
13.29106
13.46056
13.41898
13.03041
12.31423
11.40155
10.45174
9.566883
8.7505
7.924038
6.954479
5.725922
4.153473
2.23423
0.03587341
-2.317177
-4.645264
-6.804188
-8.705959
-10.37682
-11.92687
-13.55671
-15.45477
-17.75513
-20.46354
-23.401
-26.19432
-28.29872
-29.1495
-28.32012
-25.7079
-21.55557
-16.3869
-10.82171
-5.378445
-0.3851738
4.04023
7.871315
11.10719
13.71947
15.63852
16.83457
17.32285
17.21313
16.66068
15.87112
15.05659
14.41491
14.04301
13.90711
13.8671
13.72109
13.29988
12.53911
11.45823
10.17326
8.831081
7.540388
6.308418
5.065945
3.679668
2.0315
0.100687
-2.052176
-4.28105
-6.451561
-8.479609
-10.39502
-12.27146
-14.2289
-16.37629
-18.75589
-21.34646
-24.0305
-26.55154
-28.49757
-29.3988
-28.81655
-26.56385
-22.73468
-17.69071
-11.94696
-6.043406
-0.3948698
4.701002
9.066473
12.61508
15.2937
17.09737
18.06735
18.28206
17.8796
17.06142
16.08545
15.17402
14.48497
14.00441
13.58463
13.01424
12.1489
11.00227
9.749179
8.608779
7.673223
6.872396
5.949293
4.630663
2.762754
0.4036999
-2.182909
-4.687304
-6.875801
-8.724606
-10.34479
-11.94729
-13.70367
-15.7166
-18.02654
-20.62316
-23.43483
-26.2618
-28.73076
-30.27349
-30.30968
-28.406
-24.50681
-18.98076
-12.52206
-5.930656
0.1381989
5.323822
9.567699
12.96555
15.64115
17.6435
18.92699
19.46869
19.32467
18.70999
17.9259
17.28244
16.95232
16.91288
16.9801
16.87336
16.37075
15.39941
14.04081
12.48774
10.92757
9.436913
7.954216
6.341354
4.439903
2.193893
-0.332283
-2.988396
-5.594955
-8.040375
-10.27313
-12.32729
-14.25901
-16.15771
-18.13468
-20.32809
-22.89568
-25.90319
-29.22495
-32.46699
-35.01692
-36.16805
-35.35365
-32.32303
-27.23831
-20.65468
-13.31247
-5.941139
0.9222717
7.015488
12.27689
16.74308
20.44782
23.35603
25.40241
26.57723
26.97488
26.80447
26.33503
25.79007
25.3008
24.8912
24.51337
24.09233
23.56081
22.88707
22.03084
20.96846
19.67838
18.15979
16.45126
14.58717
12.60609
10.50352
8.242859
5.794418
3.158722
0.3959808
-2.397461
-5.088684
-7.56723
-9.741486
-11.60753
-13.24768
-14.84871
-16.6566
-18.90829
-21.74644
-25.13329
-28.78391
-32.19006
-34.71429
-35.72987
-34.8053
-31.82225
-27.01379
-20.8979
-14.0761
-7.09433
-0.3013153
6.104782
12.00813
17.24272
21.55487
24.68169
26.46637
26.9614
26.4834
25.50674
24.50923
23.81371
23.53293
23.55943
23.68834
23.71008
23.51761
23.11797
22.57599
21.94843
21.18741
20.18182
18.78256
16.92491
14.6689
12.19936
9.733231
7.418777
5.29599
3.268784
1.227066
-0.9096069
-3.102142
-5.248917
-7.239532
-9.002487
-10.59569
-12.15752
-13.8976
-16.01138
-18.63286
-21.76118
-25.22495
-28.6564
-31.50407
-33.16185
-33.08604
-31.00067
-26.94923
-21.30161
-14.62949
-7.550751
-0.5759888
5.960388
11.86639
17.02354
21.29619
24.5316
26.59236
27.4753
27.34677
26.56825
25.59789
24.81552
24.4278
24.39357
24.46886
24.37947
23.9476
23.16731
22.18839
21.18903
20.28069
19.45471
18.6053
17.60576
16.40059
15.02007
13.55833
12.11227
10.73923
9.424103
8.151917
6.881668
5.575684
4.212509
2.774979
1.235886
-0.4407043
-2.253128
-4.239517
-6.376694
-8.633698
-10.9628
-13.29022
-15.57849
-17.80742
-20.01489
-22.28116
-24.73268
-27.42967
-30.28275
-32.96765
-34.92686
-35.52264
-34.24426
-30.91422
-25.7807
-19.42979
-12.56194
-5.763626
0.6274567
6.498413
11.78365
16.34961
19.96016
22.38226
23.56631
23.73277
23.30466
22.74962
22.40163
22.31613
22.36461
22.33237
22.09508
21.6951
21.27724
20.99046
20.87109
20.82095
20.63713
20.13982
19.26477
18.09023
16.77762
15.48593
14.3084
13.25227
12.26643
11.26662
10.18884
8.989624
7.649063
6.189278
4.67347
3.188087
1.823822
0.5888367
-0.5867004
-1.867195
-3.417717
-5.322067
-7.50061
-9.749428
-11.80576
-13.49567
-14.81393
-15.91873
-17.06441
-18.50201
-20.37454
-22.71154
-25.38453
-28.14069
-30.6038
-32.30853
-32.77969
-31.65521
-28.80112
-24.39538
-18.90765
-12.97999
-7.223213
-2.083576
2.23682
5.785221
8.725185
11.2221
13.36264
15.12349
16.41356
17.163
17.39043
17.20735
16.82124
16.43043
16.18123
16.11459
16.19848
16.34689
16.47696
16.52707
16.45165
16.20987
15.77364
15.12451
14.27445
13.26867
12.12837
10.85769
9.421503
7.775322
5.926539
3.927964
1.926083
0.0698185
-1.527642
-2.846465
-3.967254
-5.020682
-6.143024
-7.417454
-8.882019
-10.50468
-12.19458
-13.84699
-15.35611
-16.64554
-17.72908
-18.75331
-19.90897
-21.37901
-23.15403
-24.96027
-26.27908
-26.54184
-25.33578
-22.59493
-18.64056
-14.03334
-9.351871
-4.987576
-1.062706
2.463501
5.666676
8.50177
10.82523
12.45214
13.28931
13.41465
13.0221
12.36629
11.67274
11.09481
10.69578
10.48046
10.44547
10.53997
10.68585
10.77287
10.69958
10.37535
9.783035
8.987686
8.124588
7.346443
6.743042
6.301819
5.892525
5.34903
4.543991
3.460709
2.189888
0.8558273
-0.4540482
-1.736732
-3.032547
-4.39624
-5.81813
-7.238556
-8.585564
-9.833282
-10.97618
-12.02307
-12.98722
-13.85855
-14.66696
-15.50494
-16.51874
-17.85155
-19.55223
-21.50865
-23.42516
-24.93806
-25.66575
-25.30145
-23.70597
-20.90899
-17.1488
-12.80297
-8.334686
-4.167419
-0.5746307
2.386841
4.786316
6.754318
8.354599
9.546204
10.2399
10.38124
10.03374
9.398514
8.756119
8.326797
8.181717
8.246628
8.373505
8.455994
8.494705
8.560837
8.728134
8.981949
9.200836
9.225067
8.948822
8.335617
7.462891
6.461533
5.438431
4.457474
3.526306
2.615158
1.702499
0.7619324
-0.208786
-1.185699
-2.131943
-3.004318
-3.818069
-4.664444
-5.703857
-7.064743
-8.764008
-10.65178
-12.50679
-14.11111
-15.40646
-16.48244
-17.52872
-18.72906
-20.16116
-21.76935
-23.33807
-24.54906
-25.04208
-24.45917
-22.5752
-19.38498
-15.15921
-10.37085
-5.598816
-1.314804
2.225845
4.994324
7.115707
8.734131
9.902588
10.59755
10.7982
10.5601
10.03957
9.45784
9.019623
8.830719
8.855606
8.953903
8.947388
8.731064
8.304977
7.752151
7.185715
6.674011
6.197998
5.665451
4.983017
4.103851
3.085678
2.057144
1.150162
0.4188385
-0.1900787
-0.8492126
-1.744354
-2.997772
-4.593185
-6.376846
-8.130081
-9.665359
-10.91867
-11.94562
-12.9424
-14.07611
-15.46806
-17.14476
-19.05916
-21.11801
-23.17337
-24.97977
-26.15849
-26.27087
-24.93219
-22.01314
-17.76027
-12.77605
-7.797409
-3.443695
0.01039124
2.646637
4.762741
6.629028
8.321198
9.68277
10.50578
10.686
10.35733
9.813248
9.348129
9.112991
9.06572
9.052826
8.960953
8.814804
8.733948
8.840851
9.145294
9.468674
9.565475
9.20929
8.321564
6.995392
5.439072
3.895523
2.524063
1.374237
0.3662567
-0.6542358
-1.86615
-3.390244
-5.210175
-7.190964
-9.104843
-10.76367
-12.12651
-13.34378
-14.68365
-16.42224
-18.68895
-21.36954
-24.1743
-26.65512
-28.38669
-28.98911
-28.23552
-26.07596
-22.65393
-18.28282
-13.38783
-8.439819
-3.797455
0.2969666
3.790573
6.731415
9.207153
11.27049
12.91615
14.1013
14.79176
15.00706
14.82199
14.36662
13.81163
13.30295
12.93849
12.72618
12.62291
12.52975
12.37413
12.11304
11.73495
11.20952
10.47313
9.459167
8.119705
6.491013
4.727325
3.026672
1.537033
0.3002777
-0.7693329
-1.854248
-3.096664
-4.582382
-6.285263
-8.127792
-10.02222
-11.92007
-13.84192
-15.84813
-18.04626
-20.49493
-23.15051
-25.80402
-28.0435
-29.35822
-29.24846
-27.42937
-23.90868
-19.04776
-13.42732
-7.697083
-2.398056
2.161362
5.881958
8.853867
11.17963
12.96005
14.22855
14.99778
15.30781
15.26944
15.03698
14.75848
14.53426
14.35807
14.17749
13.89673
13.4647
12.90908
12.28951
11.71153
11.20285
10.7528
10.25506
9.575592
8.541908
7.052048
5.071503
2.681313
0.05738831
-2.572601
-4.991882
-7.062782
-8.772079
-10.28535
-11.8488
-13.71485
-16.07284
-18.94873
-22.21202
-25.57036
-28.59462
-30.76392
-31.59183
-30.71461
-28.02663
-23.73936
-18.33905
-12.46854
-6.744904
-1.609146
2.744972
6.349998
9.343025
11.87492
14.01224
15.73254
16.94509
17.58844
17.63695
17.20245
16.48903
15.76722
15.27082
15.1065
15.236
15.4611
15.54981
15.29589
14.58657
13.39412
11.74898
9.702583
7.34922
4.823055
2.275143
-0.1562233
-2.420235
-4.564444
-6.699295
-8.91651
-11.24626
-13.62404
-15.94839
-18.16673
-20.31651
-22.51579
-24.90089
-27.53978
-30.37089
-33.1975
-35.68746
-37.39262
-37.83548
-36.58549
-33.39351
-28.31452
-21.70903
-14.20153
-6.494238
0.8395996
7.472565
13.31518
18.42007
22.81425
26.41487
29.031
30.49289
30.7816
30.10718
28.8493
27.41903
26.10396
25.01592
24.08809
23.20557
22.29897
21.34362
20.35451
19.30101
18.09066
16.63337
14.89273
12.90911
10.79417
8.647514
6.490623
4.286644
1.973709
-0.4601364
-2.93219
-5.345451
-7.616676
-9.725571
-11.71429
-13.67036
-15.70229
-17.93159
-20.50291
-23.48613
-26.81296
-30.15598
-32.93887
-34.44579
-34.06219
-31.47289
-26.81316
-20.63171
-13.69499
-6.774025
-0.4316406
5.071381
9.724083
13.64908
16.98453
19.77782
22.02108
23.70808
24.84541
25.51064
25.81522
25.86227
25.73225
25.46584
25.06427
24.53448
23.90601
23.20068
22.41167
21.50861
20.42244
19.08235
17.46861
15.63718
13.73349
11.96013
10.4734
9.290543
8.259125
7.098312
5.536133
3.448807
0.901886
-1.886642
-4.665604
-7.274368
-9.710251
-12.09241
-14.5952
-17.37206
-20.48857
-23.89255
-27.38458
-30.60284
-33.05359
-34.18803
-33.53064
-30.85597
-26.25142
-20.15457
-13.21042
-6.113373
0.5652466
6.439301
11.33311
15.22623
18.1581
20.21504
21.49802
22.13913
22.29587
22.15256
21.86592
21.55026
21.27321
21.04388
20.87958
20.78616
20.77138
20.80962
20.81494
20.6492
20.16223
19.26149
17.93321
16.27065
14.42329
12.54982
10.73999
9.015686
7.316055
5.545303
3.624481
1.510025
-0.7699738
-3.150345
-5.57373
-8.003738
-10.41115
-12.76324
-15.04582
-17.2706
-19.53091
-21.96837
-24.71237
-27.72902
-30.72142
-33.12691
-34.23215
-33.4639
-30.55136
-25.66922
-19.34297
-12.27776
-5.162094
1.471985
7.309158
12.21048
16.1456
19.17715
21.355
22.77615
23.56548
23.88715
23.92151
23.86449
23.84526
23.86473
23.85435
23.65091
23.13811
22.33427
21.37048
20.43857
19.67816
19.07047
18.41072
17.44069
15.9743
14.00127
11.75294
9.545639
7.661575
6.180359
4.988205
3.825912
2.427246
0.6364136
-1.557709
-4.005936
-6.512054
-8.879471
-10.98938
-12.81203
-14.45288
-16.09596
-17.98091
-20.29039
-23.04611
-26.08534
-29.00429
-31.24617
-32.21388
-31.40355
-28.571
-23.81729
-17.5807
-10.56073
-3.542847
2.826675
8.155716
12.34169
15.5
17.78343
19.2877
20.01401
19.97122
19.27655
18.22784
17.23001
16.6339
16.56102
16.85826
17.2045
17.2952
17.01526
16.46255
15.85358
15.33208
14.88762
14.37518
13.60858
12.48743
11.02911
9.338928
7.565048
5.785828
4.000839
2.172028
0.2296753
-1.856934
-4.073669
-6.33757
-8.541763
-10.56612
-12.37802
-14.03728
-15.69023
-17.5191
-19.68802
-22.26205
-25.172
-28.177
-30.86653
-32.71758
-33.18903
-31.91003
-28.79575
-24.14194
-18.47537
-12.41591
-6.431122
-0.7906342
4.409622
9.131989
13.28818
16.72052
19.28125
20.91199
21.6846
21.79909
21.49474
21.01627
20.52917
20.1384
19.84465
19.58943
19.25182
18.72589
17.9785
17.07726
16.13072
15.23766
14.38741
13.47101
12.3732
11.03642
9.528671
7.983795
6.528214
5.180283
3.852249
2.382645
0.6599884
-1.3367
-3.548508
-5.863083
-8.170044
-10.35374
-12.31334
-13.95523
-15.26828
-16.34698
-17.43941
-18.84676
-20.81177
-23.34808
-26.14937
-28.595
-29.93411
-29.53621
-27.10513
-22.81302
-17.19107
-10.95644
-4.795807
0.7978973
5.567566
9.446373
12.44351
14.61488
15.98732
16.62955
16.65837
16.25077
15.64591
15.06919
14.68675
14.56134
14.65115
14.8422
15.02477
15.13541
15.17503
15.20574
15.25468
15.29351
15.22359
14.91223
14.25315
13.18926
11.74548
9.982635
8.018173
5.978256
3.990593
2.155525
0.5014801
-1.011078
-2.44606
-3.855362
-5.257935
-6.586838
-7.779274
-8.807991
-9.708374
-10.60931
-11.67142
-13.07151
-14.9448
-17.31845
-20.07126
-22.91898
-25.43669
-27.13358
-27.58868
-26.55343
-24.05676
-20.33698
-15.82316
-10.96263
-6.159851
-1.745773
2.081184
5.216553
7.619026
9.300323
10.29182
10.63126
10.40228
9.751488
8.908813
8.160561
7.7803
7.889744
8.437881
9.200901
9.883381
10.28537
10.39502
10.37793
10.45169
10.76337
11.2248
11.59611
11.60152
11.0598
10.0269
8.752785
7.522324
6.539341
5.798836
5.106205
4.221741
2.956879
1.273609
-0.6993523
-2.765682
-4.748394
-6.570274
-8.271408
-9.964504
-11.77841
-13.80707
-16.05461
-18.40362
-20.60962
-22.31967
-23.12054
-22.66792
-20.77118
-17.48604
-13.11511
-8.152536
-3.134569
1.479471
5.374332
8.441917
10.67589
12.16961
13.01553
13.31114
13.15887
12.70324
12.12107
11.5775
11.19669
11.00033
10.93168
10.84442
10.62536
10.22464
9.722304
9.257265
8.947241
8.784537
8.637832
8.307843
7.649826
6.65485
5.43075
4.136785
2.881051
1.652081
0.3402319
-1.177917
-2.956966
-4.929684
-6.908585
-8.693834
-10.16409
-11.29828
-12.21493
-13.09912
-14.12459
-15.40425
-16.98775
-18.87022
-21.02809
-23.32734
-25.48103
-27.04318
-27.44313
-26.20619
-23.14886
-18.50105
-12.86373
-7.023342
-1.669674
2.772812
6.207119
8.762398
10.63765
11.99479
12.91686
13.44737
13.62229
13.52292
13.2371
12.86921
12.48982
12.12121
11.74928
11.35333
10.93476
10.51527
10.14325
9.834671
9.578018
9.319878
8.956093
8.38517
7.574932
6.550095
5.434906
4.371208
3.477898
2.786659
2.210175
1.578049
0.6880798
-0.5838928
-2.256004
-4.2043
-6.23275
-8.143776
-9.820953
-11.26339
-12.5496
-13.79397
-15.06519
-16.41596
-17.87981
-19.48547
-21.23266
-22.99797
-24.4977
-25.29523
-24.92216
-23.03564
-19.63608
-15.03787
-9.830536
-4.650612
0.003379822
3.874008
6.941032
9.282814
11.00435
12.14836
12.72678
12.7859
12.44406
11.88803
11.3051
10.84737
10.55284
10.39248
10.27424
10.11673
9.854576
9.448257
8.868881
8.096962
7.168976
6.154686
5.144501
4.220398
3.393341
2.62326
1.832794
0.9652252
-0.02308655
-1.14447
-2.425461
-3.901634
-5.559448
-7.348892
-9.124756
-10.73792
-12.09435
-13.19659
-14.20117
-15.32443
-16.74785
-18.52541
-20.5155
-22.3752
-23.63049
-23.76866
-22.40916
-19.46716
-15.22025
-10.25591
-5.280609
-0.8833847
2.643768
5.309898
7.289116
8.73304
9.648956
9.951347
9.581779
8.645691
7.435539
6.342537
5.667976
5.497475
5.702644
6.014153
6.189354
6.106773
5.78067
5.325218
4.846863
4.380936
3.881454
3.230103
2.291122
1.002335
-0.6253662
-2.488861
-4.431374
-6.304672
-8.018295
-9.544746
-10.93506
-12.28767
-13.73071
-15.37782
-17.30908
-19.49712
-21.8048
-23.9423
-25.50766
-26.05083
-25.21432
-22.84078
-19.08203
-14.39275
-9.429169
-4.854256
-1.126343
1.597092
3.444458
4.670708
5.493088
6.007378
6.200203
6.065689
5.693176
5.296112
5.126534
5.340996
5.920403
6.668434
7.319183
7.665161
7.680153
7.502357
7.328461
7.294258
7.356339
7.290215
6.766396
5.541656
3.560974
1.017525
-1.731918
-4.320076
-6.525406
-8.336487
-9.933907
-11.60224
-13.57827
-15.99285
-18.82106
-21.87919
-24.84018
-27.271
-28.70762
-28.76266
-27.23186
-24.17876
-19.94277
-15.0358
-10.0088
-5.306717
-1.187958
2.275234
5.139633
7.510052
9.477451
11.05658
12.23442
12.96783
13.25516
13.16069
12.8414
12.50607
12.3516
12.47178
12.78836
13.10365
13.16742
12.80383
11.98746
10.84746
9.577084
8.330673
7.143534
5.939615
4.589653
2.998062
1.183512
-0.7539539
-2.670406
-4.440683
-6.040634
-7.537893
-9.067844
-10.78074
-12.77919
-15.08568
-17.60045
-20.11819
-22.3326
-23.88039
-24.37033
-23.47922
-21.02527
-17.06721
-11.904
-6.035425
-0.05956125
5.480625
10.20534
13.92831
16.67541
18.58027
19.80894
20.51004
20.80327
20.82608
20.71416
20.59972
20.58562
20.70168
20.88598
21.03198
21.00271
20.6951
20.08474
19.20985
18.16128
17.03854
15.90726
14.77803
13.6068
12.33285
10.92458
9.417568
7.910389
6.503017
5.199535
3.89817
2.396835
0.5305634
-1.717064
-4.219879
-6.775478
-9.280228
-11.7838
-14.4783
-17.5279
-20.86182
-24.05794
-26.45021
-27.36314
-26.34754
-23.41973
-18.9676
-13.62371
-8.051697
-2.76178
1.933693
5.879498
9.003086
11.28595
12.73838
13.42845
13.50625
13.19931
12.75008
12.39983
12.30332
12.48508
12.87969
13.31005
13.58654
13.60294
13.32701
12.80099
12.10893
11.28838
10.35296
9.294289
8.108177
6.834938
5.531654
4.230492
2.916359
1.485184
-0.1924057
-2.207184
-4.534645
-7.022301
-9.421478
-11.47618
-13.01723
-14.06924
-14.84706
-15.72456
-17.11088
-19.28635
-22.28574
-25.79198
-29.17908
-31.63996
-32.41709
-31.06426
-27.57154
-22.36737
-16.16798
-9.702675
-3.506775
2.129387
7.158058
11.59801
15.4226
18.53086
20.77385
22.06929
22.46776
22.17757
21.47707
20.64748
19.90847
19.35867
19.00797
18.80135
18.70824
18.72207
18.8816
19.18961
19.56
19.79932
19.64527
18.86123
17.35025
15.23814
12.82497
10.49265
8.564941
7.200127
6.316299
5.643303
4.832802
3.586914
1.7827
-0.5069275
-3.06073
-5.593513
-7.896393
-9.887085
-11.60647
-13.17873
-14.74879
-16.47191
-18.45439
-20.75045
-23.23914
-25.6029
-27.29856
-27.71423
-26.37971
-23.19242
-18.49335
-12.94578
-7.28495
-2.050835
2.514412
6.457932
9.922661
12.99963
15.63477
17.67333
18.96301
19.46728
19.29346
18.66916
17.84586
17.04563
16.42002
16.04589
15.91362
15.97741
16.15468
16.34308
16.44743
16.33419
15.92184
15.14181
14.00361
12.55444
10.87576
9.06028
7.204529
5.407295
3.731926
2.220863
0.8267899
-0.5459137
-2.026054
-3.687393
-5.50589
-7.346031
-9.031342
-10.44432
-11.6223
-12.7701
-14.18278
-16.1215
-18.67187
-21.6886
-24.77834
-27.36394
-28.84127
-28.70992
-26.74265
-23.02242
-17.97369
-12.23911
-6.481422
-1.242867
3.18396
6.763901
9.616096
11.88533
13.66879
14.95959
15.71931
15.93384
15.65024
14.99113
14.13441
13.26092
12.51321
11.97591
11.64774
11.4855
11.42912
11.43678
11.50049
11.6275
11.76199
11.74818
11.36758
10.43591
8.940613
7.083038
5.227768
3.752762
2.849747
2.442299
2.254723
1.943222
1.248169
0.1015167
-1.420517
-3.169914
-4.992775
-6.781845
-8.478882
-10.07439
-11.62459
-13.24702
-15.07501
-17.21631
-19.64438
-22.12543
-24.25974
-25.53219
-25.50633
-23.92905
-20.84078
-16.54462
-11.52271
-6.30912
-1.383476
2.92976
6.476307
9.25515
11.36014
12.9168
14.02227
14.72614
15.06882
15.08577
14.84933
14.48388
14.12058
13.87049
13.79189
13.85579
13.9774
14.04773
13.94716
13.61559
13.03407
12.23127
11.27871
10.25526
9.209743
8.12878
6.951443
5.630466
4.164333
2.619602
1.106441
-0.2755699
-1.497467
-2.607246
-3.704357
-4.872715
-6.152489
-7.51416
-8.916489
-10.31947
-11.70542
-13.082
-14.51213
-16.04428
-17.75581
-19.70086
-21.85301
-24.07427
-26.07407
-27.42968
-27.69833
-26.55142
-23.87516
-19.82319
-14.78898
-9.302094
-3.904324
0.966774
5.043344
8.244125
10.62541
12.31424
13.47582
14.23372
14.69688
14.93443
14.99892
14.92872
14.75095
14.49594
14.17706
13.79017
13.34091
12.84926
12.33448
11.83533
11.37513
10.94795
10.50571
9.977892
9.267744
8.304729
7.069477
5.61513
4.040115
2.453022
0.9161291
-0.5351763
-1.922343
-3.263023
-4.565145
-5.819036
-7.020275
-8.192814
-9.376293
-10.66248
-12.11502
-13.76514
-15.59591
-17.50766
-19.32829
-20.79242
-21.57039
-21.35966
-19.94449
-17.29549
-13.61577
-9.278225
-4.743886
-0.419826
3.404835
6.612957
9.166688
11.0775
12.34728
12.99426
13.06452
12.66116
11.95367
11.12293
10.3652
9.805483
9.498725
9.422564
9.515913
9.673914
9.807935
9.841784
9.729996
9.439697
8.908276
8.082396
6.916103
5.429993
3.751437
2.092785
0.6577682
-0.4726381
-1.367836
-2.215721
-3.199141
-4.390419
-5.718554
-7.035782
-8.223543
-9.276915
-10.33418
-11.59111
-13.20749
-15.26733
-17.71214
-20.35679
-22.88793
-24.88424
-25.9017
-25.54188
-23.61922
-20.1991
-15.64578
-10.48746
-5.282846
-0.4626904
3.724106
7.195948
9.960405
12.01337
13.36895
14.04805
14.16633
13.90978
13.46122
12.96056
12.44227
11.85963
11.15689
10.35859
9.575872
8.980223
8.697212
8.715885
8.89872
9.054996
8.985111
8.568821
7.791744
6.705353
5.399559
4.004169
2.626434
1.335018
0.1492424
-0.9941216
-2.180031
-3.496151
-4.986595
-6.617542
-8.294273
-9.926678
-11.47224
-12.96389
-14.51413
-16.21268
-18.08631
-19.99764
-21.64762
-22.58831
-22.38514
-20.7349
-17.6144
-13.32301
-8.417316
-3.529285
0.7922363
4.249142
6.81382
8.632393
9.901711
10.7646
11.22612
11.26004
10.91516
10.32485
9.712326
9.270973
9.067791
9.035175
9.008064
8.877087
8.643524
8.428802
8.358181
8.47049
8.632633
8.621365
8.228848
7.35215
6.017109
4.325771
2.392929
0.3036804
-1.86142
-4.005642
-6.024586
-7.79562
-9.270588
-10.51229
-11.6867
-12.99591
-14.60799
-16.53985
-18.67122
-20.73128
-22.40321
-23.35771
-23.34546
-22.19506
-19.87191
-16.48543
-12.32116
-7.783558
-3.344486
0.5570412
3.667877
5.940277
7.505733
8.55748
9.242962
9.62394
9.680561
9.425552
8.952534
8.449551
8.106934
8.029533
8.179169
8.426262
8.597397
8.573055
8.340492
7.933357
7.400322
6.746326
5.91058
4.797138
3.338398
1.534195
-0.5286636
-2.683468
-4.737869
-6.538246
-8.031189
-9.290733
-10.46545
-11.75248
-13.3152
-15.24585
-17.54986
-20.12118
-22.72057
-24.9609
-26.34254
-26.36832
-24.71551
-21.39378
-16.77613
-11.49234
-6.206226
-1.381226
2.777672
6.276733
9.21299
11.5873
13.31434
14.29482
14.54715
14.23896
13.69593
13.24374
13.08114
13.24329
13.62154
14.05596
14.4255
14.63629
14.6099
14.27425
13.54438
12.3965
10.8734
9.099878
7.215137
5.326607
3.446024
1.518267
-0.4966755
-2.59712
-4.683517
-6.643927
-8.403053
-9.980974
-11.47868
-13.02809
-14.74808
-16.69726
-18.90178
-21.29907
-23.71175
-25.83018
-27.21096
-27.40448
-26.08207
-23.17739
-18.91589
-13.7652
-8.265419
-2.892333
2.050463
6.433166
10.22376
13.38469
15.8381
17.51276
18.36329
18.47615
18.05483
17.36752
16.69771
16.23352
16.03893
16.05027
16.11539
16.05957
15.76493
15.18547
14.37185
13.4041
12.36445
11.28104
10.13613
8.865257
7.399449
5.702439
3.798534
1.773378
-0.2611494
-2.192645
-3.960561
-5.569123
-7.10161
-8.659396
-10.29844
-11.99434
-13.66726
-15.25488
-16.80501
-18.48862
-20.47805
-22.79209
-25.10989
-26.78689
-27.06095
-25.36232
-21.58391
-16.16763
-9.910496
-3.68651
1.880951
6.509066
10.24379
13.22463
15.54469
17.20926
18.18806
18.53679
18.42084
18.09386
17.77678
17.56337
17.40931
17.177
16.76671
16.16841
15.45262
14.73776
14.09739
13.53292
12.97406
12.31699
11.47363
10.38447
9.04771
7.484108
5.742113
3.876328
1.939795
-0.01870728
-1.962658
-3.875916
-5.742428
-7.562355
-9.341946
-11.11243
-12.93796
-14.90074
-17.05655
-19.404
-21.81969
-24.05497
-25.73737
-26.45301
-25.8491
-23.72966
-20.14722
-15.40657
-9.980129
-4.417774
0.8159676
5.437466
9.317364
12.47182
14.93893
16.69757
17.72698
18.03213
17.72178
17.05204
16.33541
15.85875
15.75234
15.96918
16.3193
16.57545
16.57433
16.24629
15.63627
14.79617
13.75393
12.49086
10.99931
9.293255
7.461712
5.617657
3.837811
2.15942
0.5309181
-1.122246
-2.839272
-4.597733
-6.330597
-7.97139
-9.551537
-11.17389
-12.9786
-15.0854
-17.50006
-20.11312
-22.6995
-24.95604
-26.5318
-27.07409
-26.26482
-23.88363
-19.93716
-14.69699
-8.700539
-2.622925
2.94788
7.676983
11.50799
14.59718
17.12229
19.13562
20.56615
21.29037
21.27122
20.65835
19.75446
18.87597
18.21947
17.78339
17.42243
16.9867
16.40584
15.71526
15.01479
14.36023
13.70001
12.91492
11.86764
10.49114
8.835373
7.068348
5.395061
3.983528
2.898273
2.059349
1.291904
0.3976421
-0.7666092
-2.250841
-3.995939
-5.910713
-7.909863
-9.930738
-11.94829
-13.92318
-15.8448
-17.74794
-19.71009
-21.83841
-24.12759
-26.38992
-28.20163
-29.00275
-28.30127
-25.87945
-21.88058
-16.77658
-11.15501
-5.554014
-0.3356647
4.303349
8.277357
11.57644
14.19962
16.1518
17.45368
18.13272
18.24946
17.92995
17.37391
16.79216
16.38769
16.24031
16.30422
16.41748
16.41516
16.19219
15.76595
15.23336
14.70183
14.22032
13.77239
13.28748
12.68239
11.90882
10.91312
9.685782
8.250635
6.685043
5.110355
3.638484
2.344927
1.223336
0.2135973
-0.7677369
-1.813405
-2.9847
-4.320786
-5.820231
-7.411405
-8.97878
-10.40224
-11.64498
-12.79771
-14.07442
-15.68516
-17.72912
-20.07191
-22.32687
-23.99379
-24.62229
-23.94702
-21.96915
-18.90084
-15.03492
-10.68298
-6.100775
-1.52615
2.790545
6.583834
9.619516
11.76404
13.00662
13.501
13.46253
13.10183
12.61629
12.11341
11.66965
11.32331
11.06345
10.8102
10.44976
9.878403
9.058853
8.07653
7.066116
6.164024
5.395264
4.64777
3.755234
2.586788
1.130653
-0.4741173
-1.999802
-3.28233
-4.276833
-5.08662
-5.942059
-7.042183
-8.455875
-10.11072
-11.83776
-13.44604
-14.85992
-16.1127
-17.32488
-18.66519
-20.21684
-21.96698
-23.79635
-25.48076
-26.702
-27.09499
-26.31339
-24.09047
-20.3496
-15.25325
-9.193127
-2.728836
3.566875
9.209957
13.90263
17.52755
20.13326
21.88272
22.95163
23.49828
23.58855
23.2318
22.40242
21.08312
19.34392
17.35915
15.35149
13.52201
12.00142
10.81204
9.893547
9.14473
8.477127
7.813354
7.098129
6.2743
5.281105
4.126488
2.827415
1.456863
0.08043671
-1.261665
-2.561783
-3.857681
-5.199448
-6.626701
-8.138382
-9.703651
-11.25404
-12.69599
-13.99104
-15.12063
-16.14565
-17.17422
-18.3372
-19.76112
-21.51656
-23.51577
-25.47082
-26.93243
-27.36954
-26.3895
-23.89104
-20.11385
-15.56501
-10.81279
-6.308693
-2.275162
1.217514
4.171112
6.554718
8.308418
9.389908
9.850761
9.822548
9.477066
8.984322
8.482574
8.100288
7.945473
8.07785
8.496696
9.093414
9.695503
10.15006
10.40739
10.47409
10.38377
10.11873
9.565674
8.614067
7.215645
5.482597
3.63903
1.936829
0.5277328
-0.5982513
-1.591156
-2.656349
-3.918861
-5.372887
-6.890182
-8.260849
-9.311729
-9.981209
-10.3645
-10.67285
-11.11944
-11.74863
-12.38197
-12.6103
-11.97396
-10.19479
-7.315384
-3.688927
0.1534271
3.718971
6.735077
9.14698
11.01463
12.4094
13.2879
13.56763
13.20285
12.28569
11.02168
9.685844
8.523735
7.677277
7.19017
6.966682
6.856995
6.688118
6.341469
5.779465
5.070168
4.367867
3.7808
3.336769
2.939781
2.421066
1.628616
0.5123749
-0.8611298
-2.345558
-3.800163
-5.16481
-6.422089
-7.600571
-8.703148
-9.710907
-10.6352
-11.51643
-12.4735
-13.65022
-15.20628
-17.15308
-19.3529
-21.45786
-22.99999
-23.4986
-22.60683
-20.27243
-16.71529
-12.39715
-7.844299
-3.483505
0.4029694
3.719582
6.457413
8.579826
10.03532
10.7794
10.86175
10.45767
9.846008
9.313728
9.052361
9.088982
9.304939
9.49868
9.499001
9.236443
8.734909
8.087067
7.372993
6.630142
5.827209
4.902107
3.829742
2.632217
1.368721
0.101738
-1.150375
-2.461037
-3.937584
-5.635567
-7.536346
-9.476143
-11.28671
-12.85307
-14.19508
-15.49174
-16.98449
-18.83734
-21.01678
-23.22741
-24.93971
-25.56702
-24.66742
-22.10689
-18.14808
-13.34863
-8.357422
-3.675392
0.420578
3.89003
6.790237
9.14502
10.92361
12.05788
12.55489
12.53294
12.23077
11.87276
11.62157
11.49899
11.42832
11.30663
11.05662
10.67826
10.21744
9.7589
9.350998
8.987339
8.599426
8.096245
7.390347
6.428677
5.200695
3.725792
2.041939
0.2190857
-1.63266
-3.377373
-4.912663
-6.212116
-7.370377
-8.542736
-9.906132
-11.57458
-13.59615
-15.92099
-18.4381
-20.9465
-23.14318
-24.62833
-24.97173
-23.85705
-21.16916
-17.12423
-12.19239
-6.999935
-2.144901
1.969772
5.225788
7.741573
9.726387
11.39271
12.813
13.94769
14.69254
15.00984
14.94406
14.63323
14.23033
13.82665
13.48978
13.26995
13.20322
13.30725
13.52059
13.66423
13.52578
12.94647
11.92868
10.67993
9.464476
8.464629
7.670159
6.890628
5.877844
4.495373
2.746709
0.7549171
-1.338879
-3.458712
-5.593482
-7.724354
-9.820309
-11.82485
-13.7234
-15.57188
-17.51247
-19.60419
-21.71085
-23.43035
-24.16076
-23.3292
-20.62974
-16.20184
-10.62123
-4.695975
0.8330108
5.521698
9.30225
12.3744
14.97472
17.25019
19.17958
20.6736
21.66224
22.1869
22.35362
22.27148
22.00378
21.56777
21.01233
20.41633
19.89777
19.51694
19.21798
18.84137
18.16224
17.04373
15.44287
13.46848
11.30935
9.150854
7.108021
5.17788
3.254106
1.188469
-1.126632
-3.691581
-6.402046
-9.105831
-11.65852
-13.98482
-16.07507
-17.96163
-19.68298
-21.28006
-22.82557
-24.40609
-26.04149
-27.59599
-28.69951
-28.84493
-27.57181
-24.69049
-20.38375
-15.1893
-9.767425
-4.656425
-0.1283264
3.785545
7.147555
9.963209
12.14208
13.53889
14.10064
13.96953
13.44871
12.90692
12.59134
12.56611
12.71246
12.85697
12.87985
12.79379
12.68871
12.64649
12.65291
12.5736
12.20988
11.40339
10.10912
8.391953
6.416033
4.337015
2.271823
0.2735777
-1.626783
-3.431381
-5.154879
-6.825415
-8.455013
-10.01901
-11.49713
-12.85538
-14.14474
-15.48603
-17.05458
-18.95946
-21.14636
-23.32215
-24.99309
-25.60388
-24.72638
-22.22126
-18.26544
-13.31663
-7.973307
-2.763647
1.939558
5.983849
9.362246
12.14074
14.3491
15.9571
16.90375
17.14134
16.73301
15.83147
14.68952
13.54113
12.58606
11.89844
11.4704
11.22578
11.02119
10.73795
10.26721
9.581293
8.737564
7.85943
7.057823
6.395041
5.822058
5.228283
4.508465
3.591763
2.496075
1.285172
-0.004318237
-1.379593
-2.890461
-4.557514
-6.347664
-8.131508
-9.786789
-11.28766
-12.73352
-14.30843
-16.12616
-18.0895
-19.81375
-20.76179
-20.39009
-18.42543
-14.96121
-10.43547
-5.482155
-0.7007332
3.492344
6.91893
9.5882
11.59922
13.05614
14.05071
14.63322
14.87
14.82839
14.58643
14.20554
13.76823
13.31889
12.89362
12.50529
12.15707
11.83454
11.53238
11.22312
10.82801
10.25504
9.397083
8.170727
6.597702
4.774666
2.831223
0.9165039
-0.894474
-2.562878
-4.099457
-5.551079
-6.967308
-8.401455
-9.900677
-11.49458
-13.17723
-14.93133
-16.73684
-18.59696
-20.47666
-22.22743
-23.55234
-24.01884
-23.19084
-20.82975
-17.026
-12.19975
-6.97493
-1.940796
2.526924
6.295437
9.408054
11.9295
13.82782
14.9886
15.35209
14.98084
14.12236
13.13031
12.32991
11.92265
11.94842
12.29295
12.75327
13.11409
13.19661
12.9059
12.21979
11.21702
10.03663
8.815941
7.630493
6.472511
5.250542
3.824654
2.099056
0.05953979
-2.195663
-4.463314
-6.526787
-8.257225
-9.663105
-10.91086
-12.2295
-13.83325
-15.81313
-18.12675
-20.60026
-22.95145
-24.80096
-25.71025
-25.27634
-23.27683
-19.76182
-15.10452
-9.90147
-4.759159
-0.1165085
3.839584
7.111717
9.787819
11.91676
13.51217
14.57886
15.16979
15.39069
15.37946
15.25014
15.09211
14.9915
14.98723
15.09325
15.25224
15.32301
15.14381
14.61021
13.71452
12.5508
11.27271
9.993149
8.736794
7.471718
6.179722
4.864681
3.577667
2.353519
1.170162
-0.06107712
-1.46891
-3.106579
-4.947208
-6.890057
-8.824562
-10.69407
-12.5506
-14.51138
-16.64847
-18.9481
-21.19723
-23.01923
-23.95955
-23.58933
-21.66998
-18.25085
-13.69599
-8.533749
-3.337288
1.479225
5.711353
9.297951
12.24492
14.5242
16.059
16.76517
16.71758
16.1263
15.3334
14.69581
14.43375
14.58575
15.02423
15.52164
15.87703
15.9733
15.78511
15.37817
14.8446
14.2514
13.62855
12.98018
12.27402
11.47338
10.53502
9.407368
8.013552
6.292799
4.21587
1.844671
-0.6768227
-3.167938
-5.492435
-7.61758
-9.671642
-11.87174
-14.44557
-17.47157
-20.79921
-24.0499
-26.70675
-28.22837
-28.23445
-26.56966
-23.33048
-18.87096
-13.67393
-8.304235
-3.269144
1.044239
4.424386
6.834944
8.357534
9.136261
9.324121
9.080106
8.573135
7.990885
7.495149
7.19223
7.110596
7.159274
7.197467
7.078771
6.734928
6.193446
5.546503
4.907483
4.338011
3.826215
3.295419
2.604685
1.603659
0.2055564
-1.590953
-3.689066
-5.899045
-8.032917
-9.941587
-11.60168
-13.06565
-14.49137
-16.04182
-17.83149
-19.91804
-22.2339
-24.59722
-26.71525
-28.20098
-28.62963
-27.65736
-25.13266
-21.15674
-16.08482
-10.42674
-4.701599
0.6781578
5.471968
9.582853
12.98799
15.65902
17.5614
18.69625
19.13908
19.08689
18.7986
18.54919
18.49649
18.68042
18.9915
19.2773
19.38497
19.24422
18.82944
18.1405
17.16035
15.85167
14.21615
12.33281
10.32327
8.347429
6.508016
4.817212
3.184977
1.480163
-0.3968678
-2.4675
-4.671041
-6.905436
-9.059624
-11.06741
-12.91485
-14.64067
-16.33157
-18.08617
-19.99155
-22.04506
-24.13173
-25.96413
-27.13319
-27.20519
-25.86774
-23.06981
-19.05501
-14.29196
-9.316188
-4.555746
-0.2211947
3.641799
7.067612
10.04994
12.48148
14.23931
15.27189
15.6579
15.59924
15.31016
14.94127
14.54259
14.10792
13.62685
13.15133
12.76525
12.52975
12.42505
12.34099
12.10311
11.56595
10.67406
9.47768
8.118895
6.766347
5.498187
4.295857
3.037428
1.575527
-0.1523745
-2.093153
-4.088062
-5.961406
-7.610461
-9.064735
-10.44104
-11.86885
-13.43587
-15.16649
-17.06324
-19.09616
-21.20772
-23.23256
-24.87018
-25.70546
-25.33446
-23.50647
-20.21621
-15.72356
-10.47926
-4.99686
0.2293648
4.828844
8.564355
11.34172
13.16811
14.18052
14.55906
14.52146
14.24839
13.85662
13.42795
13.01639
12.7046
12.55943
12.63807
12.89922
13.2075
13.34301
13.10876
12.4034
11.27075
9.887875
8.460433
7.176628
6.114612
5.259369
4.529211
3.826379
3.049366
2.108479
0.967824
-0.3545257
-1.737508
-3.014415
-4.016942
-4.679287
-5.102097
-5.551861
-6.382657
-7.887041
-10.20778
-13.19853
-16.47135
-19.43013
-21.41836
-21.87421
-20.50994
-17.39741
-12.98032
-7.959551
-3.058553
1.171546
4.480601
6.908822
8.637934
9.858477
10.67472
11.09549
11.13706
10.8942
10.56075
10.34226
10.36635
10.59433
10.84478
10.87375
10.50157
9.725145
8.7065
7.705854
6.970365
6.630095
6.619287
6.724864
6.665756
6.199579
5.247199
3.90887
2.401021
0.924531
-0.4377251
-1.768754
-3.225472
-4.908925
-6.755221
-8.528442
-9.963349
-10.95333
-11.63813
-12.36808
-13.53129
-15.31858
-17.59739
-19.92083
-21.67206
-22.28287
-21.39621
-18.96092
-15.18562
-10.48597
-5.34403
-0.2470417
4.40975
8.352613
11.41602
13.55937
14.84019
15.35623
15.25212
14.70811
13.93065
13.1545
12.57251
12.28505
12.28586
12.43397
12.5555
12.47782
12.14462
11.5803
10.89472
10.2231
9.669529
9.278925
9.002888
8.701309
8.167833
7.2125
5.734007
3.759159
1.488876
-0.7846069
-2.784794
-4.351536
-5.464451
-6.228237
-6.800129
-7.380417
-8.155006
-9.299095
-10.93439
-13.08012
-15.63609
-18.33152
-20.78709
-22.59772
-23.38369
-22.9085
-21.10572
-18.10899
-14.26681
-10.0703
-6.042625
-2.607098
0.05934143
2.034039
3.570759
4.917267
6.160172
7.228874
7.968689
8.293045
8.245708
8.028606
7.863274
7.90023
8.114586
8.337841
8.363533
8.039726
7.351177
6.401989
5.375256
4.437675
3.6619
2.996666
2.294991
1.401211
0.227108
-1.163147
-2.604546
-3.877693
-4.84671
-5.51162
-6.00507
-6.551964
-7.364914
-8.600662
-10.2762
-12.31105
-14.55306
-16.81905
-18.85709
-20.35234
-20.9072
-20.13358
-17.82996
-14.10276
-9.413788
-4.46447
0.05968857
3.739414
6.502216
8.554199
10.14316
11.374
12.18583
12.45696
12.17074
11.50861
10.79518
10.34491
10.31123
10.61272
10.99651
11.18372
10.99378
10.40882
9.560543
8.634422
7.776409
7.048416
6.393242
5.66362
4.718071
3.456097
1.878689
0.09372711
-1.721466
-3.389652
-4.779026
-5.864243
-6.731461
-7.528652
-8.415596
-9.531715
-10.96539
-12.73463
-14.81963
-17.0726
-19.22322
-20.88234
-21.60603
-21.01242
-18.94171
-15.51559
-11.15112
-6.441864
-1.95327
1.91098
5.017319
7.435223
9.349796
10.91622
12.1946
13.12125
13.62809
13.71742
13.53166
13.30122
13.23045
13.42563
13.8067
14.21053
14.44604
14.39683
14.06625
13.52357
12.83768
12.0764
11.25766
10.3986
9.539173
8.673855
7.762978
6.73608
5.536674
4.160793
2.703163
1.313026
0.1069603
-0.8744354
-1.706234
-2.564034
-3.655014
-5.149437
-7.149876
-9.639832
-12.46494
-15.35001
-17.88227
-19.61594
-20.14783
-19.27283
-17.08189
-13.94903
-10.41452
-6.994713
-4.018242
-1.554382
0.5098953
2.351242
4.00708
5.368698
6.215698
6.392303
5.947624
5.129761
4.320305
3.845345
3.834335
4.168587
4.581261
4.790115
4.646515
4.186127
3.573311
3.018356
2.644402
2.457779
2.357918
2.206276
1.923096
1.494629
0.9686584
0.4099808
-0.1661606
-0.7945175
-1.562981
-2.583778
-3.947762
-5.720833
-7.926132
-10.49977
-13.31664
-16.10992
-18.51818
-20.11482
-20.47733
-19.32239
-16.61996
-12.65099
-7.944984
-3.168983
1.120621
4.583336
7.164589
9.016151
10.31686
11.1627
11.53799
11.40248
10.79087
9.889977
8.979546
8.299278
7.942711
7.824394
7.751137
7.541267
7.127289
6.5457
5.910034
5.301056
4.718216
4.105965
3.373451
2.44091
1.258324
-0.1715546
-1.818459
-3.627968
-5.503601
-7.367874
-9.170654
-10.91125
-12.6019
-14.25356
-15.85235
-17.39014
-18.92405
-20.57472
-22.45023
-24.51513
-26.48601
-27.80394
-27.8227
-26.04044
-22.32895
-17.03547
-10.85577
-4.584358
1.136482
5.952477
9.787193
12.68452
14.68604
15.80976
16.07294
15.59488
14.65512
13.61086
12.81033
12.4149
12.36826
12.4565
12.41663
12.09686
11.50443
10.784
10.10792
9.584457
9.20657
8.858734
8.383648
7.611706
6.428585
4.814236
2.859531
0.7412071
-1.304718
-3.074417
-4.448185
-5.42128
-6.109543
-6.688793
-7.36013
-8.30695
-9.689404
-11.5543
-13.82533
-16.26955
-18.45668
-19.86143
-20.00076
-18.61033
-15.74886
-11.80021
-7.330009
-2.911079
1.031548
4.310219
6.938091
9.030579
10.67735
11.87456
12.54495
12.61989
12.12333
11.21418
10.1671
9.272053
8.743053
8.659164
8.919376
9.31282
9.586796
9.533207
9.074554
8.265858
7.253891
6.208706
5.261532
4.437325
3.66375
2.828968
1.853264
0.7446175
-0.3952065
-1.450325
-2.364681
-3.181675
-4.066101
-5.212029
-6.753544
-8.71851
-10.98919
-13.3519
-15.53965
-17.26425
-18.24974
-18.26528
-17.15624
-14.89421
-11.61795
-7.611431
-3.265015
0.9849396
4.772064
7.846397
10.08456
11.47921
12.11941
12.12333
11.62759
10.81491
9.878868
9.011307
8.383808
8.077518
8.04245
8.137424
8.153324
7.955963
7.521488
6.939735
6.345982
5.797829
5.210344
4.410248
3.206257
1.516016
-0.5543232
-2.754236
-4.767885
-6.386826
-7.566374
-8.433605
-9.216009
-10.09985
-11.18181
-12.42257
-13.69486
-14.85657
-15.73016
-16.10159
-15.70837
-14.25769
-11.55466
-7.629694
-2.816183
2.333729
7.168207
11.20442
14.22506
16.31444
17.69489
18.58989
19.0848
19.1709
18.8417
18.19451
17.42679
16.78157
16.39967
16.23554
16.09913
15.71663
14.8665
13.48862
11.64197
9.494169
7.230492
4.988529
2.815149
0.6951389
-1.432827
-3.611099
-5.800972
-7.905251
-9.784229
-11.34906
-12.632
-13.79509
-15.06993
-16.66508
-18.69393
-21.07612
-23.55483
-25.72598
-27.12751
-27.36894
-26.23487
-23.72775
-20.11466
-15.81443
-11.27511
-6.840874
-2.689581
1.111794
4.543957
7.536015
9.972586
11.69627
12.62391
12.8154
12.48605
11.95698
11.52982
11.36691
11.44133
11.60221
11.62943
11.38926
10.85603
10.10991
9.2698
8.428816
7.609003
6.749996
5.77824
4.599934
3.185875
1.544079
-0.2718601
-2.160473
-4.003012
-5.699591
-7.222448
-8.604095
-9.954742
-11.42098
-13.14963
-15.2428
-17.68981
-20.29383
-22.67097
-24.30963
-24.73118
-23.64398
-21.04915
-17.24244
-12.70773
-7.912725
-3.216075
1.17942
5.183949
8.721293
11.64771
13.78521
14.97435
15.194
14.62624
13.61927
12.57958
11.84202
11.58794
11.78277
12.232
12.70008
12.96284
12.93089
12.62516
12.10905
11.47262
10.7092
9.748439
8.467723
6.79014
4.71517
2.387239
0.03444044
-2.105005
-3.845956
-5.147635
-6.09015
-6.822995
-7.48671
-8.2276
-9.18826
-10.51205
-12.32408
-14.61931
-17.18224
-19.56621
-21.1823
-21.46195
-20.09054
-17.10906
-12.92316
-8.127073
-3.320109
1.087185
4.928708
8.229839
11.07919
13.52227
15.49839
16.86973
17.50557
17.39704
16.71053
15.76022
14.87613
14.28369
14.05574
14.12395
14.32942
14.52276
14.60962
14.5416
14.30497
13.86095
13.15793
12.14457
10.82231
9.230385
7.418876
5.432262
3.305654
1.13396
-0.9704752
-2.859861
-4.478047
-5.903773
-7.338421
-9.003731
-11.02509
-13.35863
-15.83418
-18.25454
-20.47379
-22.41173
-23.95663
-24.85885
-24.74015
-23.257
-20.29358
-16.1156
-11.2956
-6.469306
-2.115536
1.581665
4.689353
7.382561
9.773335
11.83176
13.42906
14.42599
14.77207
14.54201
13.91351
13.13461
12.43125
11.95806
11.75352
11.73999
11.79313
11.78942
11.66733
11.42184
11.0707
10.5857
9.896957
8.898958
7.536696
5.845529
3.936913
1.980444
0.129374
-1.545388
-3.035667
-4.409445
-5.733031
-7.063509
-8.44978
-9.914984
-11.51351
-13.29584
-15.29579
-17.46979
-19.65904
-21.56828
-22.82026
-23.02735
-21.90285
-19.37225
-15.61271
-11.01634
-6.083398
-1.280829
3.008142
6.5651
9.289187
11.18397
12.33501
12.88521
12.99592
12.842
12.56479
12.23605
11.89813
11.53476
11.1383
10.72692
10.34046
10.00357
9.694357
9.365304
8.916474
8.289048
7.442315
6.412094
5.280025
4.162493
3.144977
2.248044
1.441359
0.6612854
-0.1371968
-0.9856546
-1.904185
-2.933856
-4.11978
-5.498089
-7.055123
-8.722657
-10.41385
-12.08247
-13.7926
-15.6564
-17.75934
-19.98825
-21.97043
-23.12305
-22.87091
-20.87832
-17.23533
-12.44912
-7.270103
-2.368617
1.853993
5.354018
8.300638
10.84166
12.94439
14.40283
14.98834
14.65906
13.65955
12.42735
11.39442
10.82267
10.69623
10.79857
10.88614
10.81035
10.57892
10.29954
10.07499
9.928308
9.779377
9.481529
8.867016
7.855733
6.505073
4.993635
3.560793
2.378021
1.467927
0.7039847
-0.1446486
-1.23199
-2.592806
-4.102973
-5.575007
-6.880058
-8.013932
-9.103104
-10.31535
-11.77113
-13.49638
-15.36166
-17.15311
-18.56546
-19.25935
-18.93357
-17.42537
-14.75513
-11.14788
-6.977331
-2.6653
1.410253
4.986903
7.965029
10.36959
12.2899
13.83666
15.10338
16.1176
16.85544
17.25406
17.29266
16.97023
16.382
15.66278
14.92606
14.25089
13.60747
12.92239
12.08958
11.04476
9.7925
8.396246
6.953072
5.559172
4.277912
3.121489
2.066521
1.035681
-0.0445652
-1.282431
-2.723143
-4.362225
-6.12743
-7.912142
-9.592398
-11.09171
-12.42093
-13.6664
-14.95882
-16.42401
-18.12687
-20.00818
-21.84339
-23.2743
-23.88022
-23.3129
-21.41624
-18.28283
-14.23071
-9.708347
-5.162853
-0.9270096
2.804317
5.940701
8.431931
10.22265
11.265
11.57222
11.26152
10.55179
9.755219
9.123943
8.819775
8.86845
9.164276
9.504372
9.720856
9.678482
9.368534
8.844913
8.183422
7.449413
6.634106
5.694782
4.563232
3.231258
1.755535
0.2552567
-1.147697
-2.403542
-3.556908
-4.699181
-5.902721
-7.199615
-8.545712
-9.926003
-11.37093
-12.99441
-14.86671
-16.93835
-18.95531
-20.50684
-21.14233
-20.52346
-18.56186
-15.40683
-11.40233
-6.968555
-2.53014
1.554188
5.046215
7.848866
9.978561
11.52079
12.53854
13.06156
13.07428
12.59766
11.74868
10.75229
9.880051
9.337177
9.169903
9.263733
9.409809
9.41684
9.168304
8.672104
7.994095
7.203175
6.345703
5.41724
4.397308
3.247734
1.926395
0.4088135
-1.277649
-3.044731
-4.778748
-6.388401
-7.833675
-9.136852
-10.37527
-11.63712
-13.01022
-14.56606
-16.35242
-18.35941
-20.44567
-22.28598
-23.39465
-23.27065
-21.61075
-18.45701
-14.21078
-9.508671
-4.970264
-1.010433
2.239212
4.870876
7.057163
8.9109
10.45205
11.63463
12.39559
12.74459
12.7349
12.46085
12.02231
11.52857
11.06639
10.70105
10.45706
10.28027
10.08737
9.760975
9.216637
8.420593
7.408764
6.242641
4.990177
3.677597
2.303307
0.8875198
-0.5493927
-1.938244
-3.202137
-4.303589
-5.27433
-6.213638
-7.276863
-8.621552
-10.31369
-12.34769
-14.60061
-16.81499
-18.65083
-19.73906
-19.75117
-18.51377
-16.07323
-12.67978
-8.757828
-4.758907
-1.024906
2.261997
5.103352
7.557262
9.646111
11.27742
12.30135
12.5838
12.1653
11.27441
10.23835
9.390182
8.898643
8.733643
8.713661
8.634125
8.364685
7.913422
7.371059
6.810562
6.236885
5.591061
4.761139
3.660866
2.292648
0.7280502
-0.8996735
-2.438988
-3.806164
-5.000271
-6.113911
-7.279312
-8.622639
-10.24705
-12.20525
-14.50311
-17.03123
-19.55365
-21.68079
-22.93258
-22.85635
-21.18896
-17.97279
-13.57193
-8.569557
-3.548019
1.020409
4.858482
7.851315
9.975422
11.26351
11.76926
11.58072
10.84227
9.728603
8.448811
7.228931
6.257198
5.628353
5.327969
5.217701
5.12302
4.879627
4.424953
3.768951
3.005703
2.213245
1.363567
0.3542633
-0.9353371
-2.542942
-4.348312
-6.080227
-7.408607
-8.050262
-7.905487
-7.148109
-6.16317
-5.469593
-5.518551
-6.564373
-8.570988
-11.23909
-14.09699
-16.6035
-18.25652
-18.65387
-17.53445
-14.83766
-10.75581
-5.727449
-0.35886
4.695324
8.929792
12.07764
14.15694
15.35172
15.88912
15.96554
15.68802
15.13108
14.37356
13.54468
12.78462
12.19987
11.78991
11.46297
11.07703
10.53913
9.854934
9.12062
8.477584
7.976744
7.542537
6.978064
6.064929
4.697343
2.947972
1.019787
-0.8408985
-2.470521
-3.878936
-5.198929
-6.598179
-8.183537
-9.980591
-11.97885
-14.15817
-16.49192
-18.85747
-20.98491
-22.44166
-22.72861
-21.49709
-18.71067
-14.68583
-9.979767
-5.188853
-0.7376473
3.177888
6.513824
9.251843
11.29045
12.51336
12.85536
12.4384
11.57645
10.64181
9.945709
9.588758
9.476673
9.390816
9.182978
8.825222
8.419924
8.114747
7.968509
7.898686
7.689317
7.107935
5.990613
4.346854
2.326472
0.1615391
-1.89879
-3.699748
-5.172545
-6.346385
-7.30774
-8.198283
-9.189168
-10.47546
-12.21751
-14.4325
-16.95418
-19.35874
-21.08166
-21.55805
-20.42186
-17.63334
-13.52856
-8.682842
-3.721647
0.8346233
4.706554
7.796209
10.15026
11.81887
12.85922
13.29285
13.17218
12.59103
11.68889
10.66368
9.697504
8.941515
8.495073
8.375038
8.498577
8.715803
8.837986
8.719053
8.329258
7.717083
6.966358
6.088289
4.995195
3.52356
1.57869
-0.7800674
-3.289646
-5.597946
-7.418941
-8.686634
-9.589931
-10.48006
-11.70573
-13.44721
-15.67027
-18.15805
-20.58717
-22.63727
-23.98964
-24.35038
-23.45966
-21.13989
-17.38035
-12.42052
-6.724579
-0.8887749
4.517593
9.155144
12.95751
16.07888
18.75082
21.10692
23.09248
24.5133
25.1769
25.01212
24.1386
22.81506
21.32029
19.8462
18.44159
17.03807
15.5274
13.85558
12.0354
10.13451
8.209839
6.286133
4.358063
2.428783
0.5150528
-1.322548
-3.056301
-4.695847
-6.273861
-7.849037
-9.419136
-10.95757
-12.44118
-13.90188
-15.47287
-17.35014
-19.65552
-22.31017
-25.01165
-27.25103
-28.47405
-28.24284
-26.36342
-22.94757
-18.34939
-13.08562
-7.692581
-2.625038
1.84256
5.605019
8.696144
11.21068
13.21645
14.71362
15.60904
15.8301
15.36847
14.39604
13.23339
12.25344
11.7633
11.84679
12.37004
13.03801
13.52615
13.6462
13.37772
12.83649
12.17027
11.43505
10.58684
9.517975
8.130806
6.424301
4.481194
2.421944
0.3810196
-1.583786
-3.457977
-5.26445
-7.025482
-8.738152
-10.37189
-11.91462
-13.38062
-14.81731
-16.23846
-17.53593
-18.46165
-18.59286
-17.52761
-15.02709
-11.16281
-6.339394
-1.179314
3.697655
7.833107
11.02123
13.26955
14.67646
15.36464
15.42439
15.00212
14.30386
13.61093
13.22271
13.32643
13.93029
14.87788
15.86702
16.5854
16.81537
16.48159
15.64181
14.43069
12.98343
11.38464
9.648041
7.790276
5.843521
3.868942
1.940216
0.114563
-1.564484
-3.081367
-4.457123
-5.75235
-7.067459
-8.498749
-10.14576
-12.07592
-14.29969
-16.72295
-19.12453
-21.13806
-22.341
-22.33285
-20.87968
-18.01718
-14.06097
-9.503609
-4.86219
-0.5276413
3.303101
6.593674
9.361847
11.59597
13.24214
14.26784
14.70325
14.6635
14.31504
13.80558
13.24419
12.68085
12.11916
11.53216
10.89601
10.21915
9.528816
8.896553
8.354477
7.865402
7.296753
6.458084
5.174957
3.411705
1.291466
-0.9440079
-3.041931
-4.857353
-6.372787
-7.69371
-8.986244
-10.40521
-12.0947
-14.15655
-16.61058
-19.3437
-22.05949
-24.28763
-25.49741
-25.25915
-23.35262
-19.88215
-15.22663
-9.922516
-4.530701
0.4782333
4.808281
8.336601
11.06107
13.07784
14.49681
15.408
15.89351
16.00122
15.7779
15.31939
14.74776
14.2113
13.85065
13.68545
13.63893
13.54623
13.23717
12.6404
11.8023
10.85417
9.923561
9.093132
8.306679
7.433601
6.321083
4.860573
3.029922
0.9155197
-1.326294
-3.501595
-5.437103
-7.053711
-8.391018
-9.61261
-10.94477
-12.61057
-14.73454
-17.34386
-20.31964
-23.38964
-26.14316
-28.03548
-28.51009
-27.17295
-23.93843
-19.12742
-13.40059
-7.542278
-2.192997
2.32991
6.01405
9.067307
11.66526
13.87318
15.60329
16.72269
17.17508
17.05803
16.56668
15.9278
15.31213
14.79928
14.40694
14.11298
13.89751
13.71951
13.54223
13.28919
12.9039
12.33485
11.55787
10.5846
9.432125
8.109207
6.598274
4.902328
3.028004
1.034512
-0.981102
-2.939621
-4.755249
-6.393745
-7.869865
-9.249367
-10.62735
-12.15023
-13.96763
-16.19532
-18.85036
-21.73481
-24.42755
-26.33616
-26.84312
-25.51598
-22.27957
-17.46626
-11.72001
-5.816315
-0.4466476
3.964985
7.295326
9.682728
11.4064
12.72062
13.78329
14.62125
15.15388
15.32089
15.10665
14.60354
13.95701
13.30759
12.73479
12.24934
11.8085
11.38594
11.00481
10.72646
10.58835
10.52846
10.37285
9.875771
8.842339
7.244102
5.250338
3.195068
1.396622
0.007843018
-1.074856
-2.086862
-3.297957
-4.806841
-6.529591
-8.288353
-9.93078
-11.42536
-12.84702
-14.30293
-15.85878
-17.52542
-19.28264
-21.08933
-22.85737
-24.38023
-25.29289
-25.15566
-23.63046
-20.63652
-16.41433
-11.4574
-6.307815
-1.398335
2.998775
6.781672
9.908458
12.35568
14.06572
14.99933
15.16904
14.68322
13.74369
12.61996
11.58695
10.84038
10.46638
10.39169
10.46095
10.52559
10.52132
10.45578
10.37463
10.2493
9.96659
9.366042
8.330535
6.87215
5.157147
3.417881
1.826125
0.4350023
-0.8344975
-2.104644
-3.46907
-4.91478
-6.35203
-7.665405
-8.801981
-9.79689
-10.78481
-11.90675
-13.30654
-15.06699
-17.19268
-19.60291
-22.1008
-24.35857
-25.92562
-26.3335
-25.20973
-22.45465
-18.27807
-13.19309
-7.840485
-2.801853
1.553749
5.130566
8.007046
10.32218
12.14273
13.49253
14.3559
14.75695
14.8148
14.70742
14.60568
14.58277
14.61147
14.55315
14.25731
13.66266
12.82822
11.96436
11.30977
10.98828
10.93502
10.89371
10.52769
9.592331
8.064159
6.138252
4.147243
2.363071
0.9078369
-0.270359
-1.313244
-2.374634
-3.553757
-4.898472
-6.434113
-8.153271
-10.01352
-11.89906
-13.65226
-15.14285
-16.36868
-17.47731
-18.73168
-20.3753
-22.4245
-24.58901
-26.28836
-26.85155
-25.78555
-22.99031
-18.78569
-13.80545
-8.708767
-3.960629
0.235424
3.900742
7.114994
9.887737
12.14563
13.78397
14.76065
15.14463
15.11375
14.85155
14.50871
14.16431
13.83486
13.51008
13.19445
12.9062
12.68417
12.55798
12.50642
12.46458
12.30436
11.84771
10.97889
9.649139
7.934002
6.015347
4.13781
2.501236
1.22118
0.2497673
-0.5952797
-1.529175
-2.729061
-4.240025
-5.979298
-7.768471
-9.443577
-10.92406
-12.24794
-13.54491
-14.96071
-16.60481
-18.5338
-20.69862
-22.93257
-24.95191
-26.31955
-26.58625
-25.38744
-22.60861
-18.4508
-13.36105
-7.882919
-2.522034
2.346432
6.484333
9.724117
11.96122
13.16453
13.42583
12.99646
12.23236
11.47633
10.94926
10.68916
10.62123
10.60733
10.57135
10.51329
10.49036
10.55355
10.66526
10.72307
10.5802
10.1125
9.291447
8.199974
6.950027
5.662079
4.371487
3.050232
1.643108
0.09573746
-1.612885
-3.483246
-5.49435
-7.583229
-9.642189
-11.48709
-12.95184
-13.96412
-14.64005
-15.2919
-16.31099
-17.95032
-20.17036
-22.56645
-24.43695
-25.07745
-23.97725
-21.05034
-16.63534
-11.36552
-5.973587
-1.030174
3.148705
6.522091
9.195492
11.29436
12.85691
13.85146
14.22469
14.01673
13.39239
12.59698
11.90497
11.46886
11.32793
11.38223
11.47813
11.49015
11.35503
11.06302
10.63437
10.07606
9.342888
8.390049
7.179199
5.706036
4.031528
2.240204
0.4260025
-1.350769
-3.068707
-4.749996
-6.421608
-8.093933
-9.757538
-11.39039
-12.98154
-14.5743
-16.25415
-18.11426
-20.22896
-22.53755
-24.7979
-26.59977
-27.4301
-26.8343
-24.56051
-20.68465
-15.59285
-9.914536
-4.299217
0.7158527
4.843994
8.030067
10.3581
11.97199
12.98314
13.44488
13.39903
12.93004
12.18467
11.37292
10.69284
10.28007
10.12241
10.1088
10.07691
9.931826
9.687782
9.40855
9.155691
8.906794
8.545658
7.919937
6.931671
5.588875
3.975592
2.213263
0.3803005
-1.478863
-3.347531
-5.183677
-6.934263
-8.56427
-10.07594
-11.55356
-13.14045
-15.01049
-17.28752
-19.96578
-22.80787
-25.34642
-26.93089
-26.93699
-24.99057
-21.09479
-15.68032
-9.431874
-3.096738
2.745942
7.774749
11.89542
15.13652
17.52849
19.07539
19.79726
19.78705
19.23535
18.44732
17.73219
17.36458
17.50795
18.13403
19.07446
20.04522
20.73376
20.89561
20.44113
19.42661
18.04336
16.49461
14.9344
13.43641
11.99368
10.587
9.218023
7.90229
6.618496
5.290158
3.811579
2.067148
0.01817131
-2.308611
-4.835035
-7.484045
-10.20087
-12.96285
-15.70955
-18.3157
-20.60087
-22.32925
-23.26342
-23.18081
-21.89271
-19.32708
-15.58017
-10.9622
-5.967023
-1.130226
3.150803
6.669976
9.445705
11.56984
13.07067
13.85694
13.78724
12.81152
11.07236
8.905391
6.71339
4.798002
3.290792
2.14546
1.248853
0.5096951
-0.09655666
-0.5693159
-0.9168329
-1.227723
-1.608803
-2.162786
-2.904013
-3.773456
-4.654627
-5.465137
-6.197176
-6.920849
-7.707527
-8.59539
-9.569862
-10.57148
-11.5823
-12.673
-14.02385
-15.832
-18.20065
-20.99912
-23.79643
-25.9433
-26.74559
-25.70433
-22.67117
-17.93631
-12.14021
-6.053577
-0.3342152
4.59761
8.590866
11.65848
13.85158
15.17649
15.65553
15.3525
14.47567
13.33886
12.27338
11.5144
11.1556
11.13337
11.29158
11.46681
11.50924
11.33685
10.8836
10.14056
9.141129
7.968727
6.698078
5.35379
3.894493
2.213318
0.2498436
-1.975201
-4.309692
-6.525246
-8.415344
-9.889812
-10.99694
-11.90463
-12.86674
-14.12638
-15.8608
-18.13681
-20.8591
-23.74404
-26.3535
-28.14714
-28.62038
-27.45039
-24.56625
-20.17865
-14.74638
-8.850975
-3.067459
2.175819
6.631042
10.2562
13.11874
15.31707
16.92723
17.99034
18.56274
18.7494
18.71165
18.61111
18.58939
18.6897
18.85219
18.9324
18.76067
18.19222
17.17079
15.76624
14.15428
12.56106
11.15694
9.958611
8.819794
7.531593
5.940865
4.044731
1.994904
0.007759094
-1.768997
-3.341248
-4.833565
-6.426384
-8.271423
-10.42799
-12.90092
-15.64994
-18.61716
-21.66294
-24.51844
-26.74355
-27.79488
-27.15522
-24.52574
-19.97453
-13.94464
-7.159569
-0.3999405
5.675056
10.67356
14.49338
17.22943
19.06187
20.1691
20.66712
20.67153
20.28367
19.62614
18.83015
18.00278
17.22981
16.56843
16.05745
15.71397
15.50752
15.32938
15.0493
14.53745
13.7182
12.62326
11.32417
9.894455
8.337814
6.589752
4.576447
2.334183
-0.01219177
-2.259659
-4.235428
-5.863159
-7.199036
-8.422302
-9.745148
-11.35551
-13.36923
-15.82768
-18.68774
-21.77959
-24.78796
-27.25195
-28.64688
-28.50099
-26.55173
-22.80989
-17.59831
-11.45621
-5.005844
1.171844
6.661301
11.25827
14.91899
17.69113
19.63293
20.79576
21.24792
21.09351
20.49025
19.6539
18.80818
18.11855
17.64093
17.33221
17.07748
16.77786
16.36687
15.84062
15.22073
14.50005
13.63417
12.55023
11.18266
9.509445
7.549225
5.347809
2.985748
0.5627441
-1.819351
-4.037979
-5.987793
-7.604385
-8.897064
-9.974991
-11.04948
-12.3959
-14.27119
-16.81905
-19.94038
-23.24309
-26.07967
-27.69534
-27.46834
-25.12482
-20.84094
-15.17198
-8.851959
-2.573532
3.189606
8.171204
12.27306
15.46655
17.7317
19.08446
19.59399
19.41458
18.77429
17.88286
16.90834
15.9552
15.08269
14.33009
13.76003
13.39232
13.22546
13.18823
13.16982
13.05315
12.7281
12.13831
11.25935
10.08421
8.623627
6.875488
4.840378
2.564087
0.1175079
-2.368988
-4.741684
-6.885368
-8.74292
-10.39253
-11.98483
-13.72002
-15.74786
-18.11751
-20.73493
-23.37038
-25.66645
-27.20518
-27.55821
-26.36251
-23.44508
-18.93241
-13.2234
-6.952896
-0.7889938
4.715302
9.236588
12.67879
15.0996
16.60623
17.30673
17.29566
16.70918
15.72078
14.55071
13.43279
12.53294
11.94086
11.63612
11.54975
11.56367
11.56078
11.43855
11.14309
10.63387
9.912125
9.006859
7.928131
6.725983
5.405403
3.973953
2.419685
0.7587891
-1.016632
-2.862129
-4.732887
-6.574585
-8.372406
-10.13638
-11.91502
-13.78628
-15.83621
-18.15205
-20.75214
-23.54642
-26.2627
-28.44958
-29.5393
-29.03961
-26.68563
-22.56958
-17.15824
-11.10781
-5.084015
0.4009018
5.086319
8.886108
11.78414
13.78714
14.90023
15.17884
14.7894
13.97757
13.04446
12.2721
11.85611
11.84862
12.1459
12.55521
12.82619
12.76841
12.30651
11.52267
10.6059
9.731522
8.961273
8.168846
7.126366
5.640381
3.672928
1.356239
-1.047447
-3.285049
-5.239311
-6.928329
-8.478279
-9.994049
-11.54643
-13.16737
-14.91216
-16.8722
-19.13073
-21.67186
-24.26651
-26.45873
-27.65083
-27.29908
-25.09542
-21.11578
-15.79832
-9.796829
-3.825554
1.569603
6.065681
9.58493
12.19922
14.05347
15.29919
16.04761
16.37166
16.33092
16.00871
15.50202
14.94132
14.44337
14.05774
13.78197
13.53143
13.22462
12.77469
12.17497
11.43768
10.57121
9.556267
8.33017
6.86982
5.210953
3.46357
1.753403
0.1595001
-1.353416
-2.903259
-4.596237
-6.501137
-8.569359
-10.66199
-12.64179
-14.42249
-16.02841
-17.58766
-19.31363
-21.39649
-23.89604
-26.63978
-29.19968
-30.94271
-31.2065
-29.51757
-25.76045
-20.26245
-13.68533
-6.822689
-0.3601112
5.26881
9.911755
13.64205
16.6081
18.93472
20.64974
21.72003
22.12156
21.92263
21.28822
20.45575
19.67123
19.06152
18.60919
18.19443
17.69016
17.06763
16.41945
15.86897
15.48986
15.15804
14.63786
13.65041
12.04477
9.901005
7.489803
5.160233
3.164501
1.528179
0.06923294
-1.478836
-3.30925
-5.403404
-7.580425
-9.574066
-11.23544
-12.6079
-13.90209
-15.4077
-17.34019
-19.7565
-22.57837
-25.61549
-28.56584
-31.0396
-32.51735
-32.44602
-30.38243
-26.24448
-20.38795
-13.59165
-6.77422
-0.7407913
4.067158
7.611908
10.12654
11.9142
13.20089
14.08424
14.56999
14.67894
14.49668
14.18333
13.91504
13.80682
13.86572
14.02277
14.15306
14.1435
13.93695
13.53707
12.98083
12.3246
11.56831
10.67398
9.600521
8.301338
6.796539
5.139942
3.433964
1.759602
0.1597176
-1.399765
-2.996353
-4.704433
-6.538033
-8.421772
-10.24498
-11.91856
-13.46487
-15.00769
-16.75895
-18.90083
-21.47591
-24.29495
-26.89859
-28.6562
-28.91681
-27.24875
-23.59359
-18.34893
-12.23155
-6.04508
-0.4332485
4.315962
8.196337
11.37414
13.98879
16.03173
17.4062
18.00516
17.85063
17.12739
16.12819
15.15053
14.41449
13.99868
13.86448
13.8894
13.93777
13.91873
13.80679
13.62063
13.34862
12.91071
12.15831
10.96019
9.287062
7.293655
5.255896
3.459267
2.035831
0.9018764
-0.1836758
-1.496834
-3.193554
-5.245228
-7.48555
-9.691311
-11.67955
-13.36704
-14.77213
-16.0163
-17.29414
-18.83974
-20.84914
-23.40806
-26.3762
-29.36926
-31.79553
-32.97776
-32.35564
-29.65265
-24.98809
-18.87387
-12.05974
-5.355156
0.6078053
5.491079
9.2791
12.16832
14.40247
16.13864
17.4171
18.16808
18.35434
18.04641
17.43275
16.79307
16.34557
16.18074
16.22551
16.29893
16.23385
15.97142
15.60109
15.2641
15.03258
14.81407
14.38422
13.50714
12.05394
10.12617
7.988617
5.940196
4.129272
2.498981
0.8358345
-1.078925
-3.293743
-5.666124
-7.950268
-9.939626
-11.59238
-13.06308
-14.58022
-16.33707
-18.40216
-20.71528
-23.11812
-25.39707
-27.30804
-28.52873
-28.7023
-27.48493
-24.68261
-20.40032
-15.02277
-9.131124
-3.35599
1.808047
6.110766
9.514447
12.11355
14.02673
15.31607
16.01872
16.15236
15.81265
15.14454
14.35498
13.61313
13.04382
12.66869
12.44537
12.30421
12.16999
11.98733
11.71004
11.31442
10.73448
9.95007
8.943417
7.725436
6.337089
4.831194
3.253247
1.614936
-0.08951998
