15.75843
15.84718
15.13634
13.91734
12.43533
10.7746
8.865631
6.517681
3.519531
-0.2714958
-4.84745
-10.01513
-15.38271
-20.4348
-24.58986
-27.35773
-28.42497
-27.7527
-25.53947
-22.13148
-17.92568
-13.26569
-8.394531
-3.474052
1.309525
5.768883
9.657555
12.74471
14.8839
16.05591
16.41293
16.18579
15.59914
14.70459
13.39856
11.46882
8.765663
5.350266
1.528152
-2.270851
-5.666626
-8.501038
-10.88128
-13.05515
-15.26779
-17.64191
-20.1262
-22.53623
-24.60976
-26.05992
-26.64127
-26.11736
-24.35165
-21.34617
-17.28919
-12.49723
-7.401291
-2.446259
2.017776
5.674767
8.355164
10.00794
10.72354
10.67916
10.12302
9.257347
8.202728
7.026711
5.743011
4.371246
2.969673
1.617081
0.3435287
-0.8652649
-2.110313
-3.52787
-5.240952
-7.321548
-9.789421
-12.63902
-15.85328
-19.41549
-23.24654
-27.13573
-30.72078
-33.45343
-34.75967
-34.19152
-31.549
-27.01517
-20.99425
-14.00724
-6.556538
0.9346352
8.133808
14.69665
20.28818
24.67035
27.73577
29.67785
30.85463
31.66042
32.28788
32.64501
32.35277
30.93546
28.07726
23.75859
18.33729
12.48859
7.011711
2.628677
-0.1838417
-1.316303
-0.9787331
0.3851395
2.215256
4.052345
5.621395
6.851288
7.816998
8.596958
9.204227
9.632191
9.877712
10.01711
10.18498
10.49899
10.94559
11.37067
11.47161
10.95751
9.666042
7.671051
5.282635
2.978668
1.298038
0.6717529
1.332718
3.208794
5.905945
8.823429
11.32105
12.96106
13.60036
13.3819
12.65034
11.80196
11.16974
10.93555
11.13803
11.61729
12.05455
11.99025
10.98273
8.825928
5.751816
2.427429
-0.2164688
-1.298302
-0.3139038
2.733696
7.404739
13.04899
19.06396
25.02876
30.67483
35.71512
39.79204
42.38544
42.99792
41.2937
37.24737
31.15987
23.53574
14.97758
6.078102
-2.624947
-10.77072
-18.2433
-25.23976
-32.27657
-39.96957
-48.75793
-58.6106
-68.99255
-78.96333
-87.51836
-93.82228
-97.32184
-97.72505
-94.91527
-88.91768
-79.96477
-68.55933
-55.44032
-41.49811
-27.57603
-14.34111
-2.27771
8.291992
17.12202
24.00398
28.86734
31.82846
33.3224
34.12114
35.26385
37.79625
42.39954
49.04916
56.86102
64.33298
69.82338
72.14861
70.95782
66.7589
60.50548
53.13045
45.20895
36.96587
28.4576
19.85335
11.55254
4.066772
-2.183807
-7.076782
-10.79872
-13.75479
-16.44044
-19.30484
-22.68779
-26.72775
-31.26024
-35.81104
-39.67126
-42.14806
-42.80859
-41.67026
-39.13683
-35.77753
-32.08182
-28.32007
-24.61279
-21.04372
-17.83261
-15.27406
-13.59874
-12.78496
-12.51382
-12.29828
-11.75349
-10.7596
-9.494507
-8.399796
-7.972656
-8.651031
-10.74661
-14.39731
-19.5327
-25.79199
-32.43678
-38.37091
-42.36606
-43.33395
-40.67801
-34.48477
-25.48851
-14.85406
-3.782516
6.755142
16.2522
24.63338
32.16072
39.17429
45.88327
52.25688
58.01413
62.74492
66.10455
67.95828
68.42188
67.79135
66.36409
64.285
61.60324
58.285
54.3477
49.87077
44.951
39.5755
33.66113
27.1049
19.93138
12.44872
5.181808
-1.260651
-6.432953
-10.21428
-12.83157
-14.76553
-16.55719
-18.64113
-21.24585
-24.40222
-27.98114
-31.8174
-35.77657
-39.76653
-43.71593
-47.5159
-51.01305
-53.99863
-56.25574
-57.5896
-57.84633
-56.89526
-54.65904
-51.12733
-46.45981
-41.00424
-35.21307
-29.57861
-24.45001
-19.92203
-15.8602
-12.00137
-8.079712
-3.975342
0.2520752
4.404175
8.203217
11.41299
13.89896
15.69678
16.89532
17.59567
17.83502
17.56927
16.77844
15.56439
14.25412
13.36475
13.45602
14.90402
17.76459
21.71512
26.15408
30.37491
33.69543
35.61526
35.82764
34.22375
30.9165
26.15762
20.27859
13.60159
6.381897
-1.184509
-8.856354
-16.23474
-22.69626
-27.42111
-29.62701
-28.8891
-25.36005
-19.76575
-13.20428
-6.753418
-1.178497
3.168701
6.287109
8.284637
9.242401
9.204437
8.272308
6.666718
4.789246
3.015198
1.582642
0.5169678
-0.367981
-1.308533
-2.463043
-3.848785
-5.364838
-6.856415
-8.2341
-9.473206
-10.63974
-11.81293
-13.04428
-14.28314
-15.37579
-16.09006
-16.1539
-15.40329
-13.81473
-11.51624
-8.765076
-5.850525
-3.030121
-0.5057373
1.59137
3.204681
4.331543
5.077972
5.633423
6.188629
6.885468
7.714294
8.492157
8.960602
8.888824
8.186584
6.942383
5.337097
3.549988
1.670898
-0.2849121
-2.366638
-4.587433
-6.874298
-9.137177
-11.25208
-13.11264
-14.60715
-15.56131
-15.73798
-14.93024
-13.03262
-10.12759
-6.525299
-2.670837
1.006897
4.194275
6.784119
8.785065
10.23337
11.13531
11.44913
11.13171
10.21124
8.835876
7.221252
5.584137
4.049438
2.587708
1.085175
-0.6224976
-2.625244
-4.89563
-7.299683
-9.685028
-11.94977
-14.05356
-15.99106
-17.70532
-19.03708
-19.73694
-19.53604
-18.22308
-15.7356
-12.18735
-7.819458
-2.99649
1.839508
6.232849
9.765259
12.16205
13.34485
13.39838
12.49228
10.81247
8.470276
5.574768
2.251923
-1.291473
-4.765564
-7.915405
-10.56989
-12.74533
-14.56755
-16.19847
-17.73428
-19.17183
-20.46353
-21.62192
-22.72664
-23.90399
-25.22823
-26.56702
-27.6035
-27.88405
-27.05423
-24.97968
-21.82445
-17.92828
-13.68263
-9.388229
-5.22023
-1.300415
2.237747
5.186798
7.344696
8.592926
8.968872
8.667847
7.979248
7.180252
6.484482
5.952087
5.494858
4.898315
3.892487
2.260651
-0.1001434
-3.116653
-6.579788
-10.22237
-13.81366
-17.17319
-20.14323
-22.51056
-23.95905
-24.08421
-22.56686
-19.30708
-14.55421
-8.889465
-3.048508
2.27153
6.579102
9.664459
11.55453
12.36627
12.24344
11.27924
9.550476
7.12735
4.118645
0.6834106
-2.973671
-6.606522
-9.949883
-12.7695
-14.88799
-16.21493
-16.78177
-16.68945
-16.16117
-15.4743
-14.96992
-14.98528
-15.73299
-17.18203
-18.95951
-20.35204
-20.55657
-19.01359
-15.66866
-11.07162
-6.207249
-2.056561
0.7196331
2.006359
2.181486
1.823034
1.405991
1.137452
0.9788084
0.7879136
0.5142002
0.2582865
0.2128334
0.5356102
1.260176
2.240484
3.269917
4.208683
5.035641
5.858288
6.786007
7.772053
8.539024
8.642025
7.622269
5.219315
1.524353
-3.003174
-7.573425
-11.25011
-13.19846
-12.86775
-10.13113
-5.299171
0.9820786
7.919487
14.73888
20.84785
25.85567
29.52364
31.74536
32.50673
31.93863
30.32413
28.11827
25.88356
24.17143
23.37172
23.57448
24.49817
25.48515
25.7168
24.45503
21.40343
16.84038
11.51584
6.369568
2.116287
-0.9889526
-3.187088
-4.966537
-6.747452
-8.584518
-10.1571
-10.88951
-10.24272
-7.951401
-4.113861
0.8602142
6.381317
11.85033
16.78186
20.82993
23.79866
25.59671
26.17293
25.53854
23.7997
21.19403
18.0806
14.91196
12.14944
10.0697
8.746796
7.994171
7.453003
6.753326
5.644806
4.144073
2.472015
0.9508362
-0.2414551
-1.168213
-2.120331
-3.544922
-5.820679
-9.131744
-13.34598
-18.0509
-22.68036
-26.66931
-29.58258
-31.21024
-31.59576
-30.86905
-29.15033
-26.36829
-22.29556
-16.65622
-9.35437
-0.6089172
8.984131
18.60614
27.52542
35.26453
41.68491
46.85995
50.92224
53.87766
55.60608
55.952
54.85269
52.49731
49.27637
45.66901
42.06894
38.68857
35.51019
32.37122
29.02582
25.28372
21.01712
16.22495
11.07523
5.952515
1.427856
-1.83725
-3.265594
-2.552704
0.2426147
4.684082
10.138
15.90631
21.39117
26.0965
29.62524
31.68704
32.1037
30.88956
28.30386
24.79916
20.92877
17.17993
13.79855
10.73343
7.738312
4.483185
0.7522888
-3.446228
-7.907104
-12.27509
-16.26212
-19.70587
-22.70737
-25.52377
-28.51111
-31.98563
-36.09143
-40.76035
-45.64087
-50.15915
-53.58755
-55.31317
-54.98236
-52.69751
-48.98648
-44.60855
-40.26367
-36.35724
-32.91959
-29.69861
-26.4079
-22.84537
-18.94363
-14.71432
-10.15317
-5.251099
-0.05267334
5.250793
10.28555
14.57977
17.70316
19.43378
19.7865
19.04263
17.54449
15.62302
13.47665
11.16028
8.582245
5.574646
1.982483
-2.279724
-7.093506
-12.11008
-16.78143
-20.44675
-22.48462
-22.53018
-20.55731
-16.89719
-12.16232
-7.025757
-2.087891
2.182007
5.467285
7.549957
8.323669
7.83548
6.332886
4.254059
2.136169
0.4543457
-0.4977722
-0.6706543
-0.1986084
0.7004089
1.814575
2.955139
3.957123
4.674561
4.962616
4.733429
3.986847
2.794769
1.190125
-0.8758545
-3.519806
-6.841309
-10.75824
-14.88589
-18.55701
-20.91202
-21.18405
-18.94965
-14.28287
-7.736359
-0.1659546
7.539124
14.64828
20.68268
25.35635
28.52493
30.08029
29.99481
28.41617
25.66278
22.22189
18.5918
15.14923
12.04715
9.2789
6.74762
4.34549
2.021271
-0.2901306
-2.646271
-5.163757
-7.991608
-11.2594
-15.01227
-19.1731
-23.52798
-27.73611
-31.37573
-33.94235
-34.89825
-33.71777
-30.00122
-23.56946
-14.60626
-3.710022
8.213684
20.07159
30.88873
39.91599
46.73444
51.1868
53.28625
53.1792
51.14566
47.62448
43.14313
38.23492
33.30344
28.52151
23.90277
19.3963
15.01974
10.88513
7.164948
3.990875
1.398529
-0.7026978
-2.520294
-4.285461
-6.237671
-8.568115
-11.37152
-14.51987
-17.64554
-20.21268
-21.64584
-21.58548
-20.00858
-17.22751
-13.72565
-10.03217
-6.510193
-3.347473
-0.6041565
1.755615
3.739227
5.359344
6.613434
7.545868
8.264954
8.928741
9.725525
10.75522
12.056
13.48468
14.81531
15.7619
16.14737
15.96072
15.35507
14.56799
13.79819
13.14853
12.54315
11.77521
10.57632
8.65332
5.820282
2.092804
-2.281403
-6.760895
-10.60297
-13.07498
-13.61496
-12.0029
-8.476837
-3.6091
1.809387
6.974548
11.27432
14.33136
16.0188
16.36713
15.51553
13.61353
10.87555
7.527466
3.834229
0.06265259
-3.55072
-6.832886
-9.665802
-11.94858
-13.59296
-14.49316
-14.58414
-13.87457
-12.46838
-10.56107
-8.415619
-6.301819
-4.509033
-3.266357
-2.708557
-2.851837
-3.493408
-4.279419
-4.740082
-4.419769
-3.029755
-0.5332031
2.835175
6.653534
10.48441
13.99649
17.01526
19.4624
21.20895
22.01944
21.59937
19.75162
16.53302
12.36517
7.883209
3.749023
0.4065247
-2.041229
-3.773773
-5.098358
-6.292542
-7.536346
-8.881226
-10.30548
-11.79178
-13.31812
-14.8681
-16.46216
-18.18451
-20.1799
-22.6395
-25.60135
-28.88651
-32.0116
-34.28656
-34.99631
-33.62173
-30.04446
-24.57489
-17.83893
-10.53922
-3.273529
3.614624
9.990723
15.80698
20.96555
25.28174
28.55685
30.67267
31.71454
31.92599
31.61594
31.03571
30.27609
29.25552
27.81711
25.8573
23.36972
20.48453
17.37643
14.21338
11.10364
8.08139
5.097412
2.043335
-1.183716
-4.681671
-8.487457
-12.52454
-16.54343
-20.1279
-22.72495
-23.81607
-23.05865
-20.39685
-16.14093
-10.85367
-5.256042
-0.04681396
4.189514
7.096741
8.555573
8.675903
7.749664
6.132507
4.199982
2.27243
0.5779419
-0.7488403
-1.635406
-2.067169
-2.089752
-1.754044
-1.130508
-0.236145
0.9729309
2.503326
4.273239
6.027298
7.397247
7.939926
7.368546
5.58548
2.734894
-0.8070984
-4.529678
-7.832047
-10.12598
-10.96297
-10.16125
-7.838196
-4.39505
-0.3718567
3.720642
7.475662
10.63509
13.01099
14.45387
14.83067
14.11652
12.45476
10.16638
7.698639
5.4375
3.633682
2.30571
1.291809
0.3588715
-0.6915741
-1.974167
-3.515793
-5.253143
-7.156876
-9.209122
-11.42526
-13.84882
-16.50363
-19.38271
-22.41029
-25.40172
-28.00653
-29.74678
-30.11288
-28.73534
-25.54297
-20.79837
-15.02777
-8.840347
-2.799149
2.667679
7.255478
10.71574
12.90051
13.77327
13.47855
12.31665
10.66054
8.826965
6.976624
5.16217
3.34935
1.54599
-0.2054138
-1.798767
-3.152878
-4.208038
-4.927948
-5.345688
-5.527405
-5.612595
-5.801239
-6.320206
-7.279083
-8.578339
-9.851227
-10.50044
-9.913345
-7.667511
-3.748962
1.455429
7.215073
12.70586
17.23979
20.39165
22.01337
22.13847
20.88748
18.3726
14.74506
10.22264
5.165222
0.04008484
-4.698532
-8.706879
-11.87125
-14.25893
-16.09149
-17.603
-18.95056
-20.20078
-21.35349
-22.45103
-23.57388
-24.86969
-26.48734
-28.51341
-30.95189
-33.69667
-36.50235
-38.97954
-40.59999
-40.78531
-39.03633
-35.12236
-29.19548
-21.76549
-13.58716
-5.478912
1.872375
8.005539
12.70634
15.95787
17.89911
18.78549
18.95343
18.77708
18.58711
18.60811
18.90794
19.39113
19.83121
19.95332
19.54031
18.41776
16.48273
13.61246
9.605911
4.216751
-2.728455
-11.19838
-20.88173
-31.18378
-41.33701
-50.46078
-57.60933
-61.77448
-62.01057
-57.57974
-48.21677
-34.34761
-17.05244
2.101364
21.45853
39.61263
55.57133
68.70819
78.66998
85.29204
88.64752
89.11928
87.39621
84.35396
80.80504
77.26251
73.84526
70.33971
66.40111
61.78543
56.4362
50.50702
44.26843
37.97034
31.78799
25.81757
20.07281
14.4935
8.959869
3.346664
-2.399811
-8.141357
-13.48956
-17.86961
-20.66069
-21.40919
-19.9978
-16.67958
-12.005
-6.673424
-1.370979
3.295891
6.876228
9.095245
9.829956
9.146507
7.298828
4.68457
1.79187
-0.9228897
-3.101646
-4.529438
-5.186497
-5.253166
-5.081646
-5.064796
-5.508083
-6.520832
-7.989784
-9.661366
-11.30275
-12.79418
-14.18053
-15.60401
-17.19317
-19.02872
-21.10811
-23.33535
-25.51743
-27.31589
-28.28223
-27.93815
-25.92745
-22.18844
-16.9828
-10.85654
-4.453196
1.601711
6.792141
10.71924
13.138
13.95329
13.26019
11.34431
8.634644
5.617928
2.735359
0.3097191
-1.47308
-2.578484
-3.100227
-3.261673
-3.39402
-3.819542
-4.805412
-6.40976
-8.472687
-10.69476
-12.74659
-14.41499
-15.7036
-16.85642
-18.21748
-20.11359
-22.64098
-25.61401
-28.51153
-30.61901
-31.18298
-29.63524
-25.83528
-20.08572
-13.06155
-5.623901
1.428154
7.506592
12.28693
15.64387
17.57474
18.11908
17.41095
15.68553
13.3069
10.71381
8.308167
6.372177
4.999893
4.106552
3.472458
2.827652
1.927658
0.6118317
-1.108215
-3.086945
-5.068314
-6.831909
-8.265289
-9.444305
-10.56544
-11.92551
-13.77242
-16.21495
-19.2253
-22.55516
-25.76653
-28.22787
-29.26479
-28.32237
-25.16243
-19.96045
-13.31306
-6.066025
0.9318542
6.973755
11.64607
14.80235
16.49536
16.92392
16.34106
15.04564
13.29193
11.27968
9.156815
7.007523
4.956757
3.131256
1.663025
0.6076355
-0.07989502
-0.5882874
-1.131119
-1.897568
-2.958252
-4.253906
-5.657196
-7.056335
-8.441788
-9.919083
-11.65027
-13.78308
-16.40443
-19.46338
-22.76671
-25.96512
-28.52936
-29.84305
-29.33524
-26.64363
-21.80157
-15.30305
-8.007019
-0.8652954
5.331696
10.15053
13.52354
15.5873
16.53857
16.50549
15.5816
13.88022
11.64568
9.239761
7.058914
5.392593
4.352081
3.807968
3.484329
3.095779
2.412186
1.363525
0.02203369
-1.457489
-2.927063
-4.301956
-5.575439
-6.797623
-8.036804
-9.35408
-10.8112
-12.53879
-14.66382
-17.2433
-20.09967
-22.7765
-24.53305
-24.58736
-22.39763
-17.89201
-11.55104
-4.270569
2.953445
9.298416
14.27585
17.756
19.84059
20.70889
20.56772
19.57645
17.92477
15.842
13.60497
11.49413
9.721283
8.374695
7.387695
6.53804
5.534546
4.149368
2.314804
0.1603851
-2.049301
-4.081024
-5.810883
-7.305679
-8.726349
-10.27399
-12.04738
-14.06551
-16.3175
-18.81528
-21.59052
-24.58311
-27.50298
-29.76297
-30.57784
-29.23512
-25.43556
-19.4474
-12.07884
-4.401215
2.622498
8.391708
12.72537
15.72784
17.548
18.23604
17.75267
16.12895
13.59576
10.60831
7.710556
5.339844
3.675949
2.630264
1.943054
1.329651
0.5983887
-0.3392792
-1.496735
-2.90686
-4.644791
-6.807098
-9.451935
-12.51808
-15.84259
-19.1866
-22.33386
-25.17943
-27.81664
-30.52481
-33.60603
-37.20105
-41.05769
-44.48563
-46.48027
-46.05756
-42.60188
-36.12224
-27.31459
-17.35176
-7.538025
0.9866028
7.413727
11.34508
12.74681
11.96228
9.741852
7.126724
5.292847
5.190155
7.252838
11.20869
16.22209
21.23964
25.34979
28.05528
29.27003
29.16212
27.94955
25.79643
22.83585
19.24547
15.34005
11.51497
8.143753
5.46489
3.498627
2.044983
0.7788391
-0.6402588
-2.435081
-4.573006
-6.721947
-8.309715
-8.686005
-7.363899
-4.209175
0.4876862
6.130249
12.00751
17.52575
22.28137
26.06552
28.77816
30.30444
30.54786
29.44379
27.11517
23.89275
20.27716
16.85748
14.14375
12.45302
11.83147
12.11254
12.9577
13.99426
14.87334
15.31429
15.12608
14.18956
12.50938
10.13205
7.238625
4.027374
0.7140579
-2.547432
-5.68837
-8.755569
-11.92144
-15.40512
-19.44855
-24.08563
-29.09355
-33.8829
-37.63557
-39.57245
-39.21518
-36.62999
-32.35007
-27.18423
-21.91348
-17.09241
-12.95919
-9.534401
-6.750565
-4.565208
-3.021698
-2.170631
-2.031731
-2.536507
-3.528271
-4.810978
-6.152821
-7.385361
-8.394966
-9.173679
-9.771145
-10.23941
-10.5962
-10.83007
-10.96313
-11.0844
-11.37701
-12.01812
-13.12771
-14.68935
-16.57658
-18.66225
-20.91678
-23.45934
-26.42472
-29.81582
-33.30601
-36.2043
-37.58867
-36.61276
-32.83278
-26.39252
-17.99401
-8.626553
0.7358055
9.389693
16.96461
23.35894
28.5401
32.44989
35.01326
36.20662
36.16514
35.21082
33.72687
32.07085
30.49843
29.13236
28.01637
27.14865
26.47015
25.8643
25.17969
24.26437
22.98935
21.31878
19.28169
16.95655
14.41022
11.68685
8.813087
5.839165
2.817154
-0.250351
-3.399193
-6.665421
-9.896255
-12.63375
-14.13445
-13.55053
-10.2392
-4.075356
4.478638
14.49542
24.88362
34.62303
42.94809
49.2795
53.20942
54.49078
53.11723
49.43339
44.11994
38.03967
32.02955
26.703
22.35661
18.99872
16.45831
14.49849
12.89471
11.4924
10.21646
9.065071
8.089775
7.366325
6.919579
6.699112
6.570801
6.347511
5.836929
4.82943
3.136589
0.5799026
-2.921349
-7.258072
-12.01984
-16.5291
-19.9228
-21.41105
-20.49436
-17.1488
-11.87973
-5.570423
0.7435722
6.174129
10.15817
12.53579
13.44265
13.16271
11.99869
10.18495
7.920506
5.376049
2.750748
0.2755661
-1.84605
-3.451485
-4.48164
-4.964561
-5.016392
-4.785583
-4.428898
-4.07531
-3.806862
-3.664213
-3.658117
-3.835844
-4.277252
-5.116346
-6.435431
-8.285999
-10.64338
-13.47057
-16.73816
-20.35501
-24.07754
-27.40726
-29.66808
-30.1708
-28.49844
-24.71258
-19.37959
-13.38288
-7.589516
-2.609493
1.307786
4.165701
6.029034
6.848898
6.478209
4.761648
1.709245
-2.389967
-7.037428
-11.65615
-15.78039
-19.21411
-22.03156
-24.4651
-26.78357
-29.18353
-31.73747
-34.45484
-37.2752
-40.09412
-42.73317
-44.96112
-46.52589
-47.29174
-47.3232
-46.87849
-46.36415
-46.15057
-46.43324
-47.12414
-47.81768
-47.89316
-46.67219
-43.60522
-38.42672
-31.26088
-22.57626
-13.10367
-3.655281
5.08297
12.65886
18.84761
23.61882
27.03377
29.14225
30.02547
29.82323
28.75717
27.16315
25.40469
23.78026
22.44547
21.36106
20.35405
19.20784
17.72623
15.78889
13.38428
10.58932
7.60347
4.666183
1.998581
-0.2652588
-2.105225
-3.636612
-5.039474
-6.490921
-8.121063
-9.936432
-11.77953
-13.26523
-13.84097
-12.82164
-9.671158
-4.15239
3.47139
12.4655
21.81129
30.50603
37.82288
43.43622
47.33908
49.65707
50.49835
49.86446
47.77287
44.38069
40.09859
35.57652
31.506
28.4101
26.50291
25.66122
25.50816
25.6402
25.75266
25.70706
25.49168
25.12985
24.56523
23.62772
22.09541
19.73857
16.42966
12.18169
7.127625
1.574142
-4.023376
-9.103378
-12.99335
-15.05531
-14.83858
-12.23453
-7.542786
-1.465775
5.081482
11.16382
16.04967
19.3084
20.76646
20.45937
18.54106
15.22589
10.79855
5.63063
0.1350403
-5.304047
-10.3894
-15.06789
-19.53284
-24.15277
-29.35919
-35.46892
-42.55797
-50.50623
-59.10188
-68.18741
-77.7775
-88.0311
-99.13895
-111.1994
-124.0737
-137.3115
-150.1695
-161.674
-170.6773
-175.981
-176.481
-171.3813
-160.4112
-143.9252
-122.8837
-98.68045
-72.81232
-46.62564
-21.10953
3.171722
26.06845
47.67313
68.15143
87.56766
105.6718
121.9624
135.7557
146.4333
153.6754
157.4888
158.098
155.7076
150.3837
142.0007
130.5152
116.0706
99.11719
80.36057
60.65887
40.93427
22.11111
5.05191
-9.668274
-21.96939
-32.28546
-41.33334
-49.59305
-56.89368
-62.35168
-64.72607
-63.09991
-57.41852
-48.57294
-37.97046
-26.97333
-16.40234
-6.578979
2.461121
10.55389
17.30457
22.20605
24.93176
25.60651
24.79175
23.34814
22.04529
21.3548
21.29572
21.51337
21.48956
20.80737
19.29193
17.05133
14.37085
11.55664
8.790894
6.102295
3.379822
0.5100098
-2.555176
-5.790405
-9.157593
-12.7179
-16.5993
-20.91565
-25.58313
-30.16443
-33.81238
-35.50293
-34.29181
-29.72754
-21.98151
-11.79871
-0.2729492
11.53662
22.78479
32.91644
41.58765
48.54651
53.60645
56.70087
57.93945
57.67554
56.4458
54.82141
53.27881
52.05054
51.11847
50.23804
49.16095
47.73724
46.04895
44.33514
42.83124
41.58691
40.38318
38.84064
36.60034
33.55017
29.88818
26.03009
22.46301
19.5321
17.38287
15.90961
14.7207
13.20453
10.60297
6.225647
-0.2438354
-8.483582
-17.46466
-25.5954
-31.23572
-33.21478
-31.17902
-25.66455
-17.7981
-8.829468
0.2940674
9.006897
17.10742
24.45453
30.8175
35.85651
39.26569
40.95978
41.16772
40.38971
39.18811
38.01758
37.08954
36.39001
35.79718
35.14282
34.28912
33.11554
31.52008
29.43481
26.88013
24.00415
21.10193
18.55188
16.67493
15.66522
15.48169
15.90033
16.59027
17.20422
17.4173
17.00885
15.89496
14.117
11.83148
9.210693
6.337524
3.111877
-0.6709595
-5.184631
-10.32306
-15.57758
-20.04529
-22.64703
-22.49017
-19.15607
-12.86047
-4.349304
5.307434
15.03561
23.95758
31.48019
37.2981
41.30829
43.57632
44.28244
43.72778
42.30457
40.41605
38.36667
36.2702
34.03098
31.35806
27.98633
23.80859
18.96976
13.83304
8.839844
4.272797
0.1694031
-3.690277
-7.65564
-11.9668
-16.6489
-21.48288
-26.09796
-30.16925
-33.54688
-36.30746
-38.74808
-41.40472
-44.90851
-49.89478
-56.72488
-65.24472
-74.60303
-83.42441
-90.15247
-93.58194
-93.31766
-89.79535
-84.03409
-77.15816
-69.95583
-62.78857
-55.67917
-48.56744
-41.5009
-34.70441
-28.43442
-22.8884
-18.10944
-13.98596
-10.423
-7.351517
-4.800323
-2.834885
-1.446838
-0.5179443
0.2115326
1.04158
2.209564
3.702713
5.28569
6.569931
7.179337
6.905472
5.802292
4.101425
2.088455
0.04077148
-1.925583
-3.771286
-5.561646
-7.431564
-9.543625
-12.0182
-14.81195
-17.61253
-19.82266
-20.75494
-19.84933
-16.93294
-12.33966
-6.754822
-1.00296
4.252701
8.614914
11.96599
14.31154
15.64424
15.92892
15.15012
13.43643
11.10201
8.600113
6.396011
4.78479
3.791428
3.205414
2.701447
1.987915
0.9432068
-0.4273071
-2.087799
-4.037338
-6.277039
-8.763901
-11.31941
-13.59621
-15.18887
-15.7556
-15.10698
-13.28452
-10.46355
-6.933594
-3.00766
1.00444
4.831726
8.312637
11.44655
14.42799
17.53011
21.00845
24.91394
29.06592
33.0843
36.49161
38.88182
39.98685
39.7251
38.12965
35.37589
31.66817
27.28593
22.53131
17.70253
13.05016
8.780022
5.016792
1.778481
-0.9692535
-3.303551
-5.266571
-6.836639
-7.92849
-8.460625
-8.445068
-8.000725
-7.32283
-6.612061
-5.951614
-5.274994
-4.404366
-3.167465
-1.497742
0.5000305
2.560127
4.298103
5.327873
5.333679
4.197472
2.069191
-0.6028061
-3.123901
-4.775219
-5.041412
-3.841625
-1.569763
1.036175
3.250572
4.621334
5.136471
5.188095
5.296104
5.879715
7.066324
8.693176
10.43785
11.98463
13.17652
14.0141
14.58877
14.98168
15.20535
15.18314
14.77434
13.80126
12.09713
9.599996
6.390438
2.725256
-1.002758
-4.355295
-6.941813
-8.536823
-9.128075
-8.945236
-8.391693
-7.932896
-7.976162
-8.767086
-10.26205
-12.12793
-13.85095
-14.8898
-14.89359
-13.84466
-12.06728
-10.09243
-8.475227
-7.595039
-7.61573
-8.496162
-10.06382
-12.12066
-14.48305
-16.96798
-19.40974
-21.62827
-23.46097
-24.8358
-25.81754
-26.55672
-27.19906
-27.84537
-28.41811
-28.77992
-28.81048
-28.51166
-28.05885
-27.71233
-27.68523
-28.0282
-28.64215
-29.29128
-29.7618
-29.96138
-29.93782
-29.87772
-30.01604
-30.56187
-31.59341
-32.97604
-34.31516
-35.05547
-34.60596
-32.57211
-28.88812
-23.85302
-17.99373
-11.90446
-6.054688
-0.742836
3.859566
7.646622
10.51981
12.40988
13.33514
13.46599
13.07864
12.4869
11.9162
11.46091
11.07314
10.66796
10.20491
9.744995
9.410057
9.289299
9.378204
9.501167
9.384094
8.706932
7.282188
5.141815
2.560173
-0.05026245
-2.307541
-4.016205
-5.22921
-6.215332
-7.311081
-8.786568
-10.73329
-13.05076
-15.47353
-17.58855
-18.89328
-18.86104
-17.07819
-13.38583
-7.971657
-1.358467
5.772972
12.80286
19.34729
25.31343
30.71502
35.52505
39.54538
42.38223
43.6347
43.05919
40.71539
36.9446
32.28496
27.25433
22.23331
17.43845
12.96198
8.915039
5.45948
2.785362
0.9811363
-0.08390808
-0.7729492
-1.581696
-2.935562
-4.986969
-7.567078
-10.2997
-12.78796
-14.78574
-16.2625
-17.38932
-18.41898
-19.58459
-21.07271
-22.95507
-25.20415
-27.64341
-29.85957
-31.27573
-31.25615
-29.30437
-25.26817
-19.40995
-12.34172
-4.847778
2.304436
8.57748
13.67379
17.49637
20.03839
21.32737
21.46096
20.62637
19.2188
17.75143
16.72229
16.40951
16.74776
17.36885
17.75842
17.47403
16.32059
14.38067
11.94965
9.421234
7.113743
5.239403
3.835701
2.751343
1.665169
0.1969414
-1.978546
-4.98423
-8.669846
-12.68701
-16.59207
-19.92682
-22.29845
-23.41452
-23.1296
-21.52784
-19.0306
-16.29719
-13.98577
-12.44345
-11.43045
-10.20714
-7.843006
-3.673489
2.404789
9.903149
18.06034
26.17432
33.83345
40.88594
47.1683
52.4037
56.13686
57.97776
57.85947
56.19995
53.80629
51.592
50.24768
50.00065
50.61497
51.59295
52.44414
52.88671
52.90779
52.62527
52.12339
51.35061
50.08587
48.07589
45.17876
41.46564
37.20921
32.79529
28.54075
24.58715
20.85754
17.11392
13.1115
8.720673
3.959549
-1.041183
-6.088715
-10.96878
-15.41464
-19.04019
-21.40817
-22.16481
-21.2339
-19.02528
-16.37654
-14.28152
-13.55887
-14.56976
-17.12357
-20.71892
-24.74306
-28.76463
-32.61913
-36.37984
-40.30829
-44.7536
-50.1207
-56.65802
-64.33713
-72.70557
-80.92784
-88.0596
-93.34003
-96.47238
-97.59146
-97.0816
-95.20148
-91.93445
-86.98932
-80.07953
-71.2417
-60.97073
-50.15289
-39.78317
-30.70648
-23.41354
-18.08487
-14.72198
-13.28485
-13.7977
-16.23526
-20.41693
-25.8045
-31.47142
-36.19028
-38.70422
-38.12442
-34.1467
-27.21066
-18.29848
-8.662003
0.5774384
8.652298
15.20845
20.18404
23.64511
25.69254
26.36255
25.73944
23.97141
21.42447
18.62943
16.21104
14.73483
14.54726
15.72534
18.00304
20.96561
24.16959
27.29927
30.22523
32.90172
35.26959
37.14195
38.27396
38.40727
37.45226
35.50076
32.80283
29.66655
26.30936
22.82765
19.14932
15.18097
10.85414
6.33165
2.005051
-1.475754
-3.356308
-2.979507
0.01127625
5.47699
12.79956
20.94365
28.73412
35.11382
39.37109
41.2581
40.94029
38.83269
35.49791
31.48375
27.20926
22.99573
19.0265
15.3949
12.14833
9.290207
6.80278
4.623688
2.667664
0.7874146
-1.19577
-3.438141
-6.057083
-9.084686
-12.4687
-16.08177
-19.81377
-23.54594
-27.22632
-30.82675
-34.35295
-37.87999
-41.55423
-45.54778
-49.98889
-54.82481
-59.72829
-64.07776
-67.04391
-67.83069
-65.91949
-61.2283
-54.18176
-45.53659
-36.20081
-26.98177
-18.45763
-10.93936
-4.557266
0.6259308
4.611069
7.41571
9.14978
10.03047
10.3987
10.61816
10.98103
11.61787
12.47407
13.38122
14.1038
14.44263
14.28762
13.62364
12.51046
11.05712
9.36145
7.512131
5.550293
3.469994
1.224869
-1.261673
-4.061729
-7.218262
-10.65234
-14.1509
-17.33076
-19.65874
-20.54311
-19.48347
-16.24126
-10.96925
-4.226612
3.144138
10.23261
16.27375
20.82862
23.78927
25.26884
25.47834
24.65625
23.01679
20.84061
18.50358
16.44335
15.06871
14.63059
15.16529
16.49783
18.30629
20.22939
21.93573
23.14777
23.6462
23.26443
21.89699
19.51908
16.19943
12.04291
7.183544
1.737969
-4.159829
-10.30135
-16.31035
-21.60878
-25.48239
-27.22401
-26.37207
-22.85663
-17.06
-9.728048
-1.810597
5.797411
12.34222
17.3352
20.52237
21.8203
21.32228
19.27522
16.11034
12.40205
8.785809
5.781363
3.700445
2.551226
2.071342
1.856525
1.506004
0.7679443
-0.4144478
-1.967999
-3.778259
-5.752068
-7.877728
-10.19759
-12.81468
-15.86724
-19.51195
-23.81599
-28.63792
-33.51227
-37.65285
-40.10884
-40.08127
-37.16907
-31.59494
-24.09045
-15.68428
-7.357346
0.1743011
6.540077
11.6023
15.33884
17.7281
18.69538
18.23289
16.45448
13.68614
10.41795
7.172684
4.396729
2.382629
1.25605
1.052086
1.812904
3.588585
6.394417
10.11741
14.44862
18.89139
22.87054
25.82681
27.34303
27.20266
25.38736
22.05724
17.53003
12.27648
6.947258
2.348808
-0.6961823
-1.50383
0.2501221
4.358994
10.11479
16.47633
22.39497
27.09995
30.23303
31.77788
31.89612
30.76923
28.52162
25.29854
21.35245
17.09668
13.03175
9.62056
7.099808
5.445129
4.39856
3.569183
2.605576
1.273117
-0.4504395
-2.450836
-4.53479
-6.535553
-8.395767
-10.1835
-12.07144
-14.20538
-16.66582
-19.38976
-22.27826
-25.17728
-27.95215
-30.40221
-32.16492
-32.69438
-31.34033
-27.60284
-21.4048
-13.24092
-4.071793
4.923889
12.77878
18.99893
23.58545
26.87524
29.24152
30.8981
31.86064
32.11249
31.74338
30.98421
30.15833
29.4693
28.93272
28.35471
27.51039
26.2897
24.80005
23.26875
21.88141
20.64088
19.26984
17.38792
14.70294
11.16005
7.030807
2.783928
-1.090103
-4.320953
-6.923218
-9.220055
-11.63342
-14.53363
-18.06227
-22.05121
-26.06137
-29.49421
-31.71411
-32.17314
-30.53831
-26.74482
-21.07718
-14.12587
-6.665283
0.5201569
6.811554
11.86752
15.61789
18.16988
19.72154
20.43233
20.45432
19.96018
19.1853
18.37571
17.76353
17.44403
17.3841
17.43177
17.42365
17.20927
16.71048
15.91087
14.81223
13.41661
11.7295
9.756073
7.541115
5.163368
2.712303
0.2692108
-2.118149
-4.427742
-6.68087
-8.901413
-11.13589
-13.40028
-15.72081
-18.12317
-20.62591
-23.26721
-26.09764
-29.20152
-32.59663
-36.17793
-39.57856
-42.21129
-43.43045
-42.76305
-40.15182
-36.03412
-31.15753
-26.25115
-21.76573
-17.71214
-13.82596
-9.870338
-5.836933
-1.965031
1.425049
4.20311
6.564198
8.929958
11.76108
15.32099
19.51551
24.00092
28.38757
32.39453
35.96066
39.17455
42.11057
44.72193
46.82011
48.11346
48.37624
47.5299
45.70099
43.19583
40.33765
37.36319
34.31058
31.01374
27.22096
22.7527
17.61912
12.02549
6.363131
1.019322
-3.731541
-7.79471
-11.25381
-14.29623
-17.12152
-19.93995
-22.91546
-26.07829
-29.32122
-32.28444
-34.40995
-35.08286
-33.82312
-30.48403
-25.35699
-19.04875
-12.24338
-5.501734
0.8571587
6.688442
11.86908
16.2042
19.43075
21.3306
21.86392
21.23639
19.83854
18.13795
16.54127
15.26092
14.41275
14.05772
14.317
15.40858
17.61376
21.0821
25.76783
31.27271
36.92683
41.97091
45.76556
48.02985
48.87239
48.70782
47.99911
47.06147
45.99469
44.66551
42.86671
40.41766
37.26056
33.46689
29.22508
24.74257
20.19727
15.68257
11.1763
6.578796
1.739456
-3.451706
-9.038574
-14.95113
-20.9874
-26.81822
-32.04753
-36.31097
-39.32729
-41.06071
-41.70407
-41.65327
-41.33325
-41.06215
-40.94852
-40.88065
-40.70731
-40.35468
-39.93808
-39.75638
-40.13721
-41.26898
-43.09244
-45.29016
-47.44305
-49.18149
-50.38477
-51.17374
-51.80777
-52.52551
-53.36737
-54.12927
-54.48276
-54.11398
-52.90057
-50.96143
-48.52094
-45.7807
-42.7641
-39.36484
-35.46017
-31.11655
-26.62726
-22.48746
-19.18243
-16.97742
-15.84506
-15.48553
-15.48215
-15.49429
-15.39047
-15.22549
-15.18854
-15.49762
-16.30447
-17.61292
-19.2608
-20.86697
-21.92639
-21.91748
-20.39899
-17.17575
-12.29343
-6.008545
1.353424
9.464691
18.05161
26.84161
35.49762
43.60846
50.67026
56.22876
59.98093
61.89999
62.18561
61.23538
59.52142
57.44336
55.26627
53.04697
50.69174
48.06207
45.05075
41.61179
37.7662
33.54218
28.94415
23.98056
18.70798
13.27771
7.91449
2.817535
-1.889252
-6.167145
-10.03537
-13.51294
-16.54535
-19.06613
-21.01538
-22.418
-23.4256
-24.28036
-25.23465
-26.49664
-28.17404
-30.1615
-32.18445
-33.78622
-34.4133
-33.58737
-31.05408
-26.87061
-21.44159
-15.36087
-9.243622
-3.592712
1.313416
5.353363
8.499512
10.69836
11.8783
11.9986
11.19092
9.801514
8.31015
7.178223
6.624512
6.538025
6.577942
6.358795
5.649689
4.492462
3.15271
1.909973
0.9665833
0.313324
-0.2463989
-0.9576721
-2.038208
-3.61554
-5.684357
-8.119659
-10.72141
-13.25037
-15.49881
-17.33557
-18.75009
-19.81384
-20.66235
-21.44788
-22.32431
-23.47107
-25.05182
-27.12384
-29.51895
-31.7644
-33.12198
-32.81424
-30.28534
-25.46881
-18.83914
-11.23279
-3.57431
3.387054
9.257385
13.94879
17.53964
20.14771
21.79932
22.49084
22.26654
21.3158
19.96103
18.58716
17.52713
16.94482
16.80875
16.93472
17.06873
16.99344
16.59598
15.84232
14.77261
13.45926
11.98431
10.40787
8.730164
6.88031
4.763214
2.29126
-0.5417786
-3.613617
-6.702728
-9.592773
-12.09436
-14.15479
-15.84869
-17.30981
-18.72498
-20.28165
-22.15863
-24.48862
-27.28531
-30.30545
-33.00522
-34.62659
-34.39957
-31.84613
-26.98242
-20.33777
-12.78278
-5.230927
1.65332
7.56958
12.48804
16.48087
19.52771
21.5061
22.26309
21.77933
20.24487
18.08472
15.8335
13.97794
12.80582
12.32422
12.3399
12.54059
12.65009
12.51245
12.10596
11.50354
10.78549
9.935425
8.829926
7.301575
5.227814
2.646118
-0.2403564
-3.149567
-5.835419
-8.179871
-10.20651
-12.02692
-13.77188
-15.5372
-17.41473
-19.50497
-21.96844
-24.95395
-28.50253
-32.38843
-36.07394
-38.76398
-39.61836
-38.03067
-33.85539
-27.51582
-19.82654
-11.77983
-4.235764
2.26149
7.481323
11.41144
14.13406
15.71121
16.18845
15.67233
14.31537
12.32851
9.918015
7.259079
4.52092
1.87944
-0.484787
-2.427048
-3.857132
-4.798157
-5.340057
-5.591354
-5.632828
-5.508972
-5.250854
-4.875916
-4.44809
-3.987961
-3.473953
-2.864838
-2.094147
-1.127823
0.03840637
1.367737
2.820038
4.342392
5.863739
7.281509
8.44548
9.132889
9.085938
8.070358
6.018295
3.181274
0.1918182
-2.04335
-2.581177
-0.8082275
3.31369
9.183395
15.79181
22.082
27.35095
31.34654
34.1853
36.07419
37.09244
37.15689
36.11929
33.97707
30.98312
27.59834
24.30977
21.46158
19.16927
17.3605
15.86606
14.52872
13.2113
11.80821
10.22165
8.372375
6.260025
3.966049
1.616745
-0.6884384
-2.938599
-5.231735
-7.699463
-10.44429
-13.4546
-16.6254
-19.7953
-22.87252
-25.79894
-28.58538
-31.29569
-34.04936
-36.99177
-40.2871
-44.02341
-48.08031
-52.05431
-55.23802
-56.77144
-55.94001
-52.42568
-46.46333
-38.79244
-30.39818
-22.23387
-14.98689
-9.000984
-4.351089
-0.9847107
1.203964
2.292641
2.380638
1.637093
0.3322296
-1.19931
-2.655228
-3.846653
-4.72356
-5.344589
-5.861721
-6.409286
-7.053493
-7.768215
-8.469395
-9.04224
-9.42606
-9.623438
-9.71442
-9.813007
-9.993328
-10.26453
-10.55423
-10.74143
-10.71823
-10.44755
-9.965555
-9.375265
-8.827501
-8.50404
-8.638054
-9.484367
-11.26846
-14.06676
-17.6888
-21.57513
-24.85705
-26.50433
-25.65183
-21.86206
-15.29447
-6.666069
2.961205
12.49289
21.09225
28.26428
33.87318
37.9751
40.68887
42.13402
42.45811
41.851
40.62383
39.12038
37.65813
36.44232
35.50549
34.70122
33.80136
32.60587
31.06638
29.2981
27.49051
25.8067
24.24875
22.6286
20.65901
18.09981
14.91588
11.3083
7.619492
4.16716
1.092667
-1.659485
-4.302444
-7.096542
-10.22974
-13.80261
-17.81552
-22.0992
-26.33032
-29.95601
-32.27908
-32.59805
-30.39896
-25.57098
-18.47009
-9.844467
-0.631012
8.250412
16.08707
22.38463
26.8848
29.52774
30.43295
29.90018
28.38223
26.40305
24.44028
22.82886
21.70227
21.01279
20.60901
20.35736
20.15518
19.92154
19.54794
18.84351
17.60901
15.70477
13.1413
10.08673
6.794403
3.520935
0.4002991
-2.542938
-5.381897
-8.211334
-11.16431
-14.34229
-17.80383
-21.45105
-24.91602
-27.56747
-28.57318
-27.19226
-23.04059
-16.28424
-7.605072
2.004486
11.54175
20.25815
27.71399
33.73141
38.25745
41.26901
42.7561
42.85101
41.83398
40.16544
38.36746
36.83569
35.76065
35.09201
34.6431
34.20557
33.64716
32.92493
32.04504
30.98547
29.66513
27.97632
25.8765
23.418
20.76935
18.11102
15.5574
13.06555
10.49084
7.603821
4.201752
0.2140808
-4.253021
-8.844147
-12.93692
-15.73828
-16.44702
-14.4902
-9.782776
-2.833405
5.370636
13.65857
21.02676
26.89636
31.14807
33.93399
35.49292
36.00055
35.56653
34.3252
32.53018
30.52438
28.63245
27.0481
25.74261
24.526
23.13544
21.3558
19.05762
16.16037
12.64783
8.54718
3.940598
-1.017883
-6.128677
-11.21561
-16.21945
-21.22099
-26.4306
-32.1116
-38.43237
-45.41743
-52.87172
-60.33275
-67.05156
-72.08009
-74.4362
-73.42316
-68.90605
-61.37201
-51.79756
-41.28159
-30.65367
-20.29076
-10.22545
-0.3937073
9.055099
17.69324
24.94893
30.39709
33.93982
35.79718
36.38773
36.07893
35.15746
33.75513
32.00548
30.08932
28.22658
26.55539
25.01857
23.32123
21.01538
17.70995
13.22723
7.718719
1.618912
-4.514267
-10.17876
-15.08
-19.17827
-22.61539
-25.67068
-28.58418
-31.50819
-34.40492
-37.00815
-38.82489
-39.2787
-37.89993
-34.50782
-29.34749
-22.98009
-16.11765
-9.396179
-3.245674
2.173271
6.847374
10.78255
13.94431
16.23102
17.586
18.03885
17.76351
16.99572
16.00575
14.97025
13.92538
12.77644
11.30954
9.327309
6.719116
3.523094
-0.06990051
-3.829567
-7.604401
-11.41335
-15.39885
-19.76666
-24.58379
-29.68229
-34.71069
-39.20772
-42.82274
-45.47439
-47.36681
-48.92144
-50.64565
-52.91888
-55.80481
-59.02393
-61.95573
-63.7877
-63.76328
-61.34738
-56.40689
-49.21233
-40.32607
-30.45898
-20.28133
-10.37176
-1.190849
6.855156
13.40492
18.18574
21.11674
22.37193
22.36591
21.65172
20.78625
20.19594
20.08714
20.46855
21.18317
22.01282
22.76888
23.30119
23.52637
23.42012
22.97798
22.19833
21.05132
19.49223
17.46339
14.98129
12.10704
8.997467
5.857971
2.872604
0.1634369
-2.290649
-4.640488
-7.158676
-10.09975
-13.60817
-17.62032
-21.82819
-25.70363
-28.57712
-29.74179
-28.62634
-24.94017
-18.7925
-10.70285
-1.480377
7.963333
16.80502
24.45851
30.59515
35.06564
37.83871
38.9601
38.59834
37.08078
34.89445
32.54347
30.45418
28.84843
27.72398
26.94144
26.26852
25.5157
24.49289
23.08751
21.2267
18.94713
16.35274
13.58862
10.76907
7.917511
4.994003
1.922226
-1.308868
-4.609009
-7.823029
-10.80774
-13.52525
-16.05721
-18.57056
-21.23387
-24.17709
-27.40994
-30.82867
-34.13284
-36.84656
-38.33798
-37.96101
-35.22141
-29.98328
-22.53516
-13.56424
-3.958679
5.373337
13.71417
20.54504
25.57338
28.69696
29.99603
29.71878
28.30807
26.34123
24.41473
23.00362
22.31494
22.26489
22.52701
22.70659
22.48309
21.73654
20.51903
18.97932
17.26393
15.3952
13.30061
10.82985
7.90094
4.552338
0.9841766
-2.546036
-5.83989
-8.821671
-11.54575
-14.10695
-16.61086
-19.12631
-21.7261
-24.49692
-27.51225
-30.66455
-33.51698
-35.32602
-35.1866
-32.4593
-27.03601
-19.46188
-10.72121
-1.869354
6.293213
13.35426
19.16324
23.62703
26.58923
27.86763
27.4353
25.5894
22.92751
20.17908
17.95033
16.50104
15.72853
15.26927
14.72849
13.8593
12.63757
11.18985
9.688232
8.192673
6.59494
4.703445
2.331985
-0.5833435
-3.906265
-7.39209
-10.75294
-13.7731
-16.36327
-18.57402
-20.58054
-22.62433
-24.99916
-27.93864
-31.56213
-35.76244
-40.11189
-43.88295
-46.18903
-46.21538
-43.46959
-37.99863
-30.3521
-21.39723
-12.05437
-3.043243
5.192307
12.42317
18.4791
23.1337
26.12509
27.30254
26.7505
24.88004
22.35138
19.83763
17.8474
16.5414
15.74944
15.04263
13.94167
12.11726
9.518143
6.424164
3.299774
0.6234589
-1.350327
-2.66568
-3.611801
-4.547073
-5.704208
-7.092499
-8.514206
-9.733124
-10.63754
-11.29639
-11.91615
-12.72148
-13.87607
-15.42865
-17.34572
-19.50458
-21.67804
-23.5072
-24.46521
-23.98621
-21.60759
-17.17413
-10.91856
-3.434433
4.509186
12.19006
19.08627
24.93275
29.60437
32.99701
34.94264
35.30209
34.09238
31.59512
28.39444
25.18671
22.55081
20.71179
19.51776
18.5394
17.32727
15.58304
13.28775
10.61267
7.75647
4.831421
1.790833
-1.492249
-5.104065
-9.028961
-13.11432
-17.1095
-20.76086
-23.89581
-26.47235
-28.54031
-30.26221
-31.8364
-33.47522
-35.41965
-37.86633
-40.90344
-44.39383
-47.87009
-50.51871
-51.34146
-49.39578
-44.13742
-35.59363
-24.40558
-11.64648
1.491943
14.00986
25.21906
34.77328
42.52277
48.41141
52.4313
54.67569
55.37531
54.90601
53.72308
52.2164
50.65195
49.14941
47.72128
46.32864
44.97833
43.67816
42.43225
41.21307
39.9422
38.52011
36.83679
34.76819
32.16058
28.87704
24.82971
20.09222
14.90952
9.667816
4.777679
0.5234985
-3.04657
-6.13678
-9.120361
-12.46683
-16.55167
-21.5379
-27.25439
-33.16592
-38.45255
-42.17938
-43.53235
-42.05164
-37.8053
-31.31085
-23.39569
-14.92825
-6.590637
1.16098
8.071625
13.94046
18.56473
21.74527
23.38824
23.61931
22.84621
21.64597
20.61246
20.17096
20.42107
21.15456
21.99371
22.5538
22.58774
22.03349
21.00824
19.66205
18.10938
16.36232
14.32489
11.86685
8.892746
5.34642
1.280685
-3.158875
-7.791046
-12.35056
-16.58975
-20.32025
-23.50537
-26.26605
-28.8674
-31.57382
-34.52579
-37.6102
-40.39914
-42.23549
-42.35559
-40.17201
-35.46251
-28.50693
-20.03278
-11.02866
-2.4767
4.928772
10.8495
15.26076
18.2795
20.02361
20.57167
20.05676
18.76489
17.11343
15.63042
14.65881
14.27406
14.24719
14.20132
13.78519
12.84074
11.46881
9.86615
8.238846
6.663849
5.088898
3.370163
1.393021
-0.9017792
-3.438187
-6.028763
-8.463104
-10.57196
-12.33304
-13.85747
-15.38258
-17.17731
-19.39148
-21.96762
-24.53259
-26.49593
-27.19794
-26.11534
-23.02362
-18.06208
-11.69962
-4.583328
2.620872
9.370697
15.25896
20.021
23.4648
25.4845
26.08781
25.4463
23.93839
22.06057
20.31827
19.0268
18.26249
17.84209
17.46303
16.85325
15.83829
14.41814
12.6556
10.59222
8.226578
5.50988
2.466309
-0.7715683
-3.978951
-6.963333
-9.701157
-12.32114
-15.0794
-18.16994
-21.61863
-25.26864
-28.83724
-32.00069
-34.44566
-35.82335
-35.67546
-33.53582
-29.07113
-22.3083
-13.76185
-4.316357
5.043823
13.54498
20.7949
26.74132
31.46054
35.01479
37.34146
38.33334
37.98259
36.47495
34.17885
31.50114
28.77024
26.12102
23.54513
20.98074
18.33571
15.63365
12.9134
10.21027
7.456333
4.47715
1.06913
-2.865637
-7.232072
-11.75639
-16.02562
-19.70841
-22.67815
-25.06284
-27.1903
-29.44495
-32.08184
-35.09846
-38.22155
-40.9264
-42.56244
-42.50928
-40.34721
-36.00858
-29.83847
-22.49783
-14.77899
-7.410475
-0.8594074
4.655472
9.095573
12.4695
14.73357
15.83424
15.77055
14.72099
12.98586
10.96266
8.974453
7.235279
5.824512
4.729786
3.901237
3.279148
2.819286
2.423088
1.986839
1.345089
0.3598633
-1.037125
-2.78756
-4.72554
-6.654331
-8.400665
-9.921928
-11.29148
-12.6447
-14.10104
-15.72792
-17.50938
-19.37835
-21.21738
-22.7948
-23.75976
-23.63093
-21.89122
-18.20571
-12.53495
-5.246208
3.006378
11.43456
19.37019
26.3524
32.11866
36.53681
39.46906
40.81029
40.55344
38.90925
36.32949
33.38723
30.58245
28.1621
26.06791
23.99462
21.60857
18.73625
15.42452
11.93236
8.614204
5.780464
3.612465
2.121002
1.137489
0.3865433
-0.4306488
-1.530663
-2.955215
-4.608124
-6.307281
-7.882996
-9.219864
-10.2717
-11.03485
-11.5602
-11.96852
-12.39331
-12.94479
-13.58994
-14.05649
-13.85812
-12.4644
-9.541656
-5.130997
0.2815552
5.938431
11.04793
15.03458
17.65157
18.95085
19.13187
18.42284
16.97659
14.89716
12.28514
9.305511
6.219604
3.320023
0.8379974
-1.118881
-2.588394
-3.688568
-4.56192
-5.276398
-5.793076
-6.01532
-5.866119
-5.392303
-4.787827
-4.343323
-4.342392
-4.937531
-6.083893
-7.541855
-9.039124
-10.39502
-11.59042
-12.77464
-14.1662
-15.92203
-18.09103
-20.57803
-23.16858
-25.53482
-27.27652
-27.93887
-27.12515
-24.65363
-20.68002
-15.70679
-10.49658
-5.7948
-2.163055
0.14505
1.157776
1.037598
0.0003662109
-1.752747
-4.009766
-6.562744
-9.166626
-11.63937
-13.88745
-15.90741
-17.745
-19.38248
-20.73502
-21.65921
-22.03214
-21.81448
-21.05939
-19.9014
-18.52194
-17.13055
-15.92966
-15.14038
-14.88632
-15.1929
-15.93643
-16.85568
-17.71802
-18.36206
-18.80695
-19.2085
-19.7706
-20.62689
-21.75732
-22.98669
-23.99188
-24.34415
-23.57373
-21.28848
-17.26785
-11.59009
-4.712524
2.647278
9.635864
15.5192
19.85196
22.54132
23.74878
23.72263
22.69986
20.88065
18.51352
15.91037
13.47852
11.56702
10.38358
9.931854
9.999176
10.30466
10.57858
10.67935
10.58514
10.31964
9.891022
9.229126
8.192902
6.659882
4.610657
2.153961
-0.4492493
-2.924316
-5.057373
-6.749786
-8.103119
-9.313599
-10.64374
-12.28589
-14.35669
-16.79633
-19.39526
-21.74533
-23.32484
-23.59789
-22.15341
-18.8898
-14.05275
-8.259155
-2.277359
3.152145
7.545593
10.72935
12.78093
13.91319
14.31569
14.13921
13.46654
12.44972
11.27304
10.17285
9.350327
8.836563
8.566879
8.358673
8.061478
7.593109
6.994492
6.346848
5.665405
4.87175
3.791199
2.303055
0.377594
-1.82251
-4.044403
-6.039108
-7.705719
-9.174103
-10.72791
-12.68951
-15.24731
-18.40477
-21.96429
-25.57529
-28.81805
-31.21996
-32.33296
-31.78391
-29.33922
-25.00627
-19.1044
-12.24358
-5.167603
1.364624
6.804626
10.879
13.59108
15.144
15.79234
15.78946
15.33121
14.58806
13.64348
12.6225
11.62225
10.74611
10.09804
9.702042
9.513397
9.422592
9.285858
8.966537
8.397827
7.563736
6.452774
5.041382
3.269089
1.135452
-1.219925
-3.511642
-5.402695
-6.6604
-7.300613
-7.654694
-8.217224
-9.430435
-11.47122
-14.12355
-16.84337
-18.86557
-19.4263
-17.95709
-14.26649
-8.559372
-1.483566
6.020035
12.92387
18.33014
21.68997
22.88133
22.17601
20.08368
17.20096
14.03394
10.93706
8.17231
5.881706
4.174339
3.100266
2.62117
2.588135
2.806282
3.044106
3.112198
2.925041
2.440262
1.652
0.5308914
-0.9897461
-2.967773
-5.402321
-8.187996
-11.07048
-13.70302
-15.76144
-17.04609
-17.57015
-17.57225
-17.44717
-17.60323
-18.35864
-19.82056
-21.84546
-24.05576
-25.89925
-26.74307
-26.01372
-23.37255
-18.81402
-12.71711
-5.709587
1.525047
8.41832
14.65195
20.05762
24.54107
27.9744
30.22856
31.21632
31.04783
30.03462
28.63109
27.28205
26.26271
25.64403
25.32174
25.10085
24.79723
24.32558
23.68091
22.91176
22.09202
21.23448
20.29825
19.19915
17.84612
16.17427
14.20388
12.01076
9.700169
7.387703
5.072332
2.666414
0.01901245
-3.04319
-6.607319
-10.65408
-15.04143
-19.504
-23.62661
-26.89845
-28.74768
-28.65422
-26.30162
-21.66914
-15.09494
-7.189585
1.286564
9.628641
17.24168
23.67037
28.58215
31.72233
33.01066
32.61496
30.94955
28.60687
26.21642
24.23495
22.88822
22.16056
21.85327
21.75442
21.6815
21.5007
21.12458
20.47586
19.49255
18.13958
16.44107
14.42673
12.15708
9.663116
6.945736
4.014507
0.933979
-2.189121
-5.207508
-8.008026
-10.59989
-13.1222
-15.80086
-18.87037
-22.42056
-26.33079
-30.28151
-33.79974
-36.36174
-37.51623
-36.94221
-34.52584
-30.4327
-25.08889
-19.12927
-13.27502
-8.132278
-4.08791
-1.237255
0.5439453
1.515621
1.946419
2.057705
2.062538
2.151863
2.519272
3.304806
4.527294
6.088455
7.761288
9.3186
10.58142
11.48959
12.08702
12.45633
12.66003
12.66788
12.38446
11.65367
10.37246
8.542404
6.339302
4.089195
2.172226
0.8764992
0.2899246
0.2400665
0.3579483
0.2203903
-0.5341415
-2.052856
-4.263901
-6.878403
-9.441193
-11.45181
-12.43498
-12.05896
-10.23043
-7.120369
-3.145416
1.147118
5.210342
8.628426
11.15647
12.76637
13.53349
13.60915
13.13357
12.24554
11.12768
10.01192
9.179352
8.847298
9.098473
9.762733
10.51508
10.98737
10.94299
10.37409
9.462784
8.502411
7.672043
6.966553
6.164879
4.975128
3.171387
0.7234802
-2.154243
-5.09877
-7.708389
-9.717552
-11.07845
-11.96001
-12.57858
-13.09495
-13.51848
-13.72268
-13.5658
-12.99507
-12.07021
-10.87644
-9.381538
-7.383659
-4.581322
-0.7799683
3.9636
9.244629
14.45706
19.00182
22.50475
24.88024
26.24538
26.77726
26.55478
25.64021
24.09587
22.13078
20.0578
18.27008
17.07234
16.57494
16.6703
17.04713
17.36307
17.29263
16.6505
15.43007
13.74409
11.76906
9.638992
7.369965
4.850128
1.906158
-1.626816
-5.810623
-10.5457
-15.61417
-20.75653
-25.74986
-30.43861
-34.7467
-38.64404
-42.17139
-45.40942
-48.45676
-51.3891
-54.14569
-56.47211
-57.88513
-57.80049
-55.68398
-51.29764
-44.81688
-36.79874
-28.06172
-19.43488
-11.58504
-4.926132
0.3772736
4.308548
6.925888
8.375305
8.846939
8.605209
7.991791
7.343109
6.911789
6.840775
7.158539
7.783905
8.61528
9.549393
10.51654
11.51482
12.54187
13.59
14.61079
15.50169
16.10799
16.28047
15.92343
15.05637
13.84839
12.57344
11.52104
10.87497
10.61665
10.51889
10.21547
9.312469
7.561218
4.912674
1.559708
-2.103668
-5.564514
-8.310059
-9.935074
-10.216
-9.177551
-7.070724
-4.303284
-1.352539
1.328445
3.378738
4.535339
4.669434
3.808685
2.146896
0.03057861
-2.116547
-3.913574
-5.101624
-5.648438
-5.693497
-5.456696
-5.121536
-4.794968
-4.492584
-4.222992
-4.066025
-4.134109
-4.550858
-5.359268
-6.513092
-7.839386
-9.188339
-10.42345
-11.4776
-12.34323
-13.02643
-13.57239
-14.06416
-14.68506
-15.63786
-17.11229
-19.14128
-21.53854
-23.88371
-25.62733
-26.26349
-25.45245
-23.16168
-19.64978
-15.38412
-10.87289
-6.527954
-2.604065
0.7900238
3.65097
6.046631
8.086517
9.912537
11.66803
13.46379
15.33315
17.24548
19.14261
20.97389
22.76236
24.53624
26.29002
27.94148
29.30846
30.19502
30.43427
29.91731
28.57866
26.35721
23.18684
19.06512
14.13208
8.679291
3.098328
-2.251251
-7.123734
-11.45303
-15.32104
-18.87697
-22.25725
-25.52092
-28.61819
-31.33327
-33.32431
-34.147
-33.39195
-30.81839
-26.50172
-20.79019
-14.20218
-7.319016
-0.6094666
5.539185
10.82054
14.99518
17.89609
19.53517
20.14619
20.13631
19.92719
19.79803
19.77289
19.69667
19.37088
18.71843
17.84407
16.94275
16.1436
15.40161
14.47527
13.06233
10.96765
8.225586
5.083008
1.879044
-1.133255
-3.936096
-6.698837
-9.67543
-13.09625
-17.0578
-21.51993
-26.3647
-31.37257
-36.23915
-40.52654
-43.68328
-45.14834
-44.54132
-41.83695
-37.41272
-31.95211
-26.19489
-20.761
-16.00299
-12.00739
-8.691292
-5.911064
-3.507271
-1.348969
0.6792908
2.643982
4.533455
6.256393
7.664864
8.612503
8.986633
8.744476
7.86084
6.345482
4.225319
1.558708
-1.514694
-4.788414
-8.020119
-11.04324
-13.82558
-16.4699
-19.17347
-22.12937
-25.43546
-29.0633
-32.82407
-36.36944
-39.2173
-40.81002
-40.61683
-38.25765
-33.62806
-26.95768
-18.76758
-9.7593
-0.6594467
7.901478
15.4423
21.62795
26.21488
29.0537
30.11415
29.54335
27.67239
24.97101
21.94287
18.99353
16.37051
14.12257
12.16905
10.38011
8.644182
6.887592
5.099834
3.300274
1.563835
-0.01013947
-1.314205
-2.258198
-2.786678
-2.918705
-2.781143
-2.564407
-2.535675
-3.017441
-4.309235
-6.597054
-9.816071
-13.58416
-17.23415
-19.94371
-20.94772
-19.7333
-16.1842
-10.58736
-3.529945
4.256493
12.03867
19.17409
25.17874
29.71236
32.62337
33.95644
33.9742
33.09111
31.80957
30.58662
29.69928
29.23988
29.12811
29.18732
29.27815
29.35315
29.41524
29.48068
29.49774
29.2872
28.58952
27.13966
24.76175
21.45424
17.36436
12.71848
7.760956
2.651993
-2.544922
-7.872742
-13.44508
-19.41241
-25.80443
-32.45093
-38.87598
-44.31874
-47.90547
-48.8979
-46.90871
-42.05688
-34.91765
-26.30057
-17.03137
-7.726547
1.230026
9.591034
17.10854
23.48508
28.4015
31.70366
33.51039
34.22871
34.4429
34.66441
35.14241
35.80748
36.36208
36.47882
35.98393
34.87022
33.25787
31.25937
28.91165
26.16609
23.00012
19.47429
15.75102
12.06763
8.594955
5.369522
2.280975
-0.901062
-4.345932
-8.090851
-12.04906
-16.04398
-19.97168
-23.87593
-27.8826
-32.02542
-36.09894
-39.52994
-41.5136
-41.25961
-38.29919
-32.67589
-24.96046
-16.03654
-6.80014
1.999985
9.915405
16.64267
21.93103
25.54744
27.3504
27.4127
26.13049
24.15553
22.16129
20.72183
20.04874
20.01935
20.29987
20.48547
20.23372
19.36636
17.84486
15.71971
13.14246
10.258
7.144699
3.840179
0.327301
-3.361511
-7.070923
-10.53397
-13.45946
-15.64146
-17.06892
-17.9398
-18.49792
-18.96553
-19.42923
-19.8812
-20.33821
-20.868
-21.59309
-22.54111
-23.49535
-23.93056
-23.17979
-20.61191
-15.93735
-9.341858
-1.417877
7.047333
15.26793
22.6311
28.74118
33.31407
36.17326
37.25342
36.65605
34.70436
31.93849
28.97791
26.37944
24.50179
23.44649
23.10551
23.26132
23.6461
24.06146
24.36035
24.49274
24.47433
24.31154
23.97008
23.33469
22.24702
20.586
18.37239
15.71307
12.81993
9.86055
6.885193
3.810287
0.5012512
-3.118973
-7.017609
-11.04457
-15.05927
-18.99004
-22.88046
-26.76027
-30.53943
-33.85834
-36.07341
-36.4491
-34.41286
-29.80392
-22.96809
-14.67657
-5.874451
2.605453
10.16956
16.4671
21.29991
24.54976
26.13245
26.1011
24.72542
22.49336
20.02815
17.91251
16.52692
15.93893
15.97231
16.3008
16.59857
16.66388
16.4406
15.96889
15.26518
14.26797
12.81334
10.7511
8.052475
4.893311
1.58139
-1.542694
-4.290527
-6.69101
-8.938828
-11.26071
-13.83008
-16.66998
-19.71687
-22.86475
-25.99455
-28.91652
-31.25685
-32.49924
-32.05115
-29.48256
-24.74538
-18.26364
-10.79562
-3.247635
3.616417
9.317932
13.61954
16.50153
18.02562
18.31065
17.56316
16.11909
14.4043
12.85543
11.77696
11.26263
11.17896
11.27894
11.28614
11.03857
10.49197
9.678703
8.632034
7.317673
5.594383
3.30912
0.3783646
-3.125923
-6.928772
-10.65874
-13.97884
-16.72494
-18.9106
-20.76758
-22.55888
-24.54539
-26.8377
-29.36915
-31.86956
-33.90261
-34.89959
-34.27317
-31.60678
-26.79158
-20.12197
-12.25122
-4.02961
3.72863
10.3838
15.56839
19.1417
21.14339
21.75217
21.23975
19.95013
18.2453
16.45583
14.83348
13.49188
12.42413
11.53503
10.68862
9.741846
8.559004
7.107824
5.415617
3.607885
1.768799
-0.06756783
-1.998407
-4.140114
-6.5443
-9.113394
-11.5933
-13.68457
-15.22363
-16.29938
-17.25584
-18.54967
-20.52814
-23.23084
-26.29857
-29.04905
-30.67272
-30.49746
-28.20542
-23.90018
-18.05328
-11.39759
-4.677997
1.448289
6.486387
10.10422
12.12087
12.48267
11.30908
8.866382
5.527226
1.713853
-2.221056
-6.051501
-9.746885
-13.40916
-17.20368
-21.23207
-25.44263
-29.55787
-33.09335
-35.43915
-36.04828
-34.62259
-31.20475
-26.16916
-20.06395
-13.4024
-6.548023
0.3299081
7.127214
13.64154
19.54648
24.39424
27.76732
29.42751
29.44005
28.16767
26.21605
24.30634
23.13004
23.22451
24.82567
27.80185
31.71423
35.95125
39.8873
43.08767
45.32769
46.5882
46.94969
46.52619
45.45284
43.90946
42.14325
40.36055
38.71531
37.23121
35.80004
34.26201
32.47309
30.36952
27.97976
25.38169
22.62764
19.74631
16.68814
13.33611
9.575459
5.356388
0.715313
-4.138885
-8.923965
-13.31668
-17.05809
-20.07103
-22.45629
-24.44905
-26.28694
-28.12768
-29.92199
-31.4055
-32.1636
-31.76671
-29.94681
-26.70389
-22.31879
-17.24471
-12.00449
-7.027718
-2.630623
0.9704666
3.619431
5.195129
5.621857
4.899445
3.110443
0.4476624
-2.802795
-6.307709
-9.665024
-12.4772
-14.49214
-15.70143
-16.44148
-17.30797
-18.89853
-21.54611
-25.14781
-29.20906
-33.07314
-36.23305
-38.49982
-40.00626
-41.02722
-41.79257
-42.33022
-42.54329
-42.36629
-41.89716
-41.43004
-41.28133
-41.56648
-42.04477
-42.16336
-41.22881
-38.73019
-34.52946
-28.91325
-22.45172
-15.74063
-9.255142
-3.271759
2.05275
6.589264
10.17616
12.64201
13.95941
14.23932
13.79985
13.00896
12.18848
11.52455
11.05757
10.74184
10.4608
10.12973
9.647766
8.9189
7.83313
6.325623
4.429474
2.29808
0.1907959
-1.660629
-3.140839
-4.336166
-5.498856
-6.938034
-8.901169
-11.43663
-14.4236
-17.58325
-20.4987
-22.67592
-23.60636
-22.86594
-20.24904
-15.89809
-10.25886
-4.007767
2.173782
7.724724
12.29251
15.70963
17.90276
18.89246
18.76847
17.7327
16.10541
14.28622
12.65416
11.45081
10.76917
10.55093
10.68792
11.03083
11.43671
11.76408
11.85364
11.58328
10.79338
9.424088
7.495934
5.104256
2.449677
-0.255661
-2.842979
-5.236862
-7.466187
-9.69796
-12.11842
-14.87287
-17.94734
-21.07106
-23.69482
-25.10864
-24.64299
-21.89558
-16.96088
-10.40154
-3.136951
3.887241
9.931473
14.66031
18.05714
20.31097
21.64676
22.2007
22.0933
21.4601
20.5081
19.52296
18.77964
18.46791
18.63675
19.19112
19.92826
20.61449
21.02399
21.00886
20.47765
19.42852
17.91513
16.0247
13.86012
11.52639
9.126354
6.716557
4.320129
1.888874
-0.6781807
-3.494278
-6.6665
-10.15543
-13.78324
-17.16916
-19.81142
-21.19411
-20.91362
-18.83821
-15.15377
-10.34272
-5.016146
0.2114429
4.867348
8.651012
11.4211
13.1555
13.91726
13.82859
13.07054
11.89742
10.55846
9.27416
8.188669
7.362339
6.794144
6.443073
6.265514
6.155125
5.96191
5.476852
4.504564
2.960268
0.8984909
-1.442539
-3.7493
-5.71434
-7.191738
-8.208191
-8.957314
-9.665989
-10.52891
-11.67242
-13.12667
-14.83853
-16.61908
-18.09434
-18.74659
-18.02183
-15.56071
-11.37011
-5.900763
0.1266708
5.925209
10.92526
14.88859
17.83687
19.91397
21.19236
21.67095
21.32833
20.2798
18.78719
17.22169
15.89896
14.9704
14.33829
13.75496
12.93773
11.6763
9.951427
7.861828
5.632156
3.480083
1.554855
-0.1293411
-1.680462
-3.276497
-5.069473
-7.173065
-9.599495
-12.33613
-15.31564
-18.40827
-21.31208
-23.53813
-24.42752
-23.37953
-20.10463
-14.7704
-8.021206
-0.7089233
6.326641
12.51054
17.56237
21.35854
23.85025
25.03371
24.98655
23.93785
22.29955
20.52544
18.98602
17.84898
17.06215
16.44445
15.81041
15.0628
14.21126
13.35377
12.61926
12.07881
11.73808
11.48131
11.0851
10.25875
8.694351
6.118523
2.415634
-2.360893
-7.949608
-13.89352
-19.60236
-24.45055
-27.87344
-29.47456
-29.08765
-26.80267
-22.96593
-18.06104
-12.59573
-7.060028
-1.844292
2.729408
6.382683
8.903824
10.17135
10.21889
9.261742
7.708344
5.973686
4.409904
3.200996
2.318642
1.656128
1.098877
0.5932236
0.148819
-0.2198334
-0.5802917
-1.04303
-1.726768
-2.65789
-3.74762
-4.863586
-5.940659
-7.067085
-8.48336
-10.50469
-13.3382
-16.9449
-21.01875
-25.02345
-28.32572
-30.31438
-30.53936
-28.75436
-25.0248
-19.70119
-13.36964
-6.764267
-0.577652
4.639053
8.601784
11.2438
12.683
13.10435
12.71203
11.71877
10.34785
8.866547
7.561142
6.687691
6.364403
6.57547
7.120445
7.706192
8.028221
7.84465
7.084366
5.813332
4.210709
2.464584
0.7268906
-0.9218979
-2.473083
-3.960487
-5.45105
-7.042381
-8.852165
-10.98142
-13.4771
-16.18487
-18.71912
-20.50561
-20.94271
-19.62712
-16.53089
-12.03349
-6.796242
-1.509903
3.310768
7.445885
10.86757
13.61147
15.62526
16.78619
17.00019
16.30251
14.93744
13.26839
11.68288
10.42842
9.583809
9.086014
8.7854
8.560204
8.297234
7.872231
7.20047
6.236427
4.989082
3.545242
2.00087
0.4070511
-1.23571
-2.996246
-4.947594
-7.13279
-9.521446
-11.97102
-14.22321
-15.87914
-16.49249
-15.65794
-13.18117
-9.197357
-4.162659
1.235138
6.2668
10.38057
13.29024
14.92888
15.38802
14.81319
13.39497
11.39813
9.111725
6.886307
5.057877
3.835846
3.246368
3.128616
3.174164
3.063232
2.572983
1.628098
0.3493347
-1.04567
-2.342453
-3.436905
-4.38237
-5.335205
-6.510101
-8.074219
-10.10886
-12.60039
-15.43301
-18.33899
-20.89455
-22.54248
-22.73477
-21.10536
-17.65659
-12.75493
-7.054291
-1.278503
3.963852
8.333755
11.7095
14.11427
15.62265
16.29111
16.18884
15.42096
14.1906
12.767
11.45432
10.49138
9.988556
9.86673
9.894989
9.770416
9.232513
8.191147
6.720978
5.048096
3.406281
1.93808
0.6489105
-0.5794373
-1.890015
-3.367325
-5.020386
-6.778091
-8.555466
-10.33972
-12.14751
-13.95265
-15.58588
-16.6613
-16.66345
-15.14297
-11.93137
-7.257324
-1.680954
4.086761
9.455948
14.08524
17.8618
20.76472
22.7206
23.56946
23.17001
21.51924
18.84694
15.59988
12.27321
9.274689
6.822495
4.924973
3.446228
2.21347
1.064346
-0.1087799
-1.349823
-2.675186
-4.078125
-5.531952
-6.992813
-8.391663
-9.59935
-10.46756
-10.87686
-10.80469
-10.4202
-10.02184
-9.968552
-10.50554
-11.62987
-13.02309
-14.10825
-14.23955
-12.90268
-9.889938
-5.361435
0.178833
6.038605
11.49658
15.99486
19.20155
21.03787
21.61276
21.11612
19.7502
17.71375
15.21127
12.46773
9.719238
7.146164
4.851837
2.847916
1.046921
-0.6352844
-2.240799
-3.719757
-4.993759
-5.997986
-6.771851
-7.469498
-8.302383
-9.452805
-10.99196
-12.83992
-14.79433
-16.67001
-18.33122
-19.77895
-21.13766
-22.53699
-24.03606
-25.48088
-26.51399
-26.62317
-25.32703
-22.35226
-17.79622
-12.1293
-6.052734
-0.2664337
4.711777
8.631744
11.46153
13.23849
14.01248
13.81627
12.73248
10.99152
8.950317
7.053238
5.656174
4.918137
4.75975
4.925491
5.094498
4.963287
4.398453
3.413361
2.167694
0.863266
-0.3520508
-1.460129
-2.550079
-3.722656
-5.042542
-6.489227
-7.963699
-9.385193
-10.74268
-12.06483
-13.37312
-14.53812
-15.2294
-14.9946
-13.42168
-10.35767
-5.995758
-0.817749
4.605988
9.790329
14.40573
18.24591
21.13016
22.82086
23.06348
21.74783
18.99634
15.23538
11.07581
7.084534
3.639252
0.8327026
-1.449066
-3.423645
-5.260101
-7.0271
-8.695068
-10.21677
-11.56979
-12.75717
-13.82541
-14.81281
-15.74799
-16.68768
-17.72559
-19.01294
-20.69617
-22.8718
-25.39479
-27.9048
-29.82164
-30.50755
-29.47411
-26.5367
-21.9296
-16.20564
-10.11259
-4.319748
0.6768799
4.620804
7.457016
9.233871
10.04448
9.978806
9.155472
7.732819
5.921631
3.979736
2.125595
0.5157471
-0.8415985
-2.052948
-3.32135
-4.837097
-6.691467
-8.817444
-10.99611
-12.96053
-14.49825
-15.54903
-16.19319
-16.6022
-16.95012
-17.34265
-17.83749
-18.40456
-18.95279
-19.28947
-19.09019
-17.93474
-15.44507
-11.4182
-5.943863
0.5778961
7.565842
14.42009
20.68555
26.08769
30.52258
33.97597
36.50165
38.2054
39.25728
39.862
40.21936
40.49229
40.76097
41.02826
41.23395
41.22748
40.78307
39.62758
37.54987
34.52332
30.74025
26.56859
22.43871
18.63635
15.20818
11.98586
8.71727
5.176819
1.281097
-2.927383
-7.310318
-11.67352
-15.74416
-19.16191
-21.50903
-22.42426
-21.7216
-19.50252
-16.16774
-12.29178
-8.454788
-5.107407
-2.432327
-0.4140625
1.06076
2.090225
2.698334
2.879456
2.726074
2.496567
2.578476
3.362289
5.038727
7.48233
10.30197
13.00217
15.19058
16.65526
17.37773
17.3858
16.72791
15.46815
13.6958
11.58679
9.366364
7.244568
5.282547
3.362869
1.30661
-0.9716187
-3.322586
-5.317673
-6.380219
-6.030472
-4.036011
-0.5577393
3.934036
8.838287
13.57133
17.65027
20.73637
22.57353
22.94899
21.75714
19.0825
15.26224
10.85555
6.466583
2.564606
-0.6508789
-3.258636
-5.537933
-7.763947
-10.07559
-12.47769
-14.88873
-17.25308
-19.56747
-21.87021
-24.18909
-26.52036
-28.85211
-31.23361
-33.80304
-36.72116
-40.0347
-43.53674
-46.76474
-49.0679
-49.85349
-48.71225
-45.53244
-40.47415
-33.85373
-26.08438
-17.64465
-9.050995
-0.8199158
6.58429
12.8508
17.84805
21.59183
24.17761
25.63382
25.88766
24.79111
22.22418
18.25272
13.23599
7.777863
2.567139
-1.836609
-5.210785
-7.729462
-9.786835
-11.85358
-14.25568
-17.10822
-20.34753
-23.85056
-27.50656
-31.2175
-34.81992
-37.90582
-39.88654
-39.98282
-37.46869
-31.854
-23.04572
-11.44125
2.131775
16.5705
30.68622
43.33798
53.60352
60.80664
64.60605
64.97025
62.18558
56.80716
49.59338
41.34906
32.83792
24.64825
17.12784
10.3934
4.390015
-1.053375
-6.081894
-10.78905
-15.19884
-19.28993
-23.01915
-26.31815
-29.11505
-31.33446
-33.03336
-34.41649
-35.89383
-37.99545
-41.20134
-45.74747
-51.53667
-58.13034
-64.85313
-70.9875
-75.83792
-78.86421
-79.70441
-78.24298
-74.62341
-69.29379
-62.87837
-56.12871
-49.76941
-44.4048
-40.48058
-38.18695
-37.41594
-37.74251
-38.47766
-38.8709
-38.29108
-36.46332
-33.49963
-29.8214
-25.97314
-22.4339
-19.54237
-17.45895
-16.21426
-15.71784
-15.79597
-16.20934
-16.70488
-17.09621
-17.30512
-17.37064
-17.41548
-17.61145
-18.13249
-19.13915
-20.67093
-22.54563
-24.2476
-24.99511
-23.88417
-20.233
-13.85967
-5.167942
4.965252
15.5514
25.74942
35.01501
43.06305
49.70841
54.73956
57.94682
59.27207
58.92004
57.38188
55.33701
53.42886
52.11673
51.59526
51.75926
52.33171
52.90175
53.03711
52.37962
50.75208
48.16653
44.81348
40.95668
36.81281
32.48509
27.96835
23.16611
17.98918
12.37268
6.333954
-0.06292725
-6.636505
-13.01614
-18.6106
-22.66144
-24.43085
-23.41763
-19.54379
-13.21127
-5.182037
3.644775
12.42538
20.51279
27.41946
32.76874
36.28781
37.83429
37.5238
35.76837
33.26059
30.73685
28.80142
27.72034
27.4006
27.47379
27.51282
27.19412
26.40466
25.2301
23.86618
22.48529
21.16873
19.86325
18.39951
16.52322
13.98578
10.62903
6.479187
1.739502
-3.157867
-7.624176
-10.97632
-12.57816
-12.03149
-9.25354
-4.530273
1.598907
8.454895
15.37085
21.77411
27.19009
31.23221
33.56528
34.02344
32.63403
29.75409
25.98682
22.06717
18.61777
15.98544
14.17737
12.90079
11.78467
10.49603
8.862183
6.865051
4.625153
2.265472
-0.1078796
-2.458862
-4.841888
-7.358643
-10.17392
-13.44385
-17.20206
-21.27017
-25.20508
-28.30673
-29.78827
-29.02899
-25.77713
-20.2471
-13.04669
-4.92392
3.445709
11.59033
19.22781
26.12878
31.99323
36.46561
39.2175
40.13757
39.4437
37.65558
35.41986
33.30743
31.62073
30.3266
29.1828
27.85864
26.12381
23.93741
21.42789
18.79114
16.21152
13.77313
11.41901
9.073547
6.586121
3.822021
0.665802
-2.991974
-7.179779
-11.75632
-16.34171
-20.35864
-23.06894
-23.85422
-22.32132
-18.48373
-12.75058
-5.797577
1.566803
8.623566
14.80945
19.78445
23.35522
25.44901
26.1019
25.46182
23.80637
21.52014
19.04404
16.77002
14.97293
13.72589
12.91141
12.33057
11.77933
11.1445
10.3627
9.429077
8.307495
6.951447
5.299194
3.313873
1.019989
-1.493713
-4.08432
-6.628967
-9.03949
-11.36731
-13.71249
-16.08234
-18.28534
-19.82663
-20.02283
-18.23401
-14.18176
-8.116028
-0.7909241
6.818359
13.87003
19.88428
24.75
28.51791
31.21173
32.702
32.81006
31.4931
29.01712
25.89926
22.71747
19.92371
17.65405
15.83023
14.27289
12.86899
11.59085
10.44525
9.304657
7.873444
5.789398
2.773834
-1.173004
-5.738586
-10.42212
-14.77612
-18.5242
-21.66327
-24.34625
-26.76331
-29.02606
-31.12888
-32.90921
-34.07452
-34.27603
-33.12134
-30.33127
-25.79744
-19.72734
-12.60243
-5.089096
2.117615
8.47316
13.65292
17.53065
20.08266
21.35091
21.39651
20.38843
18.63435
16.56763
14.66359
13.26419
12.50642
12.28046
12.31627
12.31033
12.05339
11.46719
10.56248
9.366089
7.877533
6.087845
4.018326
1.7733
-0.453537
-2.467346
-4.164246
-5.595047
-6.952072
-8.48703
-10.38902
-12.70934
-15.34566
-18.03438
-20.42673
-22.12241
-22.71165
-21.86077
-19.42321
-15.51778
-10.57171
-5.2024
-0.07602692
4.298386
7.607292
9.76722
10.82518
10.90502
10.16591
8.841698
7.267105
5.80246
4.772629
4.293167
4.27195
4.441803
4.513725
4.29073
3.764309
3.082825
2.402931
1.82893
1.305317
0.7059937
-0.08718872
-1.124222
-2.333151
-3.59551
-4.793118
-5.917351
-7.039672
-8.277617
-9.73362
-11.39449
-13.18446
-14.92175
-16.391
-17.33117
-17.46651
-16.52088
-14.34023
-10.95812
-6.651588
-1.938173
2.64316
6.60516
9.647945
11.65996
12.69045
12.84386
12.29548
11.32115
10.28604
9.609127
9.619083
10.37069
11.63087
12.91297
13.69397
13.58713
12.47805
10.48829
7.888077
4.984711
2.000229
-0.9064484
-3.663628
-6.229729
-8.532669
-10.47498
-11.96593
-12.94804
-13.45097
-13.61989
-13.69933
-13.99434
-14.7339
-15.94751
-17.41644
-18.65424
-19.10352
-18.2764
-15.97673
-12.37111
-7.91568
-3.234787
1.080627
4.601776
7.10817
8.551437
8.98999
8.538101
7.384857
5.801041
4.119614
2.677551
1.693985
1.218582
1.107681
1.115723
1.020233
0.7029572
0.1957092
-0.4242859
-1.077835
-1.760376
-2.561172
-3.605743
-4.953094
-6.557495
-8.313507
-10.04424
-11.6429
-13.06349
-14.32561
-15.52844
-16.75739
-18.08141
-19.4809
-20.84238
-21.8815
-22.24188
-21.5528
-19.59372
-16.40228
-12.31931
-7.901459
-3.752228
-0.3580933
2.068512
3.539093
4.227142
4.362274
4.113831
3.613586
2.947144
2.193878
1.421509
0.6673584
-0.08218384
-0.8746033
-1.783875
-2.906769
-4.346161
-6.214813
-8.594116
-11.49255
-14.77444
-18.1535
-21.20319
-23.48956
-24.70993
-24.77524
-23.80243
-22.05408
-19.83286
-17.40161
-14.97922
-12.7211
-10.67941
-8.818878
-6.971191
-4.927551
-2.513123
0.3596191
3.571716
6.834106
9.761017
11.97729
13.21515
13.36182
12.43826
10.62155
8.194275
5.478638
2.800903
0.408844
-1.562012
-3.096191
-4.269379
-5.213867
-6.07724
-6.990509
-8.043335
-9.271576
-10.65414
-12.12259
-13.56537
-14.86264
-15.89862
-16.63864
-17.12256
-17.48508
-17.8602
-18.34076
-18.97043
-19.66565
-20.25772
-20.46289
-19.96408
-18.46899
-15.81195
-12.01801
-7.323975
-2.147003
3.032959
7.722107
11.55338
14.26932
15.73572
15.93256
14.97705
13.13708
10.77612
8.307495
6.032257
4.114777
2.533142
1.121796
-0.3299255
-2.024933
-4.072327
-6.492004
-9.132233
-11.78281
-14.21661
-16.31992
-18.12143
-19.77628
-21.49756
-23.40253
-25.44254
-27.37888
-28.87668
-29.62378
-29.36487
-27.92487
-25.16608
-21.04538
-15.62466
-9.193268
-2.250397
4.574554
10.69122
15.70981
19.47913
22.05661
23.56131
24.11981
23.85248
22.91092
21.56842
20.19376
19.1814
18.75497
18.96368
19.58585
20.24054
20.48557
19.94858
18.4169
15.92209
12.68823
9.057831
5.400726
1.935822
-1.31665
-4.519928
-7.908936
-11.64944
-15.70761
-19.85153
-23.66971
-26.67239
-28.42877
-28.6301
-27.16296
-24.11731
-19.77753
-14.57318
-9.04007
-3.747986
0.76297
4.064789
5.940125
6.425629
5.75769
4.331787
2.582581
0.8765564
-0.5588074
-1.636353
-2.404327
-2.952271
-3.382202
-3.810425
-4.334778
-5.040924
-6.02002
-7.318146
-8.929901
-10.80817
-12.88156
-15.09055
-17.46124
-20.10104
-23.13489
-26.60114
-30.29529
-33.68137
-35.99036
-36.44832
-34.5062
-30.02159
-23.30344
-14.9787
-5.842239
3.337646
11.93069
19.43611
25.51483
29.98389
32.8517
34.31282
34.70898
34.41476
33.71632
32.73553
31.40431
29.58656
27.17097
24.16888
20.71817
17.03787
13.29741
9.570648
5.808762
1.864349
-2.39006
-7.032623
-12.06918
-17.38727
-22.73357
-27.70663
-31.74557
-34.19952
-34.51054
-32.38304
-27.914
-21.61334
-14.21251
-6.493881
0.8727722
7.396622
12.73203
16.63199
18.94608
19.66988
19.04648
17.54036
15.74402
14.15314
13.00833
12.19513
11.38455
10.20972
8.468613
6.235542
3.810211
1.562622
-0.2537003
-1.60096
-2.671013
-3.784126
-5.235939
-7.222443
-9.78138
-12.79554
-15.97317
-18.87036
-20.93002
-21.604
-20.52
-17.57607
-13.00726
-7.295044
-0.9946671
5.421234
11.59231
17.21569
21.97936
25.52373
27.53523
27.86032
26.65526
24.34721
21.57496
18.96134
16.92088
15.54355
14.60085
13.65883
12.28703
10.23662
7.546715
4.484341
1.435757
-1.316929
-3.692913
-5.840336
-8.017918
-10.46361
-13.29591
-16.48118
-19.85114
-23.09909
-25.78184
-27.35581
-27.27365
-25.1648
-20.98789
-15.11654
-8.265789
-1.30265
5.015152
10.11881
13.69014
15.60024
15.87594
14.68473
12.36933
9.444085
6.505071
4.136094
2.696671
2.322987
2.930915
4.299539
6.148873
8.179752
10.13853
11.78708
12.99461
13.70752
13.98905
13.92057
13.54935
12.84999
11.71647
10.02142
7.663214
4.589111
0.8439789
-3.347746
-7.561281
-11.18929
-13.49309
-13.80297
-11.70821
-7.224674
-0.8096466
6.736275
14.50207
21.6756
27.64004
32.09748
34.93766
36.20477
36.05542
34.7068
32.43734
29.58725
26.51062
23.49846
20.7325
18.21648
15.78788
13.24377
10.39553
7.188877
3.728184
0.2522888
-2.985249
-5.816162
-8.239918
-10.42466
-12.57855
-14.87288
-17.36546
-20.00706
-22.73922
-25.56674
-28.50727
-31.5111
-34.32845
-36.42464
-37.16756
-36.01691
-32.75547
-27.60616
-21.13701
-14.06091
-7.067257
-0.7155075
4.616009
8.679443
11.36187
12.73036
13.03736
12.69957
12.19061
11.89146
11.97808
12.47752
13.30942
14.37754
15.62431
16.96645
18.26471
19.34961
20.02428
20.15153
19.75626
18.96798
17.98496
16.96319
15.91468
14.74724
13.37451
11.77934
10.03762
8.285721
6.594498
4.951721
3.298965
1.65097
0.1954002
-0.6647949
-0.4265175
1.265083
4.472233
8.850513
13.76088
18.47975
22.39115
25.10964
26.46299
26.42413
25.02822
22.40319
18.75459
14.46812
10.05471
6.040939
2.837433
0.5917511
-0.8285294
-1.708672
-2.320602
-2.825874
-3.239288
-3.515953
-3.6731
-3.836506
-4.183334
-4.843372
-5.799496
-6.866886
-7.810768
-8.476852
-8.881409
-9.248501
-9.894156
-11.12577
-13.08161
-15.70446
-18.68741
-21.50991
-23.50882
-24.02353
-22.57458
-19.02441
-13.65302
-7.099719
-0.1828022
6.348028
11.94435
16.35088
19.56149
21.67351
22.82262
23.13877
22.70731
21.6301
20.05377
18.14191
16.07044
14.00442
12.05498
10.27586
8.669257
7.188692
5.752916
4.317149
2.857733
1.350632
-0.1999111
-1.821806
-3.542063
-5.334444
-7.129683
-8.846514
-10.38963
-11.77375
-13.1131
-14.58864
-16.33652
-18.30678
-20.18129
-21.46994
-21.61328
-20.19783
-17.11278
-12.591
-7.155682
-1.497276
3.695942
7.870247
10.67186
11.99292
11.96637
10.88554
9.124298
7.074497
5.043877
3.261765
1.903549
1.068146
0.7755585
0.9193306
1.265133
1.506916
1.399296
0.8333588
-0.08452606
-1.092541
-1.897621
-2.33564
-2.422676
-2.330688
-2.292824
-2.518837
-3.165375
-4.385269
-6.317833
-9.029388
-12.41384
-16.02866
-19.11195
-20.71442
-20.02792
-16.68423
-10.89174
-3.385193
4.839989
12.84249
19.94234
25.74611
30.05202
32.70832
33.61677
32.76114
30.32498
26.71561
22.44469
18.00957
13.73986
9.716026
5.829407
1.868904
-2.371277
-6.991631
-11.97542
-17.22295
-22.55204
-27.75428
-32.58807
-36.76449
-40.00293
-42.05566
-42.79546
-42.25877
-40.70544
-38.56544
-36.32209
-34.38105
-32.92137
-31.80672
-30.61699
-28.78814
-25.7622
-21.23957
-15.26002
-8.216911
-0.7541428
6.46418
12.90173
18.2849
22.5444
25.71368
27.81113
28.81789
28.69611
27.5235
25.51486
23.0104
20.38806
17.94424
15.8251
14.00281
12.37074
10.73487
8.905388
6.726837
4.060913
0.825531
-2.962715
-7.132347
-11.37062
-15.23144
-18.27203
-20.17596
-20.82436
-20.37611
-19.17612
-17.66336
-16.28833
-15.35992
-15.04926
-15.33825
-15.99316
-16.60466
-16.68808
-15.77959
-13.63259
-10.31019
-6.201294
-1.897667
2.016869
5.166878
7.476006
9.08239
10.25835
11.21683
12.01296
12.58637
12.80262
12.58298
11.94793
10.99831
9.824135
8.536583
7.190659
5.837646
4.557846
3.448235
2.575241
1.940247
1.428253
0.8473434
0.03851318
-1.109863
-2.546814
-4.108383
-5.565056
-6.747681
-7.588585
-8.131241
-8.545326
-9.005608
-9.691292
-10.67519
-11.92782
-13.25882
-14.35278
-14.8084
-14.23114
-12.37808
-9.271858
-5.247887
-0.8351822
3.388329
6.995338
9.798737
11.84262
13.27512
14.23221
14.76898
14.87035
14.57404
13.99767
13.35859
12.87896
12.71027
12.88924
13.36595
14.08046
14.96422
15.94746
16.90223
17.58385
17.69559
16.94532
15.19708
12.51436
9.158623
5.511925
1.933907
-1.311234
-4.143959
-6.644005
-9.023331
-11.51025
-14.3056
-17.45974
-20.8002
-23.9017
-26.18536
-27.04124
-26.06758
-23.22189
-18.86471
-13.62751
-8.21479
-3.18988
1.123329
4.612518
7.270981
9.125633
10.19675
10.5174
10.19375
9.383858
8.293114
7.096054
5.91655
4.820671
3.865807
3.096481
2.562218
2.229431
2.012947
1.75016
1.266602
0.4536209
-0.7204437
-2.188728
-3.838806
-5.545425
-7.243759
-8.880905
-10.41376
-11.82104
-13.09749
-14.3075
-15.54641
-16.89041
-18.2765
-19.4556
-20.02821
-19.55162
-17.72865
-14.50311
-10.07087
-4.823143
0.7879181
6.330788
11.44788
15.85897
19.34985
21.7707
23.10863
23.47859
23.12101
22.30278
21.24097
20.05955
18.77315
17.38821
15.96686
14.64469
13.57883
12.8383
12.34126
11.83908
11.02639
9.709709
7.856163
5.604454
3.185501
0.7704086
-1.573044
-3.906296
-6.3097
-8.835129
-11.45806
-14.122
-16.7694
-19.33477
-21.68541
-23.52776
-24.44103
-23.95972
-21.76864
-17.86904
-12.62318
-6.659363
-0.6841507
4.725967
9.21431
12.62857
14.93166
16.1214
16.22781
15.37634
13.8143
11.88721
9.957474
8.307709
7.060211
6.188339
5.581116
5.083939
4.572815
3.955925
3.156921
2.103477
0.7794189
-0.7714386
-2.447502
-4.104195
-5.624001
-6.977119
-8.214066
-9.473969
-10.95343
-12.81876
-15.13895
-17.83993
-20.62721
-22.99003
-24.30527
-23.98875
-21.73074
-17.61578
-12.12179
-5.985893
0.04880524
5.422523
9.870209
13.327
15.8574
17.49714
18.27155
18.216
17.41969
16.04285
14.31663
12.46484
10.65842
9.050137
7.710419
6.663002
5.900265
5.316833
4.792152
4.165863
3.296555
2.119053
0.6661301
-0.9758224
-2.685917
-4.355354
-5.92942
-7.405563
-8.87291
-10.48365
-12.40825
-14.75643
-17.48194
-20.31734
-22.75344
-24.15392
-23.92027
-21.70372
-17.57143
-11.98838
-5.684856
0.5487862
6.083797
10.57109
13.90179
16.11423
17.28134
17.46571
16.76591
15.32837
13.41018
11.32399
9.356056
7.68549
6.380054
5.405087
4.683487
4.126068
3.652599
3.166859
2.536991
1.640324
0.3914642
-1.190514
-2.994614
-4.879349
-6.727924
-8.475292
-10.15366
-11.87862
-13.79859
-16.00937
-18.47234
-20.93867
-22.89314
-23.65348
-22.54002
-19.1572
-13.612
-6.580124
0.8972511
7.769527
13.29436
17.24923
19.8632
21.53548
22.59792
23.16038
23.18649
22.5896
21.42622
19.84436
18.04503
16.17908
14.25252
12.22574
10.08913
7.954161
5.993956
4.350634
3.046646
1.941061
0.8111782
-0.5564957
-2.214563
-4.095133
-6.037724
-7.915155
-9.715017
-11.52693
-13.54243
-15.94348
-18.82217
-22.07746
-25.38593
-28.2033
-29.86026
-29.7302
-27.42488
-22.97125
-16.81668
-9.725087
-2.511044
4.129231
9.770941
14.20197
17.36398
19.283
20.03353
19.78341
18.7923
17.41068
15.98512
14.78004
13.93116
13.41701
13.14013
12.97564
12.81282
12.52369
11.97994
11.07182
9.73361
8.010759
6.041255
4.009231
2.029696
0.137188
-1.732954
-3.658274
-5.691629
-7.82742
-10.07204
-12.4551
-14.94617
-17.37925
-19.3465
-20.28385
-19.64923
-17.22324
-13.26336
-8.404573
-3.429168
1.064314
4.796975
7.783536
10.09893
11.70506
12.40197
11.94747
10.24033
7.467145
4.055519
0.5400648
-2.618491
-5.149217
-6.999241
-8.274595
-9.147127
-9.781225
-10.30533
-10.78669
-11.26871
-11.76548
-12.24612
-12.60034
-12.62876
-12.10804
-10.84416
-8.815712
-6.239601
-3.542322
-1.297316
-0.02878761
-0.01409721
-1.158735
-2.963482
-4.60137
-5.134296
-3.791061
-0.1855812
5.559027
12.82961
20.748
28.42127
35.12927
40.42959
44.13777
46.21354
46.68512
45.62296
43.16013
39.53805
35.13162
30.37032
25.65457
21.20978
17.05095
13.01266
8.870876
4.485804
-0.1377754
-4.853441
-9.478901
-13.90786
-18.16809
-22.36438
-26.58083
-30.77598
-34.79269
-38.4471
-41.66652
-44.57335
-47.40657
-50.33437
-53.24724
-55.69669
-56.97954
-56.4165
-53.63249
-48.69432
-42.06944
-34.45341
-26.53017
-18.84339
-11.71723
-5.328667
0.2482834
4.980114
8.867794
11.93501
14.21062
15.74651
16.61101
16.92233
16.85535
16.60435
16.34426
16.15991
16.02925
15.87387
15.60548
15.23418
14.8679
14.67572
14.78686
15.17881
15.68273
15.97135
15.67621
14.48208
12.22825
8.911331
4.709991
-0.02957916
-4.815842
-9.051605
-12.11964
-13.51466
-12.98297
-10.58953
-6.738655
-2.045876
2.816406
7.296967
11.05642
13.96109
16.00564
17.22703
17.6619
17.34748
16.35093
14.84413
13.03813
11.17539
9.433006
7.90831
6.611298
5.507607
4.535934
3.614799
2.661102
1.553673
0.1875763
-1.517685
-3.567993
-5.896965
-8.386246
-10.89571
-13.33665
-15.67239
-17.97207
-20.36005
-23.00249
-26.03376
-29.42336
-32.88033
-35.8294
-37.55257
-37.38569
-35.02763
-30.61607
-24.72149
-18.09039
-11.4027
-5.081436
0.723877
6.004532
10.72911
14.76173
17.91409
20.02762
21.1114
21.34895
21.03441
20.47491
19.85445
19.2383
18.62471
18.03555
17.54984
17.29858
17.34653
17.58351
17.73898
17.4481
16.41028
14.5721
12.15463
9.576263
7.257797
5.394531
3.841537
2.193649
-0.08599854
-3.42012
-8.013962
-13.81555
-20.53923
-27.6916
-34.61433
-40.52776
-44.55717
-45.96338
-44.33475
-39.73703
-32.7524
-24.27831
-15.26324
-6.446945
1.699112
8.958069
15.15469
20.06781
23.47687
25.2507
25.52417
24.75198
23.57433
22.61925
22.25867
22.44193
22.7592
22.6904
21.8535
20.23428
18.15767
16.11877
14.50993
13.47591
12.87097
12.40283
11.85463
11.13824
10.33298
9.57959
8.974228
8.585403
8.451172
8.588104
8.961227
9.415527
9.589218
8.998337
7.201019
3.953552
-0.5900116
-5.874847
-11.03944
-15.11394
-17.26361
-17.00182
-14.27539
-9.428085
-3.133347
3.830322
10.71329
16.88699
21.92276
25.57483
27.72864
28.42747
27.88449
26.42137
24.5042
22.5975
21.06908
20.12701
19.76031
19.78201
19.90228
19.81682
19.31383
18.31075
16.87735
15.14616
13.25273
11.22372
8.958359
6.297516
3.125427
-0.5255737
-4.479721
-8.471237
-12.30017
-15.84422
-19.1445
-22.33124
-25.51865
-28.78767
-32.08917
-35.19696
-37.7093
-39.0638
-38.64027
-35.95854
-30.88831
-23.74297
-15.26967
-6.457825
1.740509
8.669586
14.00531
17.70517
19.86147
20.5388
19.82298
17.86879
14.96869
11.59874
8.323227
5.612823
3.712296
2.608215
2.067169
1.781799
1.501831
1.058472
0.380722
-0.5565643
-1.761856
-3.258759
-5.021881
-7.02597
-9.218735
-11.54027
-13.95972
-16.43286
-18.93002
-21.45361
-24.02454
-26.62755
-29.17017
-31.36754
-32.7513
-32.76691
-30.94005
-27.08656
-21.36536
-14.27496
-6.509018
1.212952
8.307312
14.37498
19.19714
22.71791
24.96745
26.04247
26.10446
25.3389
23.9478
22.16374
20.21994
18.32175
16.64507
15.28522
14.22383
13.37683
12.55118
11.5594
10.23396
8.502838
6.38298
3.991043
1.449112
-1.164322
-3.830246
-6.594238
-9.49086
-12.56427
-15.78702
-19.114
-22.4339
-25.52762
-27.99628
-29.27971
-28.78848
-26.03951
-20.96498
-13.96049
-5.878235
2.246201
9.478241
15.28073
19.57024
22.55437
24.54143
25.72832
26.17119
25.88237
24.94191
23.56364
22.03296
20.61044
19.42346
18.46916
17.64705
16.82825
15.91855
14.88811
13.707
12.33928
10.77834
9.005814
7.024246
4.83522
2.454239
-0.07061768
-2.668839
-5.248535
-7.798325
-10.42026
-13.29837
-16.58583
-20.2618
-23.98529
-27.08942
-28.77354
-28.35364
-25.54645
-20.56822
-14.06627
-6.862625
0.2848663
6.836655
12.53778
17.24432
20.90274
23.43375
24.80278
25.03905
24.29517
22.8468
21.01631
19.1367
17.44319
16.089
15.08669
14.3833
13.89494
13.5365
13.27994
13.09067
12.87312
12.43462
11.56627
10.08542
7.980499
5.456589
2.836212
0.470932
-1.458954
-2.962936
-4.264771
-5.660309
-7.473083
-9.967712
-13.27901
-17.4005
-22.05524
-26.70265
-30.56926
-32.8582
-33.00624
-30.90004
-26.92339
-21.78065
-16.25266
-10.92796
-6.121307
-1.918808
1.6474
4.498337
6.484772
7.518738
7.695129
7.294296
6.752792
6.470764
6.658737
7.262375
8.011284
8.570213
8.668617
8.225342
7.356316
6.314072
5.331718
4.53199
3.878922
3.205154
2.295738
0.9824753
-0.7808914
-2.909126
-5.19809
-7.434486
-9.443962
-11.15926
-12.62528
-14.00941
-15.51549
-17.32294
-19.49841
-21.93095
-24.30051
-26.11241
-26.78018
-25.80433
-22.94187
-18.29184
-12.31822
-5.699821
0.8552246
6.801025
11.86198
15.98951
19.22827
21.59396
23.03481
23.46284
22.88821
21.48396
19.60573
17.66716
16.00955
14.80492
14.02414
13.50716
13.07388
12.59513
12.03823
11.39309
10.6428
9.726006
8.59597
7.260674
5.832947
4.495293
3.419456
2.647301
2.030846
1.308861
0.1717682
-1.55159
-3.846909
-6.552887
-9.410309
-12.23842
-14.98685
-17.76044
-20.69986
-23.85999
-27.06814
-29.90267
-31.75935
-32.00571
-30.24701
-26.43484
-20.94173
-14.39943
-7.522133
-0.8897705
5.150276
10.44192
14.92809
18.48528
20.95762
22.17616
22.12741
21.01222
19.2753
17.44241
15.96352
15.08251
14.75745
14.76109
14.81596
14.68167
14.24492
13.51941
12.57389
11.51795
10.43977
9.380516
8.326546
7.216522
5.934116
4.387569
2.567894
0.5476418
-1.523836
-3.497477
-5.264658
-6.812536
-8.188816
-9.507175
-10.90644
-12.51656
-14.47218
-16.82853
-19.50662
-22.24735
-24.57953
-25.91997
-25.69646
-23.5587
-19.49337
-13.87615
-7.387334
-0.7868323
5.280777
10.45705
14.63643
17.88216
20.26853
21.79462
22.40395
22.06726
20.93843
19.33555
17.69815
16.39152
15.59179
15.24036
15.12327
14.95557
14.52006
13.72816
12.5882
11.17962
9.5585
7.777401
5.879026
3.913742
1.959251
0.07487488
-1.703373
-3.38728
-5.001881
-6.592651
-8.166416
-9.718086
-11.19823
-12.52874
-13.66911
-14.67162
-15.70872
-17.01565
-18.76587
-20.93531
-23.17842
-24.88365
-25.31855
-23.9203
-20.50986
-15.40484
-9.316551
-3.092766
2.5215
7.091309
10.49125
12.82838
14.26501
14.94452
14.96997
14.40889
13.41695
12.21983
11.09541
10.26474
9.824799
9.697418
9.659302
9.469505
8.958641
8.121185
7.117691
6.169189
5.453857
4.996994
4.661568
4.209908
3.422829
2.207779
0.6605148
-1.002655
-2.537361
-3.78289
-4.718719
-5.474976
-6.248337
-7.234138
-8.594055
-10.41136
-12.65414
-15.16745
-17.59302
-19.42615
-20.11031
-19.23436
-16.67685
-12.7065
-7.895432
-2.922577
1.592209
5.262741
7.95256
9.691269
10.60353
10.79108
10.39276
9.568237
8.523087
7.48851
6.644028
6.090897
5.781815
5.587982
5.330338
4.89769
4.287643
3.604492
2.96727
2.445984
1.982559
1.391769
0.5005341
-0.7706909
-2.323486
-3.929779
-5.361664
-6.527191
-7.48587
-8.398254
-9.448807
-10.72044
-12.2325
-13.9404
-15.78886
-17.67502
-19.37634
-20.50124
-20.54948
-19.09639
-15.96078
-11.35336
-5.834183
-0.1285553
5.057892
9.219452
12.10544
13.67848
14.0343
13.35406
11.83971
9.686859
7.115952
4.311447
1.43602
-1.363144
-3.965866
-6.238907
-8.061447
-9.363342
-10.12885
-10.42378
-10.35596
-10.0811
-9.751526
-9.516068
-9.4655
-9.625061
-9.981064
-10.45032
-10.93411
-11.35802
-11.68716
-11.95209
-12.27039
-12.79417
-13.67178
-14.99486
-16.71658
-18.58839
-20.15079
-20.84003
-20.13434
-17.7789
-13.87389
-8.855423
-3.346878
2.052536
6.882187
10.89651
13.98557
16.07494
17.11595
17.0755
16.03217
14.20901
11.96683
9.719086
7.846481
6.587967
5.980453
5.889313
6.050262
6.180222
6.064651
5.627014
4.90274
3.956207
2.836884
1.4991
-0.1042023
-1.968002
-3.957108
-5.848755
-7.42984
-8.66803
-9.724716
-10.92706
-12.61118
-14.92172
-17.7462
-20.67657
-23.1212
-24.47618
-24.29192
-22.40137
-18.98088
-14.50426
-9.600555
-4.863556
-0.7078857
2.701706
5.362122
7.286789
8.443665
8.733414
8.102036
6.642822
4.677002
2.641312
0.9810486
-0.04051208
-0.3907623
-0.2406464
0.1081696
0.3407288
0.2070618
-0.4072571
-1.493851
-2.947037
-4.60614
-6.331161
-8.058319
-9.787659
-11.58292
-13.51628
-15.64667
-17.98953
-20.49698
-22.99187
-25.12569
-26.40582
-26.26648
-24.298
-20.45361
-15.11385
-8.991394
-2.891434
2.55719
7.003891
10.34659
12.59859
13.75464
13.78627
12.73462
10.81372
8.407867
5.998215
3.965942
2.461166
1.404236
0.5682678
-0.271286
-1.207489
-2.203812
-3.152557
-3.98082
-4.687149
-5.37999
-6.19841
-7.24057
-8.561676
-10.17099
-12.12086
-14.48193
-17.26732
-20.33792
-23.30574
-25.57802
-26.48051
-25.53604
-22.61058
-17.9915
-12.25394
-6.026154
0.1676636
5.998764
11.25357
15.75398
19.25603
21.52283
22.39081
21.94623
20.54552
18.74742
17.11996
16.0291
15.54242
15.39622
15.19695
14.60677
13.46204
11.8168
9.871666
7.825241
5.808449
3.814026
1.734848
-0.5568314
-3.183311
-6.239067
-9.763939
-13.71926
-17.94933
-22.15291
-25.86433
-28.52633
-29.59113
-28.63271
-25.5197
-20.4278
-13.84273
-6.404625
1.200409
8.380981
14.70016
19.87422
23.73979
26.19414
27.25002
27.0066
25.72504
23.78214
21.63241
19.68451
18.23736
17.35452
16.87214
16.45177
15.67673
14.24862
12.05451
9.240162
6.097374
2.963139
0.05322647
-2.595589
-5.075768
-7.50378
-9.934803
-12.33345
-14.6615
-16.9889
-19.47866
-22.27934
-25.3382
-28.20659
-30.11135
-30.15065
-27.72001
-22.76153
-15.85441
-7.961487
-0.01962662
7.347816
13.94071
19.79393
24.96753
29.31812
32.56995
34.43806
34.83873
33.99076
32.33862
30.41868
28.61411
27.124
25.92192
24.88739
23.87393
22.8033
21.64298
20.35431
18.90038
17.17356
15.09411
12.66456
9.991459
7.23115
4.544398
2.026347
-0.3347549
-2.559219
-4.682646
-6.732841
-8.733337
-10.75212
-12.91293
-15.34635
-18.16608
-21.41579
-24.95046
-28.49183
-31.58655
-33.69288
-34.27075
-32.92823
-29.54553
-24.32033
-17.69662
-10.21937
-2.458853
5.109167
12.08081
18.09444
22.84709
26.14465
27.97582
28.5272
28.18234
27.3683
26.47971
25.77525
25.33746
25.10499
24.96852
24.81937
24.58753
24.2376
23.73353
23.0384
22.11032
20.93891
19.57388
18.15133
16.85
15.81883
15.11172
14.67741
14.34996
13.92018
13.18746
12.03485
10.40933
8.324723
5.834362
3.011518
-0.0988431
-3.455008
-7.041423
-10.83993
-14.78766
-18.79269
-22.68671
-26.20406
-28.95679
-30.47094
-30.26633
-28.03514
-23.73966
-17.7059
-10.56057
-3.059733
4.09721
10.4504
15.78495
20.05892
23.26879
25.39409
26.39846
26.32462
25.39227
23.98405
22.54756
21.45699
20.87879
20.70099
20.63211
20.33287
19.56094
18.27922
16.59777
14.67836
12.64151
10.48715
8.160774
5.579006
2.706192
-0.4050522
-3.651688
-6.931522
-10.17404
-13.34947
-16.42688
-19.3256
-21.9296
-24.09978
-25.74018
-26.85217
-27.54085
-28.00873
-28.45141
-29.04173
-29.87408
-31.0026
-32.43733
-34.15592
-36.01296
-37.70091
-38.68754
-38.34365
-36.14697
-31.90051
-25.91037
-18.87268
-11.65686
-5.024353
0.6207199
5.192688
8.778763
11.44585
13.13927
13.76533
13.35469
12.16894
10.69222
9.481758
8.97287
9.304535
10.34937
11.79978
13.34464
14.76736
15.96674
16.89452
17.52397
17.80188
17.65079
17.04596
16.00289
14.58342
12.91283
11.08987
9.186943
7.205299
5.076698
2.698738
-0.007965088
-3.067223
-6.381157
-9.743675
-12.8928
-15.57137
-17.63164
-19.08591
-20.06488
-20.79082
-21.46508
-22.22967
-23.11658
-24.08474
-25.01008
-25.65261
-25.63566
-24.41138
-21.31866
-15.77216
-7.494438
3.315796
15.89645
29.07959
41.56818
52.20972
60.26653
65.43582
67.84353
67.85647
66.02126
62.92273
59.14694
55.22104
51.54267
48.33882
45.62184
43.20685
40.70842
37.67509
33.65947
28.35683
21.74352
14.06789
5.831741
-2.386276
-10.12289
-17.1804
-23.61147
-29.68881
-35.71681
-41.88727
-48.22896
-54.58885
-60.74644
-66.52095
-71.82452
-76.62791
-80.91483
-84.59303
-87.46803
-89.4008
-90.40005
-90.70415
-90.69537
-90.66457
-90.57664
-90.02454
-88.3569
-84.97948
-79.61481
-72.32928
-63.39201
-53.05917
-41.43526
-28.63931
-15.0181
-1.296417
11.43311
22.0387
29.74181
34.38145
36.38997
36.56728
35.69676
34.34014
32.75231
30.98902
29.07362
27.0831
25.16321
23.44387
22.04514
20.99254
20.23325
19.68565
19.24916
18.82628
18.31911
17.62364
16.64689
15.36615
13.81582
12.09424
10.35193
8.769623
7.488098
6.569447
5.952579
5.43317
4.739231
3.56863
1.694248
-0.9126511
-4.007484
-7.061546
-9.370003
-10.22733
-9.208717
-6.280306
-1.871006
3.330578
8.576382
13.3142
17.27329
20.46422
22.99781
24.93702
26.22973
26.74354
26.38482
25.20283
23.4301
21.39049
19.40725
17.65469
16.10921
14.68639
13.30278
12.00335
10.92753
10.18111
9.722887
9.318237
8.599032
7.275837
5.283308
2.806963
0.218195
-2.157445
-4.147951
-5.798044
-7.301569
-8.86695
-10.62994
-12.64426
-14.92509
-17.49758
-20.39084
-23.59103
-26.95035
-30.12028
-32.5517
-33.62066
-32.82678
-29.94576
-25.13577
-18.88927
-11.89593
-4.826561
1.785904
7.666901
12.73429
16.98026
20.39019
22.88028
24.37119
24.89378
24.63658
23.94016
23.20261
22.70091
22.48887
22.40747
22.19338
21.62818
20.69116
19.52643
18.34105
17.26578
16.29482
15.2722
14.01242
12.37239
10.32154
7.938347
5.340649
2.644466
-0.07570267
-2.781784
-5.478767
-8.154297
-10.82597
-13.52766
-16.33277
-19.32972
-22.57015
-25.96973
-29.21823
-31.78436
-33.03756
-32.44173
-29.75242
-25.10818
-18.9866
-12.07634
-5.056274
1.542969
7.355309
12.18171
15.93131
18.55332
20.11131
20.71596
20.56081
19.90955
19.05176
18.22652
17.60461
17.22597
17.01095
16.84048
16.58852
16.18093
15.64021
15.07647
14.57423
14.15437
13.7066
12.99163
11.75205
9.808372
7.163704
4.008286
0.6898499
-2.456055
-5.190285
-7.486565
-9.510002
-11.4975
-13.66776
-16.14276
-18.91563
-21.8891
-24.87428
-27.5442
-29.47598
-30.19157
-29.27312
-26.51358
-22.01922
-16.20104
-9.640335
-2.932869
3.485023
9.272385
14.15868
17.93327
20.44475
21.68091
21.82075
21.20499
20.19746
19.12593
18.1903
17.44023
16.85332
16.35975
15.87511
15.29861
14.57417
13.71059
12.79108
11.91575
11.10125
10.23602
9.098259
7.463387
5.256607
2.612778
-0.1733475
-2.773506
-4.987282
-6.820732
-8.429817
-10.05876
-11.89775
-14.04844
-16.54265
-19.34777
-22.37092
-25.41457
-28.163
-30.1413
-30.83594
-29.81033
-26.88653
-22.19898
-16.20862
-9.562126
-2.892822
3.278778
8.630302
13.03561
16.45697
18.90848
20.40229
20.9746
20.71369
19.77934
18.4105
16.89957
15.55132
14.59605
14.0834
13.88078
13.73566
13.37756
12.69032
11.73706
10.71363
9.785301
8.958549
8.044968
6.749237
4.860222
2.370956
-0.4790649
-3.365326
-5.981834
-8.189568
-10.04319
-11.72317
-13.46297
-15.46037
-17.83907
-20.6001
-23.60669
-26.56534
-29.0407
-30.50179
-30.43803
-28.49271
-24.62527
-19.15901
-12.65488
-5.824364
0.7127762
6.53508
11.41882
15.29889
18.12945
19.91844
20.71154
20.69923
20.16763
19.44124
18.74467
18.1264
17.52731
16.85611
16.12325
15.40907
14.82253
14.37534
13.95792
13.39815
12.55835
11.41296
10.03
8.504303
6.864548
5.059296
3.024582
0.7453461
-1.682846
-4.108109
-6.362152
-8.391541
-10.24019
-12.03879
-13.96449
-16.13774
-18.61792
-21.35376
-24.20981
-26.9222
-29.11945
-30.36006
-30.18477
-28.27522
-24.54514
-19.23711
-12.8131
-5.893753
0.9500732
7.258209
12.72853
17.1804
20.46025
22.50366
23.30388
23.03979
22.04626
20.76315
19.60574
18.83499
18.51765
18.55267
18.77342
18.98296
19.05138
18.92923
18.58118
17.98264
17.07726
15.82262
14.19919
12.26292
10.11664
7.906219
5.736618
3.641571
1.576721
-0.5492554
-2.777023
-5.081161
-7.348694
-9.438629
-11.28809
-12.93996
-14.54759
-16.3037
-18.36702
-20.77031
-23.37758
-25.88394
-27.83228
-28.70348
-28.05273
-25.66032
-21.62125
-16.35748
-10.4595
-4.512878
1.063965
6.057732
10.39796
14.02355
16.84777
18.76328
19.73313
19.85999
19.38794
18.6348
17.86109
17.21985
16.73014
16.33277
15.92975
15.44792
14.8093
13.94625
12.80962
11.37209
9.697083
7.908638
6.16787
4.586838
3.176636
1.834328
0.4113541
-1.193413
-2.962746
-4.768623
-6.457382
-7.960365
-9.313011
-10.65567
-12.10214
-13.70841
-15.44614
-17.25595
-19.05331
-20.76574
-22.19754
-23.00573
-22.72153
-20.89788
-17.31599
-12.08778
-5.705902
1.125114
7.639259
13.22443
17.49963
20.28609
21.57507
21.44876
20.02722
17.47974
14.03176
10.01216
5.820511
1.90155
-1.392471
-3.84671
-5.43396
-6.296707
-6.637253
-6.617622
-6.291191
-5.62516
-4.592308
-3.291389
-1.964928
-0.9650497
-0.606636
-1.021507
-2.102295
-3.543129
-4.984291
-6.171837
-7.076912
-7.875999
-8.854851
-10.26959
-12.24696
-14.73423
-17.5047
-20.1773
-22.27869
-23.29594
-22.78618
-20.48952
-16.44209
-10.98547
-4.712097
1.69017
7.626816
12.66577
16.60332
19.412
21.14873
21.91131
21.82673
21.06184
19.82539
18.33485
16.7806
15.28642
13.91518
12.66605
11.53888
10.53336
9.661324
8.888367
8.120316
7.200195
5.990005
4.384613
2.397369
0.1471252
-2.195999
-4.492508
-6.669876
-8.759392
-10.85027
-13.06785
-15.58974
-18.54727
-21.95338
-25.62119
-29.0862
-31.66447
-32.65076
-31.51829
-28.13971
-22.88154
-16.46338
-9.727783
-3.393532
2.104164
6.65535
10.30681
13.15855
15.29208
16.71988
17.45941
17.56871
17.17168
16.44475
15.60551
14.79913
14.09967
13.52174
13.0241
12.55863
12.09463
11.57303
10.9061
9.988815
8.692284
6.951797
4.810188
2.424126
-0.01308441
-2.328606
-4.49276
-6.609726
-8.802109
-11.20007
-13.83439
-16.6758
-19.64614
-22.60123
-25.26131
-27.18793
-27.82211
-26.63545
-23.40558
-18.32179
-12.00368
-5.273651
1.163223
6.893829
11.80617
15.93958
19.3243
21.83097
23.2676
23.57712
22.91929
21.7608
20.74168
20.38642
20.93476
22.27084
23.93906
25.42896
26.34865
26.57058
26.27871
25.80184
25.40833
25.1909
24.99698
24.5433
23.5564
21.89604
19.60621
16.89835
14.01939
11.12427
8.210251
5.098534
1.508881
-2.827477
-8.042015
-14.04263
-20.47504
-26.75726
-32.2485
-36.35879
-38.7282
-39.31839
-38.38549
-36.41755
-33.9954
-31.63379
-29.6612
-28.17224
-27.03024
-26.01165
-24.95606
-23.86883
-22.91648
-22.3169
-22.1718
-22.32015
-22.31634
-21.55802
-19.51982
-15.97237
-11.06131
-5.287312
0.7004929
6.295765
11.01882
14.55035
16.70586
17.35387
16.45465
14.09454
10.51811
6.185127
1.653038
-2.545826
-6.079895
-8.86985
-11.11217
-13.16193
-15.36279
-17.96421
-21.03819
-24.46558
-27.92259
-30.97041
-33.05892
-33.69086
-32.50621
-29.39339
-24.53638
-18.34821
-11.36844
-4.116287
2.991074
9.655655
15.59718
20.57209
24.32767
26.67296
27.58473
27.19449
25.83228
23.93039
21.92765
20.1898
18.94672
18.30665
18.2233
18.53944
19.02377
19.42334
19.49708
19.1106
18.21127
16.82847
15.02367
12.81587
10.23234
7.297729
4.129593
0.8987808
-2.212807
-5.09845
-7.770653
-10.35816
-13.03453
-15.90115
-18.98967
-22.23389
-25.48721
-28.49421
-30.8483
-32.01778
-31.45045
-28.78526
-24.02446
-17.59669
-10.24821
-2.748276
4.311951
10.61285
16.02182
20.43112
23.65613
25.51183
25.92833
25.10458
23.50726
21.72601
20.28088
19.40829
19.03958
18.89519
18.63524
18.06236
17.16591
16.11739
15.10722
14.24602
13.4655
12.54189
11.20061
9.266083
6.752213
3.844772
0.8472137
-1.96611
-4.419922
-6.466675
-8.188538
-9.758957
-11.37302
-13.23132
-15.43671
-17.9469
-20.52058
-22.71213
-23.95161
-23.69685
-21.61172
-17.73521
-12.50034
-6.609543
-0.8323059
4.265442
8.398514
11.54514
13.77954
15.16281
15.69844
15.40335
14.40703
13.0054
11.58832
10.50058
9.929535
9.837067
10.03877
10.32132
10.52515
10.57117
10.40582
9.981094
9.226578
8.075867
6.471466
4.379684
1.851776
-0.9830933
-3.937073
-6.786819
-9.365005
-11.63792
-13.73778
-15.91158
-18.45457
-21.50838
-25.00368
-28.58537
-31.66212
-33.57413
-33.75916
-31.90836
-28.04846
-22.55328
-16.01224
-9.091843
-2.370758
3.77951
9.153961
13.66705
17.26872
19.92125
21.56903
22.28128
22.21417
21.6516
20.89729
20.16951
19.56038
19.05844
18.53929
17.90456
17.11665
16.18817
15.1593
14.0853
12.95184
11.70848
10.25438
8.488327
6.377884
3.953522
1.337494
-1.356323
-4.034592
-6.699203
-9.44043
-12.36307
-15.52782
-18.89499
-22.30244
-25.49669
-28.11258
-29.69797
-29.78671
-28.01666
-24.25175
-18.68521
-11.83746
-4.424164
2.825974
9.419418
15.10472
19.83963
23.63905
26.45033
28.14143
28.62479
27.97284
26.50433
24.69104
22.99539
21.70862
20.84875
20.21045
19.52316
18.58234
17.33864
15.8981
14.40926
12.92506
11.37251
9.579208
7.382416
4.736282
1.762466
-1.269943
-4.062271
-6.42244
-8.346756
-9.990616
-11.61227
-13.45596
-15.66595
-18.27162
-21.18797
-24.19733
-26.93678
-28.91611
-29.57393
-28.43721
-25.26852
-20.16841
-13.5957
-6.223206
1.206894
8.068069
13.93459
18.59283
21.97534
24.13466
25.20276
25.38458
24.96364
24.23607
23.50516
22.96783
22.70198
22.59196
22.42204
21.8972
20.81584
19.15924
17.09775
14.92993
12.92526
11.18335
9.565094
7.795021
5.58934
2.842567
-0.3041916
-3.544258
-6.520393
-9.003647
-10.94104
-12.42778
-13.63733
-14.76186
-15.9585
-17.31005
-18.85555
-20.46203
-21.82494
-22.47746
-21.87574
-19.60313
-15.55492
-10.01382
-3.577484
3.003136
9.087357
14.23313
18.24639
21.12017
22.90882
23.68704
23.52032
22.54888
21.01241
19.25137
17.63311
16.42673
15.70168
15.27724
14.88063
14.22828
13.1802
11.81373
10.32428
8.909954
7.6437
6.458771
5.161762
3.569126
1.607941
-0.6730118
-3.106033
-5.494152
-7.71122
-9.741627
-11.6619
-13.63445
-15.77179
-18.14612
-20.72317
-23.37883
-25.98651
-28.39297
-30.41938
-31.77365
-32.07721
-30.86772
-27.84366
-22.99666
-16.70612
-9.690073
-2.7622
3.433372
8.5588
12.5908
15.69473
18.02093
19.58128
20.30398
20.13129
19.17501
17.75962
16.29884
15.15626
14.51279
14.32956
14.38621
14.45052
14.32846
13.97089
13.39375
12.62579
11.64831
10.4056
8.8519
6.981258
4.883465
2.704014
0.598053
-1.308887
-3.014946
-4.592045
-6.192806
-7.971565
-10.05254
-12.48975
-15.29289
-18.404
-21.64066
-24.71322
-27.20412
-28.67424
-28.79208
-27.45311
-24.8317
-21.28367
-17.2629
-13.19453
-9.433189
-6.273338
-3.959961
-2.63221
-2.28656
-2.677185
-3.38591
-3.951172
-3.989906
-3.322685
-1.976616
-0.0847168
2.153595
4.61972
7.223557
9.912926
12.58833
15.09834
17.24268
18.7979
19.54827
19.32416
18.06404
15.82763
12.79729
9.211578
5.304161
1.231926
-2.936264
-7.213066
-11.64341
-16.24014
-20.98972
-25.83092
-30.65138
-35.20346
-39.14588
-42.01904
-43.38465
-42.94485
-40.63567
-36.65807
-31.40063
-25.32657
-18.89734
-12.55043
-6.709015
-1.74968
2.012787
4.432419
5.555428
5.652939
5.101547
4.275047
3.447609
2.790947
2.381706
2.225021
2.294868
2.507751
2.778809
3.042831
3.234314
3.335388
3.325089
3.133705
2.668251
1.813744
0.5232468
-1.153671
-3.057335
-4.992638
-6.784111
-8.353668
-9.742912
-11.07326
-12.50261
-14.14782
-16.06549
-18.16948
-20.18054
-21.65861
-22.08408
-21.04802
-18.39828
-14.32255
-9.277
-3.823074
1.528503
6.442703
10.72202
14.24107
16.85081
18.43909
18.93336
18.41836
17.15801
15.52351
13.91849
12.66672
11.92663
11.66997
11.72926
11.85285
11.80411
11.45742
10.79674
9.891579
8.827576
7.65107
6.337433
4.818428
3.050461
1.015717
-1.212555
-3.522026
-5.806328
-7.979919
-10.04012
-12.06641
-14.2091
-16.61337
-19.33669
-22.2186
-24.87639
-26.75612
-27.28655
-26.07845
-23.07263
-18.53285
-12.96662
-6.936111
-0.917717
4.741264
9.790871
14.02257
17.23789
19.27899
20.13641
19.97925
19.15232
18.06403
17.02292
16.16127
15.45106
14.74316
13.91274
12.9271
11.84983
10.78378
9.800388
8.906898
7.994434
6.948654
5.646645
4.036053
2.140369
0.05960846
-2.04443
-4.038456
-5.813911
-7.388203
-8.871948
-10.47961
-12.41355
-14.82069
-17.64533
-20.63394
-23.31163
-25.07141
-25.37375
-23.86067
-20.49402
-15.55049
-9.579189
-3.214268
2.956291
8.47929
13.08541
16.63314
19.09134
20.49222
20.93413
20.58989
19.67179
18.45004
17.19173
16.11618
15.30022
14.68947
14.12524
13.40881
12.43243
11.24223
10.01659
8.943352
8.09613
7.362293
6.498257
5.286915
3.65395
1.708942
-0.335865
-2.301411
-4.132439
-5.915504
-7.808849
-9.950333
-12.40279
-15.1712
-18.16662
-21.25153
-24.13745
-26.38374
-27.44501
-26.80784
-24.20257
-19.72106
-13.82972
-7.216202
-0.5968857
5.469387
10.68461
14.90453
18.0759
20.15113
21.11224
21.0196
20.10159
18.76289
17.42837
16.44836
15.92953
15.72315
15.51667
14.97826
13.9329
12.43607
10.7498
9.159508
7.872917
6.855087
5.93766
4.841312
3.347225
1.382469
-0.9852829
-3.588028
-6.230919
-8.753639
-11.05502
-13.07278
-14.84035
-16.46183
-18.08118
-19.80903
-21.62594
-23.29031
-24.37337
-24.37002
-22.85288
-19.64265
-14.91561
-9.096912
-2.792034
3.398312
8.983135
13.62738
17.13649
19.40476
20.39088
20.10572
18.73295
16.61543
14.22224
12.02192
10.32815
9.222672
8.561687
8.123188
7.72934
7.360779
7.098331
7.038132
7.209641
7.528801
7.815426
7.872395
7.525654
6.674179
5.331528
3.598106
1.663437
-0.2198715
-1.894733
-3.321648
-4.628845
-6.033527
-7.7584
-9.911331
-12.4579
-15.18521
-17.71501
-19.60603
-20.40915
-19.78841
-17.60786
-13.96127
-9.156555
-3.633358
2.082382
7.499069
12.15313
15.69339
17.95586
18.95553
18.89362
18.08277
16.87795
15.56103
14.31033
13.20176
12.23437
11.37601
10.56605
9.749718
8.867264
7.90469
6.871708
5.786179
4.626041
3.329922
1.845295
0.1324425
-1.749043
-3.701763
-5.606647
-7.374199
-8.992996
-10.51297
-12.04007
-13.68577
-15.57969
-17.75984
-20.16409
-22.54296
-24.45893
-25.37109
-24.76645
-22.36943
-18.23095
-12.75909
-6.61161
-0.4967651
4.973198
9.401192
12.58451
14.52796
15.33132
15.20429
14.35706
13.05343
11.54482
10.07486
8.855484
7.990746
7.49765
7.290436
7.234795
7.185493
7.037292
6.70182
6.120728
5.255585
4.103508
2.698708
1.067543
-0.714119
-2.561745
-4.413849
-6.192268
-7.894814
-9.555695
-11.2668
-13.18464
-15.43402
-18.00907
-20.65716
-22.89772
-24.0937
-23.69215
-21.36753
-17.20493
-11.66618
-5.482147
0.5570297
5.809837
9.908615
12.77557
14.51244
15.28537
15.22132
14.4025
12.9152
10.98112
8.934944
7.193619
6.091095
5.737778
5.975136
6.418671
6.656723
6.394905
5.551529
4.219704
2.582115
0.7684021
-1.144325
-3.112823
-5.078316
-6.956741
-8.668694
-10.19884
-11.63216
-13.14809
-14.95287
-17.13422
-19.54611
-21.76538
-23.166
-23.1002
-21.15269
-17.34436
-12.11618
-6.204163
-0.3389893
4.977119
9.523239
13.27885
16.21761
18.23684
19.18909
19.02293
17.92533
16.31351
14.68963
13.44727
12.75525
12.54282
12.61974
12.79202
12.93198
12.96197
12.81018
12.43592
11.82124
11.03893
10.2044
9.448326
8.868874
8.479156
8.165298
7.734261
7.003716
5.861015
4.408096
2.992622
2.167435
2.56031
4.647331
8.582047
14.12484
20.70845
27.59766
34.05671
39.46893
43.37843
45.48017
45.58559
43.62498
39.65449
33.89404
26.69857
18.57018
10.04884
1.618767
-6.326683
-13.59454
-20.15149
-26.07127
-31.44023
-36.2894
-40.54076
-44.05264
-46.67227
-48.2795
-48.88277
-48.60699
-47.71631
-46.54919
-45.46082
-44.7072
-44.39888
-44.49919
-44.80112
-44.99802
-44.75182
-43.72423
-41.67522
-38.47049
-34.162
-28.99289
-23.41098
-17.93408
-13.05586
-9.107361
-6.171677
-4.140945
-2.766251
-1.807938
-1.08197
-0.4986877
0.005493164
0.5273438
1.189545
2.123154
3.348709
4.732529
5.981003
6.777283
6.881577
6.239273
4.957581
3.234009
1.249977
-0.9175415
-3.251396
-5.728294
-8.279182
-10.77037
-13.09895
-15.20509
-17.12465
-18.85403
-20.25187
-20.96069
-20.43301
-18.11176
-13.64557
-7.081413
1.141792
10.23695
19.34162
27.66561
34.61306
39.83153
43.13837
44.5085
44.02964
41.95947
38.70235
34.79669
30.81789
27.20058
24.15904
21.65234
19.50757
17.53032
15.62505
13.79478
12.10168
10.58936
9.184212
7.735939
6.024761
3.851803
1.092838
-2.243877
-6.027554
-9.975227
-13.75005
-17.08006
-19.85641
-22.22783
-24.4817
-26.86967
-29.37375
-31.6382
-33.02859
-32.85319
-30.66824
-26.40065
-20.403
-13.33213
-5.950565
1.078003
7.255726
12.30263
16.11541
18.69739
20.14658
20.61122
20.30956
19.52505
18.57313
17.72387
17.14541
16.85075
16.7214
16.57858
16.25172
15.64804
14.73456
13.53903
12.0847
10.40422
8.532413
6.502434
4.382763
2.24456
0.1180477
-1.979267
-4.072096
-6.270411
-8.681589
-11.44882
-14.64641
-18.19502
-21.77684
-24.85721
-26.75426
-26.81149
-24.64736
-20.29439
-14.22771
-7.204636
-0.04976273
6.595701
12.38502
17.23882
21.1815
24.18093
26.1295
26.91452
26.56647
25.36695
23.78424
22.28869
21.17545
20.42976
19.79306
18.99932
17.90923
16.62124
15.39015
14.39426
13.60269
12.77844
11.58482
9.826202
7.566853
5.120064
2.87619
1.136446
-0.03295135
-0.8154259
-1.537613
-2.563963
-4.161156
-6.465185
-9.483747
-13.09795
-17.03468
-20.83349
-23.87242
-25.44514
-24.96886
-22.17189
-17.24041
-10.7897
-3.696026
3.220459
9.374828
14.49839
18.52013
21.41355
23.10561
23.50196
22.62917
20.66421
17.98775
15.01165
12.05303
9.259853
6.60413
3.963615
1.189579
-1.808025
-5.036011
-8.423035
-11.81763
-15.03399
-17.86538
-20.1571
-21.79555
-22.73621
-22.93443
-22.33624
-20.88702
-18.59222
-15.55728
-11.97898
-8.186131
-4.551476
-1.499844
0.6070328
1.504608
1.091591
-0.5537186
-3.218441
-6.596848
-10.38557
-14.20312
-17.608
-20.07227
-21.05619
-20.18964
-17.41735
-13.09739
-7.93655
-2.740925
1.828373
5.433949
8.03532
9.751255
10.71735
10.99862
10.61946
9.680923
8.380882
7.034302
5.965439
5.421566
5.494453
6.106339
7.034348
8.028805
8.89854
9.592747
10.20568
10.8778
11.70491
12.63847
13.46507
13.92352
13.83049
13.16568
12.061
10.69191
9.179123
7.556419
5.803234
3.947578
2.082279
0.3177185
-1.27787
-2.772446
-4.352165
-6.274162
-8.785515
-11.96291
-15.6668
-19.48787
-22.81748
-24.93721
-25.26845
-23.52371
-19.8413
-14.71622
-8.803005
-2.719879
3.156498
8.66967
13.7799
18.38726
22.26818
25.12542
26.75571
27.1696
26.61783
25.51231
24.23063
23.03538
21.995
21.05419
20.10551
19.09692
18.04394
16.9797
15.94547
14.91772
13.83916
12.62817
11.20833
9.537384
7.603027
5.477814
3.247124
1.021385
-1.1334
-3.204575
-5.230644
-7.292656
-9.43634
-11.66046
-13.89886
-16.03902
-17.96835
-19.66002
-21.21192
-22.79919
-24.59422
-26.62071
-28.66446
-30.28912
-30.90631
-29.97645
-27.21748
-22.72318
-16.94202
-10.53739
-4.157555
1.717781
6.856995
11.22202
14.81848
17.6231
19.55633
20.56571
20.66753
20.0161
18.8382
17.414
15.96293
14.65177
13.55741
12.68906
12.00426
11.42387
10.86718
10.28796
9.669395
9.000732
8.248405
7.307991
6.056587
4.385651
2.298134
-0.0943222
-2.598572
-5.015793
-7.220734
-9.185898
-10.94841
-12.60597
-14.23105
-15.8849
-17.63715
-19.52563
-21.60825
-23.90298
-26.38753
-28.94785
-31.33049
-33.10426
-33.78041
-32.90277
-30.22948
-25.85693
-20.21002
-13.92448
-7.615845
-1.714584
3.597046
8.30835
12.40192
15.76801
18.22163
19.61783
19.98119
19.55382
18.70103
17.77754
16.97505
16.30116
15.65138
14.88718
13.97891
12.98378
12.02023
11.20015
10.53484
9.952911
9.334335
8.526855
7.41124
5.970596
4.254974
2.384827
0.4862518
-1.343887
-3.047348
-4.61647
-6.072983
-7.440231
-8.764938
-10.10779
-11.537
-13.12076
-14.93771
-17.0295
-19.37653
-21.82088
-24.0168
-25.4473
-25.5759
-23.987
-20.61076
-15.79208
-10.15488
-4.385498
1.011612
5.823654
10.06927
13.78427
16.92757
19.30632
20.68945
20.97804
20.29337
18.97743
17.42711
15.9816
14.7887
13.83965
13.03697
12.30237
11.61961
10.96925
10.28468
9.442688
8.333923
6.91098
5.263519
3.53772
1.85675
0.2356415
-1.444458
-3.339752
-5.505905
-7.83078
-10.08659
-12.05849
-13.6916
-15.12431
-16.58107
-18.21211
-20.04387
-21.97009
-23.85202
-25.62767
-27.29494
-28.78886
-29.90584
-30.2616
-29.39362
-26.99844
-23.08199
-17.9935
-12.27664
-6.493546
-1.089142
3.676758
7.653717
10.71657
12.74138
13.66605
13.57605
12.73856
11.59032
10.58687
10.08388
10.23151
10.95454
11.98387
12.98045
13.62907
13.71228
13.19875
12.18254
10.85292
9.377869
7.845276
6.236984
4.49884
2.583694
0.5097809
-1.633316
-3.722946
-5.691956
-7.543991
-9.379745
-11.33495
-13.57451
-16.15944
-19.01608
-21.86238
-24.23918
-25.59639
-25.43158
-23.52019
-19.97389
-15.21892
-9.848007
-4.421936
0.6825714
5.196304
8.95134
11.8251
13.6936
14.56117
14.56247
13.96202
13.05779
12.09019
11.15977
10.25696
9.378143
8.553574
7.884109
7.479156
7.353867
7.401382
7.422012
7.187119
6.501648
5.302582
3.59964
1.486832
-0.9161835
-3.48938
-6.099487
-8.606567
-10.92117
-12.99152
-14.86996
-16.7594
-18.87975
-21.42203
-24.37766
-27.45905
-30.1189
-31.66518
-31.4742
-29.21414
-24.97527
-19.2599
-12.81743
-6.410461
-0.6090851
4.315842
8.333115
11.51643
13.92769
15.54729
16.38493
16.51503
16.12518
15.45694
14.7068
13.91713
13.01951
11.92664
10.67652
9.479462
8.601547
8.205719
8.232582
8.381721
8.269653
7.574089
6.199982
4.25013
1.959526
-0.4520187
-2.820984
-5.09935
-7.307678
-9.499519
-11.72775
-14.03352
-16.45451
-18.97972
-21.55007
-23.95394
-25.8624
-26.83453
-26.37135
-24.11336
-19.99787
-14.36001
-7.869965
-1.353638
4.523369
9.410637
13.32301
16.50217
19.17117
21.39121
23.04625
23.99658
24.21039
23.80616
23.05583
22.20959
21.43251
20.74326
20.05444
19.23575
18.2028
16.91225
15.40623
13.7491
12.00972
10.20192
8.219223
5.944771
3.247929
0.1174507
-3.29689
-6.729446
-9.930958
-12.82384
-15.57252
-18.53043
-22.04675
-26.31844
-31.26916
-36.53796
-41.56983
-45.67215
-48.15399
-48.44437
-46.18182
-41.37344
-34.42018
-26.07026
-17.20081
-8.584938
-0.6886826
6.3354
12.53424
17.92857
22.43114
25.80193
27.86979
28.64509
28.39685
27.5679
26.56623
25.63535
24.83379
24.08286
23.30662
22.53235
21.83698
21.31105
20.92869
20.5364
19.88274
18.70767
16.85458
14.31362
11.27605
7.989592
4.751646
1.772252
-0.8551822
-3.18281
-5.359165
-7.584095
-10.06951
-12.92181
-16.15606
-19.6319
-22.99301
-25.7219
-27.19602
-26.86579
-24.42244
-19.96282
-13.93305
-7.020869
0.06820202
6.745791
12.6266
17.44978
21.02404
23.23679
24.06545
23.70462
22.55638
21.12957
19.86941
18.99445
18.45349
18.00643
17.41107
16.56807
15.57232
14.60003
13.78673
13.14475
12.53431
11.7404
10.55668
8.871239
6.665731
4.040686
1.137482
-1.894194
-4.918451
-7.8302
-10.59963
-13.26996
-15.93175
-18.77495
-21.93451
-25.49532
-29.33321
-33.04154
-35.97331
-37.37667
-36.61118
-33.36708
-27.85132
-20.68921
-12.70617
-4.704132
2.711807
9.160332
14.41667
18.32653
20.80043
21.82747
21.5947
20.45581
18.88506
17.34171
16.12291
15.33791
14.89907
14.63602
14.36046
13.9652
13.38673
12.61575
11.65574
10.50264
9.140339
7.506111
5.554565
3.258537
0.6857681
-2.06316
-4.857376
-7.60323
-10.26857
-12.88443
-15.5255
-18.26567
-21.16576
-24.22171
-27.34639
-30.29134
-32.64308
-33.8542
-33.35438
-30.744
-25.96027
-19.35259
-11.6207
-3.601852
3.935093
10.46851
15.75013
19.7479
22.5428
24.26217
25.0454
25.06503
24.53913
23.69296
22.74282
21.82101
20.97625
20.1874
19.39147
18.53546
17.60171
16.59901
15.5444
14.45022
13.28683
11.97367
10.41178
8.505043
6.22319
3.597946
0.7576828
-2.159981
-5.042328
-7.847832
-10.61269
-13.43424
-16.43233
-19.66739
-23.04896
-26.25655
-28.76018
-29.87824
-28.98489
-25.72414
-20.19572
-12.98954
-5.022026
2.743172
9.563293
15.08173
19.26476
22.23965
24.12852
25.00182
24.91695
24.02038
22.61641
21.07449
19.73709
18.796
18.23689
17.89874
17.59846
17.16274
16.49367
15.52839
14.20447
12.43391
10.12487
7.227943
3.757751
-0.1106186
-4.114769
-7.915527
-11.27715
-14.1286
-16.64675
-19.15359
-21.9701
-25.23984
-28.78275
-32.12471
-34.58141
-35.47538
-34.31647
-30.94374
-25.56105
-18.68139
-11.00984
-3.265724
3.911705
10.07417
14.94625
18.37386
20.31578
20.84359
20.15566
18.57912
16.51541
14.35554
12.41031
10.8614
9.735931
8.947945
8.333252
7.693718
6.85199
5.714104
4.259285
2.574898
0.7676773
-1.118149
-3.094391
-5.239883
-7.626122
-10.24159
-12.98515
-15.73132
-18.43344
-21.17505
-24.15072
-27.51848
-31.22496
-34.90074
-37.85916
-39.26563
-38.42101
-34.99818
-29.19451
-21.67611
-13.37214
-5.209305
2.097183
8.174438
12.91089
16.32589
18.49752
19.4795
19.38804
18.44993
17.02281
15.49295
14.23856
13.47052
13.2487
13.49667
14.05208
14.72883
15.33777
15.68814
15.58298
14.88427
13.58137
11.78474
9.682755
7.467026
5.244049
3.058716
0.8929443
-1.261841
-3.424263
-5.627861
-7.866653
-10.00179
-11.66013
-12.224
-10.93057
-7.183304
-0.8143845
7.7304
17.5337
27.4532
36.52788
44.14825
50.05492
54.1495
56.34656
56.51714
54.59451
50.74673
45.39016
39.13098
32.52953
25.9279
19.3754
12.73157
5.820793
-1.439842
-8.994881
-16.70837
-24.45487
-32.13528
-39.66046
-46.91587
-53.71075
-59.83798
-65.15543
-69.66689
-73.50906
-76.85631
-79.78233
-82.20186
-83.90422
-84.65206
-84.34242
-83.02336
-80.77918
-77.60829
-73.27506
-67.38268
-59.53899
-49.66954
-38.13279
-25.7207
-13.44913
-2.194099
7.493607
15.46903
21.85753
26.85995
30.57042
32.99532
34.12677
34.07361
33.16573
31.87602
30.70039
29.96622
29.74739
29.86455
29.99066
29.76205
28.90436
27.30894
25.00833
22.17578
19.00163
15.65564
12.22539
8.744095
5.215103
1.636963
-1.9552
-5.591293
-9.363251
-13.38495
-17.67313
-21.99368
-25.76617
-28.16745
-28.39731
-25.95087
-20.91948
-13.9008
-5.828354
2.345764
9.932602
16.57674
22.20279
26.86546
30.59554
33.33061
34.9846
35.51239
35.00848
33.71326
31.97144
30.19168
28.6904
27.60519
26.83054
26.05148
24.84229
22.8364
19.89139
16.15161
11.9924
7.837799
3.972504
0.4400635
-2.934113
-6.394073
-10.13123
-14.172
-18.48004
-22.97269
-27.58163
-32.14597
-36.25485
-39.24341
-40.29102
-38.74152
-34.35571
-27.47906
-18.90854
-9.62793
-0.4935913
7.938446
15.36206
21.63666
26.63864
30.2677
32.45883
33.3183
33.1069
32.1752
30.8432
29.28598
27.57654
25.6629
23.4834
21.009
18.28961
15.42719
12.51404
9.624237
6.726929
3.79538
0.8352661
-2.031219
-4.547852
-6.410278
-7.365356
-7.388275
-6.713867
-5.821594
-5.299896
-5.651001
-7.129242
-9.63092
-12.70343
-15.59848
-17.48563
-17.62067
-15.6134
-11.50989
-5.761902
0.9369812
7.911407
14.61557
20.70547
25.92853
30.02786
32.73956
33.88281
33.51669
31.99451
29.90793
27.84235
26.17761
24.97131
24.03421
23.10181
21.99127
20.69046
19.31216
17.97992
16.75537
15.57071
14.2868
12.73065
10.73132
8.16449
4.945709
1.07785
-3.300598
-7.953094
-12.58701
-16.93851
-20.88724
-24.47046
-27.88245
-31.39734
-35.24084
-39.45984
-43.80417
-47.72574
-50.42697
-51.06973
-49.01306
-44.00562
-36.30746
-26.60959
-15.87064
-5.078644
4.970154
13.78165
21.1514
27.03036
31.40979
34.26682
35.5965
35.51419
34.31088
32.45377
30.46683
28.77225
27.54636
26.70071
25.94162
24.9447
23.52283
21.69043
19.6145
17.52252
15.55847
13.69434
11.77295
9.584442
6.968903
3.963989
0.79422
-2.215973
-4.795685
-6.883331
-8.636536
-10.33932
-12.30652
-14.7561
-17.76614
-21.27847
-25.13846
-29.06726
-32.63968
-35.27164
-36.26309
-35.03293
-31.2973
-25.23969
-17.51096
-9.035156
-0.781189
6.453064
12.20535
16.30573
18.81708
19.96112
20.08765
19.59991
18.93137
18.46896
18.43927
18.8725
19.6098
20.36819
20.89557
21.08289
20.96402
20.68399
20.3689
20.03647
19.59006
18.87317
17.73776
16.14282
14.12015
11.76746
9.233215
6.666718
4.182648
1.823883
-0.5250244
-3.10141
-6.216034
-10.082
-14.59378
-19.2424
-23.18121
-25.49731
-25.51617
-23.05496
-18.45724
-12.44485
-5.858307
0.5536499
6.235474
10.81943
14.0464
15.77359
16.01283
14.98291
13.09375
10.86823
8.776688
7.105896
5.90892
5.092468
4.518692
4.11261
3.85994
3.728867
3.597061
3.235306
2.384201
0.8851166
-1.232681
-3.75885
-6.378372
-8.815826
-10.94014
-12.80087
-14.56886
-16.44585
-18.60199
-21.10995
-23.95087
-26.99985
-29.98705
-32.49501
-34.00015
-33.95494
-31.91948
-27.74544
-21.66637
-14.28798
-6.429901
1.08638
7.611893
12.80794
16.5295
18.77328
19.56721
18.94096
17.01973
14.1082
10.71242
7.46344
4.952332
3.558792
3.344894
4.088562
5.409714
6.905243
8.252686
9.243805
9.734177
9.63942
8.903473
7.515564
5.554413
3.146698
0.4234619
-2.564011
-5.861282
-9.611404
-13.92603
-18.80762
-24.00836
-29.03609
-33.19531
-35.70529
-35.97087
-33.69664
-29.02214
-22.48154
-14.86613
-7.012955
0.3774261
6.803406
12.00273
15.8423
18.29144
19.38388
19.2506
18.15405
16.47375
14.64661
13.03787
11.84891
11.06316
10.50708
9.970169
9.298553
8.460236
7.500046
6.470856
5.355682
4.031387
2.338531
0.1878052
-2.374329
-5.143051
-7.842041
-10.27245
-12.40388
-14.37248
-16.44217
-18.88728
-21.8217
-25.14113
-28.47475
-31.20401
-32.61406
-32.08429
-29.23868
-24.12968
-17.24278
-9.34726
-1.324158
6.069092
12.34778
17.29897
20.92461
23.33182
24.62642
24.90828
24.31755
23.08275
21.51755
19.97897
18.74132
17.91853
17.44061
17.09265
16.6424
15.96233
15.04909
14.04034
13.07402
12.20193
11.33504
10.32321
9.044312
7.516968
5.934113
4.583481
3.737061
3.488754
3.704117
4.032211
4.021706
3.243172
1.385277
-1.655304
-5.7883
-10.70794
-15.93705
-20.8531
-24.75719
-27.02869
-27.26348
-25.44811
-21.93674
-17.40498
-12.58778
-8.066895
-4.149834
-0.9165268
1.660042
3.584473
4.786896
5.238647
5.00782
4.353882
3.655548
3.280548
3.467438
4.260376
5.593414
7.309631
9.246445
11.21105
12.95586
14.2422
14.85394
14.64834
13.5957
11.76064
9.221741
6.097198
2.574501
-1.109673
-4.617004
-7.623032
-9.924492
-11.54546
-12.75661
-13.98691
-15.65107
-17.97926
-20.9297
-24.17635
-27.19781
-29.43043
-30.36803
-29.66154
-27.18341
-23.00208
-17.39175
-10.81495
-3.835449
2.950829
8.99498
13.91045
17.48002
19.63335
20.45493
20.13271
18.96106
17.29736
15.52395
13.96145
12.83541
12.21926
12.02756
12.09151
12.21883
12.21924
11.94958
11.32059
10.25777
8.810978
7.159878
5.535961
4.211502
3.348656
2.948078
2.846157
2.785561
2.56168
2.10651
1.520924
0.9640121
0.5585098
0.254837
-0.1835594
-1.094093
-2.76012
-5.2957
-8.588284
-12.33875
-16.14138
-19.52375
-21.98577
-23.02299
-22.20169
-19.28097
-14.35243
-7.849773
-0.4799156
6.985361
13.93986
20.01628
25.0671
29.06409
31.94339
33.64137
34.15393
33.62623
32.35651
30.692
28.93157
27.20248
25.51469
23.81122
22.04589
20.23447
18.40764
16.5437
14.5583
12.36374
9.909381
7.248583
4.505468
1.815794
-0.7368374
-3.140865
-5.469662
-7.815651
-10.24318
-12.76052
-15.32619
-17.86129
-20.28259
-22.52805
-24.56116
-26.38371
-28.0509
-29.67162
-31.37366
-33.23933
-35.27427
-37.31402
-38.98994
-39.76125
-39.05277
-36.45449
-31.92458
-25.84948
-18.91045
-11.89263
-5.417549
0.1538696
4.734352
8.344879
11.00462
12.69765
13.40556
13.25268
12.49261
11.48408
10.51961
9.769119
9.220978
8.785477
8.389893
8.028694
7.729973
7.484459
7.218727
6.78965
6.052071
4.977959
3.655411
2.281158
1.070992
0.1500854
-0.4907532
-0.9664383
-1.452782
-2.132805
-3.09713
-4.35376
-5.825768
-7.385376
-8.910896
-10.36221
-11.81729
-13.46521
-15.53626
-18.15869
-21.27515
-24.61054
-27.71393
-30.00091
-30.92544
-30.04642
-27.1949
-22.50925
-16.4501
-9.726837
-3.086456
2.865273
7.78717
11.64922
14.63269
16.92397
18.6397
19.79424
20.33266
20.274
19.72599
18.88408
17.9514
17.11063
16.42464
15.89665
15.47048
15.08428
14.68912
14.24496
13.70796
13.01141
12.11156
10.99737
9.717316
8.406181
7.189102
6.146576
5.223831
4.238388
2.957581
1.227966
-0.9493256
-3.423904
-5.974136
-8.40097
-10.60289
-12.58569
-14.41269
-16.18681
-18.04349
-20.06383
-22.25034
-24.43127
-26.22615
-27.06564
-26.40289
-23.88379
-19.54436
-13.82642
-7.444199
-1.169495
4.399384
8.924393
12.31284
14.636
16.01416
16.54311
16.30664
15.43582
14.1288
12.674
11.34431
10.34381
9.740051
9.460266
9.331146
9.171082
8.845566
8.290405
7.511475
6.56691
5.498169
4.352631
3.185562
2.029099
0.8998871
-0.2014771
-1.314163
-2.470901
-3.723969
-5.13295
-6.726181
-8.488098
-10.33453
-12.15712
-13.82591
-15.29005
-16.60571
-18.00774
-19.76604
-22.06512
-24.79228
-27.46043
-29.33916
-29.67159
-27.98822
-24.28044
-18.98607
-12.80576
-6.473129
-0.58078
4.48851
8.543335
11.53452
13.49486
14.52197
14.74188
14.31737
13.44193
12.29576
11.08952
10.04167
9.341522
9.084656
9.208893
9.511734
9.715836
9.602112
9.077835
8.26886
7.38797
6.648132
6.09491
5.61557
4.987152
4.016052
2.637314
0.9314423
-0.9174805
-2.757599
-4.546814
-6.359146
-8.289093
-10.38228
-12.60017
-14.87079
-17.16566
-19.48894
-21.87119
-24.22588
-26.28322
-27.57852
-27.58908
-25.9119
-22.45763
-17.53323
-11.74644
-5.849472
-0.4981232
3.909058
7.246262
9.553299
10.92395
11.46494
11.27257
10.52931
9.516296
8.583939
8.028976
7.979752
8.311844
8.755966
9.033966
8.98468
8.633194
8.109756
7.595627
7.17688
6.812393
6.340012
5.555374
4.316605
2.574356
0.4346619
-1.908127
-4.18132
-6.165146
-7.755402
-9.027328
-10.20491
-11.5631
-13.33447
-15.59439
-18.25327
-21.04471
-23.59956
-25.46677
-26.20975
-25.47772
-23.12015
-19.26013
-14.30141
-8.831268
-3.444443
1.397766
5.44841
8.636627
10.9355
12.31622
12.74464
12.24352
10.98631
9.311829
7.663147
6.430801
5.859146
5.948441
6.52301
7.329666
8.139771
8.83194
9.326202
9.575806
9.460876
8.849625
7.612885
5.734604
3.382523
0.8987122
-1.346771
-3.13913
-4.526047
-5.790314
-7.322556
-9.429779
-12.21973
-15.56026
-19.11385
-22.45078
-25.10893
-26.6286
-26.58791
-24.71335
-20.95531
-15.59012
-9.183731
-2.494217
3.732864
8.937759
12.85725
15.51743
17.091
17.81827
17.87581
17.41132
16.51244
15.29964
13.90437
12.5072
11.27591
10.28151
9.546524
9.016663
8.590744
8.169174
7.656998
6.930923
5.869553
4.358307
2.364349
-0.03993225
-2.683121
-5.351891
-7.900291
-10.27862
-12.57778
-14.96862
-17.62449
-20.63052
-23.89464
-27.12949
-29.83555
-31.42487
-31.33714
-29.23672
-25.16077
-19.49995
-12.90771
-6.074203
0.4103622
6.158905
10.94227
14.64068
17.16811
18.50687
18.75771
18.14912
17.02967
15.73104
14.50762
13.46254
12.6002
11.87285
11.22733
10.65307
10.118
9.560707
8.853653
7.834106
6.363228
4.41436
2.11116
-0.3077927
-2.564308
-4.513405
-6.20813
-7.886566
-9.83522
-12.2795
-15.24556
-18.55302
-21.86142
-24.72822
-26.69931
-27.3307
-26.25623
-23.25098
-18.3647
-11.98111
-4.772015
2.429668
8.884033
14.07974
17.83101
20.21002
21.4388
21.77401
21.4668
20.73613
19.78556
18.76627
17.77824
16.84885
15.96898
15.14517
14.40549
13.79785
13.31546
12.81878
12.08185
10.85964
9.052275
6.735907
4.154049
1.584415
-0.7851982
-2.954088
-5.063145
-7.2869
-9.774784
-12.5741
-15.68124
-19.06115
-22.59904
-26.00772
-28.80715
-30.37609
-30.13115
-27.74467
-23.27628
-17.16273
-10.05698
-2.678036
4.390608
10.73915
16.09431
20.30119
23.25051
24.86984
25.19989
24.43087
22.88645
20.97007
19.07765
17.46304
16.19388
15.16523
14.19092
13.09575
11.82695
10.42232
8.940653
7.397767
5.71993
3.784477
1.500462
-1.117229
-3.949831
-6.789433
-9.430067
-11.73343
-13.69508
-15.48297
-17.39803
-19.76713
-22.78208
-26.333
-29.93648
-32.81612
-34.14465
-33.30565
-30.13126
-24.91549
-18.2639
-10.88742
-3.385052
3.817005
10.39119
16.04829
20.50714
23.53853
25.05679
25.20255
24.30726
22.83253
21.22911
19.84604
18.83263
18.17945
17.7531
17.35094
16.83525
16.14085
15.28769
14.33238
13.28836
12.05046
10.43684
8.29475
5.565533
2.404381
-0.9069366
-4.061378
-6.856522
-9.29319
-11.55298
-13.9247
-16.66786
-19.95097
-23.79945
-28.08591
-32.5218
-36.66293
-39.92895
-41.69118
-41.40592
-38.74332
-33.73153
-26.71658
-18.33496
-9.300316
-0.257019
8.305756
16.08824
22.87938
28.48013
32.67219
35.28141
36.28511
35.90128
34.59245
32.93521
31.44514
30.42055
29.86258
29.53316
29.09274
28.24713
26.85545
24.98674
22.81858
20.57303
18.40546
16.34653
14.313
12.19802
9.930634
7.548592
5.162697
2.852516
0.6362228
-1.557747
-3.803841
-6.105019
-8.407967
-10.63058
-12.77103
-14.92958
-17.28407
-19.99266
-23.02972
-26.15814
-28.91332
-30.68983
-30.90927
-29.18446
-25.4235
-19.892
-13.1622
-5.945351
1.080727
7.439857
12.90334
17.39055
20.87505
23.30102
24.62683
24.93198
24.4479
23.5536
22.62579
21.9276
21.53897
21.37853
21.28981
21.13496
20.86716
20.49771
20.02294
19.39622
18.52317
17.31583
15.74483
13.87386
11.81752
9.737434
7.777306
5.993927
4.345612
2.693993
0.8765564
-1.2276
-3.618622
-6.195724
-8.819252
-11.36858
-13.81163
-16.20376
-18.64461
-21.23348
-24.03266
-26.99377
-29.95453
-32.62913
-34.57828
-35.29518
-34.27297
-31.22288
-26.18188
-19.56067
-12.03842
-4.312866
3.042572
9.6744
15.39819
20.09782
23.62877
25.8728
26.79424
26.58791
25.65599
24.5162
23.63927
23.2505
23.29859
23.52184
23.6159
23.38937
22.85654
22.14781
21.41576
20.684
19.83753
18.66628
16.9994
14.84471
12.39395
9.933277
7.72897
5.855476
4.220875
2.606319
0.7797394
-1.377514
-3.80048
-6.273449
-8.539165
-10.40241
-11.88824
-13.17031
-14.53906
-16.2466
-18.39971
-20.91545
-23.54223
-25.9342
-27.70151
-28.48681
-27.98202
-25.99092
-22.49716
-17.65462
-11.83009
-5.51638
0.7609444
6.563795
11.53734
15.48931
18.31042
19.99429
20.65244
20.45938
19.68213
18.5859
17.41068
16.31531
15.37055
14.59912
13.99601
13.57337
13.30821
13.16635
13.04803
12.79907
12.24412
11.25399
9.807239
7.962037
5.896238
3.781815
1.781599
-0.00041008
-1.566172
-2.989975
-4.415228
-5.99
-7.821312
-9.879719
-12.02893
-14.05341
-15.75136
-17.04992
-18.01152
-18.8312
-19.71907
-20.85022
-22.27243
-23.87632
-25.39402
-26.42678
-26.51731
-25.25511
-22.44332
-18.165
-12.80875
-6.935837
-1.129578
4.18856
8.818771
12.68642
15.79464
18.12745
19.64263
20.33071
20.29472
19.7475
18.98652
18.27364
17.76365
