1568794955.57016
1568794955.58579
1568794955.60141
1568794955.61704
1568794955.63266
1568794955.64829
1568794955.66392
1568794955.67954
1568794955.69517
1568794955.71079
1568794955.72642
1568794955.74204
1568794955.75767
1568794955.7733
1568794955.78892
1568794955.80455
1568794955.82017
1568794955.8358
1568794955.85142
1568794955.86705
1568794955.88268
1568794955.8983
1568794955.91393
1568794955.92955
1568794955.94518
1568794955.9608
1568794955.97643
1568794955.99206
1568794956.00768
1568794956.02331
1568794956.03893
1568794956.05456
1568794956.07018
1568794956.08581
1568794956.10144
1568794956.11706
1568794956.13269
1568794956.14831
1568794956.16394
1568794956.17956
1568794956.19519
1568794956.21082
1568794956.22644
1568794956.24207
1568794956.25769
1568794956.27332
1568794956.28894
1568794956.30457
1568794956.3202
1568794956.33582
1568794956.35145
1568794956.36707
1568794956.3827
1568794956.39832
1568794956.41395
1568794956.42958
1568794956.4452
1568794956.46083
1568794956.47645
1568794956.49208
1568794956.5077
1568794956.52333
1568794956.53896
1568794956.55458
1568794956.57021
1568794956.58583
1568794956.60146
1568794956.61708
1568794956.63271
1568794956.64834
1568794956.66396
1568794956.67959
1568794956.69521
1568794956.71084
1568794956.72646
1568794956.74209
1568794956.75772
1568794956.77334
1568794956.78897
1568794956.80459
1568794956.82022
1568794956.83584
1568794956.85147
1568794956.8671
1568794956.88272
1568794956.89835
1568794956.91397
1568794956.9296
1568794956.94522
1568794956.96085
1568794956.97648
1568794956.9921
1568794957.00773
1568794957.02335
1568794957.03898
1568794957.0546
1568794957.07023
1568794957.08586
1568794957.10148
1568794957.11711
1568794957.13273
1568794957.14836
1568794957.16398
1568794957.17961
1568794957.19524
1568794957.21086
1568794957.22649
1568794957.24211
1568794957.25774
1568794957.27336
1568794957.28899
1568794957.30462
1568794957.32024
1568794957.33587
1568794957.35149
1568794957.36712
1568794957.38274
1568794957.39837
1568794957.414
1568794957.42962
1568794957.44525
1568794957.46087
1568794957.4765
1568794957.49212
1568794957.50775
1568794957.52338
1568794957.539
1568794957.55463
1568794957.57025
1568794957.58588
1568794957.6015
1568794957.61713
1568794957.63276
1568794957.64838
1568794957.66401
1568794957.67963
1568794957.69526
1568794957.71088
1568794957.72651
1568794957.74214
1568794957.75776
1568794957.77339
1568794957.78901
1568794957.80464
1568794957.82026
1568794957.83589
1568794957.85152
1568794957.86714
1568794957.88277
1568794957.89839
1568794957.91402
1568794957.92965
1568794957.94527
1568794957.9609
1568794957.97652
1568794957.99215
1568794958.00777
1568794958.0234
1568794958.03903
1568794958.05465
1568794958.07028
1568794958.0859
1568794958.10153
1568794958.11715
1568794958.13278
1568794958.14841
1568794958.16403
1568794958.17966
1568794958.19528
1568794958.21091
1568794958.22653
1568794958.24216
1568794958.25779
1568794958.27341
1568794958.28904
1568794958.30466
1568794958.32029
1568794958.33591
1568794958.35154
1568794958.36717
1568794958.38279
1568794958.39842
1568794958.41404
1568794958.42967
1568794958.44529
1568794958.46092
1568794958.47655
1568794958.49217
1568794958.5078
1568794958.52342
1568794958.53905
1568794958.55467
1568794958.5703
1568794958.58593
1568794958.60155
1568794958.61718
1568794958.6328
1568794958.64843
1568794958.66405
1568794958.67968
1568794958.69531
1568794958.71093
1568794958.72656
1568794958.74218
1568794958.75781
1568794958.77343
1568794958.78906
1568794958.80469
1568794958.82031
1568794958.83594
1568794958.85156
1568794958.86719
1568794958.88281
1568794958.89844
1568794958.91407
1568794958.92969
1568794958.94532
1568794958.96094
1568794958.97657
1568794958.99219
1568794959.00782
1568794959.02345
1568794959.03907
1568794959.0547
1568794959.07032
1568794959.08595
1568794959.10157
1568794959.1172
1568794959.13283
1568794959.14845
1568794959.16408
1568794959.1797
1568794959.19533
1568794959.21095
1568794959.22658
1568794959.24221
1568794959.25783
1568794959.27346
1568794959.28908
1568794959.30471
1568794959.32033
1568794959.33596
1568794959.35159
1568794959.36721
1568794959.38284
1568794959.39846
1568794959.41409
1568794959.42971
1568794959.44534
1568794959.46097
1568794959.47659
1568794959.49222
1568794959.50784
1568794959.52347
1568794959.53909
1568794959.55472
1568794959.57035
1568794959.58597
1568794959.6016
1568794959.61722
1568794959.63285
1568794959.64847
1568794959.6641
1568794959.67973
1568794959.69535
1568794959.71098
1568794959.7266
1568794959.74223
1568794959.75785
1568794959.77348
1568794959.78911
1568794959.80473
1568794959.82036
1568794959.83598
1568794959.85161
1568794959.86723
1568794959.88286
1568794959.89849
1568794959.91411
1568794959.92974
1568794959.94536
1568794959.96099
1568794959.97661
1568794959.99224
1568794960.00787
1568794960.02349
1568794960.03912
1568794960.05474
1568794960.07037
1568794960.08599
1568794960.10162
1568794960.11725
1568794960.13287
1568794960.1485
1568794960.16412
1568794960.17975
1568794960.19537
1568794960.211
1568794960.22663
1568794960.24225
1568794960.25788
1568794960.2735
1568794960.28913
1568794960.30475
1568794960.32038
1568794960.33601
1568794960.35163
1568794960.36726
1568794960.38288
1568794960.39851
1568794960.41413
1568794960.42976
1568794960.44539
1568794960.46101
1568794960.47664
1568794960.49226
1568794960.50789
1568794960.52352
1568794960.53914
1568794960.55477
1568794960.57039
1568794960.58602
1568794960.60164
1568794960.61727
1568794960.6329
1568794960.64852
1568794960.66415
1568794960.67977
1568794960.6954
1568794960.71102
1568794960.72665
1568794960.74228
1568794960.7579
1568794960.77353
1568794960.78915
1568794960.80478
1568794960.8204
1568794960.83603
1568794960.85166
1568794960.86728
1568794960.88291
1568794960.89853
1568794960.91416
1568794960.92978
1568794960.94541
1568794960.96104
1568794960.97666
1568794960.99229
1568794961.00791
1568794961.02354
1568794961.03916
1568794961.05479
1568794961.07042
1568794961.08604
1568794961.10167
1568794961.11729
1568794961.13292
1568794961.14854
1568794961.16417
1568794961.1798
1568794961.19542
1568794961.21105
1568794961.22667
1568794961.2423
1568794961.25792
1568794961.27355
1568794961.28918
1568794961.3048
1568794961.32043
1568794961.33605
1568794961.35168
1568794961.3673
1568794961.38293
1568794961.39856
1568794961.41418
1568794961.42981
1568794961.44543
1568794961.46106
1568794961.47668
1568794961.49231
1568794961.50794
1568794961.52356
1568794961.53919
1568794961.55481
1568794961.57044
1568794961.58606
1568794961.60169
1568794961.61732
1568794961.63294
1568794961.64857
1568794961.66419
1568794961.67982
1568794961.69544
1568794961.71107
1568794961.7267
1568794961.74232
1568794961.75795
1568794961.77357
1568794961.7892
1568794961.80482
1568794961.82045
1568794961.83608
1568794961.8517
1568794961.86733
1568794961.88295
1568794961.89858
1568794961.9142
1568794961.92983
1568794961.94546
1568794961.96108
1568794961.97671
1568794961.99233
1568794962.00796
1568794962.02358
1568794962.03921
1568794962.05484
1568794962.07046
1568794962.08609
1568794962.10171
1568794962.11734
1568794962.13296
1568794962.14859
1568794962.16422
1568794962.17984
1568794962.19547
1568794962.21109
1568794962.22672
1568794962.24234
1568794962.25797
1568794962.2736
1568794962.28922
1568794962.30485
1568794962.32047
1568794962.3361
1568794962.35172
1568794962.36735
1568794962.38298
1568794962.3986
1568794962.41423
1568794962.42985
1568794962.44548
1568794962.4611
1568794962.47673
1568794962.49236
1568794962.50798
1568794962.52361
1568794962.53923
1568794962.55486
1568794962.57048
1568794962.58611
1568794962.60174
1568794962.61736
1568794962.63299
1568794962.64861
1568794962.66424
1568794962.67986
1568794962.69549
1568794962.71112
1568794962.72674
1568794962.74237
1568794962.75799
1568794962.77362
1568794962.78925
1568794962.80487
1568794962.8205
1568794962.83612
1568794962.85175
1568794962.86737
1568794962.883
1568794962.89863
1568794962.91425
1568794962.92988
1568794962.9455
1568794962.96113
1568794962.97675
1568794962.99238
1568794963.00801
1568794963.02363
1568794963.03926
1568794963.05488
1568794963.07051
1568794963.08613
1568794963.10176
1568794963.11739
1568794963.13301
1568794963.14864
1568794963.16426
1568794963.17989
1568794963.19551
1568794963.21114
1568794963.22677
1568794963.24239
1568794963.25802
1568794963.27364
1568794963.28927
1568794963.30489
1568794963.32052
1568794963.33615
1568794963.35177
1568794963.3674
1568794963.38302
1568794963.39865
1568794963.41427
1568794963.4299
1568794963.44553
1568794963.46115
1568794963.47678
1568794963.4924
1568794963.50803
1568794963.52365
1568794963.53928
1568794963.55491
1568794963.57053
1568794963.58616
1568794963.60178
1568794963.61741
1568794963.63303
1568794963.64866
1568794963.66429
1568794963.67991
1568794963.69554
1568794963.71116
1568794963.72679
1568794963.74241
1568794963.75804
1568794963.77367
1568794963.78929
1568794963.80492
1568794963.82054
1568794963.83617
1568794963.85179
1568794963.86742
1568794963.88305
1568794963.89867
1568794963.9143
1568794963.92992
1568794963.94555
1568794963.96117
1568794963.9768
1568794963.99243
1568794964.00805
1568794964.02368
1568794964.0393
1568794964.05493
1568794964.07055
1568794964.08618
1568794964.10181
1568794964.11743
1568794964.13306
1568794964.14868
1568794964.16431
1568794964.17993
1568794964.19556
1568794964.21119
1568794964.22681
1568794964.24244
1568794964.25806
1568794964.27369
1568794964.28931
1568794964.30494
1568794964.32057
1568794964.33619
1568794964.35182
1568794964.36744
1568794964.38307
1568794964.39869
1568794964.41432
1568794964.42995
1568794964.44557
1568794964.4612
1568794964.47682
1568794964.49245
1568794964.50807
1568794964.5237
1568794964.53933
1568794964.55495
1568794964.57058
1568794964.5862
1568794964.60183
1568794964.61745
1568794964.63308
1568794964.64871
1568794964.66433
1568794964.67996
1568794964.69558
1568794964.71121
1568794964.72683
1568794964.74246
1568794964.75809
1568794964.77371
1568794964.78934
1568794964.80496
1568794964.82059
1568794964.83621
1568794964.85184
1568794964.86747
1568794964.88309
1568794964.89872
1568794964.91434
1568794964.92997
1568794964.9456
1568794964.96122
1568794964.97685
1568794964.99247
1568794965.0081
1568794965.02372
1568794965.03935
1568794965.05498
1568794965.0706
1568794965.08623
1568794965.10185
1568794965.11748
1568794965.1331
1568794965.14873
1568794965.16436
1568794965.17998
1568794965.19561
1568794965.21123
1568794965.22686
1568794965.24248
1568794965.25811
1568794965.27374
1568794965.28936
1568794965.30499
1568794965.32061
1568794965.33624
1568794965.35186
1568794965.36749
1568794965.38312
1568794965.39874
1568794965.41437
1568794965.42999
1568794965.44562
1568794965.46124
1568794965.47687
1568794965.4925
1568794965.50812
1568794965.52375
1568794965.53937
1568794965.555
1568794965.57062
1568794965.58625
1568794965.60188
1568794965.6175
1568794965.63313
1568794965.64875
1568794965.66438
1568794965.68
1568794965.69563
1568794965.71126
1568794965.72688
1568794965.74251
1568794965.75813
1568794965.77376
1568794965.78938
1568794965.80501
1568794965.82064
1568794965.83626
1568794965.85189
1568794965.86751
1568794965.88314
1568794965.89876
1568794965.91439
1568794965.93002
1568794965.94564
1568794965.96127
1568794965.97689
1568794965.99252
1568794966.00814
1568794966.02377
1568794966.0394
1568794966.05502
1568794966.07065
1568794966.08627
1568794966.1019
1568794966.11752
1568794966.13315
1568794966.14878
1568794966.1644
1568794966.18003
1568794966.19565
1568794966.21128
1568794966.2269
1568794966.24253
1568794966.25816
1568794966.27378
1568794966.28941
1568794966.30503
1568794966.32066
1568794966.33628
1568794966.35191
1568794966.36754
1568794966.38316
1568794966.39879
1568794966.41441
1568794966.43004
1568794966.44566
1568794966.46129
1568794966.47692
1568794966.49254
1568794966.50817
1568794966.52379
1568794966.53942
1568794966.55504
1568794966.57067
1568794966.5863
1568794966.60192
1568794966.61755
1568794966.63317
1568794966.6488
1568794966.66442
1568794966.68005
1568794966.69568
1568794966.7113
1568794966.72693
1568794966.74255
1568794966.75818
1568794966.7738
1568794966.78943
1568794966.80506
1568794966.82068
1568794966.83631
1568794966.85193
1568794966.86756
1568794966.88318
1568794966.89881
1568794966.91444
1568794966.93006
1568794966.94569
1568794966.96131
1568794966.97694
1568794966.99256
1568794967.00819
1568794967.02382
1568794967.03944
1568794967.05507
1568794967.07069
1568794967.08632
1568794967.10194
1568794967.11757
1568794967.1332
1568794967.14882
1568794967.16445
1568794967.18007
1568794967.1957
1568794967.21132
1568794967.22695
1568794967.24258
1568794967.2582
1568794967.27383
1568794967.28945
1568794967.30508
1568794967.3207
1568794967.33633
1568794967.35196
1568794967.36758
1568794967.38321
1568794967.39883
1568794967.41446
1568794967.43008
1568794967.44571
1568794967.46134
1568794967.47696
1568794967.49259
1568794967.50821
1568794967.52384
1568794967.53946
1568794967.55509
1568794967.57072
1568794967.58634
1568794967.60197
1568794967.61759
1568794967.63322
1568794967.64885
1568794967.66447
1568794967.6801
1568794967.69572
1568794967.71135
1568794967.72697
1568794967.7426
1568794967.75823
1568794967.77385
1568794967.78948
1568794967.8051
1568794967.82073
1568794967.83635
1568794967.85198
1568794967.86761
1568794967.88323
1568794967.89886
1568794967.91448
1568794967.93011
1568794967.94573
1568794967.96136
1568794967.97699
1568794967.99261
1568794968.00824
1568794968.02386
1568794968.03949
1568794968.05511
1568794968.07074
1568794968.08637
1568794968.10199
1568794968.11762
1568794968.13324
1568794968.14887
1568794968.16449
1568794968.18012
1568794968.19575
1568794968.21137
1568794968.227
1568794968.24262
1568794968.25825
1568794968.27387
1568794968.2895
1568794968.30513
1568794968.32075
1568794968.33638
1568794968.352
1568794968.36763
1568794968.38325
1568794968.39888
1568794968.41451
1568794968.43013
1568794968.44576
1568794968.46138
1568794968.47701
1568794968.49263
1568794968.50826
1568794968.52389
1568794968.53951
1568794968.55514
1568794968.57076
1568794968.58639
1568794968.60201
1568794968.61764
1568794968.63327
1568794968.64889
1568794968.66452
1568794968.68014
1568794968.69577
1568794968.71139
1568794968.72702
1568794968.74265
1568794968.75827
1568794968.7739
1568794968.78952
1568794968.80515
1568794968.82077
1568794968.8364
1568794968.85203
1568794968.86765
1568794968.88328
1568794968.8989
1568794968.91453
1568794968.93015
1568794968.94578
1568794968.96141
1568794968.97703
1568794968.99266
1568794969.00828
1568794969.02391
1568794969.03953
1568794969.05516
1568794969.07079
1568794969.08641
1568794969.10204
1568794969.11766
1568794969.13329
1568794969.14891
1568794969.16454
1568794969.18017
1568794969.19579
1568794969.21142
1568794969.22704
1568794969.24267
1568794969.25829
1568794969.27392
1568794969.28955
1568794969.30517
1568794969.3208
1568794969.33642
1568794969.35205
1568794969.36767
1568794969.3833
1568794969.39893
1568794969.41455
1568794969.43018
1568794969.4458
1568794969.46143
1568794969.47705
1568794969.49268
1568794969.50831
1568794969.52393
1568794969.53956
1568794969.55518
1568794969.57081
1568794969.58643
1568794969.60206
1568794969.61769
1568794969.63331
1568794969.64894
1568794969.66456
1568794969.68019
1568794969.69581
1568794969.71144
1568794969.72707
1568794969.74269
1568794969.75832
1568794969.77394
1568794969.78957
1568794969.80519
1568794969.82082
1568794969.83645
1568794969.85207
1568794969.8677
1568794969.88332
1568794969.89895
1568794969.91458
1568794969.9302
1568794969.94583
1568794969.96145
1568794969.97708
1568794969.9927
1568794970.00833
1568794970.02396
1568794970.03958
1568794970.05521
1568794970.07083
1568794970.08646
1568794970.10208
1568794970.11771
1568794970.13334
1568794970.14896
1568794970.16459
1568794970.18021
1568794970.19584
1568794970.21146
1568794970.22709
1568794970.24272
1568794970.25834
1568794970.27397
1568794970.28959
1568794970.30522
1568794970.32084
1568794970.33647
1568794970.3521
1568794970.36772
1568794970.38335
1568794970.39897
1568794970.4146
1568794970.43022
1568794970.44585
1568794970.46148
1568794970.4771
1568794970.49273
1568794970.50835
1568794970.52398
1568794970.5396
1568794970.55523
1568794970.57086
1568794970.58648
1568794970.60211
1568794970.61773
1568794970.63336
1568794970.64898
1568794970.66461
1568794970.68024
1568794970.69586
1568794970.71149
1568794970.72711
1568794970.74274
1568794970.75836
1568794970.77399
1568794970.78962
1568794970.80524
1568794970.82087
1568794970.83649
1568794970.85212
1568794970.86774
1568794970.88337
1568794970.899
1568794970.91462
1568794970.93025
1568794970.94587
1568794970.9615
1568794970.97712
1568794970.99275
1568794971.00838
1568794971.024
1568794971.03963
1568794971.05525
1568794971.07088
1568794971.0865
1568794971.10213
1568794971.11776
1568794971.13338
1568794971.14901
1568794971.16463
1568794971.18026
1568794971.19588
1568794971.21151
1568794971.22714
1568794971.24276
1568794971.25839
1568794971.27401
1568794971.28964
1568794971.30526
1568794971.32089
1568794971.33652
1568794971.35214
1568794971.36777
1568794971.38339
1568794971.39902
1568794971.41464
1568794971.43027
1568794971.4459
1568794971.46152
1568794971.47715
1568794971.49277
1568794971.5084
1568794971.52402
1568794971.53965
1568794971.55528
1568794971.5709
1568794971.58653
1568794971.60215
1568794971.61778
1568794971.6334
1568794971.64903
1568794971.66466
1568794971.68028
1568794971.69591
1568794971.71153
1568794971.72716
1568794971.74278
1568794971.75841
1568794971.77404
1568794971.78966
1568794971.80529
1568794971.82091
1568794971.83654
1568794971.85216
1568794971.86779
1568794971.88342
1568794971.89904
1568794971.91467
1568794971.93029
1568794971.94592
1568794971.96154
1568794971.97717
1568794971.9928
1568794972.00842
1568794972.02405
1568794972.03967
1568794972.0553
1568794972.07093
1568794972.08655
1568794972.10218
1568794972.1178
1568794972.13343
1568794972.14905
1568794972.16468
1568794972.18031
1568794972.19593
1568794972.21156
1568794972.22718
1568794972.24281
1568794972.25843
1568794972.27406
1568794972.28969
1568794972.30531
1568794972.32094
1568794972.33656
1568794972.35219
1568794972.36781
1568794972.38344
1568794972.39907
1568794972.41469
1568794972.43032
1568794972.44594
1568794972.46157
1568794972.47719
1568794972.49282
1568794972.50845
1568794972.52407
1568794972.5397
1568794972.55532
1568794972.57095
1568794972.58657
1568794972.6022
1568794972.61783
1568794972.63345
1568794972.64908
1568794972.6647
1568794972.68033
1568794972.69595
1568794972.71158
1568794972.72721
1568794972.74283
1568794972.75846
1568794972.77408
1568794972.78971
1568794972.80533
1568794972.82096
1568794972.83659
1568794972.85221
1568794972.86784
1568794972.88346
1568794972.89909
1568794972.91471
1568794972.93034
1568794972.94597
1568794972.96159
1568794972.97722
1568794972.99284
1568794973.00847
1568794973.02409
1568794973.03972
1568794973.05535
1568794973.07097
1568794973.0866
1568794973.10222
1568794973.11785
1568794973.13347
1568794973.1491
1568794973.16473
1568794973.18035
1568794973.19598
1568794973.2116
1568794973.22723
1568794973.24285
1568794973.25848
1568794973.27411
1568794973.28973
1568794973.30536
1568794973.32098
1568794973.33661
1568794973.35223
1568794973.36786
1568794973.38349
1568794973.39911
1568794973.41474
1568794973.43036
1568794973.44599
1568794973.46161
1568794973.47724
1568794973.49287
1568794973.50849
1568794973.52412
1568794973.53974
1568794973.55537
1568794973.57099
1568794973.58662
1568794973.60225
1568794973.61787
1568794973.6335
1568794973.64912
1568794973.66475
1568794973.68037
1568794973.696
1568794973.71163
1568794973.72725
1568794973.74288
1568794973.7585
1568794973.77413
1568794973.78975
1568794973.80538
1568794973.82101
1568794973.83663
1568794973.85226
1568794973.86788
1568794973.88351
1568794973.89913
1568794973.91476
1568794973.93039
1568794973.94601
1568794973.96164
1568794973.97726
1568794973.99289
1568794974.00851
1568794974.02414
1568794974.03977
1568794974.05539
1568794974.07102
1568794974.08664
1568794974.10227
1568794974.11789
1568794974.13352
1568794974.14915
1568794974.16477
1568794974.1804
1568794974.19602
1568794974.21165
1568794974.22727
1568794974.2429
1568794974.25853
1568794974.27415
1568794974.28978
1568794974.3054
1568794974.32103
1568794974.33665
1568794974.35228
1568794974.36791
1568794974.38353
1568794974.39916
1568794974.41478
1568794974.43041
1568794974.44603
1568794974.46166
1568794974.47729
1568794974.49291
1568794974.50854
1568794974.52416
1568794974.53979
1568794974.55541
1568794974.57104
1568794974.58667
1568794974.60229
1568794974.61792
1568794974.63354
1568794974.64917
1568794974.66479
1568794974.68042
1568794974.69605
1568794974.71167
1568794974.7273
1568794974.74292
1568794974.75855
1568794974.77418
1568794974.7898
1568794974.80543
1568794974.82105
1568794974.83668
1568794974.8523
1568794974.86793
1568794974.88356
1568794974.89918
1568794974.91481
1568794974.93043
1568794974.94606
1568794974.96168
1568794974.97731
1568794974.99294
1568794975.00856
1568794975.02419
1568794975.03981
1568794975.05544
1568794975.07106
1568794975.08669
1568794975.10232
1568794975.11794
1568794975.13357
1568794975.14919
1568794975.16482
1568794975.18044
1568794975.19607
1568794975.2117
1568794975.22732
1568794975.24295
1568794975.25857
1568794975.2742
1568794975.28982
1568794975.30545
1568794975.32108
1568794975.3367
1568794975.35233
1568794975.36795
1568794975.38358
1568794975.3992
1568794975.41483
1568794975.43046
1568794975.44608
1568794975.46171
1568794975.47733
1568794975.49296
1568794975.50858
1568794975.52421
1568794975.53984
1568794975.55546
1568794975.57109
1568794975.58671
1568794975.60234
1568794975.61796
1568794975.63359
1568794975.64922
1568794975.66484
1568794975.68047
1568794975.69609
1568794975.71172
1568794975.72734
1568794975.74297
1568794975.7586
1568794975.77422
1568794975.78985
1568794975.80547
1568794975.8211
1568794975.83672
1568794975.85235
1568794975.86798
1568794975.8836
1568794975.89923
1568794975.91485
1568794975.93048
1568794975.9461
1568794975.96173
1568794975.97736
1568794975.99298
1568794976.00861
1568794976.02423
1568794976.03986
1568794976.05548
1568794976.07111
1568794976.08674
1568794976.10236
1568794976.11799
1568794976.13361
1568794976.14924
1568794976.16486
1568794976.18049
1568794976.19612
1568794976.21174
1568794976.22737
1568794976.24299
1568794976.25862
1568794976.27424
1568794976.28987
1568794976.3055
1568794976.32112
1568794976.33675
1568794976.35237
1568794976.368
1568794976.38362
1568794976.39925
1568794976.41488
1568794976.4305
1568794976.44613
1568794976.46175
1568794976.47738
1568794976.493
1568794976.50863
1568794976.52426
1568794976.53988
1568794976.55551
1568794976.57113
1568794976.58676
1568794976.60238
1568794976.61801
1568794976.63364
1568794976.64926
1568794976.66489
1568794976.68051
1568794976.69614
1568794976.71176
1568794976.72739
1568794976.74302
1568794976.75864
1568794976.77427
1568794976.78989
1568794976.80552
1568794976.82114
1568794976.83677
1568794976.8524
1568794976.86802
1568794976.88365
1568794976.89927
1568794976.9149
1568794976.93053
1568794976.94615
1568794976.96178
1568794976.9774
1568794976.99303
1568794977.00865
1568794977.02428
1568794977.03991
1568794977.05553
1568794977.07116
1568794977.08678
1568794977.10241
1568794977.11803
1568794977.13366
1568794977.14929
1568794977.16491
1568794977.18054
1568794977.19616
1568794977.21179
1568794977.22741
1568794977.24304
1568794977.25867
1568794977.27429
1568794977.28992
1568794977.30554
1568794977.32117
1568794977.33679
1568794977.35242
1568794977.36805
1568794977.38367
1568794977.3993
1568794977.41492
1568794977.43055
1568794977.44617
1568794977.4618
1568794977.47743
1568794977.49305
1568794977.50868
1568794977.5243
1568794977.53993
1568794977.55555
1568794977.57118
1568794977.58681
1568794977.60243
1568794977.61806
1568794977.63368
1568794977.64931
1568794977.66493
1568794977.68056
1568794977.69619
1568794977.71181
1568794977.72744
1568794977.74306
1568794977.75869
1568794977.77431
1568794977.78994
1568794977.80557
1568794977.82119
1568794977.83682
1568794977.85244
1568794977.86807
1568794977.88369
1568794977.89932
1568794977.91495
1568794977.93057
1568794977.9462
1568794977.96182
1568794977.97745
1568794977.99307
1568794978.0087
1568794978.02433
1568794978.03995
1568794978.05558
1568794978.0712
1568794978.08683
1568794978.10245
1568794978.11808
1568794978.13371
1568794978.14933
1568794978.16496
1568794978.18058
1568794978.19621
1568794978.21183
1568794978.22746
1568794978.24309
1568794978.25871
1568794978.27434
1568794978.28996
1568794978.30559
1568794978.32121
1568794978.33684
1568794978.35247
1568794978.36809
1568794978.38372
1568794978.39934
1568794978.41497
1568794978.43059
1568794978.44622
1568794978.46185
1568794978.47747
1568794978.4931
1568794978.50872
1568794978.52435
1568794978.53997
1568794978.5556
1568794978.57123
1568794978.58685
1568794978.60248
1568794978.6181
1568794978.63373
1568794978.64935
1568794978.66498
1568794978.68061
1568794978.69623
1568794978.71186
1568794978.72748
1568794978.74311
1568794978.75873
1568794978.77436
1568794978.78999
1568794978.80561
1568794978.82124
1568794978.83686
1568794978.85249
1568794978.86811
1568794978.88374
1568794978.89937
1568794978.91499
1568794978.93062
1568794978.94624
1568794978.96187
1568794978.97749
1568794978.99312
1568794979.00875
1568794979.02437
1568794979.04
1568794979.05562
1568794979.07125
1568794979.08687
1568794979.1025
1568794979.11813
1568794979.13375
1568794979.14938
1568794979.165
1568794979.18063
1568794979.19625
1568794979.21188
1568794979.22751
1568794979.24313
1568794979.25876
1568794979.27438
1568794979.29001
1568794979.30563
1568794979.32126
1568794979.33689
1568794979.35251
1568794979.36814
1568794979.38376
1568794979.39939
1568794979.41501
1568794979.43064
1568794979.44627
1568794979.46189
1568794979.47752
1568794979.49314
1568794979.50877
1568794979.52439
1568794979.54002
1568794979.55565
1568794979.57127
1568794979.5869
1568794979.60252
1568794979.61815
1568794979.63378
1568794979.6494
1568794979.66503
1568794979.68065
1568794979.69628
1568794979.7119
1568794979.72753
1568794979.74316
1568794979.75878
1568794979.77441
1568794979.79003
1568794979.80566
1568794979.82128
1568794979.83691
1568794979.85254
1568794979.86816
1568794979.88379
1568794979.89941
1568794979.91504
1568794979.93066
1568794979.94629
1568794979.96192
1568794979.97754
1568794979.99317
1568794980.00879
1568794980.02442
1568794980.04004
1568794980.05567
1568794980.0713
1568794980.08692
1568794980.10255
1568794980.11817
1568794980.1338
1568794980.14942
1568794980.16505
1568794980.18068
1568794980.1963
1568794980.21193
1568794980.22755
1568794980.24318
1568794980.2588
1568794980.27443
1568794980.29006
1568794980.30568
1568794980.32131
1568794980.33693
1568794980.35256
1568794980.36818
1568794980.38381
1568794980.39944
1568794980.41506
1568794980.43069
1568794980.44631
1568794980.46194
1568794980.47756
1568794980.49319
1568794980.50882
1568794980.52444
1568794980.54007
1568794980.55569
1568794980.57132
1568794980.58694
1568794980.60257
1568794980.6182
1568794980.63382
1568794980.64945
1568794980.66507
1568794980.6807
1568794980.69632
1568794980.71195
1568794980.72758
1568794980.7432
1568794980.75883
1568794980.77445
1568794980.79008
1568794980.8057
1568794980.82133
1568794980.83696
1568794980.85258
1568794980.86821
1568794980.88383
1568794980.89946
1568794980.91508
1568794980.93071
1568794980.94634
1568794980.96196
1568794980.97759
1568794980.99321
1568794981.00884
1568794981.02446
1568794981.04009
1568794981.05572
1568794981.07134
1568794981.08697
1568794981.10259
1568794981.11822
1568794981.13384
1568794981.14947
1568794981.1651
1568794981.18072
1568794981.19635
1568794981.21197
1568794981.2276
1568794981.24322
1568794981.25885
1568794981.27448
1568794981.2901
1568794981.30573
1568794981.32135
1568794981.33698
1568794981.3526
1568794981.36823
1568794981.38386
1568794981.39948
1568794981.41511
1568794981.43073
1568794981.44636
1568794981.46198
1568794981.47761
1568794981.49324
1568794981.50886
1568794981.52449
1568794981.54011
1568794981.55574
1568794981.57136
1568794981.58699
1568794981.60262
1568794981.61824
1568794981.63387
1568794981.64949
1568794981.66512
1568794981.68074
1568794981.69637
1568794981.712
1568794981.72762
1568794981.74325
1568794981.75887
1568794981.7745
1568794981.79013
1568794981.80575
1568794981.82138
1568794981.837
1568794981.85263
1568794981.86825
1568794981.88388
1568794981.89951
1568794981.91513
1568794981.93076
1568794981.94638
1568794981.96201
1568794981.97763
1568794981.99326
1568794982.00889
1568794982.02451
1568794982.04014
1568794982.05576
1568794982.07139
1568794982.08701
1568794982.10264
1568794982.11827
1568794982.13389
1568794982.14952
1568794982.16514
1568794982.18077
1568794982.19639
1568794982.21202
1568794982.22765
1568794982.24327
1568794982.2589
1568794982.27452
1568794982.29015
1568794982.30577
1568794982.3214
1568794982.33703
1568794982.35265
1568794982.36828
1568794982.3839
1568794982.39953
1568794982.41515
1568794982.43078
1568794982.44641
1568794982.46203
1568794982.47766
1568794982.49328
1568794982.50891
1568794982.52453
1568794982.54016
1568794982.55579
1568794982.57141
1568794982.58704
1568794982.60266
1568794982.61829
1568794982.63391
1568794982.64954
1568794982.66517
1568794982.68079
1568794982.69642
1568794982.71204
1568794982.72767
1568794982.74329
1568794982.75892
1568794982.77455
1568794982.79017
1568794982.8058
1568794982.82142
1568794982.83705
1568794982.85267
1568794982.8683
1568794982.88393
1568794982.89955
1568794982.91518
1568794982.9308
1568794982.94643
1568794982.96205
1568794982.97768
1568794982.99331
1568794983.00893
1568794983.02456
1568794983.04018
1568794983.05581
1568794983.07143
1568794983.08706
1568794983.10269
1568794983.11831
1568794983.13394
1568794983.14956
1568794983.16519
1568794983.18081
1568794983.19644
1568794983.21207
1568794983.22769
1568794983.24332
1568794983.25894
1568794983.27457
1568794983.29019
1568794983.30582
1568794983.32145
1568794983.33707
1568794983.3527
1568794983.36832
1568794983.38395
1568794983.39957
1568794983.4152
1568794983.43083
1568794983.44645
1568794983.46208
1568794983.4777
1568794983.49333
1568794983.50895
1568794983.52458
1568794983.54021
1568794983.55583
1568794983.57146
1568794983.58708
1568794983.60271
1568794983.61833
1568794983.63396
1568794983.64959
1568794983.66521
1568794983.68084
1568794983.69646
1568794983.71209
1568794983.72771
1568794983.74334
1568794983.75897
1568794983.77459
1568794983.79022
1568794983.80584
1568794983.82147
1568794983.83709
1568794983.85272
1568794983.86835
1568794983.88397
1568794983.8996
1568794983.91522
1568794983.93085
1568794983.94647
1568794983.9621
1568794983.97773
1568794983.99335
1568794984.00898
1568794984.0246
1568794984.04023
1568794984.05586
1568794984.07148
1568794984.08711
1568794984.10273
1568794984.11836
1568794984.13398
1568794984.14961
1568794984.16524
1568794984.18086
1568794984.19649
1568794984.21211
1568794984.22774
1568794984.24336
1568794984.25899
1568794984.27462
1568794984.29024
1568794984.30587
1568794984.32149
1568794984.33712
1568794984.35274
1568794984.36837
1568794984.384
1568794984.39962
1568794984.41525
1568794984.43087
1568794984.4465
1568794984.46212
1568794984.47775
1568794984.49338
1568794984.509
1568794984.52463
1568794984.54025
1568794984.55588
1568794984.5715
1568794984.58713
1568794984.60276
1568794984.61838
1568794984.63401
1568794984.64963
1568794984.66526
1568794984.68088
1568794984.69651
1568794984.71214
1568794984.72776
1568794984.74339
1568794984.75901
1568794984.77464
1568794984.79026
1568794984.80589
1568794984.82152
1568794984.83714
1568794984.85277
1568794984.86839
1568794984.88402
1568794984.89964
1568794984.91527
1568794984.9309
1568794984.94652
1568794984.96215
1568794984.97777
1568794984.9934
1568794985.00902
1568794985.02465
1568794985.04028
1568794985.0559
1568794985.07153
1568794985.08715
1568794985.10278
1568794985.1184
1568794985.13403
1568794985.14966
1568794985.16528
1568794985.18091
1568794985.19653
1568794985.21216
1568794985.22778
1568794985.24341
1568794985.25904
1568794985.27466
1568794985.29029
1568794985.30591
1568794985.32154
1568794985.33716
1568794985.35279
1568794985.36842
1568794985.38404
1568794985.39967
1568794985.41529
1568794985.43092
1568794985.44654
1568794985.46217
1568794985.4778
1568794985.49342
1568794985.50905
1568794985.52467
1568794985.5403
1568794985.55592
1568794985.57155
1568794985.58718
1568794985.6028
1568794985.61843
1568794985.63405
1568794985.64968
1568794985.6653
1568794985.68093
1568794985.69656
1568794985.71218
1568794985.72781
1568794985.74343
1568794985.75906
1568794985.77468
1568794985.79031
1568794985.80594
1568794985.82156
1568794985.83719
1568794985.85281
1568794985.86844
1568794985.88406
1568794985.89969
1568794985.91532
1568794985.93094
1568794985.94657
1568794985.96219
1568794985.97782
1568794985.99344
1568794986.00907
1568794986.0247
1568794986.04032
1568794986.05595
1568794986.07157
1568794986.0872
1568794986.10282
1568794986.11845
1568794986.13408
1568794986.1497
1568794986.16533
1568794986.18095
1568794986.19658
1568794986.2122
1568794986.22783
1568794986.24346
1568794986.25908
1568794986.27471
1568794986.29033
1568794986.30596
1568794986.32158
1568794986.33721
1568794986.35284
1568794986.36846
1568794986.38409
1568794986.39971
1568794986.41534
1568794986.43096
1568794986.44659
1568794986.46222
1568794986.47784
1568794986.49347
1568794986.50909
1568794986.52472
1568794986.54034
1568794986.55597
1568794986.5716
1568794986.58722
1568794986.60285
1568794986.61847
1568794986.6341
1568794986.64973
1568794986.66535
1568794986.68098
1568794986.6966
1568794986.71223
1568794986.72785
1568794986.74348
1568794986.75911
1568794986.77473
1568794986.79036
1568794986.80598
1568794986.82161
1568794986.83723
1568794986.85286
1568794986.86849
1568794986.88411
1568794986.89974
1568794986.91536
1568794986.93099
1568794986.94661
1568794986.96224
1568794986.97787
1568794986.99349
1568794987.00912
1568794987.02474
1568794987.04037
1568794987.05599
1568794987.07162
1568794987.08725
1568794987.10287
1568794987.1185
1568794987.13412
1568794987.14975
1568794987.16537
1568794987.181
1568794987.19663
1568794987.21225
1568794987.22788
1568794987.2435
1568794987.25913
1568794987.27475
1568794987.29038
1568794987.30601
1568794987.32163
1568794987.33726
1568794987.35288
1568794987.36851
1568794987.38413
1568794987.39976
1568794987.41539
1568794987.43101
1568794987.44664
1568794987.46226
1568794987.47789
1568794987.49351
1568794987.50914
1568794987.52477
1568794987.54039
1568794987.55602
1568794987.57164
1568794987.58727
1568794987.60289
1568794987.61852
1568794987.63415
1568794987.64977
1568794987.6654
1568794987.68102
1568794987.69665
1568794987.71227
1568794987.7279
1568794987.74353
1568794987.75915
1568794987.77478
1568794987.7904
1568794987.80603
1568794987.82165
1568794987.83728
1568794987.85291
1568794987.86853
1568794987.88416
1568794987.89978
1568794987.91541
1568794987.93103
1568794987.94666
1568794987.96229
1568794987.97791
1568794987.99354
1568794988.00916
1568794988.02479
1568794988.04041
1568794988.05604
1568794988.07167
1568794988.08729
1568794988.10292
1568794988.11854
1568794988.13417
1568794988.14979
1568794988.16542
1568794988.18105
1568794988.19667
1568794988.2123
1568794988.22792
1568794988.24355
1568794988.25917
1568794988.2748
1568794988.29043
1568794988.30605
1568794988.32168
1568794988.3373
1568794988.35293
1568794988.36855
1568794988.38418
1568794988.39981
1568794988.41543
1568794988.43106
1568794988.44668
1568794988.46231
1568794988.47793
1568794988.49356
1568794988.50919
1568794988.52481
1568794988.54044
1568794988.55606
1568794988.57169
1568794988.58731
1568794988.60294
1568794988.61857
1568794988.63419
1568794988.64982
1568794988.66544
1568794988.68107
1568794988.69669
1568794988.71232
1568794988.72795
1568794988.74357
1568794988.7592
1568794988.77482
1568794988.79045
1568794988.80607
1568794988.8217
1568794988.83733
1568794988.85295
1568794988.86858
1568794988.8842
1568794988.89983
1568794988.91546
1568794988.93108
1568794988.94671
1568794988.96233
1568794988.97796
1568794988.99358
1568794989.00921
1568794989.02484
1568794989.04046
1568794989.05609
1568794989.07171
1568794989.08734
1568794989.10296
1568794989.11859
1568794989.13422
1568794989.14984
1568794989.16547
1568794989.18109
1568794989.19672
1568794989.21234
1568794989.22797
1568794989.2436
1568794989.25922
1568794989.27485
1568794989.29047
1568794989.3061
1568794989.32172
1568794989.33735
1568794989.35298
1568794989.3686
1568794989.38423
1568794989.39985
1568794989.41548
1568794989.4311
1568794989.44673
1568794989.46236
1568794989.47798
1568794989.49361
1568794989.50923
1568794989.52486
1568794989.54048
1568794989.55611
1568794989.57174
1568794989.58736
1568794989.60299
1568794989.61861
1568794989.63424
1568794989.64986
1568794989.66549
1568794989.68112
1568794989.69674
1568794989.71237
1568794989.72799
1568794989.74362
1568794989.75924
1568794989.77487
1568794989.7905
1568794989.80612
1568794989.82175
1568794989.83737
1568794989.853
1568794989.86862
1568794989.88425
1568794989.89988
1568794989.9155
1568794989.93113
1568794989.94675
1568794989.96238
1568794989.978
1568794989.99363
1568794990.00926
1568794990.02488
1568794990.04051
1568794990.05613
1568794990.07176
1568794990.08738
1568794990.10301
1568794990.11864
1568794990.13426
1568794990.14989
1568794990.16551
1568794990.18114
1568794990.19676
1568794990.21239
1568794990.22802
1568794990.24364
1568794990.25927
1568794990.27489
1568794990.29052
1568794990.30614
1568794990.32177
1568794990.3374
1568794990.35302
1568794990.36865
1568794990.38427
1568794990.3999
1568794990.41552
1568794990.43115
1568794990.44678
1568794990.4624
1568794990.47803
1568794990.49365
1568794990.50928
1568794990.5249
1568794990.54053
1568794990.55616
1568794990.57178
1568794990.58741
1568794990.60303
1568794990.61866
1568794990.63428
1568794990.64991
1568794990.66554
1568794990.68116
1568794990.69679
1568794990.71241
1568794990.72804
1568794990.74366
1568794990.75929
1568794990.77492
1568794990.79054
1568794990.80617
1568794990.82179
1568794990.83742
1568794990.85304
1568794990.86867
1568794990.8843
1568794990.89992
1568794990.91555
1568794990.93117
1568794990.9468
1568794990.96242
1568794990.97805
1568794990.99368
1568794991.0093
1568794991.02493
1568794991.04055
1568794991.05618
1568794991.07181
1568794991.08743
1568794991.10306
1568794991.11868
1568794991.13431
1568794991.14993
1568794991.16556
1568794991.18119
1568794991.19681
1568794991.21244
1568794991.22806
1568794991.24369
1568794991.25931
1568794991.27494
1568794991.29057
1568794991.30619
1568794991.32182
1568794991.33744
1568794991.35307
1568794991.36869
1568794991.38432
1568794991.39995
1568794991.41557
1568794991.4312
1568794991.44682
1568794991.46245
1568794991.47807
1568794991.4937
1568794991.50933
1568794991.52495
1568794991.54058
1568794991.5562
1568794991.57183
1568794991.58745
1568794991.60308
1568794991.61871
1568794991.63433
1568794991.64996
1568794991.66558
1568794991.68121
1568794991.69683
1568794991.71246
1568794991.72809
1568794991.74371
1568794991.75934
1568794991.77496
1568794991.79059
1568794991.80621
1568794991.82184
1568794991.83747
1568794991.85309
1568794991.86872
1568794991.88434
1568794991.89997
1568794991.91559
1568794991.93122
1568794991.94685
1568794991.96247
1568794991.9781
1568794991.99372
1568794992.00935
1568794992.02497
1568794992.0406
1568794992.05623
1568794992.07185
1568794992.08748
1568794992.1031
1568794992.11873
1568794992.13435
1568794992.14998
1568794992.16561
1568794992.18123
1568794992.19686
1568794992.21248
1568794992.22811
1568794992.24373
1568794992.25936
1568794992.27499
1568794992.29061
1568794992.30624
1568794992.32186
1568794992.33749
1568794992.35311
1568794992.36874
1568794992.38437
1568794992.39999
1568794992.41562
1568794992.43124
1568794992.44687
1568794992.46249
1568794992.47812
1568794992.49375
1568794992.50937
1568794992.525
1568794992.54062
1568794992.55625
1568794992.57187
1568794992.5875
1568794992.60313
1568794992.61875
1568794992.63438
1568794992.65
1568794992.66563
1568794992.68125
1568794992.69688
1568794992.71251
1568794992.72813
1568794992.74376
1568794992.75938
1568794992.77501
1568794992.79063
1568794992.80626
1568794992.82189
1568794992.83751
1568794992.85314
1568794992.86876
1568794992.88439
1568794992.90001
1568794992.91564
1568794992.93127
1568794992.94689
1568794992.96252
1568794992.97814
1568794992.99377
1568794993.00939
1568794993.02502
1568794993.04065
1568794993.05627
1568794993.0719
1568794993.08752
1568794993.10315
1568794993.11877
1568794993.1344
1568794993.15003
1568794993.16565
1568794993.18128
1568794993.1969
1568794993.21253
1568794993.22815
1568794993.24378
1568794993.25941
1568794993.27503
1568794993.29066
1568794993.30628
1568794993.32191
1568794993.33753
1568794993.35316
1568794993.36879
1568794993.38441
1568794993.40004
1568794993.41566
1568794993.43129
1568794993.44691
1568794993.46254
1568794993.47817
1568794993.49379
1568794993.50942
1568794993.52504
1568794993.54067
1568794993.55629
1568794993.57192
1568794993.58755
1568794993.60317
1568794993.6188
1568794993.63442
1568794993.65005
1568794993.66567
1568794993.6813
1568794993.69693
1568794993.71255
1568794993.72818
1568794993.7438
1568794993.75943
1568794993.77506
1568794993.79068
1568794993.80631
1568794993.82193
1568794993.83756
1568794993.85318
1568794993.86881
1568794993.88444
1568794993.90006
1568794993.91569
1568794993.93131
1568794993.94694
1568794993.96256
1568794993.97819
1568794993.99382
1568794994.00944
1568794994.02507
1568794994.04069
1568794994.05632
1568794994.07194
1568794994.08757
1568794994.1032
1568794994.11882
1568794994.13445
1568794994.15007
1568794994.1657
1568794994.18132
1568794994.19695
1568794994.21258
1568794994.2282
1568794994.24383
1568794994.25945
1568794994.27508
1568794994.2907
1568794994.30633
1568794994.32196
1568794994.33758
1568794994.35321
1568794994.36883
1568794994.38446
1568794994.40008
1568794994.41571
1568794994.43134
1568794994.44696
1568794994.46259
1568794994.47821
1568794994.49384
1568794994.50946
1568794994.52509
1568794994.54072
1568794994.55634
1568794994.57197
1568794994.58759
1568794994.60322
1568794994.61884
1568794994.63447
1568794994.6501
1568794994.66572
1568794994.68135
1568794994.69697
1568794994.7126
1568794994.72822
1568794994.74385
1568794994.75948
1568794994.7751
1568794994.79073
1568794994.80635
1568794994.82198
1568794994.8376
1568794994.85323
1568794994.86886
1568794994.88448
1568794994.90011
1568794994.91573
1568794994.93136
1568794994.94698
1568794994.96261
1568794994.97824
1568794994.99386
1568794995.00949
1568794995.02511
1568794995.04074
1568794995.05636
1568794995.07199
1568794995.08762
1568794995.10324
1568794995.11887
1568794995.13449
1568794995.15012
1568794995.16574
1568794995.18137
1568794995.197
1568794995.21262
1568794995.22825
1568794995.24387
1568794995.2595
1568794995.27512
1568794995.29075
1568794995.30638
1568794995.322
1568794995.33763
1568794995.35325
1568794995.36888
1568794995.3845
1568794995.40013
1568794995.41576
1568794995.43138
1568794995.44701
1568794995.46263
1568794995.47826
1568794995.49388
1568794995.50951
1568794995.52514
1568794995.54076
1568794995.55639
1568794995.57201
1568794995.58764
1568794995.60326
1568794995.61889
1568794995.63452
1568794995.65014
1568794995.66577
1568794995.68139
1568794995.69702
1568794995.71264
1568794995.72827
1568794995.7439
1568794995.75952
1568794995.77515
1568794995.79077
1568794995.8064
1568794995.82202
1568794995.83765
1568794995.85328
1568794995.8689
1568794995.88453
1568794995.90015
1568794995.91578
1568794995.93141
1568794995.94703
1568794995.96266
1568794995.97828
1568794995.99391
1568794996.00953
1568794996.02516
1568794996.04079
1568794996.05641
1568794996.07204
1568794996.08766
1568794996.10329
1568794996.11891
1568794996.13454
1568794996.15017
1568794996.16579
1568794996.18142
1568794996.19704
1568794996.21267
1568794996.22829
1568794996.24392
1568794996.25955
1568794996.27517
1568794996.2908
1568794996.30642
1568794996.32205
1568794996.33767
1568794996.3533
1568794996.36893
1568794996.38455
1568794996.40018
1568794996.4158
1568794996.43143
1568794996.44705
1568794996.46268
1568794996.47831
1568794996.49393
1568794996.50956
1568794996.52518
1568794996.54081
1568794996.55643
1568794996.57206
1568794996.58769
1568794996.60331
1568794996.61894
1568794996.63456
1568794996.65019
1568794996.66581
1568794996.68144
1568794996.69707
1568794996.71269
1568794996.72832
1568794996.74394
1568794996.75957
1568794996.77519
1568794996.79082
1568794996.80645
1568794996.82207
1568794996.8377
1568794996.85332
1568794996.86895
1568794996.88457
1568794996.9002
1568794996.91583
1568794996.93145
1568794996.94708
1568794996.9627
1568794996.97833
1568794996.99395
1568794997.00958
1568794997.02521
1568794997.04083
1568794997.05646
1568794997.07208
1568794997.08771
1568794997.10333
1568794997.11896
1568794997.13459
1568794997.15021
1568794997.16584
1568794997.18146
1568794997.19709
1568794997.21271
1568794997.22834
1568794997.24397
1568794997.25959
1568794997.27522
1568794997.29084
1568794997.30647
1568794997.32209
1568794997.33772
1568794997.35335
1568794997.36897
1568794997.3846
1568794997.40022
1568794997.41585
1568794997.43147
1568794997.4471
1568794997.46273
1568794997.47835
1568794997.49398
1568794997.5096
1568794997.52523
1568794997.54085
1568794997.55648
1568794997.57211
1568794997.58773
1568794997.60336
1568794997.61898
1568794997.63461
1568794997.65023
1568794997.66586
1568794997.68149
1568794997.69711
1568794997.71274
1568794997.72836
1568794997.74399
1568794997.75961
1568794997.77524
1568794997.79087
1568794997.80649
1568794997.82212
1568794997.83774
1568794997.85337
1568794997.86899
1568794997.88462
1568794997.90025
1568794997.91587
1568794997.9315
1568794997.94712
1568794997.96275
1568794997.97837
1568794997.994
1568794998.00963
1568794998.02525
1568794998.04088
1568794998.0565
1568794998.07213
1568794998.08775
1568794998.10338
1568794998.11901
1568794998.13463
1568794998.15026
1568794998.16588
1568794998.18151
1568794998.19713
1568794998.21276
1568794998.22839
1568794998.24401
1568794998.25964
1568794998.27526
1568794998.29089
1568794998.30651
1568794998.32214
1568794998.33777
1568794998.35339
1568794998.36902
1568794998.38464
1568794998.40027
1568794998.41589
1568794998.43152
1568794998.44715
1568794998.46277
1568794998.4784
1568794998.49402
1568794998.50965
1568794998.52527
1568794998.5409
1568794998.55653
1568794998.57215
1568794998.58778
1568794998.6034
1568794998.61903
1568794998.63466
1568794998.65028
1568794998.66591
1568794998.68153
1568794998.69716
1568794998.71278
1568794998.72841
1568794998.74404
1568794998.75966
1568794998.77529
1568794998.79091
1568794998.80654
1568794998.82216
1568794998.83779
1568794998.85342
1568794998.86904
1568794998.88467
1568794998.90029
1568794998.91592
1568794998.93154
1568794998.94717
1568794998.9628
1568794998.97842
1568794998.99405
1568794999.00967
1568794999.0253
1568794999.04092
1568794999.05655
1568794999.07218
1568794999.0878
1568794999.10343
1568794999.11905
1568794999.13468
1568794999.1503
1568794999.16593
1568794999.18156
1568794999.19718
1568794999.21281
1568794999.22843
1568794999.24406
1568794999.25968
1568794999.27531
1568794999.29094
1568794999.30656
1568794999.32219
1568794999.33781
1568794999.35344
1568794999.36906
1568794999.38469
1568794999.40032
1568794999.41594
1568794999.43157
1568794999.44719
1568794999.46282
1568794999.47844
1568794999.49407
1568794999.5097
1568794999.52532
1568794999.54095
1568794999.55657
1568794999.5722
1568794999.58782
1568794999.60345
1568794999.61908
1568794999.6347
1568794999.65033
1568794999.66595
1568794999.68158
1568794999.6972
1568794999.71283
1568794999.72846
1568794999.74408
1568794999.75971
1568794999.77533
1568794999.79096
1568794999.80658
1568794999.82221
1568794999.83784
1568794999.85346
1568794999.86909
1568794999.88471
1568794999.90034
1568794999.91596
1568794999.93159
1568794999.94722
1568794999.96284
1568794999.97847
1568794999.99409
1568795000.00972
1568795000.02534
1568795000.04097
1568795000.0566
1568795000.07222
1568795000.08785
1568795000.10347
1568795000.1191
1568795000.13472
1568795000.15035
1568795000.16598
1568795000.1816
1568795000.19723
1568795000.21285
1568795000.22848
1568795000.2441
1568795000.25973
1568795000.27536
1568795000.29098
1568795000.30661
1568795000.32223
1568795000.33786
1568795000.35348
1568795000.36911
1568795000.38474
1568795000.40036
1568795000.41599
1568795000.43161
1568795000.44724
1568795000.46286
1568795000.47849
1568795000.49412
1568795000.50974
1568795000.52537
1568795000.54099
1568795000.55662
1568795000.57224
1568795000.58787
1568795000.6035
1568795000.61912
1568795000.63475
1568795000.65037
1568795000.666
1568795000.68162
1568795000.69725
1568795000.71288
1568795000.7285
1568795000.74413
1568795000.75975
1568795000.77538
1568795000.791
1568795000.80663
1568795000.82226
1568795000.83788
1568795000.85351
1568795000.86913
1568795000.88476
1568795000.90039
1568795000.91601
1568795000.93164
1568795000.94726
1568795000.96289
1568795000.97851
1568795000.99414
1568795001.00977
1568795001.02539
1568795001.04102
1568795001.05664
1568795001.07227
1568795001.08789
1568795001.10352
1568795001.11915
1568795001.13477
1568795001.1504
1568795001.16602
1568795001.18165
1568795001.19727
1568795001.2129
1568795001.22853
1568795001.24415
1568795001.25978
1568795001.2754
1568795001.29103
1568795001.30665
1568795001.32228
1568795001.33791
1568795001.35353
1568795001.36916
1568795001.38478
1568795001.40041
1568795001.41603
1568795001.43166
1568795001.44729
1568795001.46291
1568795001.47854
1568795001.49416
1568795001.50979
1568795001.52541
1568795001.54104
1568795001.55667
1568795001.57229
1568795001.58792
1568795001.60354
1568795001.61917
1568795001.63479
1568795001.65042
1568795001.66605
1568795001.68167
1568795001.6973
1568795001.71292
1568795001.72855
1568795001.74417
1568795001.7598
1568795001.77543
1568795001.79105
1568795001.80668
1568795001.8223
1568795001.83793
1568795001.85355
1568795001.86918
1568795001.88481
1568795001.90043
1568795001.91606
1568795001.93168
1568795001.94731
1568795001.96293
1568795001.97856
1568795001.99419
1568795002.00981
1568795002.02544
1568795002.04106
1568795002.05669
1568795002.07231
1568795002.08794
1568795002.10357
1568795002.11919
1568795002.13482
1568795002.15044
1568795002.16607
1568795002.18169
1568795002.19732
1568795002.21295
1568795002.22857
1568795002.2442
1568795002.25982
1568795002.27545
1568795002.29107
1568795002.3067
1568795002.32233
1568795002.33795
1568795002.35358
1568795002.3692
1568795002.38483
1568795002.40045
1568795002.41608
1568795002.43171
1568795002.44733
1568795002.46296
1568795002.47858
1568795002.49421
1568795002.50983
1568795002.52546
1568795002.54109
1568795002.55671
1568795002.57234
1568795002.58796
1568795002.60359
1568795002.61921
1568795002.63484
1568795002.65047
1568795002.66609
1568795002.68172
1568795002.69734
1568795002.71297
1568795002.72859
1568795002.74422
1568795002.75985
1568795002.77547
1568795002.7911
1568795002.80672
1568795002.82235
1568795002.83797
1568795002.8536
1568795002.86923
1568795002.88485
1568795002.90048
1568795002.9161
1568795002.93173
1568795002.94735
1568795002.96298
1568795002.97861
1568795002.99423
1568795003.00986
1568795003.02548
1568795003.04111
1568795003.05674
1568795003.07236
1568795003.08799
1568795003.10361
1568795003.11924
1568795003.13486
1568795003.15049
1568795003.16612
1568795003.18174
1568795003.19737
1568795003.21299
1568795003.22862
1568795003.24424
1568795003.25987
1568795003.2755
1568795003.29112
1568795003.30675
1568795003.32237
1568795003.338
1568795003.35362
1568795003.36925
1568795003.38488
1568795003.4005
1568795003.41613
1568795003.43175
1568795003.44738
1568795003.463
1568795003.47863
1568795003.49426
1568795003.50988
1568795003.52551
1568795003.54113
1568795003.55676
1568795003.57238
1568795003.58801
1568795003.60364
1568795003.61926
1568795003.63489
1568795003.65051
1568795003.66614
1568795003.68176
1568795003.69739
1568795003.71302
1568795003.72864
1568795003.74427
1568795003.75989
1568795003.77552
1568795003.79114
1568795003.80677
1568795003.8224
1568795003.83802
1568795003.85365
1568795003.86927
1568795003.8849
1568795003.90052
1568795003.91615
1568795003.93178
1568795003.9474
1568795003.96303
1568795003.97865
1568795003.99428
1568795004.0099
1568795004.02553
1568795004.04116
1568795004.05678
1568795004.07241
1568795004.08803
1568795004.10366
1568795004.11928
1568795004.13491
1568795004.15054
1568795004.16616
1568795004.18179
1568795004.19741
1568795004.21304
1568795004.22866
1568795004.24429
1568795004.25992
1568795004.27554
1568795004.29117
1568795004.30679
1568795004.32242
1568795004.33804
1568795004.35367
1568795004.3693
1568795004.38492
1568795004.40055
1568795004.41617
1568795004.4318
1568795004.44742
1568795004.46305
1568795004.47868
1568795004.4943
1568795004.50993
1568795004.52555
1568795004.54118
1568795004.5568
1568795004.57243
1568795004.58806
1568795004.60368
1568795004.61931
1568795004.63493
1568795004.65056
1568795004.66618
1568795004.68181
1568795004.69744
1568795004.71306
1568795004.72869
1568795004.74431
1568795004.75994
1568795004.77556
1568795004.79119
1568795004.80682
1568795004.82244
1568795004.83807
1568795004.85369
1568795004.86932
1568795004.88494
1568795004.90057
1568795004.9162
1568795004.93182
1568795004.94745
1568795004.96307
1568795004.9787
1568795004.99432
1568795005.00995
1568795005.02558
1568795005.0412
1568795005.05683
1568795005.07245
1568795005.08808
1568795005.1037
1568795005.11933
1568795005.13496
1568795005.15058
1568795005.16621
1568795005.18183
1568795005.19746
1568795005.21308
1568795005.22871
1568795005.24434
1568795005.25996
1568795005.27559
1568795005.29121
1568795005.30684
1568795005.32246
1568795005.33809
1568795005.35372
1568795005.36934
1568795005.38497
1568795005.40059
1568795005.41622
1568795005.43184
1568795005.44747
1568795005.4631
1568795005.47872
1568795005.49435
1568795005.50997
1568795005.5256
1568795005.54122
1568795005.55685
1568795005.57248
1568795005.5881
1568795005.60373
1568795005.61935
1568795005.63498
1568795005.6506
1568795005.66623
1568795005.68186
1568795005.69748
1568795005.71311
1568795005.72873
1568795005.74436
1568795005.75999
1568795005.77561
1568795005.79124
1568795005.80686
1568795005.82249
1568795005.83811
1568795005.85374
1568795005.86937
1568795005.88499
1568795005.90062
1568795005.91624
1568795005.93187
1568795005.94749
1568795005.96312
1568795005.97875
1568795005.99437
1568795006.01
1568795006.02562
1568795006.04125
1568795006.05687
1568795006.0725
1568795006.08813
1568795006.10375
1568795006.11938
1568795006.135
1568795006.15063
1568795006.16625
1568795006.18188
1568795006.19751
1568795006.21313
1568795006.22876
1568795006.24438
1568795006.26001
1568795006.27563
1568795006.29126
1568795006.30689
1568795006.32251
1568795006.33814
1568795006.35376
1568795006.36939
1568795006.38501
1568795006.40064
1568795006.41627
1568795006.43189
1568795006.44752
1568795006.46314
1568795006.47877
1568795006.49439
1568795006.51002
1568795006.52565
1568795006.54127
1568795006.5569
1568795006.57252
1568795006.58815
1568795006.60377
1568795006.6194
1568795006.63503
1568795006.65065
1568795006.66628
1568795006.6819
1568795006.69753
1568795006.71315
1568795006.72878
1568795006.74441
1568795006.76003
1568795006.77566
1568795006.79128
1568795006.80691
1568795006.82253
1568795006.83816
1568795006.85379
1568795006.86941
1568795006.88504
1568795006.90066
1568795006.91629
1568795006.93191
1568795006.94754
1568795006.96317
1568795006.97879
1568795006.99442
1568795007.01004
1568795007.02567
1568795007.04129
1568795007.05692
1568795007.07255
1568795007.08817
1568795007.1038
1568795007.11942
1568795007.13505
1568795007.15067
1568795007.1663
1568795007.18193
1568795007.19755
1568795007.21318
1568795007.2288
1568795007.24443
1568795007.26005
1568795007.27568
1568795007.29131
1568795007.30693
1568795007.32256
1568795007.33818
1568795007.35381
1568795007.36943
1568795007.38506
1568795007.40069
1568795007.41631
1568795007.43194
1568795007.44756
1568795007.46319
1568795007.47881
1568795007.49444
1568795007.51007
1568795007.52569
1568795007.54132
1568795007.55694
1568795007.57257
1568795007.58819
1568795007.60382
1568795007.61945
1568795007.63507
1568795007.6507
1568795007.66632
1568795007.68195
1568795007.69757
1568795007.7132
1568795007.72883
1568795007.74445
1568795007.76008
1568795007.7757
1568795007.79133
1568795007.80695
1568795007.82258
1568795007.83821
1568795007.85383
1568795007.86946
1568795007.88508
1568795007.90071
1568795007.91634
1568795007.93196
1568795007.94759
1568795007.96321
1568795007.97884
1568795007.99446
1568795008.01009
1568795008.02572
1568795008.04134
1568795008.05697
1568795008.07259
1568795008.08822
1568795008.10384
1568795008.11947
1568795008.1351
1568795008.15072
1568795008.16635
1568795008.18197
1568795008.1976
1568795008.21322
1568795008.22885
1568795008.24448
1568795008.2601
1568795008.27573
1568795008.29135
1568795008.30698
1568795008.3226
1568795008.33823
1568795008.35386
1568795008.36948
1568795008.38511
1568795008.40073
1568795008.41636
1568795008.43198
1568795008.44761
1568795008.46324
1568795008.47886
1568795008.49449
1568795008.51011
1568795008.52574
1568795008.54136
1568795008.55699
1568795008.57262
1568795008.58824
1568795008.60387
1568795008.61949
1568795008.63512
1568795008.65074
1568795008.66637
1568795008.682
1568795008.69762
1568795008.71325
1568795008.72887
1568795008.7445
1568795008.76012
1568795008.77575
1568795008.79138
1568795008.807
1568795008.82263
1568795008.83825
1568795008.85388
1568795008.8695
1568795008.88513
1568795008.90076
1568795008.91638
1568795008.93201
1568795008.94763
1568795008.96326
1568795008.97888
1568795008.99451
1568795009.01014
1568795009.02576
1568795009.04139
1568795009.05701
1568795009.07264
1568795009.08826
1568795009.10389
1568795009.11952
1568795009.13514
1568795009.15077
1568795009.16639
1568795009.18202
1568795009.19764
1568795009.21327
1568795009.2289
1568795009.24452
1568795009.26015
1568795009.27577
1568795009.2914
1568795009.30702
1568795009.32265
1568795009.33828
1568795009.3539
1568795009.36953
1568795009.38515
1568795009.40078
1568795009.4164
1568795009.43203
1568795009.44766
1568795009.46328
1568795009.47891
1568795009.49453
1568795009.51016
1568795009.52578
1568795009.54141
1568795009.55704
1568795009.57266
1568795009.58829
1568795009.60391
1568795009.61954
1568795009.63516
1568795009.65079
1568795009.66642
1568795009.68204
1568795009.69767
1568795009.71329
1568795009.72892
1568795009.74454
1568795009.76017
1568795009.7758
1568795009.79142
1568795009.80705
1568795009.82267
1568795009.8383
1568795009.85392
1568795009.86955
1568795009.88518
1568795009.9008
1568795009.91643
1568795009.93205
1568795009.94768
1568795009.9633
1568795009.97893
1568795009.99456
1568795010.01018
1568795010.02581
1568795010.04143
1568795010.05706
1568795010.07268
1568795010.08831
1568795010.10394
1568795010.11956
1568795010.13519
1568795010.15081
1568795010.16644
1568795010.18207
1568795010.19769
1568795010.21332
1568795010.22894
1568795010.24457
1568795010.26019
1568795010.27582
1568795010.29145
1568795010.30707
1568795010.3227
1568795010.33832
1568795010.35395
1568795010.36957
1568795010.3852
1568795010.40083
1568795010.41645
1568795010.43208
1568795010.4477
1568795010.46333
1568795010.47895
1568795010.49458
1568795010.51021
1568795010.52583
1568795010.54146
1568795010.55708
1568795010.57271
1568795010.58833
1568795010.60396
1568795010.61959
1568795010.63521
1568795010.65084
1568795010.66646
1568795010.68209
1568795010.69771
1568795010.71334
1568795010.72897
1568795010.74459
1568795010.76022
1568795010.77584
1568795010.79147
1568795010.80709
1568795010.82272
1568795010.83835
1568795010.85397
1568795010.8696
1568795010.88522
1568795010.90085
1568795010.91647
1568795010.9321
1568795010.94773
1568795010.96335
1568795010.97898
1568795010.9946
1568795011.01023
1568795011.02585
1568795011.04148
1568795011.05711
1568795011.07273
1568795011.08836
1568795011.10398
1568795011.11961
1568795011.13523
1568795011.15086
1568795011.16649
1568795011.18211
1568795011.19774
1568795011.21336
1568795011.22899
1568795011.24461
1568795011.26024
1568795011.27587
1568795011.29149
1568795011.30712
1568795011.32274
1568795011.33837
1568795011.35399
1568795011.36962
1568795011.38525
1568795011.40087
1568795011.4165
1568795011.43212
1568795011.44775
1568795011.46337
1568795011.479
1568795011.49463
1568795011.51025
1568795011.52588
1568795011.5415
1568795011.55713
1568795011.57275
1568795011.58838
1568795011.60401
1568795011.61963
1568795011.63526
1568795011.65088
1568795011.66651
1568795011.68213
1568795011.69776
1568795011.71339
1568795011.72901
1568795011.74464
1568795011.76026
1568795011.77589
1568795011.79151
1568795011.80714
1568795011.82277
1568795011.83839
1568795011.85402
1568795011.86964
1568795011.88527
1568795011.90089
1568795011.91652
1568795011.93215
1568795011.94777
1568795011.9634
1568795011.97902
1568795011.99465
1568795012.01027
1568795012.0259
1568795012.04153
1568795012.05715
1568795012.07278
1568795012.0884
1568795012.10403
1568795012.11965
1568795012.13528
1568795012.15091
1568795012.16653
1568795012.18216
1568795012.19778
1568795012.21341
1568795012.22903
1568795012.24466
1568795012.26029
1568795012.27591
1568795012.29154
1568795012.30716
1568795012.32279
1568795012.33841
1568795012.35404
1568795012.36967
1568795012.38529
1568795012.40092
1568795012.41654
1568795012.43217
1568795012.44779
1568795012.46342
1568795012.47905
1568795012.49467
1568795012.5103
1568795012.52592
1568795012.54155
1568795012.55717
1568795012.5728
1568795012.58843
1568795012.60405
1568795012.61968
1568795012.6353
1568795012.65093
1568795012.66655
1568795012.68218
1568795012.69781
1568795012.71343
1568795012.72906
1568795012.74468
1568795012.76031
1568795012.77594
1568795012.79156
1568795012.80719
1568795012.82281
1568795012.83844
1568795012.85406
1568795012.86969
1568795012.88532
1568795012.90094
1568795012.91657
1568795012.93219
1568795012.94782
1568795012.96344
1568795012.97907
1568795012.9947
1568795013.01032
1568795013.02595
1568795013.04157
1568795013.0572
1568795013.07282
1568795013.08845
1568795013.10408
1568795013.1197
1568795013.13533
1568795013.15095
1568795013.16658
1568795013.1822
1568795013.19783
1568795013.21346
1568795013.22908
1568795013.24471
1568795013.26033
1568795013.27596
1568795013.29158
1568795013.30721
1568795013.32284
1568795013.33846
1568795013.35409
1568795013.36971
1568795013.38534
1568795013.40096
1568795013.41659
1568795013.43222
1568795013.44784
1568795013.46347
1568795013.47909
1568795013.49472
1568795013.51034
1568795013.52597
1568795013.5416
1568795013.55722
1568795013.57285
1568795013.58847
1568795013.6041
1568795013.61972
1568795013.63535
1568795013.65098
1568795013.6666
1568795013.68223
1568795013.69785
1568795013.71348
1568795013.7291
1568795013.74473
1568795013.76036
1568795013.77598
1568795013.79161
1568795013.80723
1568795013.82286
1568795013.83848
1568795013.85411
1568795013.86974
1568795013.88536
1568795013.90099
1568795013.91661
1568795013.93224
1568795013.94786
1568795013.96349
1568795013.97912
1568795013.99474
1568795014.01037
1568795014.02599
1568795014.04162
1568795014.05724
1568795014.07287
1568795014.0885
1568795014.10412
1568795014.11975
1568795014.13537
1568795014.151
1568795014.16662
1568795014.18225
1568795014.19788
1568795014.2135
1568795014.22913
1568795014.24475
1568795014.26038
1568795014.276
1568795014.29163
1568795014.30726
1568795014.32288
1568795014.33851
1568795014.35413
1568795014.36976
1568795014.38538
1568795014.40101
1568795014.41664
1568795014.43226
1568795014.44789
1568795014.46351
1568795014.47914
1568795014.49476
1568795014.51039
1568795014.52602
1568795014.54164
1568795014.55727
1568795014.57289
1568795014.58852
1568795014.60414
1568795014.61977
1568795014.6354
1568795014.65102
1568795014.66665
1568795014.68227
1568795014.6979
1568795014.71352
1568795014.72915
1568795014.74478
1568795014.7604
1568795014.77603
1568795014.79165
1568795014.80728
1568795014.8229
1568795014.83853
1568795014.85416
1568795014.86978
1568795014.88541
1568795014.90103
1568795014.91666
1568795014.93228
1568795014.94791
1568795014.96354
1568795014.97916
1568795014.99479
1568795015.01041
1568795015.02604
1568795015.04167
1568795015.05729
1568795015.07292
1568795015.08854
1568795015.10417
1568795015.11979
1568795015.13542
1568795015.15105
1568795015.16667
1568795015.1823
1568795015.19792
1568795015.21355
1568795015.22917
1568795015.2448
1568795015.26043
1568795015.27605
1568795015.29168
1568795015.3073
1568795015.32293
1568795015.33855
1568795015.35418
1568795015.36981
1568795015.38543
1568795015.40106
1568795015.41668
1568795015.43231
1568795015.44793
1568795015.46356
1568795015.47919
1568795015.49481
1568795015.51044
1568795015.52606
1568795015.54169
1568795015.55731
1568795015.57294
1568795015.58857
1568795015.60419
1568795015.61982
1568795015.63544
1568795015.65107
1568795015.66669
1568795015.68232
1568795015.69795
1568795015.71357
1568795015.7292
1568795015.74482
1568795015.76045
1568795015.77607
1568795015.7917
1568795015.80733
1568795015.82295
1568795015.83858
1568795015.8542
1568795015.86983
1568795015.88545
1568795015.90108
1568795015.91671
1568795015.93233
1568795015.94796
1568795015.96358
1568795015.97921
1568795015.99483
1568795016.01046
1568795016.02609
1568795016.04171
1568795016.05734
1568795016.07296
1568795016.08859
1568795016.10421
1568795016.11984
1568795016.13547
1568795016.15109
1568795016.16672
1568795016.18234
1568795016.19797
1568795016.21359
1568795016.22922
1568795016.24485
1568795016.26047
1568795016.2761
1568795016.29172
1568795016.30735
1568795016.32297
1568795016.3386
1568795016.35423
1568795016.36985
1568795016.38548
1568795016.4011
1568795016.41673
1568795016.43235
1568795016.44798
1568795016.46361
1568795016.47923
1568795016.49486
1568795016.51048
1568795016.52611
1568795016.54173
1568795016.55736
1568795016.57299
1568795016.58861
1568795016.60424
1568795016.61986
1568795016.63549
1568795016.65111
1568795016.66674
1568795016.68237
1568795016.69799
1568795016.71362
1568795016.72924
1568795016.74487
1568795016.76049
1568795016.77612
1568795016.79175
1568795016.80737
1568795016.823
1568795016.83862
1568795016.85425
1568795016.86987
1568795016.8855
1568795016.90113
1568795016.91675
1568795016.93238
1568795016.948
1568795016.96363
1568795016.97925
1568795016.99488
1568795017.01051
1568795017.02613
1568795017.04176
1568795017.05738
1568795017.07301
1568795017.08863
1568795017.10426
1568795017.11989
1568795017.13551
1568795017.15114
1568795017.16676
1568795017.18239
1568795017.19801
1568795017.21364
1568795017.22927
1568795017.24489
1568795017.26052
1568795017.27614
1568795017.29177
1568795017.30739
1568795017.32302
1568795017.33865
1568795017.35427
1568795017.3699
1568795017.38552
1568795017.40115
1568795017.41677
1568795017.4324
1568795017.44803
1568795017.46365
1568795017.47928
1568795017.4949
1568795017.51053
1568795017.52616
1568795017.54178
1568795017.55741
1568795017.57303
1568795017.58866
1568795017.60428
1568795017.61991
1568795017.63554
1568795017.65116
1568795017.66679
1568795017.68241
1568795017.69804
1568795017.71366
1568795017.72929
1568795017.74492
1568795017.76054
1568795017.77617
1568795017.79179
1568795017.80742
1568795017.82304
1568795017.83867
1568795017.8543
1568795017.86992
1568795017.88555
1568795017.90117
1568795017.9168
1568795017.93242
1568795017.94805
1568795017.96368
1568795017.9793
1568795017.99493
1568795018.01055
1568795018.02618
1568795018.0418
1568795018.05743
1568795018.07306
1568795018.08868
1568795018.10431
1568795018.11993
1568795018.13556
1568795018.15118
1568795018.16681
1568795018.18244
1568795018.19806
1568795018.21369
1568795018.22931
1568795018.24494
1568795018.26056
1568795018.27619
1568795018.29182
1568795018.30744
1568795018.32307
1568795018.33869
1568795018.35432
1568795018.36994
1568795018.38557
1568795018.4012
1568795018.41682
1568795018.43245
1568795018.44807
1568795018.4637
1568795018.47932
1568795018.49495
1568795018.51058
1568795018.5262
1568795018.54183
1568795018.55745
1568795018.57308
1568795018.5887
1568795018.60433
1568795018.61996
1568795018.63558
1568795018.65121
1568795018.66683
1568795018.68246
1568795018.69808
1568795018.71371
1568795018.72934
1568795018.74496
1568795018.76059
1568795018.77621
1568795018.79184
1568795018.80746
1568795018.82309
1568795018.83872
1568795018.85434
1568795018.86997
1568795018.88559
1568795018.90122
1568795018.91684
1568795018.93247
1568795018.9481
1568795018.96372
1568795018.97935
1568795018.99497
1568795019.0106
1568795019.02622
1568795019.04185
1568795019.05748
1568795019.0731
1568795019.08873
1568795019.10435
1568795019.11998
1568795019.1356
1568795019.15123
1568795019.16686
1568795019.18248
1568795019.19811
1568795019.21373
1568795019.22936
1568795019.24498
1568795019.26061
1568795019.27624
1568795019.29186
1568795019.30749
1568795019.32311
1568795019.33874
1568795019.35436
1568795019.36999
1568795019.38562
1568795019.40124
1568795019.41687
1568795019.43249
1568795019.44812
1568795019.46374
1568795019.47937
1568795019.495
1568795019.51062
1568795019.52625
1568795019.54187
1568795019.5575
1568795019.57312
1568795019.58875
1568795019.60438
1568795019.62
1568795019.63563
1568795019.65125
1568795019.66688
1568795019.6825
1568795019.69813
1568795019.71376
1568795019.72938
1568795019.74501
1568795019.76063
1568795019.77626
1568795019.79188
1568795019.80751
1568795019.82314
1568795019.83876
1568795019.85439
1568795019.87001
1568795019.88564
1568795019.90127
1568795019.91689
1568795019.93252
1568795019.94814
1568795019.96377
1568795019.97939
1568795019.99502
1568795020.01065
1568795020.02627
1568795020.0419
1568795020.05752
1568795020.07315
1568795020.08877
1568795020.1044
1568795020.12003
1568795020.13565
1568795020.15128
1568795020.1669
1568795020.18253
1568795020.19815
1568795020.21378
1568795020.22941
1568795020.24503
1568795020.26066
1568795020.27628
1568795020.29191
1568795020.30753
1568795020.32316
1568795020.33879
1568795020.35441
1568795020.37004
1568795020.38566
1568795020.40129
1568795020.41691
1568795020.43254
1568795020.44817
1568795020.46379
1568795020.47942
1568795020.49504
1568795020.51067
1568795020.52629
1568795020.54192
1568795020.55755
1568795020.57317
1568795020.5888
1568795020.60442
1568795020.62005
1568795020.63567
1568795020.6513
1568795020.66693
1568795020.68255
1568795020.69818
1568795020.7138
1568795020.72943
1568795020.74505
1568795020.76068
1568795020.77631
1568795020.79193
1568795020.80756
1568795020.82318
1568795020.83881
1568795020.85443
1568795020.87006
1568795020.88569
1568795020.90131
1568795020.91694
1568795020.93256
1568795020.94819
1568795020.96381
1568795020.97944
1568795020.99507
1568795021.01069
1568795021.02632
1568795021.04194
1568795021.05757
1568795021.07319
1568795021.08882
1568795021.10445
1568795021.12007
1568795021.1357
1568795021.15132
1568795021.16695
1568795021.18257
1568795021.1982
1568795021.21383
1568795021.22945
1568795021.24508
1568795021.2607
1568795021.27633
1568795021.29195
1568795021.30758
1568795021.32321
1568795021.33883
1568795021.35446
1568795021.37008
1568795021.38571
1568795021.40133
1568795021.41696
1568795021.43259
1568795021.44821
1568795021.46384
1568795021.47946
1568795021.49509
1568795021.51071
1568795021.52634
1568795021.54197
1568795021.55759
1568795021.57322
1568795021.58884
1568795021.60447
1568795021.62009
1568795021.63572
1568795021.65135
1568795021.66697
1568795021.6826
1568795021.69822
1568795021.71385
1568795021.72947
1568795021.7451
1568795021.76073
1568795021.77635
1568795021.79198
1568795021.8076
1568795021.82323
1568795021.83885
1568795021.85448
1568795021.87011
1568795021.88573
1568795021.90136
1568795021.91698
1568795021.93261
1568795021.94823
1568795021.96386
1568795021.97949
1568795021.99511
1568795022.01074
1568795022.02636
1568795022.04199
1568795022.05762
1568795022.07324
1568795022.08887
1568795022.10449
1568795022.12012
1568795022.13574
1568795022.15137
1568795022.167
1568795022.18262
1568795022.19825
1568795022.21387
1568795022.2295
1568795022.24512
1568795022.26075
1568795022.27638
1568795022.292
1568795022.30763
1568795022.32325
1568795022.33888
1568795022.3545
1568795022.37013
1568795022.38576
1568795022.40138
1568795022.41701
1568795022.43263
1568795022.44826
1568795022.46388
1568795022.47951
1568795022.49514
1568795022.51076
1568795022.52639
1568795022.54201
1568795022.55764
1568795022.57326
1568795022.58889
1568795022.60452
1568795022.62014
1568795022.63577
1568795022.65139
1568795022.66702
1568795022.68264
1568795022.69827
1568795022.7139
1568795022.72952
1568795022.74515
1568795022.76077
1568795022.7764
1568795022.79202
1568795022.80765
1568795022.82328
1568795022.8389
1568795022.85453
1568795022.87015
1568795022.88578
1568795022.9014
1568795022.91703
1568795022.93266
1568795022.94828
1568795022.96391
1568795022.97953
1568795022.99516
1568795023.01078
1568795023.02641
1568795023.04204
1568795023.05766
1568795023.07329
1568795023.08891
1568795023.10454
1568795023.12016
1568795023.13579
1568795023.15142
1568795023.16704
1568795023.18267
1568795023.19829
1568795023.21392
1568795023.22954
1568795023.24517
1568795023.2608
1568795023.27642
1568795023.29205
1568795023.30767
1568795023.3233
1568795023.33892
1568795023.35455
1568795023.37018
1568795023.3858
1568795023.40143
1568795023.41705
1568795023.43268
1568795023.4483
1568795023.46393
1568795023.47956
1568795023.49518
1568795023.51081
1568795023.52643
1568795023.54206
1568795023.55768
1568795023.57331
1568795023.58894
1568795023.60456
1568795023.62019
1568795023.63581
1568795023.65144
1568795023.66706
1568795023.68269
1568795023.69832
1568795023.71394
1568795023.72957
1568795023.74519
1568795023.76082
1568795023.77644
1568795023.79207
1568795023.8077
1568795023.82332
1568795023.83895
1568795023.85457
1568795023.8702
1568795023.88582
1568795023.90145
1568795023.91708
1568795023.9327
1568795023.94833
1568795023.96395
1568795023.97958
1568795023.9952
1568795024.01083
1568795024.02646
1568795024.04208
1568795024.05771
1568795024.07333
1568795024.08896
1568795024.10458
1568795024.12021
1568795024.13584
1568795024.15146
1568795024.16709
1568795024.18271
1568795024.19834
1568795024.21396
1568795024.22959
1568795024.24522
1568795024.26084
1568795024.27647
1568795024.29209
1568795024.30772
1568795024.32334
1568795024.33897
1568795024.3546
1568795024.37022
1568795024.38585
1568795024.40147
1568795024.4171
1568795024.43272
1568795024.44835
1568795024.46398
1568795024.4796
1568795024.49523
1568795024.51085
1568795024.52648
1568795024.5421
1568795024.55773
1568795024.57336
1568795024.58898
1568795024.60461
1568795024.62023
1568795024.63586
1568795024.65148
1568795024.66711
1568795024.68274
1568795024.69836
1568795024.71399
1568795024.72961
1568795024.74524
1568795024.76087
1568795024.77649
1568795024.79212
1568795024.80774
1568795024.82337
1568795024.83899
1568795024.85462
1568795024.87025
1568795024.88587
1568795024.9015
1568795024.91712
1568795024.93275
1568795024.94837
1568795024.964
1568795024.97963
1568795024.99525
1568795025.01088
1568795025.0265
1568795025.04213
1568795025.05775
1568795025.07338
1568795025.08901
1568795025.10463
1568795025.12026
1568795025.13588
1568795025.15151
1568795025.16713
1568795025.18276
1568795025.19839
1568795025.21401
1568795025.22964
1568795025.24526
1568795025.26089
1568795025.27651
1568795025.29214
1568795025.30777
1568795025.32339
1568795025.33902
1568795025.35464
1568795025.37027
1568795025.38589
1568795025.40152
1568795025.41715
1568795025.43277
1568795025.4484
1568795025.46402
1568795025.47965
1568795025.49527
1568795025.5109
1568795025.52653
1568795025.54215
1568795025.55778
1568795025.5734
1568795025.58903
1568795025.60465
1568795025.62028
1568795025.63591
1568795025.65153
1568795025.66716
1568795025.68278
1568795025.69841
1568795025.71403
1568795025.72966
1568795025.74529
1568795025.76091
1568795025.77654
1568795025.79216
1568795025.80779
1568795025.82341
1568795025.83904
1568795025.85467
1568795025.87029
1568795025.88592
1568795025.90154
1568795025.91717
1568795025.93279
1568795025.94842
1568795025.96405
1568795025.97967
1568795025.9953
1568795026.01092
1568795026.02655
1568795026.04217
1568795026.0578
1568795026.07343
1568795026.08905
1568795026.10468
1568795026.1203
1568795026.13593
1568795026.15155
1568795026.16718
1568795026.18281
1568795026.19843
1568795026.21406
1568795026.22968
1568795026.24531
1568795026.26093
1568795026.27656
1568795026.29219
1568795026.30781
1568795026.32344
1568795026.33906
1568795026.35469
1568795026.37031
1568795026.38594
1568795026.40157
1568795026.41719
1568795026.43282
1568795026.44844
1568795026.46407
1568795026.47969
1568795026.49532
1568795026.51095
1568795026.52657
1568795026.5422
1568795026.55782
1568795026.57345
1568795026.58907
1568795026.6047
1568795026.62033
1568795026.63595
1568795026.65158
1568795026.6672
1568795026.68283
1568795026.69845
1568795026.71408
1568795026.72971
1568795026.74533
1568795026.76096
1568795026.77658
1568795026.79221
1568795026.80783
1568795026.82346
1568795026.83909
1568795026.85471
1568795026.87034
1568795026.88596
1568795026.90159
1568795026.91721
1568795026.93284
1568795026.94847
1568795026.96409
1568795026.97972
1568795026.99534
1568795027.01097
1568795027.0266
1568795027.04222
1568795027.05785
1568795027.07347
1568795027.0891
1568795027.10472
1568795027.12035
1568795027.13598
1568795027.1516
1568795027.16723
1568795027.18285
1568795027.19848
1568795027.2141
1568795027.22973
1568795027.24536
1568795027.26098
1568795027.27661
1568795027.29223
1568795027.30786
1568795027.32348
1568795027.33911
1568795027.35474
1568795027.37036
1568795027.38599
1568795027.40161
1568795027.41724
1568795027.43286
1568795027.44849
1568795027.46412
1568795027.47974
1568795027.49537
1568795027.51099
1568795027.52662
1568795027.54224
1568795027.55787
1568795027.5735
1568795027.58912
1568795027.60475
1568795027.62037
1568795027.636
1568795027.65162
1568795027.66725
1568795027.68288
1568795027.6985
1568795027.71413
1568795027.72975
1568795027.74538
1568795027.761
1568795027.77663
1568795027.79226
1568795027.80788
1568795027.82351
1568795027.83913
1568795027.85476
1568795027.87038
1568795027.88601
1568795027.90164
1568795027.91726
1568795027.93289
1568795027.94851
1568795027.96414
1568795027.97976
1568795027.99539
1568795028.01102
1568795028.02664
1568795028.04227
1568795028.05789
1568795028.07352
1568795028.08914
1568795028.10477
1568795028.1204
1568795028.13602
1568795028.15165
1568795028.16727
1568795028.1829
1568795028.19852
1568795028.21415
1568795028.22978
1568795028.2454
1568795028.26103
1568795028.27665
1568795028.29228
1568795028.3079
1568795028.32353
1568795028.33916
1568795028.35478
1568795028.37041
1568795028.38603
1568795028.40166
1568795028.41728
1568795028.43291
1568795028.44854
1568795028.46416
1568795028.47979
1568795028.49541
1568795028.51104
1568795028.52666
1568795028.54229
1568795028.55792
1568795028.57354
1568795028.58917
1568795028.60479
1568795028.62042
1568795028.63604
1568795028.65167
1568795028.6673
1568795028.68292
1568795028.69855
1568795028.71417
1568795028.7298
1568795028.74542
1568795028.76105
1568795028.77668
1568795028.7923
1568795028.80793
1568795028.82355
1568795028.83918
1568795028.8548
1568795028.87043
1568795028.88606
1568795028.90168
1568795028.91731
1568795028.93293
1568795028.94856
1568795028.96418
1568795028.97981
1568795028.99544
1568795029.01106
1568795029.02669
1568795029.04231
1568795029.05794
1568795029.07356
1568795029.08919
1568795029.10482
1568795029.12044
1568795029.13607
1568795029.15169
1568795029.16732
1568795029.18295
1568795029.19857
1568795029.2142
1568795029.22982
1568795029.24545
1568795029.26107
1568795029.2767
1568795029.29233
1568795029.30795
1568795029.32358
1568795029.3392
1568795029.35483
1568795029.37045
1568795029.38608
1568795029.40171
1568795029.41733
1568795029.43296
1568795029.44858
1568795029.46421
1568795029.47983
1568795029.49546
1568795029.51109
1568795029.52671
1568795029.54234
1568795029.55796
1568795029.57359
1568795029.58921
1568795029.60484
1568795029.62047
1568795029.63609
1568795029.65172
1568795029.66734
1568795029.68297
1568795029.69859
1568795029.71422
1568795029.72985
1568795029.74547
1568795029.7611
1568795029.77672
1568795029.79235
1568795029.80797
1568795029.8236
1568795029.83923
1568795029.85485
1568795029.87048
1568795029.8861
1568795029.90173
1568795029.91735
1568795029.93298
1568795029.94861
1568795029.96423
1568795029.97986
1568795029.99548
1568795030.01111
1568795030.02673
1568795030.04236
1568795030.05799
1568795030.07361
1568795030.08924
1568795030.10486
1568795030.12049
1568795030.13611
1568795030.15174
1568795030.16737
1568795030.18299
1568795030.19862
1568795030.21424
1568795030.22987
1568795030.24549
1568795030.26112
1568795030.27675
1568795030.29237
1568795030.308
1568795030.32362
1568795030.33925
1568795030.35487
1568795030.3705
1568795030.38613
1568795030.40175
1568795030.41738
1568795030.433
1568795030.44863
1568795030.46425
1568795030.47988
1568795030.49551
1568795030.51113
1568795030.52676
1568795030.54238
1568795030.55801
1568795030.57363
1568795030.58926
1568795030.60489
1568795030.62051
1568795030.63614
1568795030.65176
1568795030.66739
1568795030.68301
1568795030.69864
1568795030.71427
1568795030.72989
1568795030.74552
1568795030.76114
1568795030.77677
1568795030.79239
1568795030.80802
1568795030.82365
1568795030.83927
1568795030.8549
1568795030.87052
1568795030.88615
1568795030.90177
1568795030.9174
1568795030.93303
1568795030.94865
1568795030.96428
1568795030.9799
1568795030.99553
1568795031.01115
1568795031.02678
1568795031.04241
1568795031.05803
1568795031.07366
1568795031.08928
1568795031.10491
1568795031.12053
1568795031.13616
1568795031.15179
1568795031.16741
1568795031.18304
1568795031.19866
1568795031.21429
1568795031.22991
1568795031.24554
1568795031.26117
1568795031.27679
1568795031.29242
1568795031.30804
1568795031.32367
1568795031.33929
1568795031.35492
1568795031.37055
1568795031.38617
1568795031.4018
1568795031.41742
1568795031.43305
1568795031.44867
1568795031.4643
1568795031.47993
1568795031.49555
1568795031.51118
1568795031.5268
1568795031.54243
1568795031.55805
1568795031.57368
1568795031.58931
1568795031.60493
1568795031.62056
1568795031.63618
1568795031.65181
1568795031.66743
1568795031.68306
1568795031.69869
1568795031.71431
1568795031.72994
1568795031.74556
1568795031.76119
1568795031.77681
1568795031.79244
1568795031.80807
1568795031.82369
1568795031.83932
1568795031.85494
1568795031.87057
1568795031.8862
1568795031.90182
1568795031.91745
1568795031.93307
1568795031.9487
1568795031.96432
1568795031.97995
1568795031.99558
1568795032.0112
1568795032.02683
1568795032.04245
1568795032.05808
1568795032.0737
1568795032.08933
1568795032.10496
1568795032.12058
1568795032.13621
1568795032.15183
1568795032.16746
1568795032.18308
1568795032.19871
1568795032.21434
1568795032.22996
1568795032.24559
1568795032.26121
1568795032.27684
1568795032.29246
1568795032.30809
1568795032.32372
1568795032.33934
1568795032.35497
1568795032.37059
1568795032.38622
1568795032.40184
1568795032.41747
1568795032.4331
1568795032.44872
1568795032.46435
1568795032.47997
1568795032.4956
1568795032.51122
1568795032.52685
1568795032.54248
1568795032.5581
1568795032.57373
1568795032.58935
1568795032.60498
1568795032.6206
1568795032.63623
1568795032.65186
1568795032.66748
1568795032.68311
1568795032.69873
1568795032.71436
1568795032.72998
1568795032.74561
1568795032.76124
1568795032.77686
1568795032.79249
1568795032.80811
1568795032.82374
1568795032.83936
1568795032.85499
1568795032.87062
1568795032.88624
1568795032.90187
1568795032.91749
1568795032.93312
1568795032.94874
1568795032.96437
1568795032.98
1568795032.99562
1568795033.01125
1568795033.02687
1568795033.0425
1568795033.05812
1568795033.07375
1568795033.08938
1568795033.105
1568795033.12063
1568795033.13625
1568795033.15188
1568795033.1675
1568795033.18313
1568795033.19876
1568795033.21438
1568795033.23001
1568795033.24563
1568795033.26126
1568795033.27688
1568795033.29251
1568795033.30814
1568795033.32376
1568795033.33939
1568795033.35501
1568795033.37064
1568795033.38626
1568795033.40189
1568795033.41752
1568795033.43314
1568795033.44877
1568795033.46439
1568795033.48002
1568795033.49564
1568795033.51127
1568795033.5269
1568795033.54252
1568795033.55815
1568795033.57377
1568795033.5894
1568795033.60502
1568795033.62065
1568795033.63628
1568795033.6519
1568795033.66753
1568795033.68315
1568795033.69878
1568795033.7144
1568795033.73003
1568795033.74566
1568795033.76128
1568795033.77691
1568795033.79253
1568795033.80816
1568795033.82378
1568795033.83941
1568795033.85504
1568795033.87066
1568795033.88629
1568795033.90191
1568795033.91754
1568795033.93316
1568795033.94879
1568795033.96442
1568795033.98004
1568795033.99567
1568795034.01129
1568795034.02692
1568795034.04255
1568795034.05817
1568795034.0738
1568795034.08942
1568795034.10505
1568795034.12067
1568795034.1363
1568795034.15193
1568795034.16755
1568795034.18318
1568795034.1988
1568795034.21443
1568795034.23005
1568795034.24568
1568795034.26131
1568795034.27693
1568795034.29256
1568795034.30818
1568795034.32381
1568795034.33943
1568795034.35506
1568795034.37069
1568795034.38631
1568795034.40194
1568795034.41756
1568795034.43319
1568795034.44881
1568795034.46444
1568795034.48007
1568795034.49569
1568795034.51132
1568795034.52694
1568795034.54257
1568795034.55819
1568795034.57382
1568795034.58945
1568795034.60507
1568795034.6207
1568795034.63632
1568795034.65195
1568795034.66757
1568795034.6832
1568795034.69883
1568795034.71445
1568795034.73008
1568795034.7457
1568795034.76133
1568795034.77695
1568795034.79258
1568795034.80821
1568795034.82383
1568795034.83946
1568795034.85508
1568795034.87071
1568795034.88633
1568795034.90196
1568795034.91759
1568795034.93321
1568795034.94884
1568795034.96446
1568795034.98009
1568795034.99571
1568795035.01134
1568795035.02697
1568795035.04259
1568795035.05822
1568795035.07384
1568795035.08947
1568795035.10509
1568795035.12072
1568795035.13635
1568795035.15197
1568795035.1676
1568795035.18322
1568795035.19885
1568795035.21447
1568795035.2301
1568795035.24573
1568795035.26135
1568795035.27698
1568795035.2926
1568795035.30823
1568795035.32385
1568795035.33948
1568795035.35511
1568795035.37073
1568795035.38636
1568795035.40198
1568795035.41761
1568795035.43323
1568795035.44886
1568795035.46449
1568795035.48011
1568795035.49574
1568795035.51136
1568795035.52699
1568795035.54261
1568795035.55824
1568795035.57387
1568795035.58949
1568795035.60512
1568795035.62074
1568795035.63637
1568795035.65199
1568795035.66762
1568795035.68325
1568795035.69887
1568795035.7145
1568795035.73012
1568795035.74575
1568795035.76137
1568795035.777
1568795035.79263
1568795035.80825
1568795035.82388
1568795035.8395
1568795035.85513
1568795035.87075
1568795035.88638
1568795035.90201
1568795035.91763
1568795035.93326
1568795035.94888
1568795035.96451
1568795035.98013
1568795035.99576
1568795036.01139
1568795036.02701
1568795036.04264
1568795036.05826
1568795036.07389
1568795036.08951
1568795036.10514
1568795036.12077
1568795036.13639
1568795036.15202
1568795036.16764
1568795036.18327
1568795036.19889
1568795036.21452
1568795036.23015
1568795036.24577
1568795036.2614
1568795036.27702
1568795036.29265
1568795036.30827
1568795036.3239
1568795036.33953
1568795036.35515
1568795036.37078
1568795036.3864
1568795036.40203
1568795036.41765
1568795036.43328
1568795036.44891
1568795036.46453
1568795036.48016
1568795036.49578
1568795036.51141
1568795036.52704
1568795036.54266
1568795036.55829
1568795036.57391
1568795036.58954
1568795036.60516
1568795036.62079
1568795036.63642
1568795036.65204
1568795036.66767
1568795036.68329
1568795036.69892
1568795036.71454
1568795036.73017
1568795036.7458
1568795036.76142
1568795036.77705
1568795036.79267
1568795036.8083
1568795036.82392
1568795036.83955
1568795036.85518
1568795036.8708
1568795036.88643
1568795036.90205
1568795036.91768
1568795036.9333
1568795036.94893
1568795036.96456
1568795036.98018
1568795036.99581
1568795037.01143
1568795037.02706
1568795037.04268
1568795037.05831
1568795037.07394
1568795037.08956
1568795037.10519
1568795037.12081
1568795037.13644
1568795037.15206
1568795037.16769
1568795037.18332
1568795037.19894
1568795037.21457
1568795037.23019
1568795037.24582
1568795037.26144
1568795037.27707
1568795037.2927
1568795037.30832
1568795037.32395
1568795037.33957
1568795037.3552
1568795037.37082
1568795037.38645
1568795037.40208
1568795037.4177
1568795037.43333
1568795037.44895
1568795037.46458
1568795037.4802
1568795037.49583
1568795037.51146
1568795037.52708
1568795037.54271
1568795037.55833
1568795037.57396
1568795037.58958
1568795037.60521
1568795037.62084
1568795037.63646
1568795037.65209
1568795037.66771
1568795037.68334
1568795037.69896
1568795037.71459
1568795037.73022
1568795037.74584
1568795037.76147
1568795037.77709
1568795037.79272
1568795037.80834
1568795037.82397
1568795037.8396
1568795037.85522
1568795037.87085
1568795037.88647
1568795037.9021
1568795037.91772
1568795037.93335
1568795037.94898
1568795037.9646
1568795037.98023
1568795037.99585
1568795038.01148
1568795038.0271
1568795038.04273
1568795038.05836
1568795038.07398
1568795038.08961
1568795038.10523
1568795038.12086
1568795038.13648
1568795038.15211
1568795038.16774
1568795038.18336
1568795038.19899
1568795038.21461
1568795038.23024
1568795038.24586
1568795038.26149
1568795038.27712
1568795038.29274
1568795038.30837
1568795038.32399
1568795038.33962
1568795038.35524
1568795038.37087
1568795038.3865
1568795038.40212
1568795038.41775
1568795038.43337
1568795038.449
1568795038.46462
1568795038.48025
1568795038.49588
1568795038.5115
1568795038.52713
1568795038.54275
1568795038.55838
1568795038.574
1568795038.58963
1568795038.60526
1568795038.62088
1568795038.63651
1568795038.65213
1568795038.66776
1568795038.68338
1568795038.69901
1568795038.71464
1568795038.73026
1568795038.74589
1568795038.76151
1568795038.77714
1568795038.79276
1568795038.80839
1568795038.82402
1568795038.83964
1568795038.85527
1568795038.87089
1568795038.88652
1568795038.90215
1568795038.91777
1568795038.9334
1568795038.94902
1568795038.96465
1568795038.98027
1568795038.9959
1568795039.01153
1568795039.02715
1568795039.04278
1568795039.0584
1568795039.07403
1568795039.08965
1568795039.10528
1568795039.12091
1568795039.13653
1568795039.15216
1568795039.16778
1568795039.18341
1568795039.19903
1568795039.21466
1568795039.23029
1568795039.24591
1568795039.26154
1568795039.27716
1568795039.29279
1568795039.30841
1568795039.32404
1568795039.33967
1568795039.35529
1568795039.37092
1568795039.38654
1568795039.40217
1568795039.41779
1568795039.43342
1568795039.44905
1568795039.46467
1568795039.4803
1568795039.49592
1568795039.51155
1568795039.52717
1568795039.5428
1568795039.55843
1568795039.57405
1568795039.58968
1568795039.6053
1568795039.62093
1568795039.63655
1568795039.65218
1568795039.66781
1568795039.68343
1568795039.69906
1568795039.71468
1568795039.73031
1568795039.74593
1568795039.76156
1568795039.77719
1568795039.79281
1568795039.80844
1568795039.82406
1568795039.83969
1568795039.85531
1568795039.87094
1568795039.88657
1568795039.90219
1568795039.91782
1568795039.93344
1568795039.94907
1568795039.96469
1568795039.98032
1568795039.99595
1568795040.01157
1568795040.0272
1568795040.04282
1568795040.05845
1568795040.07407
1568795040.0897
1568795040.10533
1568795040.12095
1568795040.13658
1568795040.1522
1568795040.16783
1568795040.18345
1568795040.19908
1568795040.21471
1568795040.23033
1568795040.24596
1568795040.26158
1568795040.27721
1568795040.29283
1568795040.30846
1568795040.32409
1568795040.33971
1568795040.35534
1568795040.37096
1568795040.38659
1568795040.40221
1568795040.41784
1568795040.43347
1568795040.44909
1568795040.46472
1568795040.48034
1568795040.49597
1568795040.51159
1568795040.52722
1568795040.54285
1568795040.55847
1568795040.5741
1568795040.58972
1568795040.60535
1568795040.62097
1568795040.6366
1568795040.65223
1568795040.66785
1568795040.68348
1568795040.6991
1568795040.71473
1568795040.73035
1568795040.74598
1568795040.76161
1568795040.77723
1568795040.79286
1568795040.80848
1568795040.82411
1568795040.83973
1568795040.85536
1568795040.87099
1568795040.88661
1568795040.90224
1568795040.91786
1568795040.93349
1568795040.94911
1568795040.96474
1568795040.98037
1568795040.99599
1568795041.01162
1568795041.02724
1568795041.04287
1568795041.05849
1568795041.07412
1568795041.08975
1568795041.10537
1568795041.121
1568795041.13662
1568795041.15225
1568795041.16788
1568795041.1835
1568795041.19913
1568795041.21475
1568795041.23038
1568795041.246
1568795041.26163
1568795041.27726
1568795041.29288
1568795041.30851
1568795041.32413
1568795041.33976
1568795041.35538
1568795041.37101
1568795041.38664
1568795041.40226
1568795041.41789
1568795041.43351
1568795041.44914
1568795041.46476
1568795041.48039
1568795041.49602
1568795041.51164
1568795041.52727
1568795041.54289
1568795041.55852
1568795041.57414
1568795041.58977
1568795041.6054
1568795041.62102
1568795041.63665
1568795041.65227
1568795041.6679
1568795041.68352
1568795041.69915
1568795041.71478
1568795041.7304
1568795041.74603
1568795041.76165
1568795041.77728
1568795041.7929
1568795041.80853
1568795041.82416
1568795041.83978
1568795041.85541
1568795041.87103
1568795041.88666
1568795041.90228
1568795041.91791
1568795041.93354
1568795041.94916
1568795041.96479
1568795041.98041
1568795041.99604
1568795042.01166
1568795042.02729
1568795042.04292
1568795042.05854
1568795042.07417
1568795042.08979
1568795042.10542
1568795042.12104
1568795042.13667
1568795042.1523
1568795042.16792
1568795042.18355
1568795042.19917
1568795042.2148
1568795042.23042
1568795042.24605
1568795042.26168
1568795042.2773
1568795042.29293
1568795042.30855
1568795042.32418
1568795042.3398
1568795042.35543
1568795042.37106
1568795042.38668
1568795042.40231
1568795042.41793
1568795042.43356
1568795042.44918
1568795042.46481
1568795042.48044
1568795042.49606
1568795042.51169
1568795042.52731
1568795042.54294
1568795042.55856
1568795042.57419
1568795042.58982
1568795042.60544
1568795042.62107
1568795042.63669
1568795042.65232
1568795042.66794
1568795042.68357
1568795042.6992
1568795042.71482
1568795042.73045
1568795042.74607
1568795042.7617
1568795042.77732
1568795042.79295
1568795042.80858
1568795042.8242
1568795042.83983
1568795042.85545
1568795042.87108
1568795042.8867
1568795042.90233
1568795042.91796
1568795042.93358
1568795042.94921
1568795042.96483
1568795042.98046
1568795042.99608
1568795043.01171
1568795043.02734
1568795043.04296
1568795043.05859
1568795043.07421
1568795043.08984
1568795043.10546
1568795043.12109
1568795043.13672
1568795043.15234
1568795043.16797
1568795043.18359
1568795043.19922
1568795043.21484
1568795043.23047
1568795043.2461
1568795043.26172
1568795043.27735
1568795043.29297
1568795043.3086
1568795043.32422
1568795043.33985
1568795043.35548
1568795043.3711
1568795043.38673
1568795043.40235
1568795043.41798
1568795043.4336
1568795043.44923
1568795043.46486
1568795043.48048
1568795043.49611
1568795043.51173
1568795043.52736
1568795043.54298
1568795043.55861
1568795043.57424
1568795043.58986
1568795043.60549
1568795043.62111
1568795043.63674
1568795043.65236
1568795043.66799
1568795043.68362
1568795043.69924
1568795043.71487
1568795043.73049
1568795043.74612
1568795043.76175
1568795043.77737
1568795043.793
1568795043.80862
1568795043.82425
1568795043.83987
1568795043.8555
1568795043.87113
1568795043.88675
1568795043.90238
1568795043.918
1568795043.93363
1568795043.94925
1568795043.96488
1568795043.98051
1568795043.99613
1568795044.01176
1568795044.02738
1568795044.04301
1568795044.05863
1568795044.07426
1568795044.08989
1568795044.10551
1568795044.12114
1568795044.13676
1568795044.15239
1568795044.16801
1568795044.18364
1568795044.19927
1568795044.21489
1568795044.23052
1568795044.24614
1568795044.26177
1568795044.27739
1568795044.29302
1568795044.30865
1568795044.32427
1568795044.3399
1568795044.35552
1568795044.37115
1568795044.38677
1568795044.4024
1568795044.41803
1568795044.43365
1568795044.44928
1568795044.4649
1568795044.48053
1568795044.49615
1568795044.51178
1568795044.52741
1568795044.54303
1568795044.55866
1568795044.57428
1568795044.58991
1568795044.60553
1568795044.62116
1568795044.63679
1568795044.65241
1568795044.66804
1568795044.68366
1568795044.69929
1568795044.71491
1568795044.73054
1568795044.74617
1568795044.76179
1568795044.77742
1568795044.79304
1568795044.80867
1568795044.82429
1568795044.83992
1568795044.85555
1568795044.87117
1568795044.8868
1568795044.90242
1568795044.91805
1568795044.93367
1568795044.9493
1568795044.96493
1568795044.98055
1568795044.99618
1568795045.0118
1568795045.02743
1568795045.04305
1568795045.05868
1568795045.07431
1568795045.08993
1568795045.10556
1568795045.12118
1568795045.13681
1568795045.15243
1568795045.16806
1568795045.18369
1568795045.19931
1568795045.21494
1568795045.23056
1568795045.24619
1568795045.26181
1568795045.27744
1568795045.29307
1568795045.30869
1568795045.32432
1568795045.33994
1568795045.35557
1568795045.37119
1568795045.38682
1568795045.40245
1568795045.41807
1568795045.4337
1568795045.44932
1568795045.46495
1568795045.48057
1568795045.4962
1568795045.51183
1568795045.52745
1568795045.54308
1568795045.5587
1568795045.57433
1568795045.58995
1568795045.60558
1568795045.62121
1568795045.63683
1568795045.65246
1568795045.66808
1568795045.68371
1568795045.69933
1568795045.71496
1568795045.73059
1568795045.74621
1568795045.76184
1568795045.77746
1568795045.79309
1568795045.80871
1568795045.82434
1568795045.83997
1568795045.85559
1568795045.87122
1568795045.88684
1568795045.90247
1568795045.91809
1568795045.93372
1568795045.94935
1568795045.96497
1568795045.9806
1568795045.99622
1568795046.01185
1568795046.02748
1568795046.0431
1568795046.05873
1568795046.07435
1568795046.08998
1568795046.1056
1568795046.12123
1568795046.13686
1568795046.15248
1568795046.16811
1568795046.18373
1568795046.19936
1568795046.21498
1568795046.23061
1568795046.24624
1568795046.26186
1568795046.27749
1568795046.29311
1568795046.30874
1568795046.32436
1568795046.33999
1568795046.35562
1568795046.37124
1568795046.38687
1568795046.40249
1568795046.41812
1568795046.43374
1568795046.44937
1568795046.465
1568795046.48062
1568795046.49625
1568795046.51187
1568795046.5275
1568795046.54312
1568795046.55875
1568795046.57438
1568795046.59
1568795046.60563
1568795046.62125
1568795046.63688
1568795046.6525
1568795046.66813
1568795046.68376
1568795046.69938
1568795046.71501
1568795046.73063
1568795046.74626
1568795046.76188
1568795046.77751
1568795046.79314
1568795046.80876
1568795046.82439
1568795046.84001
1568795046.85564
1568795046.87126
1568795046.88689
1568795046.90252
1568795046.91814
1568795046.93377
1568795046.94939
1568795046.96502
1568795046.98064
1568795046.99627
1568795047.0119
1568795047.02752
1568795047.04315
1568795047.05877
1568795047.0744
1568795047.09002
1568795047.10565
1568795047.12128
1568795047.1369
1568795047.15253
1568795047.16815
1568795047.18378
1568795047.1994
1568795047.21503
1568795047.23066
1568795047.24628
1568795047.26191
1568795047.27753
1568795047.29316
1568795047.30878
1568795047.32441
1568795047.34004
1568795047.35566
1568795047.37129
1568795047.38691
1568795047.40254
1568795047.41816
1568795047.43379
1568795047.44942
1568795047.46504
1568795047.48067
1568795047.49629
1568795047.51192
1568795047.52754
1568795047.54317
1568795047.5588
1568795047.57442
1568795047.59005
1568795047.60567
1568795047.6213
1568795047.63692
1568795047.65255
1568795047.66818
1568795047.6838
1568795047.69943
1568795047.71505
1568795047.73068
1568795047.7463
1568795047.76193
1568795047.77756
1568795047.79318
1568795047.80881
1568795047.82443
1568795047.84006
1568795047.85568
1568795047.87131
1568795047.88694
1568795047.90256
1568795047.91819
1568795047.93381
1568795047.94944
1568795047.96506
1568795047.98069
1568795047.99632
1568795048.01194
1568795048.02757
1568795048.04319
1568795048.05882
1568795048.07444
1568795048.09007
1568795048.1057
1568795048.12132
1568795048.13695
1568795048.15257
1568795048.1682
1568795048.18383
1568795048.19945
1568795048.21508
1568795048.2307
1568795048.24633
1568795048.26195
1568795048.27758
1568795048.29321
1568795048.30883
1568795048.32446
1568795048.34008
1568795048.35571
1568795048.37133
1568795048.38696
1568795048.40259
1568795048.41821
1568795048.43384
1568795048.44946
1568795048.46509
1568795048.48071
1568795048.49634
1568795048.51197
1568795048.52759
1568795048.54322
1568795048.55884
1568795048.57447
1568795048.59009
1568795048.60572
1568795048.62135
1568795048.63697
1568795048.6526
1568795048.66822
1568795048.68385
1568795048.69947
1568795048.7151
1568795048.73073
1568795048.74635
1568795048.76198
1568795048.7776
1568795048.79323
1568795048.80885
1568795048.82448
1568795048.84011
1568795048.85573
1568795048.87136
1568795048.88698
1568795048.90261
1568795048.91823
1568795048.93386
1568795048.94949
1568795048.96511
1568795048.98074
1568795048.99636
1568795049.01199
1568795049.02761
1568795049.04324
1568795049.05887
1568795049.07449
1568795049.09012
1568795049.10574
1568795049.12137
1568795049.13699
1568795049.15262
1568795049.16825
1568795049.18387
1568795049.1995
1568795049.21512
1568795049.23075
1568795049.24637
1568795049.262
1568795049.27763
1568795049.29325
1568795049.30888
1568795049.3245
1568795049.34013
1568795049.35575
1568795049.37138
1568795049.38701
1568795049.40263
1568795049.41826
1568795049.43388
1568795049.44951
1568795049.46513
1568795049.48076
1568795049.49639
1568795049.51201
1568795049.52764
1568795049.54326
1568795049.55889
1568795049.57451
1568795049.59014
1568795049.60577
1568795049.62139
1568795049.63702
1568795049.65264
1568795049.66827
1568795049.68389
1568795049.69952
1568795049.71515
1568795049.73077
1568795049.7464
1568795049.76202
1568795049.77765
1568795049.79327
1568795049.8089
1568795049.82453
1568795049.84015
1568795049.85578
1568795049.8714
1568795049.88703
1568795049.90265
1568795049.91828
1568795049.93391
1568795049.94953
1568795049.96516
1568795049.98078
1568795049.99641
1568795050.01203
1568795050.02766
1568795050.04329
1568795050.05891
1568795050.07454
1568795050.09016
1568795050.10579
1568795050.12141
1568795050.13704
1568795050.15267
1568795050.16829
1568795050.18392
1568795050.19954
1568795050.21517
1568795050.23079
1568795050.24642
1568795050.26205
1568795050.27767
1568795050.2933
1568795050.30892
1568795050.32455
1568795050.34017
1568795050.3558
1568795050.37143
1568795050.38705
1568795050.40268
1568795050.4183
1568795050.43393
1568795050.44955
1568795050.46518
1568795050.48081
1568795050.49643
1568795050.51206
1568795050.52768
1568795050.54331
1568795050.55893
1568795050.57456
1568795050.59019
1568795050.60581
1568795050.62144
1568795050.63706
1568795050.65269
1568795050.66831
1568795050.68394
1568795050.69957
1568795050.71519
1568795050.73082
1568795050.74644
1568795050.76207
1568795050.77769
1568795050.79332
1568795050.80895
1568795050.82457
1568795050.8402
1568795050.85582
1568795050.87145
1568795050.88708
1568795050.9027
1568795050.91833
1568795050.93395
1568795050.94958
1568795050.9652
1568795050.98083
1568795050.99646
1568795051.01208
1568795051.02771
1568795051.04333
1568795051.05896
1568795051.07458
1568795051.09021
1568795051.10584
1568795051.12146
1568795051.13709
1568795051.15271
1568795051.16834
1568795051.18396
1568795051.19959
1568795051.21522
1568795051.23084
1568795051.24647
1568795051.26209
1568795051.27772
1568795051.29334
1568795051.30897
1568795051.3246
1568795051.34022
1568795051.35585
1568795051.37147
1568795051.3871
1568795051.40272
1568795051.41835
1568795051.43398
1568795051.4496
1568795051.46523
1568795051.48085
1568795051.49648
1568795051.5121
1568795051.52773
1568795051.54336
1568795051.55898
1568795051.57461
1568795051.59023
1568795051.60586
1568795051.62148
1568795051.63711
1568795051.65274
1568795051.66836
1568795051.68399
1568795051.69961
1568795051.71524
1568795051.73086
1568795051.74649
1568795051.76212
1568795051.77774
1568795051.79337
1568795051.80899
1568795051.82462
1568795051.84024
1568795051.85587
1568795051.8715
1568795051.88712
1568795051.90275
1568795051.91837
1568795051.934
1568795051.94962
1568795051.96525
1568795051.98088
1568795051.9965
1568795052.01213
1568795052.02775
1568795052.04338
1568795052.059
1568795052.07463
1568795052.09026
1568795052.10588
1568795052.12151
1568795052.13713
1568795052.15276
1568795052.16838
1568795052.18401
1568795052.19964
1568795052.21526
1568795052.23089
1568795052.24651
1568795052.26214
1568795052.27776
1568795052.29339
1568795052.30902
1568795052.32464
1568795052.34027
1568795052.35589
1568795052.37152
1568795052.38714
1568795052.40277
1568795052.4184
1568795052.43402
1568795052.44965
1568795052.46527
1568795052.4809
1568795052.49652
1568795052.51215
1568795052.52778
1568795052.5434
1568795052.55903
1568795052.57465
1568795052.59028
1568795052.6059
1568795052.62153
1568795052.63716
1568795052.65278
1568795052.66841
1568795052.68403
1568795052.69966
1568795052.71528
1568795052.73091
1568795052.74654
1568795052.76216
1568795052.77779
1568795052.79341
1568795052.80904
1568795052.82466
1568795052.84029
1568795052.85592
1568795052.87154
1568795052.88717
1568795052.90279
1568795052.91842
1568795052.93404
1568795052.94967
1568795052.9653
1568795052.98092
1568795052.99655
1568795053.01217
1568795053.0278
1568795053.04343
1568795053.05905
1568795053.07468
1568795053.0903
1568795053.10593
1568795053.12155
1568795053.13718
1568795053.15281
1568795053.16843
1568795053.18406
1568795053.19968
1568795053.21531
1568795053.23093
1568795053.24656
1568795053.26219
1568795053.27781
1568795053.29344
1568795053.30906
1568795053.32469
1568795053.34031
1568795053.35594
1568795053.37157
1568795053.38719
1568795053.40282
1568795053.41844
1568795053.43407
1568795053.44969
1568795053.46532
1568795053.48095
1568795053.49657
1568795053.5122
1568795053.52782
1568795053.54345
1568795053.55907
1568795053.5747
1568795053.59033
1568795053.60595
1568795053.62158
1568795053.6372
1568795053.65283
1568795053.66845
1568795053.68408
1568795053.69971
1568795053.71533
1568795053.73096
1568795053.74658
1568795053.76221
1568795053.77783
1568795053.79346
1568795053.80909
1568795053.82471
1568795053.84034
1568795053.85596
1568795053.87159
1568795053.88721
1568795053.90284
1568795053.91847
1568795053.93409
1568795053.94972
1568795053.96534
1568795053.98097
1568795053.99659
1568795054.01222
1568795054.02785
1568795054.04347
1568795054.0591
1568795054.07472
1568795054.09035
1568795054.10597
1568795054.1216
1568795054.13723
1568795054.15285
1568795054.16848
1568795054.1841
1568795054.19973
1568795054.21535
1568795054.23098
1568795054.24661
1568795054.26223
1568795054.27786
1568795054.29348
1568795054.30911
1568795054.32473
1568795054.34036
1568795054.35599
1568795054.37161
1568795054.38724
1568795054.40286
1568795054.41849
1568795054.43411
1568795054.44974
1568795054.46537
1568795054.48099
1568795054.49662
1568795054.51224
1568795054.52787
1568795054.54349
1568795054.55912
1568795054.57475
1568795054.59037
1568795054.606
1568795054.62162
1568795054.63725
1568795054.65287
1568795054.6685
1568795054.68413
1568795054.69975
1568795054.71538
1568795054.731
1568795054.74663
1568795054.76225
1568795054.77788
1568795054.79351
1568795054.80913
1568795054.82476
1568795054.84038
1568795054.85601
1568795054.87163
1568795054.88726
1568795054.90289
1568795054.91851
1568795054.93414
1568795054.94976
1568795054.96539
1568795054.98101
1568795054.99664
1568795055.01227
1568795055.02789
1568795055.04352
1568795055.05914
1568795055.07477
1568795055.09039
1568795055.10602
1568795055.12165
1568795055.13727
1568795055.1529
1568795055.16852
1568795055.18415
1568795055.19977
1568795055.2154
1568795055.23103
1568795055.24665
1568795055.26228
1568795055.2779
1568795055.29353
1568795055.30915
1568795055.32478
1568795055.34041
1568795055.35603
1568795055.37166
1568795055.38728
1568795055.40291
1568795055.41853
1568795055.43416
1568795055.44979
1568795055.46541
1568795055.48104
1568795055.49666
1568795055.51229
1568795055.52792
1568795055.54354
1568795055.55917
1568795055.57479
1568795055.59042
1568795055.60604
1568795055.62167
1568795055.6373
1568795055.65292
1568795055.66855
1568795055.68417
1568795055.6998
1568795055.71542
1568795055.73105
1568795055.74668
1568795055.7623
1568795055.77793
1568795055.79355
1568795055.80918
1568795055.8248
1568795055.84043
1568795055.85606
1568795055.87168
1568795055.88731
1568795055.90293
1568795055.91856
1568795055.93418
1568795055.94981
1568795055.96544
1568795055.98106
1568795055.99669
1568795056.01231
1568795056.02794
1568795056.04356
1568795056.05919
1568795056.07482
1568795056.09044
1568795056.10607
1568795056.12169
1568795056.13732
1568795056.15294
1568795056.16857
1568795056.1842
1568795056.19982
1568795056.21545
1568795056.23107
1568795056.2467
1568795056.26232
1568795056.27795
1568795056.29358
1568795056.3092
1568795056.32483
1568795056.34045
1568795056.35608
1568795056.3717
1568795056.38733
1568795056.40296
1568795056.41858
1568795056.43421
1568795056.44983
1568795056.46546
1568795056.48108
1568795056.49671
1568795056.51234
1568795056.52796
1568795056.54359
1568795056.55921
1568795056.57484
1568795056.59046
1568795056.60609
1568795056.62172
1568795056.63734
1568795056.65297
1568795056.66859
1568795056.68422
1568795056.69984
1568795056.71547
1568795056.7311
1568795056.74672
1568795056.76235
1568795056.77797
1568795056.7936
1568795056.80922
1568795056.82485
1568795056.84048
1568795056.8561
1568795056.87173
1568795056.88735
1568795056.90298
1568795056.9186
1568795056.93423
1568795056.94986
1568795056.96548
1568795056.98111
1568795056.99673
1568795057.01236
1568795057.02798
1568795057.04361
1568795057.05924
1568795057.07486
1568795057.09049
1568795057.10611
1568795057.12174
1568795057.13736
1568795057.15299
1568795057.16862
1568795057.18424
1568795057.19987
1568795057.21549
1568795057.23112
1568795057.24674
1568795057.26237
1568795057.278
1568795057.29362
1568795057.30925
1568795057.32487
1568795057.3405
1568795057.35612
1568795057.37175
1568795057.38738
1568795057.403
1568795057.41863
1568795057.43425
1568795057.44988
1568795057.4655
1568795057.48113
1568795057.49676
1568795057.51238
1568795057.52801
1568795057.54363
1568795057.55926
1568795057.57488
1568795057.59051
1568795057.60614
1568795057.62176
1568795057.63739
1568795057.65301
1568795057.66864
1568795057.68426
1568795057.69989
1568795057.71552
1568795057.73114
1568795057.74677
1568795057.76239
1568795057.77802
1568795057.79364
1568795057.80927
1568795057.8249
1568795057.84052
1568795057.85615
1568795057.87177
1568795057.8874
1568795057.90302
1568795057.91865
1568795057.93428
1568795057.9499
1568795057.96553
1568795057.98115
1568795057.99678
1568795058.01241
1568795058.02803
1568795058.04366
1568795058.05928
1568795058.07491
1568795058.09053
1568795058.10616
1568795058.12179
1568795058.13741
1568795058.15304
1568795058.16866
1568795058.18429
1568795058.19991
1568795058.21554
1568795058.23117
1568795058.24679
1568795058.26242
1568795058.27804
1568795058.29367
1568795058.30929
1568795058.32492
1568795058.34055
1568795058.35617
1568795058.3718
1568795058.38742
1568795058.40305
1568795058.41867
1568795058.4343
1568795058.44993
1568795058.46555
1568795058.48118
1568795058.4968
1568795058.51243
1568795058.52805
1568795058.54368
1568795058.55931
1568795058.57493
1568795058.59056
1568795058.60618
1568795058.62181
1568795058.63743
1568795058.65306
1568795058.66869
1568795058.68431
1568795058.69994
1568795058.71556
1568795058.73119
1568795058.74681
1568795058.76244
1568795058.77807
1568795058.79369
1568795058.80932
1568795058.82494
1568795058.84057
1568795058.85619
1568795058.87182
1568795058.88745
1568795058.90307
1568795058.9187
1568795058.93432
1568795058.94995
1568795058.96557
1568795058.9812
1568795058.99683
1568795059.01245
1568795059.02808
1568795059.0437
1568795059.05933
1568795059.07495
1568795059.09058
1568795059.10621
1568795059.12183
1568795059.13746
1568795059.15308
1568795059.16871
1568795059.18433
1568795059.19996
1568795059.21559
1568795059.23121
1568795059.24684
1568795059.26246
1568795059.27809
1568795059.29371
1568795059.30934
1568795059.32497
1568795059.34059
1568795059.35622
1568795059.37184
1568795059.38747
1568795059.40309
1568795059.41872
1568795059.43435
1568795059.44997
1568795059.4656
1568795059.48122
1568795059.49685
1568795059.51247
1568795059.5281
1568795059.54373
1568795059.55935
1568795059.57498
1568795059.5906
1568795059.60623
1568795059.62185
1568795059.63748
1568795059.65311
1568795059.66873
1568795059.68436
1568795059.69998
1568795059.71561
1568795059.73123
1568795059.74686
1568795059.76249
1568795059.77811
1568795059.79374
1568795059.80936
1568795059.82499
1568795059.84061
1568795059.85624
1568795059.87187
1568795059.88749
1568795059.90312
1568795059.91874
1568795059.93437
1568795059.94999
1568795059.96562
1568795059.98125
1568795059.99687
1568795060.0125
1568795060.02812
1568795060.04375
1568795060.05937
1568795060.075
1568795060.09063
1568795060.10625
1568795060.12188
1568795060.1375
1568795060.15313
1568795060.16876
1568795060.18438
1568795060.20001
1568795060.21563
1568795060.23126
1568795060.24688
1568795060.26251
1568795060.27814
1568795060.29376
1568795060.30939
1568795060.32501
1568795060.34064
1568795060.35626
1568795060.37189
1568795060.38752
1568795060.40314
1568795060.41877
1568795060.43439
1568795060.45002
1568795060.46564
1568795060.48127
1568795060.4969
1568795060.51252
1568795060.52815
1568795060.54377
1568795060.5594
1568795060.57502
1568795060.59065
1568795060.60628
1568795060.6219
1568795060.63753
1568795060.65315
1568795060.66878
1568795060.6844
1568795060.70003
1568795060.71566
1568795060.73128
1568795060.74691
1568795060.76253
1568795060.77816
1568795060.79378
1568795060.80941
1568795060.82504
1568795060.84066
1568795060.85629
1568795060.87191
1568795060.88754
1568795060.90316
1568795060.91879
1568795060.93442
1568795060.95004
1568795060.96567
1568795060.98129
1568795060.99692
1568795061.01254
1568795061.02817
1568795061.0438
1568795061.05942
1568795061.07505
1568795061.09067
1568795061.1063
1568795061.12192
1568795061.13755
1568795061.15318
1568795061.1688
1568795061.18443
1568795061.20005
1568795061.21568
1568795061.2313
1568795061.24693
1568795061.26256
1568795061.27818
1568795061.29381
1568795061.30943
1568795061.32506
1568795061.34068
1568795061.35631
1568795061.37194
1568795061.38756
1568795061.40319
1568795061.41881
1568795061.43444
1568795061.45006
1568795061.46569
1568795061.48132
1568795061.49694
1568795061.51257
1568795061.52819
1568795061.54382
1568795061.55944
1568795061.57507
1568795061.5907
1568795061.60632
1568795061.62195
1568795061.63757
1568795061.6532
1568795061.66882
1568795061.68445
1568795061.70008
1568795061.7157
1568795061.73133
1568795061.74695
1568795061.76258
1568795061.7782
1568795061.79383
1568795061.80946
1568795061.82508
1568795061.84071
1568795061.85633
1568795061.87196
1568795061.88758
1568795061.90321
1568795061.91884
1568795061.93446
1568795061.95009
1568795061.96571
1568795061.98134
1568795061.99696
1568795062.01259
1568795062.02822
1568795062.04384
1568795062.05947
1568795062.07509
1568795062.09072
1568795062.10634
1568795062.12197
1568795062.1376
1568795062.15322
1568795062.16885
1568795062.18447
1568795062.2001
1568795062.21572
1568795062.23135
1568795062.24698
1568795062.2626
1568795062.27823
1568795062.29385
1568795062.30948
1568795062.3251
1568795062.34073
1568795062.35636
1568795062.37198
1568795062.38761
1568795062.40323
1568795062.41886
1568795062.43448
1568795062.45011
1568795062.46574
1568795062.48136
1568795062.49699
1568795062.51261
1568795062.52824
1568795062.54386
1568795062.55949
1568795062.57512
1568795062.59074
1568795062.60637
1568795062.62199
1568795062.63762
1568795062.65324
1568795062.66887
1568795062.6845
1568795062.70012
1568795062.71575
1568795062.73137
1568795062.747
1568795062.76262
1568795062.77825
1568795062.79388
1568795062.8095
1568795062.82513
1568795062.84075
1568795062.85638
1568795062.87201
1568795062.88763
1568795062.90326
1568795062.91888
1568795062.93451
1568795062.95013
1568795062.96576
1568795062.98139
1568795062.99701
1568795063.01264
1568795063.02826
1568795063.04389
1568795063.05951
1568795063.07514
1568795063.09077
1568795063.10639
1568795063.12202
1568795063.13764
1568795063.15327
1568795063.16889
1568795063.18452
1568795063.20015
1568795063.21577
1568795063.2314
1568795063.24702
1568795063.26265
1568795063.27827
1568795063.2939
1568795063.30953
1568795063.32515
1568795063.34078
1568795063.3564
1568795063.37203
1568795063.38765
1568795063.40328
1568795063.41891
1568795063.43453
1568795063.45016
1568795063.46578
1568795063.48141
1568795063.49703
1568795063.51266
1568795063.52829
1568795063.54391
1568795063.55954
1568795063.57516
1568795063.59079
1568795063.60641
1568795063.62204
1568795063.63767
1568795063.65329
1568795063.66892
1568795063.68454
1568795063.70017
1568795063.71579
1568795063.73142
1568795063.74705
1568795063.76267
1568795063.7783
1568795063.79392
1568795063.80955
1568795063.82517
1568795063.8408
1568795063.85643
1568795063.87205
1568795063.88768
1568795063.9033
1568795063.91893
1568795063.93455
1568795063.95018
1568795063.96581
1568795063.98143
1568795063.99706
1568795064.01268
1568795064.02831
1568795064.04393
1568795064.05956
1568795064.07519
1568795064.09081
1568795064.10644
1568795064.12206
1568795064.13769
1568795064.15331
1568795064.16894
1568795064.18457
1568795064.20019
1568795064.21582
1568795064.23144
1568795064.24707
1568795064.26269
1568795064.27832
1568795064.29395
1568795064.30957
1568795064.3252
1568795064.34082
1568795064.35645
1568795064.37207
1568795064.3877
1568795064.40333
1568795064.41895
1568795064.43458
1568795064.4502
1568795064.46583
1568795064.48145
1568795064.49708
1568795064.51271
1568795064.52833
1568795064.54396
1568795064.55958
1568795064.57521
1568795064.59083
1568795064.60646
1568795064.62209
1568795064.63771
1568795064.65334
1568795064.66896
1568795064.68459
1568795064.70021
1568795064.71584
1568795064.73147
1568795064.74709
1568795064.76272
1568795064.77834
1568795064.79397
1568795064.80959
1568795064.82522
1568795064.84085
1568795064.85647
1568795064.8721
1568795064.88772
1568795064.90335
1568795064.91897
1568795064.9346
1568795064.95023
1568795064.96585
1568795064.98148
1568795064.9971
1568795065.01273
1568795065.02836
1568795065.04398
1568795065.05961
1568795065.07523
1568795065.09086
1568795065.10648
1568795065.12211
1568795065.13774
1568795065.15336
1568795065.16899
1568795065.18461
1568795065.20024
1568795065.21586
1568795065.23149
1568795065.24712
1568795065.26274
1568795065.27837
1568795065.29399
1568795065.30962
1568795065.32524
1568795065.34087
1568795065.3565
1568795065.37212
1568795065.38775
1568795065.40337
1568795065.419
1568795065.43462
1568795065.45025
1568795065.46588
1568795065.4815
1568795065.49713
1568795065.51275
1568795065.52838
1568795065.544
1568795065.55963
1568795065.57526
1568795065.59088
1568795065.60651
1568795065.62213
1568795065.63776
1568795065.65338
1568795065.66901
1568795065.68464
1568795065.70026
1568795065.71589
1568795065.73151
1568795065.74714
1568795065.76276
1568795065.77839
1568795065.79402
1568795065.80964
1568795065.82527
1568795065.84089
1568795065.85652
1568795065.87214
1568795065.88777
1568795065.9034
1568795065.91902
1568795065.93465
1568795065.95027
1568795065.9659
1568795065.98152
1568795065.99715
1568795066.01278
1568795066.0284
1568795066.04403
1568795066.05965
1568795066.07528
1568795066.0909
1568795066.10653
1568795066.12216
1568795066.13778
1568795066.15341
1568795066.16903
1568795066.18466
1568795066.20028
1568795066.21591
1568795066.23154
1568795066.24716
1568795066.26279
1568795066.27841
1568795066.29404
1568795066.30966
1568795066.32529
1568795066.34092
1568795066.35654
1568795066.37217
1568795066.38779
1568795066.40342
1568795066.41904
1568795066.43467
1568795066.4503
1568795066.46592
1568795066.48155
1568795066.49717
1568795066.5128
1568795066.52842
1568795066.54405
1568795066.55968
1568795066.5753
