1568796004.61875
1568796004.63437
1568796004.65
1568796004.66562
1568796004.68125
1568796004.69687
1568796004.7125
1568796004.72813
1568796004.74375
1568796004.75938
1568796004.775
1568796004.79063
1568796004.80625
1568796004.82188
1568796004.83751
1568796004.85313
1568796004.86876
1568796004.88438
1568796004.90001
1568796004.91563
1568796004.93126
1568796004.94689
1568796004.96251
1568796004.97814
1568796004.99376
1568796005.00939
1568796005.02501
1568796005.04064
1568796005.05627
1568796005.07189
1568796005.08752
1568796005.10314
1568796005.11877
1568796005.13439
1568796005.15002
1568796005.16565
1568796005.18127
1568796005.1969
1568796005.21252
1568796005.22815
1568796005.24377
1568796005.2594
1568796005.27503
1568796005.29065
1568796005.30628
1568796005.3219
1568796005.33753
1568796005.35315
1568796005.36878
1568796005.38441
1568796005.40003
1568796005.41566
1568796005.43128
1568796005.44691
1568796005.46253
1568796005.47816
1568796005.49379
1568796005.50941
1568796005.52504
1568796005.54066
1568796005.55629
1568796005.57191
1568796005.58754
1568796005.60317
1568796005.61879
1568796005.63442
1568796005.65004
1568796005.66567
1568796005.68129
1568796005.69692
1568796005.71255
1568796005.72817
1568796005.7438
1568796005.75942
1568796005.77505
1568796005.79067
1568796005.8063
1568796005.82193
1568796005.83755
1568796005.85318
1568796005.8688
1568796005.88443
1568796005.90005
1568796005.91568
1568796005.93131
1568796005.94693
1568796005.96256
1568796005.97818
1568796005.99381
1568796006.00943
1568796006.02506
1568796006.04069
1568796006.05631
1568796006.07194
1568796006.08756
1568796006.10319
1568796006.11881
1568796006.13444
1568796006.15007
1568796006.16569
1568796006.18132
1568796006.19694
1568796006.21257
1568796006.22819
1568796006.24382
1568796006.25945
1568796006.27507
1568796006.2907
1568796006.30632
1568796006.32195
1568796006.33757
1568796006.3532
1568796006.36883
1568796006.38445
1568796006.40008
1568796006.4157
1568796006.43133
1568796006.44695
1568796006.46258
1568796006.47821
1568796006.49383
1568796006.50946
1568796006.52508
1568796006.54071
1568796006.55633
1568796006.57196
1568796006.58759
1568796006.60321
1568796006.61884
1568796006.63446
1568796006.65009
1568796006.66571
1568796006.68134
1568796006.69697
1568796006.71259
1568796006.72822
1568796006.74384
1568796006.75947
1568796006.77509
1568796006.79072
1568796006.80635
1568796006.82197
1568796006.8376
1568796006.85322
1568796006.86885
1568796006.88447
1568796006.9001
1568796006.91573
1568796006.93135
1568796006.94698
1568796006.9626
1568796006.97823
1568796006.99386
1568796007.00948
1568796007.02511
1568796007.04073
1568796007.05636
1568796007.07198
1568796007.08761
1568796007.10324
1568796007.11886
1568796007.13449
1568796007.15011
1568796007.16574
1568796007.18136
1568796007.19699
1568796007.21262
1568796007.22824
1568796007.24387
1568796007.25949
1568796007.27512
1568796007.29074
1568796007.30637
1568796007.322
1568796007.33762
1568796007.35325
1568796007.36887
1568796007.3845
1568796007.40012
1568796007.41575
1568796007.43138
1568796007.447
1568796007.46263
1568796007.47825
1568796007.49388
1568796007.5095
1568796007.52513
1568796007.54076
1568796007.55638
1568796007.57201
1568796007.58763
1568796007.60326
1568796007.61888
1568796007.63451
1568796007.65014
1568796007.66576
1568796007.68139
1568796007.69701
1568796007.71264
1568796007.72826
1568796007.74389
1568796007.75952
1568796007.77514
1568796007.79077
1568796007.80639
1568796007.82202
1568796007.83764
1568796007.85327
1568796007.8689
1568796007.88452
1568796007.90015
1568796007.91577
1568796007.9314
1568796007.94702
1568796007.96265
1568796007.97828
1568796007.9939
1568796008.00953
1568796008.02515
1568796008.04078
1568796008.0564
1568796008.07203
1568796008.08766
1568796008.10328
1568796008.11891
1568796008.13453
1568796008.15016
1568796008.16578
1568796008.18141
1568796008.19704
1568796008.21266
1568796008.22829
1568796008.24391
1568796008.25954
1568796008.27516
1568796008.29079
1568796008.30642
1568796008.32204
1568796008.33767
1568796008.35329
1568796008.36892
1568796008.38454
1568796008.40017
1568796008.4158
1568796008.43142
1568796008.44705
1568796008.46267
1568796008.4783
1568796008.49392
1568796008.50955
1568796008.52518
1568796008.5408
1568796008.55643
1568796008.57205
1568796008.58768
1568796008.6033
1568796008.61893
1568796008.63456
1568796008.65018
1568796008.66581
1568796008.68143
1568796008.69706
1568796008.71268
1568796008.72831
1568796008.74394
1568796008.75956
1568796008.77519
1568796008.79081
1568796008.80644
1568796008.82206
1568796008.83769
1568796008.85332
1568796008.86894
1568796008.88457
1568796008.90019
1568796008.91582
1568796008.93144
1568796008.94707
1568796008.9627
1568796008.97832
1568796008.99395
1568796009.00957
1568796009.0252
1568796009.04082
1568796009.05645
1568796009.07208
1568796009.0877
1568796009.10333
1568796009.11895
1568796009.13458
1568796009.1502
1568796009.16583
1568796009.18146
1568796009.19708
1568796009.21271
1568796009.22833
1568796009.24396
1568796009.25959
1568796009.27521
1568796009.29084
1568796009.30646
1568796009.32209
1568796009.33771
1568796009.35334
1568796009.36897
1568796009.38459
1568796009.40022
1568796009.41584
1568796009.43147
1568796009.44709
1568796009.46272
1568796009.47835
1568796009.49397
1568796009.5096
1568796009.52522
1568796009.54085
1568796009.55647
1568796009.5721
1568796009.58773
1568796009.60335
1568796009.61898
1568796009.6346
1568796009.65023
1568796009.66585
1568796009.68148
1568796009.69711
1568796009.71273
1568796009.72836
1568796009.74398
1568796009.75961
1568796009.77523
1568796009.79086
1568796009.80649
1568796009.82211
1568796009.83774
1568796009.85336
1568796009.86899
1568796009.88461
1568796009.90024
1568796009.91587
1568796009.93149
1568796009.94712
1568796009.96274
1568796009.97837
1568796009.99399
1568796010.00962
1568796010.02525
1568796010.04087
1568796010.0565
1568796010.07212
1568796010.08775
1568796010.10337
1568796010.119
1568796010.13463
1568796010.15025
1568796010.16588
1568796010.1815
1568796010.19713
1568796010.21275
1568796010.22838
1568796010.24401
1568796010.25963
1568796010.27526
1568796010.29088
1568796010.30651
1568796010.32213
1568796010.33776
1568796010.35339
1568796010.36901
1568796010.38464
1568796010.40026
1568796010.41589
1568796010.43151
1568796010.44714
1568796010.46277
1568796010.47839
1568796010.49402
1568796010.50964
1568796010.52527
1568796010.54089
1568796010.55652
1568796010.57215
1568796010.58777
1568796010.6034
1568796010.61902
1568796010.63465
1568796010.65027
1568796010.6659
1568796010.68153
1568796010.69715
1568796010.71278
1568796010.7284
1568796010.74403
1568796010.75965
1568796010.77528
1568796010.79091
1568796010.80653
1568796010.82216
1568796010.83778
1568796010.85341
1568796010.86903
1568796010.88466
1568796010.90029
1568796010.91591
1568796010.93154
1568796010.94716
1568796010.96279
1568796010.97841
1568796010.99404
1568796011.00967
1568796011.02529
1568796011.04092
1568796011.05654
1568796011.07217
1568796011.08779
1568796011.10342
1568796011.11905
1568796011.13467
1568796011.1503
1568796011.16592
1568796011.18155
1568796011.19717
1568796011.2128
1568796011.22843
1568796011.24405
1568796011.25968
1568796011.2753
1568796011.29093
1568796011.30655
1568796011.32218
1568796011.33781
1568796011.35343
1568796011.36906
1568796011.38468
1568796011.40031
1568796011.41593
1568796011.43156
1568796011.44719
1568796011.46281
1568796011.47844
1568796011.49406
1568796011.50969
1568796011.52532
1568796011.54094
1568796011.55657
1568796011.57219
1568796011.58782
1568796011.60344
1568796011.61907
1568796011.6347
1568796011.65032
1568796011.66595
1568796011.68157
1568796011.6972
1568796011.71282
1568796011.72845
1568796011.74408
1568796011.7597
1568796011.77533
1568796011.79095
1568796011.80658
1568796011.8222
1568796011.83783
1568796011.85346
1568796011.86908
1568796011.88471
1568796011.90033
1568796011.91596
1568796011.93158
1568796011.94721
1568796011.96284
1568796011.97846
1568796011.99409
1568796012.00971
1568796012.02534
1568796012.04096
1568796012.05659
1568796012.07222
1568796012.08784
1568796012.10347
1568796012.11909
1568796012.13472
1568796012.15034
1568796012.16597
1568796012.1816
1568796012.19722
1568796012.21285
1568796012.22847
1568796012.2441
1568796012.25972
1568796012.27535
1568796012.29098
1568796012.3066
1568796012.32223
1568796012.33785
1568796012.35348
1568796012.3691
1568796012.38473
1568796012.40036
1568796012.41598
1568796012.43161
1568796012.44723
1568796012.46286
1568796012.47848
1568796012.49411
1568796012.50974
1568796012.52536
1568796012.54099
1568796012.55661
1568796012.57224
1568796012.58786
1568796012.60349
1568796012.61912
1568796012.63474
1568796012.65037
1568796012.66599
1568796012.68162
1568796012.69724
1568796012.71287
1568796012.7285
1568796012.74412
1568796012.75975
1568796012.77537
1568796012.791
1568796012.80662
1568796012.82225
1568796012.83788
1568796012.8535
1568796012.86913
1568796012.88475
1568796012.90038
1568796012.916
1568796012.93163
1568796012.94726
1568796012.96288
1568796012.97851
1568796012.99413
1568796013.00976
1568796013.02538
1568796013.04101
1568796013.05664
1568796013.07226
1568796013.08789
1568796013.10351
1568796013.11914
1568796013.13476
1568796013.15039
1568796013.16602
1568796013.18164
1568796013.19727
1568796013.21289
1568796013.22852
1568796013.24414
1568796013.25977
1568796013.2754
1568796013.29102
1568796013.30665
1568796013.32227
1568796013.3379
1568796013.35352
1568796013.36915
1568796013.38478
1568796013.4004
1568796013.41603
1568796013.43165
1568796013.44728
1568796013.4629
1568796013.47853
1568796013.49416
1568796013.50978
1568796013.52541
1568796013.54103
1568796013.55666
1568796013.57228
1568796013.58791
1568796013.60354
1568796013.61916
1568796013.63479
1568796013.65041
1568796013.66604
1568796013.68166
1568796013.69729
1568796013.71292
1568796013.72854
1568796013.74417
1568796013.75979
1568796013.77542
1568796013.79104
1568796013.80667
1568796013.8223
1568796013.83792
1568796013.85355
1568796013.86917
1568796013.8848
1568796013.90042
1568796013.91605
1568796013.93168
1568796013.9473
1568796013.96293
1568796013.97855
1568796013.99418
1568796014.0098
1568796014.02543
1568796014.04106
1568796014.05668
1568796014.07231
1568796014.08793
1568796014.10356
1568796014.11918
1568796014.13481
1568796014.15044
1568796014.16606
1568796014.18169
1568796014.19731
1568796014.21294
1568796014.22857
1568796014.24419
1568796014.25982
1568796014.27544
1568796014.29107
1568796014.30669
1568796014.32232
1568796014.33795
1568796014.35357
1568796014.3692
1568796014.38482
1568796014.40045
1568796014.41607
1568796014.4317
1568796014.44733
1568796014.46295
1568796014.47858
1568796014.4942
1568796014.50983
1568796014.52545
1568796014.54108
1568796014.55671
1568796014.57233
1568796014.58796
1568796014.60358
1568796014.61921
1568796014.63483
1568796014.65046
1568796014.66609
1568796014.68171
1568796014.69734
1568796014.71296
1568796014.72859
1568796014.74421
1568796014.75984
1568796014.77547
1568796014.79109
1568796014.80672
1568796014.82234
1568796014.83797
1568796014.85359
1568796014.86922
1568796014.88485
1568796014.90047
1568796014.9161
1568796014.93172
1568796014.94735
1568796014.96297
1568796014.9786
1568796014.99423
1568796015.00985
1568796015.02548
1568796015.0411
1568796015.05673
1568796015.07235
1568796015.08798
1568796015.10361
1568796015.11923
1568796015.13486
1568796015.15048
1568796015.16611
1568796015.18173
1568796015.19736
1568796015.21299
1568796015.22861
1568796015.24424
1568796015.25986
1568796015.27549
1568796015.29111
1568796015.30674
1568796015.32237
1568796015.33799
1568796015.35362
1568796015.36924
1568796015.38487
1568796015.40049
1568796015.41612
1568796015.43175
1568796015.44737
1568796015.463
1568796015.47862
1568796015.49425
1568796015.50987
1568796015.5255
1568796015.54113
1568796015.55675
1568796015.57238
1568796015.588
1568796015.60363
1568796015.61925
1568796015.63488
1568796015.65051
1568796015.66613
1568796015.68176
1568796015.69738
1568796015.71301
1568796015.72863
1568796015.74426
1568796015.75989
1568796015.77551
1568796015.79114
1568796015.80676
1568796015.82239
1568796015.83801
1568796015.85364
1568796015.86927
1568796015.88489
1568796015.90052
1568796015.91614
1568796015.93177
1568796015.94739
1568796015.96302
1568796015.97865
1568796015.99427
1568796016.0099
1568796016.02552
1568796016.04115
1568796016.05677
1568796016.0724
1568796016.08803
1568796016.10365
1568796016.11928
1568796016.1349
1568796016.15053
1568796016.16615
1568796016.18178
1568796016.19741
1568796016.21303
1568796016.22866
1568796016.24428
1568796016.25991
1568796016.27553
1568796016.29116
1568796016.30679
1568796016.32241
1568796016.33804
1568796016.35366
1568796016.36929
1568796016.38492
1568796016.40054
1568796016.41617
1568796016.43179
1568796016.44742
1568796016.46304
1568796016.47867
1568796016.4943
1568796016.50992
1568796016.52555
1568796016.54117
1568796016.5568
1568796016.57242
1568796016.58805
1568796016.60368
1568796016.6193
1568796016.63493
1568796016.65055
1568796016.66618
1568796016.6818
1568796016.69743
1568796016.71306
1568796016.72868
1568796016.74431
1568796016.75993
1568796016.77556
1568796016.79118
1568796016.80681
1568796016.82244
1568796016.83806
1568796016.85369
1568796016.86931
1568796016.88494
1568796016.90056
1568796016.91619
1568796016.93182
1568796016.94744
1568796016.96307
1568796016.97869
1568796016.99432
1568796017.00994
1568796017.02557
1568796017.0412
1568796017.05682
1568796017.07245
1568796017.08807
1568796017.1037
1568796017.11932
1568796017.13495
1568796017.15058
1568796017.1662
1568796017.18183
1568796017.19745
1568796017.21308
1568796017.2287
1568796017.24433
1568796017.25996
1568796017.27558
1568796017.29121
1568796017.30683
1568796017.32246
1568796017.33808
1568796017.35371
1568796017.36934
1568796017.38496
1568796017.40059
1568796017.41621
1568796017.43184
1568796017.44746
1568796017.46309
1568796017.47872
1568796017.49434
1568796017.50997
1568796017.52559
1568796017.54122
1568796017.55684
1568796017.57247
1568796017.5881
1568796017.60372
1568796017.61935
1568796017.63497
1568796017.6506
1568796017.66622
1568796017.68185
1568796017.69748
1568796017.7131
1568796017.72873
1568796017.74435
1568796017.75998
1568796017.7756
1568796017.79123
1568796017.80686
1568796017.82248
1568796017.83811
1568796017.85373
1568796017.86936
1568796017.88498
1568796017.90061
1568796017.91624
1568796017.93186
1568796017.94749
1568796017.96311
1568796017.97874
1568796017.99436
1568796018.00999
1568796018.02562
1568796018.04124
1568796018.05687
1568796018.07249
1568796018.08812
1568796018.10374
1568796018.11937
1568796018.135
1568796018.15062
1568796018.16625
1568796018.18187
1568796018.1975
1568796018.21312
1568796018.22875
1568796018.24438
1568796018.26
1568796018.27563
1568796018.29125
1568796018.30688
1568796018.3225
1568796018.33813
1568796018.35376
1568796018.36938
1568796018.38501
1568796018.40063
1568796018.41626
1568796018.43188
1568796018.44751
1568796018.46314
1568796018.47876
1568796018.49439
1568796018.51001
1568796018.52564
1568796018.54126
1568796018.55689
1568796018.57252
1568796018.58814
1568796018.60377
1568796018.61939
1568796018.63502
1568796018.65065
1568796018.66627
1568796018.6819
1568796018.69752
1568796018.71315
1568796018.72877
1568796018.7444
1568796018.76003
1568796018.77565
1568796018.79128
1568796018.8069
1568796018.82253
1568796018.83815
1568796018.85378
1568796018.86941
1568796018.88503
1568796018.90066
1568796018.91628
1568796018.93191
1568796018.94753
1568796018.96316
1568796018.97879
1568796018.99441
1568796019.01004
1568796019.02566
1568796019.04129
1568796019.05691
1568796019.07254
1568796019.08817
1568796019.10379
1568796019.11942
1568796019.13504
1568796019.15067
1568796019.16629
1568796019.18192
1568796019.19755
1568796019.21317
1568796019.2288
1568796019.24442
1568796019.26005
1568796019.27567
1568796019.2913
1568796019.30693
1568796019.32255
1568796019.33818
1568796019.3538
1568796019.36943
1568796019.38505
1568796019.40068
1568796019.41631
1568796019.43193
1568796019.44756
1568796019.46318
1568796019.47881
1568796019.49443
1568796019.51006
1568796019.52569
1568796019.54131
1568796019.55694
1568796019.57256
1568796019.58819
1568796019.60381
1568796019.61944
1568796019.63507
1568796019.65069
1568796019.66632
1568796019.68194
1568796019.69757
1568796019.71319
1568796019.72882
1568796019.74445
1568796019.76007
1568796019.7757
1568796019.79132
1568796019.80695
1568796019.82257
1568796019.8382
1568796019.85383
1568796019.86945
1568796019.88508
1568796019.9007
1568796019.91633
1568796019.93195
1568796019.94758
1568796019.96321
1568796019.97883
1568796019.99446
1568796020.01008
1568796020.02571
1568796020.04133
1568796020.05696
1568796020.07259
1568796020.08821
1568796020.10384
1568796020.11946
1568796020.13509
1568796020.15071
1568796020.16634
1568796020.18197
1568796020.19759
1568796020.21322
1568796020.22884
1568796020.24447
1568796020.26009
1568796020.27572
1568796020.29135
1568796020.30697
1568796020.3226
1568796020.33822
1568796020.35385
1568796020.36947
1568796020.3851
1568796020.40073
1568796020.41635
1568796020.43198
1568796020.4476
1568796020.46323
1568796020.47885
1568796020.49448
1568796020.51011
1568796020.52573
1568796020.54136
1568796020.55698
1568796020.57261
1568796020.58823
1568796020.60386
1568796020.61949
1568796020.63511
1568796020.65074
1568796020.66636
1568796020.68199
1568796020.69761
1568796020.71324
1568796020.72887
1568796020.74449
1568796020.76012
1568796020.77574
1568796020.79137
1568796020.80699
1568796020.82262
1568796020.83825
1568796020.85387
1568796020.8695
1568796020.88512
1568796020.90075
1568796020.91637
1568796020.932
1568796020.94763
1568796020.96325
1568796020.97888
1568796020.9945
1568796021.01013
1568796021.02575
1568796021.04138
1568796021.05701
1568796021.07263
1568796021.08826
1568796021.10388
1568796021.11951
1568796021.13513
1568796021.15076
1568796021.16639
1568796021.18201
1568796021.19764
1568796021.21326
1568796021.22889
1568796021.24452
1568796021.26014
1568796021.27577
1568796021.29139
1568796021.30702
1568796021.32264
1568796021.33827
1568796021.3539
1568796021.36952
1568796021.38515
1568796021.40077
1568796021.4164
1568796021.43202
1568796021.44765
1568796021.46328
1568796021.4789
1568796021.49453
1568796021.51015
1568796021.52578
1568796021.5414
1568796021.55703
1568796021.57266
1568796021.58828
1568796021.60391
1568796021.61953
1568796021.63516
1568796021.65078
1568796021.66641
1568796021.68204
1568796021.69766
1568796021.71329
1568796021.72891
1568796021.74454
1568796021.76016
1568796021.77579
1568796021.79142
1568796021.80704
1568796021.82267
1568796021.83829
1568796021.85392
1568796021.86954
1568796021.88517
1568796021.9008
1568796021.91642
1568796021.93205
1568796021.94767
1568796021.9633
1568796021.97892
1568796021.99455
1568796022.01018
1568796022.0258
1568796022.04143
1568796022.05705
1568796022.07268
1568796022.0883
1568796022.10393
1568796022.11956
1568796022.13518
1568796022.15081
1568796022.16643
1568796022.18206
1568796022.19768
1568796022.21331
1568796022.22894
1568796022.24456
1568796022.26019
1568796022.27581
1568796022.29144
1568796022.30706
1568796022.32269
1568796022.33832
1568796022.35394
1568796022.36957
1568796022.38519
1568796022.40082
1568796022.41644
1568796022.43207
1568796022.4477
1568796022.46332
1568796022.47895
1568796022.49457
1568796022.5102
1568796022.52582
1568796022.54145
1568796022.55708
1568796022.5727
1568796022.58833
1568796022.60395
1568796022.61958
1568796022.6352
1568796022.65083
1568796022.66646
1568796022.68208
1568796022.69771
1568796022.71333
1568796022.72896
1568796022.74458
1568796022.76021
1568796022.77584
1568796022.79146
1568796022.80709
1568796022.82271
1568796022.83834
1568796022.85396
1568796022.86959
1568796022.88522
1568796022.90084
1568796022.91647
1568796022.93209
1568796022.94772
1568796022.96334
1568796022.97897
1568796022.9946
1568796023.01022
1568796023.02585
1568796023.04147
1568796023.0571
1568796023.07272
1568796023.08835
1568796023.10398
1568796023.1196
1568796023.13523
1568796023.15085
1568796023.16648
1568796023.1821
1568796023.19773
1568796023.21336
1568796023.22898
1568796023.24461
1568796023.26023
1568796023.27586
1568796023.29148
1568796023.30711
1568796023.32274
1568796023.33836
1568796023.35399
1568796023.36961
1568796023.38524
1568796023.40086
1568796023.41649
1568796023.43212
1568796023.44774
1568796023.46337
1568796023.47899
1568796023.49462
1568796023.51025
1568796023.52587
1568796023.5415
1568796023.55712
1568796023.57275
1568796023.58837
1568796023.604
1568796023.61963
1568796023.63525
1568796023.65088
1568796023.6665
1568796023.68213
1568796023.69775
1568796023.71338
1568796023.72901
1568796023.74463
1568796023.76026
1568796023.77588
1568796023.79151
1568796023.80713
1568796023.82276
1568796023.83839
1568796023.85401
1568796023.86964
1568796023.88526
1568796023.90089
1568796023.91651
1568796023.93214
1568796023.94777
1568796023.96339
1568796023.97902
1568796023.99464
1568796024.01027
1568796024.02589
1568796024.04152
1568796024.05715
1568796024.07277
1568796024.0884
1568796024.10402
1568796024.11965
1568796024.13527
1568796024.1509
1568796024.16653
1568796024.18215
1568796024.19778
1568796024.2134
1568796024.22903
1568796024.24465
1568796024.26028
1568796024.27591
1568796024.29153
1568796024.30716
1568796024.32278
1568796024.33841
1568796024.35403
1568796024.36966
1568796024.38529
1568796024.40091
1568796024.41654
1568796024.43216
1568796024.44779
1568796024.46341
1568796024.47904
1568796024.49467
1568796024.51029
1568796024.52592
1568796024.54154
1568796024.55717
1568796024.57279
1568796024.58842
1568796024.60405
1568796024.61967
1568796024.6353
1568796024.65092
1568796024.66655
1568796024.68217
1568796024.6978
1568796024.71343
1568796024.72905
1568796024.74468
1568796024.7603
1568796024.77593
1568796024.79155
1568796024.80718
1568796024.82281
1568796024.83843
1568796024.85406
1568796024.86968
1568796024.88531
1568796024.90093
1568796024.91656
1568796024.93219
1568796024.94781
1568796024.96344
1568796024.97906
1568796024.99469
1568796025.01031
1568796025.02594
1568796025.04157
1568796025.05719
1568796025.07282
1568796025.08844
1568796025.10407
1568796025.11969
1568796025.13532
1568796025.15095
1568796025.16657
1568796025.1822
1568796025.19782
1568796025.21345
1568796025.22907
1568796025.2447
1568796025.26033
1568796025.27595
1568796025.29158
1568796025.3072
1568796025.32283
1568796025.33845
1568796025.35408
1568796025.36971
1568796025.38533
1568796025.40096
1568796025.41658
1568796025.43221
1568796025.44783
1568796025.46346
1568796025.47909
1568796025.49471
1568796025.51034
1568796025.52596
1568796025.54159
1568796025.55721
1568796025.57284
1568796025.58847
1568796025.60409
1568796025.61972
1568796025.63534
1568796025.65097
1568796025.66659
1568796025.68222
1568796025.69785
1568796025.71347
1568796025.7291
1568796025.74472
1568796025.76035
1568796025.77597
1568796025.7916
1568796025.80723
1568796025.82285
1568796025.83848
1568796025.8541
1568796025.86973
1568796025.88536
1568796025.90098
1568796025.91661
1568796025.93223
1568796025.94786
1568796025.96348
1568796025.97911
1568796025.99474
1568796026.01036
1568796026.02599
1568796026.04161
1568796026.05724
1568796026.07286
1568796026.08849
1568796026.10412
1568796026.11974
1568796026.13537
1568796026.15099
1568796026.16662
1568796026.18224
1568796026.19787
1568796026.2135
1568796026.22912
1568796026.24475
1568796026.26037
1568796026.276
1568796026.29162
1568796026.30725
1568796026.32288
1568796026.3385
1568796026.35413
1568796026.36975
1568796026.38538
1568796026.401
1568796026.41663
1568796026.43226
1568796026.44788
1568796026.46351
1568796026.47913
1568796026.49476
1568796026.51038
1568796026.52601
1568796026.54164
1568796026.55726
1568796026.57289
1568796026.58851
1568796026.60414
1568796026.61976
1568796026.63539
1568796026.65102
1568796026.66664
1568796026.68227
1568796026.69789
1568796026.71352
1568796026.72914
1568796026.74477
1568796026.7604
1568796026.77602
1568796026.79165
1568796026.80727
1568796026.8229
1568796026.83852
1568796026.85415
1568796026.86978
1568796026.8854
1568796026.90103
1568796026.91665
1568796026.93228
1568796026.9479
1568796026.96353
1568796026.97916
1568796026.99478
1568796027.01041
1568796027.02603
1568796027.04166
1568796027.05728
1568796027.07291
1568796027.08854
1568796027.10416
1568796027.11979
1568796027.13541
1568796027.15104
1568796027.16666
1568796027.18229
1568796027.19792
1568796027.21354
1568796027.22917
1568796027.24479
1568796027.26042
1568796027.27604
1568796027.29167
1568796027.3073
1568796027.32292
1568796027.33855
1568796027.35417
1568796027.3698
1568796027.38542
1568796027.40105
1568796027.41668
1568796027.4323
1568796027.44793
1568796027.46355
1568796027.47918
1568796027.4948
1568796027.51043
1568796027.52606
1568796027.54168
1568796027.55731
1568796027.57293
1568796027.58856
1568796027.60418
1568796027.61981
1568796027.63544
1568796027.65106
1568796027.66669
1568796027.68231
1568796027.69794
1568796027.71356
1568796027.72919
1568796027.74482
1568796027.76044
1568796027.77607
1568796027.79169
1568796027.80732
1568796027.82294
1568796027.83857
1568796027.8542
1568796027.86982
1568796027.88545
1568796027.90107
1568796027.9167
1568796027.93232
1568796027.94795
1568796027.96358
1568796027.9792
1568796027.99483
1568796028.01045
1568796028.02608
1568796028.0417
1568796028.05733
1568796028.07296
1568796028.08858
1568796028.10421
1568796028.11983
1568796028.13546
1568796028.15108
1568796028.16671
1568796028.18234
1568796028.19796
1568796028.21359
1568796028.22921
1568796028.24484
1568796028.26046
1568796028.27609
1568796028.29172
1568796028.30734
1568796028.32297
1568796028.33859
1568796028.35422
1568796028.36985
1568796028.38547
1568796028.4011
1568796028.41672
1568796028.43235
1568796028.44797
1568796028.4636
1568796028.47923
1568796028.49485
1568796028.51048
1568796028.5261
1568796028.54173
1568796028.55735
1568796028.57298
1568796028.58861
1568796028.60423
1568796028.61986
1568796028.63548
1568796028.65111
1568796028.66673
1568796028.68236
1568796028.69799
1568796028.71361
1568796028.72924
1568796028.74486
1568796028.76049
1568796028.77611
1568796028.79174
1568796028.80737
1568796028.82299
1568796028.83862
1568796028.85424
1568796028.86987
1568796028.88549
1568796028.90112
1568796028.91675
1568796028.93237
1568796028.948
1568796028.96362
1568796028.97925
1568796028.99487
1568796029.0105
1568796029.02613
1568796029.04175
1568796029.05738
1568796029.073
1568796029.08863
1568796029.10425
1568796029.11988
1568796029.13551
1568796029.15113
1568796029.16676
1568796029.18238
1568796029.19801
1568796029.21363
1568796029.22926
1568796029.24489
1568796029.26051
1568796029.27614
1568796029.29176
1568796029.30739
1568796029.32301
1568796029.33864
1568796029.35427
1568796029.36989
1568796029.38552
1568796029.40114
1568796029.41677
1568796029.43239
1568796029.44802
1568796029.46365
1568796029.47927
1568796029.4949
1568796029.51052
1568796029.52615
1568796029.54177
1568796029.5574
1568796029.57303
1568796029.58865
1568796029.60428
1568796029.6199
1568796029.63553
1568796029.65115
1568796029.66678
1568796029.68241
1568796029.69803
1568796029.71366
1568796029.72928
1568796029.74491
1568796029.76053
1568796029.77616
1568796029.79179
1568796029.80741
1568796029.82304
1568796029.83866
1568796029.85429
1568796029.86991
1568796029.88554
1568796029.90117
1568796029.91679
1568796029.93242
1568796029.94804
1568796029.96367
1568796029.97929
1568796029.99492
1568796030.01055
1568796030.02617
1568796030.0418
1568796030.05742
1568796030.07305
1568796030.08867
1568796030.1043
1568796030.11993
1568796030.13555
1568796030.15118
1568796030.1668
1568796030.18243
1568796030.19805
1568796030.21368
1568796030.22931
1568796030.24493
1568796030.26056
1568796030.27618
1568796030.29181
1568796030.30743
1568796030.32306
1568796030.33869
1568796030.35431
1568796030.36994
1568796030.38556
1568796030.40119
1568796030.41681
1568796030.43244
1568796030.44807
1568796030.46369
1568796030.47932
1568796030.49494
1568796030.51057
1568796030.5262
1568796030.54182
1568796030.55745
1568796030.57307
1568796030.5887
1568796030.60432
1568796030.61995
1568796030.63558
1568796030.6512
1568796030.66683
1568796030.68245
1568796030.69808
1568796030.7137
1568796030.72933
1568796030.74496
1568796030.76058
1568796030.77621
1568796030.79183
1568796030.80746
1568796030.82308
1568796030.83871
1568796030.85434
1568796030.86996
1568796030.88559
1568796030.90121
1568796030.91684
1568796030.93246
1568796030.94809
1568796030.96372
1568796030.97934
1568796030.99497
1568796031.01059
1568796031.02622
1568796031.04184
1568796031.05747
1568796031.0731
1568796031.08872
1568796031.10435
1568796031.11997
1568796031.1356
1568796031.15122
1568796031.16685
1568796031.18248
1568796031.1981
1568796031.21373
1568796031.22935
1568796031.24498
1568796031.2606
1568796031.27623
1568796031.29186
1568796031.30748
1568796031.32311
1568796031.33873
1568796031.35436
1568796031.36998
1568796031.38561
1568796031.40124
1568796031.41686
1568796031.43249
1568796031.44811
1568796031.46374
1568796031.47936
1568796031.49499
1568796031.51062
1568796031.52624
1568796031.54187
1568796031.55749
1568796031.57312
1568796031.58874
1568796031.60437
1568796031.62
1568796031.63562
1568796031.65125
1568796031.66687
1568796031.6825
1568796031.69812
1568796031.71375
1568796031.72938
1568796031.745
1568796031.76063
1568796031.77625
1568796031.79188
1568796031.8075
1568796031.82313
1568796031.83876
1568796031.85438
1568796031.87001
1568796031.88563
1568796031.90126
1568796031.91688
1568796031.93251
1568796031.94814
1568796031.96376
1568796031.97939
1568796031.99501
1568796032.01064
1568796032.02626
1568796032.04189
1568796032.05752
1568796032.07314
1568796032.08877
1568796032.10439
1568796032.12002
1568796032.13564
1568796032.15127
1568796032.1669
1568796032.18252
1568796032.19815
1568796032.21377
1568796032.2294
1568796032.24502
1568796032.26065
1568796032.27628
1568796032.2919
1568796032.30753
1568796032.32315
1568796032.33878
1568796032.3544
1568796032.37003
1568796032.38566
1568796032.40128
1568796032.41691
1568796032.43253
1568796032.44816
1568796032.46378
1568796032.47941
1568796032.49504
1568796032.51066
1568796032.52629
1568796032.54191
1568796032.55754
1568796032.57316
1568796032.58879
1568796032.60442
1568796032.62004
1568796032.63567
1568796032.65129
1568796032.66692
1568796032.68254
1568796032.69817
1568796032.7138
1568796032.72942
1568796032.74505
1568796032.76067
1568796032.7763
1568796032.79192
1568796032.80755
1568796032.82318
1568796032.8388
1568796032.85443
1568796032.87005
1568796032.88568
1568796032.9013
1568796032.91693
1568796032.93256
1568796032.94818
1568796032.96381
1568796032.97943
1568796032.99506
1568796033.01068
1568796033.02631
1568796033.04194
1568796033.05756
1568796033.07319
1568796033.08881
1568796033.10444
1568796033.12006
1568796033.13569
1568796033.15132
1568796033.16694
1568796033.18257
1568796033.19819
1568796033.21382
1568796033.22945
1568796033.24507
1568796033.2607
1568796033.27632
1568796033.29195
1568796033.30757
1568796033.3232
1568796033.33883
1568796033.35445
1568796033.37008
1568796033.3857
1568796033.40133
1568796033.41695
1568796033.43258
1568796033.44821
1568796033.46383
1568796033.47946
1568796033.49508
1568796033.51071
1568796033.52633
1568796033.54196
1568796033.55759
1568796033.57321
1568796033.58884
1568796033.60446
1568796033.62009
1568796033.63571
1568796033.65134
1568796033.66697
1568796033.68259
1568796033.69822
1568796033.71384
1568796033.72947
1568796033.74509
1568796033.76072
1568796033.77635
1568796033.79197
1568796033.8076
1568796033.82322
1568796033.83885
1568796033.85447
1568796033.8701
1568796033.88573
1568796033.90135
1568796033.91698
1568796033.9326
1568796033.94823
1568796033.96385
1568796033.97948
1568796033.99511
1568796034.01073
1568796034.02636
1568796034.04198
1568796034.05761
1568796034.07323
1568796034.08886
1568796034.10449
1568796034.12011
1568796034.13574
1568796034.15136
1568796034.16699
1568796034.18261
1568796034.19824
1568796034.21387
1568796034.22949
1568796034.24512
1568796034.26074
1568796034.27637
1568796034.29199
1568796034.30762
1568796034.32325
1568796034.33887
1568796034.3545
1568796034.37012
1568796034.38575
1568796034.40137
1568796034.417
1568796034.43263
1568796034.44825
1568796034.46388
1568796034.4795
1568796034.49513
1568796034.51075
1568796034.52638
1568796034.54201
1568796034.55763
1568796034.57326
1568796034.58888
1568796034.60451
1568796034.62013
1568796034.63576
1568796034.65139
1568796034.66701
1568796034.68264
1568796034.69826
1568796034.71389
1568796034.72951
1568796034.74514
1568796034.76077
1568796034.77639
1568796034.79202
1568796034.80764
1568796034.82327
1568796034.83889
1568796034.85452
1568796034.87015
1568796034.88577
1568796034.9014
1568796034.91702
1568796034.93265
1568796034.94827
1568796034.9639
1568796034.97953
1568796034.99515
1568796035.01078
1568796035.0264
1568796035.04203
1568796035.05765
1568796035.07328
1568796035.08891
1568796035.10453
1568796035.12016
1568796035.13578
1568796035.15141
1568796035.16703
1568796035.18266
1568796035.19829
1568796035.21391
1568796035.22954
1568796035.24516
1568796035.26079
1568796035.27641
1568796035.29204
1568796035.30767
1568796035.32329
1568796035.33892
1568796035.35454
1568796035.37017
1568796035.3858
1568796035.40142
1568796035.41705
1568796035.43267
1568796035.4483
1568796035.46392
1568796035.47955
1568796035.49518
1568796035.5108
1568796035.52643
1568796035.54205
1568796035.55768
1568796035.5733
1568796035.58893
1568796035.60456
1568796035.62018
1568796035.63581
1568796035.65143
1568796035.66706
1568796035.68268
1568796035.69831
1568796035.71394
1568796035.72956
1568796035.74519
1568796035.76081
1568796035.77644
1568796035.79206
1568796035.80769
1568796035.82332
1568796035.83894
1568796035.85457
1568796035.87019
1568796035.88582
1568796035.90144
1568796035.91707
1568796035.9327
1568796035.94832
1568796035.96395
1568796035.97957
1568796035.9952
1568796036.01082
1568796036.02645
1568796036.04208
1568796036.0577
1568796036.07333
1568796036.08895
1568796036.10458
1568796036.1202
1568796036.13583
1568796036.15146
1568796036.16708
1568796036.18271
1568796036.19833
1568796036.21396
1568796036.22958
1568796036.24521
1568796036.26084
1568796036.27646
1568796036.29209
1568796036.30771
1568796036.32334
1568796036.33896
1568796036.35459
1568796036.37022
1568796036.38584
1568796036.40147
1568796036.41709
1568796036.43272
1568796036.44834
1568796036.46397
1568796036.4796
1568796036.49522
1568796036.51085
1568796036.52647
1568796036.5421
1568796036.55772
1568796036.57335
1568796036.58898
1568796036.6046
1568796036.62023
1568796036.63585
1568796036.65148
1568796036.6671
1568796036.68273
1568796036.69836
1568796036.71398
1568796036.72961
1568796036.74523
1568796036.76086
1568796036.77648
1568796036.79211
1568796036.80774
1568796036.82336
1568796036.83899
1568796036.85461
1568796036.87024
1568796036.88586
1568796036.90149
1568796036.91712
1568796036.93274
1568796036.94837
1568796036.96399
1568796036.97962
1568796036.99524
1568796037.01087
1568796037.0265
1568796037.04212
1568796037.05775
1568796037.07337
1568796037.089
1568796037.10462
1568796037.12025
1568796037.13588
1568796037.1515
1568796037.16713
1568796037.18275
1568796037.19838
1568796037.214
1568796037.22963
1568796037.24526
1568796037.26088
1568796037.27651
1568796037.29213
1568796037.30776
1568796037.32338
1568796037.33901
1568796037.35464
1568796037.37026
1568796037.38589
1568796037.40151
1568796037.41714
1568796037.43276
1568796037.44839
1568796037.46402
1568796037.47964
1568796037.49527
1568796037.51089
1568796037.52652
1568796037.54214
1568796037.55777
1568796037.5734
1568796037.58902
1568796037.60465
1568796037.62027
1568796037.6359
1568796037.65153
1568796037.66715
1568796037.68278
1568796037.6984
1568796037.71403
1568796037.72965
1568796037.74528
1568796037.76091
1568796037.77653
1568796037.79216
1568796037.80778
1568796037.82341
1568796037.83903
1568796037.85466
1568796037.87029
1568796037.88591
1568796037.90154
1568796037.91716
1568796037.93279
1568796037.94841
1568796037.96404
1568796037.97967
1568796037.99529
1568796038.01092
1568796038.02654
1568796038.04217
1568796038.05779
1568796038.07342
1568796038.08905
1568796038.10467
1568796038.1203
1568796038.13592
1568796038.15155
1568796038.16717
1568796038.1828
1568796038.19843
1568796038.21405
1568796038.22968
1568796038.2453
1568796038.26093
1568796038.27655
1568796038.29218
1568796038.30781
1568796038.32343
1568796038.33906
1568796038.35468
1568796038.37031
1568796038.38593
1568796038.40156
1568796038.41719
1568796038.43281
1568796038.44844
1568796038.46406
1568796038.47969
1568796038.49531
1568796038.51094
1568796038.52657
1568796038.54219
1568796038.55782
1568796038.57344
1568796038.58907
1568796038.60469
1568796038.62032
1568796038.63595
1568796038.65157
1568796038.6672
1568796038.68282
1568796038.69845
1568796038.71407
1568796038.7297
1568796038.74533
1568796038.76095
1568796038.77658
1568796038.7922
1568796038.80783
1568796038.82345
1568796038.83908
1568796038.85471
1568796038.87033
1568796038.88596
1568796038.90158
1568796038.91721
1568796038.93283
1568796038.94846
1568796038.96409
1568796038.97971
1568796038.99534
1568796039.01096
1568796039.02659
1568796039.04221
1568796039.05784
1568796039.07347
1568796039.08909
1568796039.10472
1568796039.12034
1568796039.13597
1568796039.15159
1568796039.16722
1568796039.18285
1568796039.19847
1568796039.2141
1568796039.22972
1568796039.24535
1568796039.26097
1568796039.2766
1568796039.29223
1568796039.30785
1568796039.32348
1568796039.3391
1568796039.35473
1568796039.37035
1568796039.38598
1568796039.40161
1568796039.41723
1568796039.43286
1568796039.44848
1568796039.46411
1568796039.47973
1568796039.49536
1568796039.51099
1568796039.52661
1568796039.54224
1568796039.55786
1568796039.57349
1568796039.58911
1568796039.60474
1568796039.62037
1568796039.63599
1568796039.65162
1568796039.66724
1568796039.68287
1568796039.69849
1568796039.71412
1568796039.72975
1568796039.74537
1568796039.761
1568796039.77662
1568796039.79225
1568796039.80787
1568796039.8235
1568796039.83913
1568796039.85475
1568796039.87038
1568796039.886
1568796039.90163
1568796039.91725
1568796039.93288
1568796039.94851
1568796039.96413
1568796039.97976
1568796039.99538
1568796040.01101
1568796040.02663
1568796040.04226
1568796040.05789
1568796040.07351
1568796040.08914
1568796040.10476
1568796040.12039
1568796040.13601
1568796040.15164
1568796040.16727
1568796040.18289
1568796040.19852
1568796040.21414
1568796040.22977
1568796040.24539
1568796040.26102
1568796040.27665
1568796040.29227
1568796040.3079
1568796040.32352
1568796040.33915
1568796040.35478
1568796040.3704
1568796040.38603
1568796040.40165
1568796040.41728
1568796040.4329
1568796040.44853
1568796040.46416
1568796040.47978
1568796040.49541
1568796040.51103
1568796040.52666
1568796040.54228
1568796040.55791
1568796040.57354
1568796040.58916
1568796040.60479
1568796040.62041
1568796040.63604
1568796040.65166
1568796040.66729
1568796040.68292
1568796040.69854
1568796040.71417
1568796040.72979
1568796040.74542
1568796040.76104
1568796040.77667
1568796040.7923
1568796040.80792
1568796040.82355
1568796040.83917
1568796040.8548
1568796040.87042
1568796040.88605
1568796040.90168
1568796040.9173
1568796040.93293
1568796040.94855
1568796040.96418
1568796040.9798
1568796040.99543
1568796041.01106
1568796041.02668
1568796041.04231
1568796041.05793
1568796041.07356
1568796041.08918
1568796041.10481
1568796041.12044
1568796041.13606
1568796041.15169
1568796041.16731
1568796041.18294
1568796041.19856
1568796041.21419
1568796041.22982
1568796041.24544
1568796041.26107
1568796041.27669
1568796041.29232
1568796041.30794
1568796041.32357
1568796041.3392
1568796041.35482
1568796041.37045
1568796041.38607
1568796041.4017
1568796041.41732
1568796041.43295
1568796041.44858
1568796041.4642
1568796041.47983
1568796041.49545
1568796041.51108
1568796041.5267
1568796041.54233
1568796041.55796
1568796041.57358
1568796041.58921
1568796041.60483
1568796041.62046
1568796041.63608
1568796041.65171
1568796041.66734
1568796041.68296
1568796041.69859
1568796041.71421
1568796041.72984
1568796041.74546
1568796041.76109
1568796041.77672
1568796041.79234
1568796041.80797
1568796041.82359
1568796041.83922
1568796041.85484
1568796041.87047
1568796041.8861
1568796041.90172
1568796041.91735
1568796041.93297
1568796041.9486
1568796041.96422
1568796041.97985
1568796041.99548
1568796042.0111
1568796042.02673
1568796042.04235
1568796042.05798
1568796042.0736
1568796042.08923
1568796042.10486
1568796042.12048
1568796042.13611
1568796042.15173
1568796042.16736
1568796042.18298
1568796042.19861
1568796042.21424
1568796042.22986
1568796042.24549
1568796042.26111
1568796042.27674
1568796042.29236
1568796042.30799
1568796042.32362
1568796042.33924
1568796042.35487
1568796042.37049
1568796042.38612
1568796042.40174
1568796042.41737
1568796042.433
1568796042.44862
1568796042.46425
1568796042.47987
1568796042.4955
1568796042.51113
1568796042.52675
1568796042.54238
1568796042.558
1568796042.57363
1568796042.58925
1568796042.60488
1568796042.62051
1568796042.63613
1568796042.65176
1568796042.66738
1568796042.68301
1568796042.69863
1568796042.71426
1568796042.72989
1568796042.74551
1568796042.76114
1568796042.77676
1568796042.79239
1568796042.80801
1568796042.82364
1568796042.83927
1568796042.85489
1568796042.87052
1568796042.88614
1568796042.90177
1568796042.91739
1568796042.93302
1568796042.94865
1568796042.96427
1568796042.9799
1568796042.99552
1568796043.01115
1568796043.02677
1568796043.0424
1568796043.05803
1568796043.07365
1568796043.08928
1568796043.1049
1568796043.12053
1568796043.13615
1568796043.15178
1568796043.16741
1568796043.18303
1568796043.19866
1568796043.21428
1568796043.22991
1568796043.24553
1568796043.26116
1568796043.27679
1568796043.29241
1568796043.30804
1568796043.32366
1568796043.33929
1568796043.35491
1568796043.37054
1568796043.38617
1568796043.40179
1568796043.41742
1568796043.43304
1568796043.44867
1568796043.46429
1568796043.47992
1568796043.49555
1568796043.51117
1568796043.5268
1568796043.54242
1568796043.55805
1568796043.57367
1568796043.5893
1568796043.60493
1568796043.62055
1568796043.63618
1568796043.6518
1568796043.66743
1568796043.68305
1568796043.69868
1568796043.71431
1568796043.72993
1568796043.74556
1568796043.76118
1568796043.77681
1568796043.79243
1568796043.80806
1568796043.82369
1568796043.83931
1568796043.85494
1568796043.87056
1568796043.88619
1568796043.90181
1568796043.91744
1568796043.93307
1568796043.94869
1568796043.96432
1568796043.97994
1568796043.99557
1568796044.01119
1568796044.02682
1568796044.04245
1568796044.05807
1568796044.0737
1568796044.08932
1568796044.10495
1568796044.12057
1568796044.1362
1568796044.15183
1568796044.16745
1568796044.18308
1568796044.1987
1568796044.21433
1568796044.22995
1568796044.24558
1568796044.26121
1568796044.27683
1568796044.29246
1568796044.30808
1568796044.32371
1568796044.33933
1568796044.35496
1568796044.37059
1568796044.38621
1568796044.40184
1568796044.41746
1568796044.43309
1568796044.44871
1568796044.46434
1568796044.47997
1568796044.49559
1568796044.51122
1568796044.52684
1568796044.54247
1568796044.55809
1568796044.57372
1568796044.58935
1568796044.60497
1568796044.6206
1568796044.63622
1568796044.65185
1568796044.66747
1568796044.6831
1568796044.69873
1568796044.71435
1568796044.72998
1568796044.7456
1568796044.76123
1568796044.77685
1568796044.79248
1568796044.80811
1568796044.82373
1568796044.83936
1568796044.85498
1568796044.87061
1568796044.88624
1568796044.90186
1568796044.91749
1568796044.93311
1568796044.94874
1568796044.96436
1568796044.97999
1568796044.99562
1568796045.01124
1568796045.02687
1568796045.04249
1568796045.05812
1568796045.07374
1568796045.08937
1568796045.105
1568796045.12062
1568796045.13625
1568796045.15187
1568796045.1675
1568796045.18312
1568796045.19875
1568796045.21438
1568796045.23
1568796045.24563
1568796045.26125
1568796045.27688
1568796045.2925
1568796045.30813
1568796045.32376
1568796045.33938
1568796045.35501
1568796045.37063
1568796045.38626
1568796045.40188
1568796045.41751
1568796045.43314
1568796045.44876
1568796045.46439
1568796045.48001
1568796045.49564
1568796045.51126
1568796045.52689
1568796045.54252
1568796045.55814
1568796045.57377
1568796045.58939
1568796045.60502
1568796045.62064
1568796045.63627
1568796045.6519
1568796045.66752
1568796045.68315
1568796045.69877
1568796045.7144
1568796045.73002
1568796045.74565
1568796045.76128
1568796045.7769
1568796045.79253
1568796045.80815
1568796045.82378
1568796045.8394
1568796045.85503
1568796045.87066
1568796045.88628
1568796045.90191
1568796045.91753
1568796045.93316
1568796045.94878
1568796045.96441
1568796045.98004
1568796045.99566
1568796046.01129
1568796046.02691
1568796046.04254
1568796046.05816
1568796046.07379
1568796046.08942
1568796046.10504
1568796046.12067
1568796046.13629
1568796046.15192
1568796046.16754
1568796046.18317
1568796046.1988
1568796046.21442
1568796046.23005
1568796046.24567
1568796046.2613
1568796046.27692
1568796046.29255
1568796046.30818
1568796046.3238
1568796046.33943
1568796046.35505
1568796046.37068
1568796046.3863
1568796046.40193
1568796046.41756
1568796046.43318
1568796046.44881
1568796046.46443
1568796046.48006
1568796046.49568
1568796046.51131
1568796046.52694
1568796046.54256
1568796046.55819
1568796046.57381
1568796046.58944
1568796046.60506
1568796046.62069
1568796046.63632
1568796046.65194
1568796046.66757
1568796046.68319
1568796046.69882
1568796046.71444
1568796046.73007
1568796046.7457
1568796046.76132
1568796046.77695
1568796046.79257
1568796046.8082
1568796046.82382
1568796046.83945
1568796046.85508
1568796046.8707
1568796046.88633
1568796046.90195
1568796046.91758
1568796046.9332
1568796046.94883
1568796046.96446
1568796046.98008
1568796046.99571
1568796047.01133
1568796047.02696
1568796047.04258
1568796047.05821
1568796047.07384
1568796047.08946
1568796047.10509
1568796047.12071
1568796047.13634
1568796047.15196
1568796047.16759
1568796047.18322
1568796047.19884
1568796047.21447
1568796047.23009
1568796047.24572
1568796047.26134
1568796047.27697
1568796047.2926
1568796047.30822
1568796047.32385
1568796047.33947
1568796047.3551
1568796047.37073
1568796047.38635
1568796047.40198
1568796047.4176
1568796047.43323
1568796047.44885
1568796047.46448
1568796047.48011
1568796047.49573
1568796047.51136
1568796047.52698
1568796047.54261
1568796047.55823
1568796047.57386
1568796047.58949
1568796047.60511
1568796047.62074
1568796047.63636
1568796047.65199
1568796047.66761
1568796047.68324
1568796047.69887
1568796047.71449
1568796047.73012
1568796047.74574
1568796047.76137
1568796047.77699
1568796047.79262
1568796047.80825
1568796047.82387
1568796047.8395
1568796047.85512
1568796047.87075
1568796047.88637
1568796047.902
1568796047.91763
1568796047.93325
1568796047.94888
1568796047.9645
1568796047.98013
1568796047.99575
1568796048.01138
1568796048.02701
1568796048.04263
1568796048.05826
1568796048.07388
1568796048.08951
1568796048.10513
1568796048.12076
1568796048.13639
1568796048.15201
1568796048.16764
1568796048.18326
1568796048.19889
1568796048.21451
1568796048.23014
1568796048.24577
1568796048.26139
1568796048.27702
1568796048.29264
1568796048.30827
1568796048.32389
1568796048.33952
1568796048.35515
1568796048.37077
1568796048.3864
1568796048.40202
1568796048.41765
1568796048.43327
1568796048.4489
1568796048.46453
1568796048.48015
1568796048.49578
1568796048.5114
1568796048.52703
1568796048.54265
1568796048.55828
1568796048.57391
1568796048.58953
1568796048.60516
1568796048.62078
1568796048.63641
1568796048.65203
1568796048.66766
1568796048.68329
1568796048.69891
1568796048.71454
1568796048.73016
1568796048.74579
1568796048.76141
1568796048.77704
1568796048.79267
1568796048.80829
1568796048.82392
1568796048.83954
1568796048.85517
1568796048.87079
1568796048.88642
1568796048.90205
1568796048.91767
1568796048.9333
1568796048.94892
1568796048.96455
1568796048.98017
1568796048.9958
1568796049.01143
1568796049.02705
1568796049.04268
1568796049.0583
1568796049.07393
1568796049.08955
1568796049.10518
1568796049.12081
1568796049.13643
1568796049.15206
1568796049.16768
1568796049.18331
1568796049.19893
1568796049.21456
1568796049.23019
1568796049.24581
1568796049.26144
1568796049.27706
1568796049.29269
1568796049.30831
1568796049.32394
1568796049.33957
1568796049.35519
1568796049.37082
1568796049.38644
1568796049.40207
1568796049.41769
1568796049.43332
1568796049.44895
1568796049.46457
1568796049.4802
1568796049.49582
1568796049.51145
1568796049.52707
1568796049.5427
1568796049.55833
1568796049.57395
1568796049.58958
1568796049.6052
1568796049.62083
1568796049.63646
1568796049.65208
1568796049.66771
1568796049.68333
1568796049.69896
1568796049.71458
1568796049.73021
1568796049.74584
1568796049.76146
1568796049.77709
1568796049.79271
1568796049.80834
1568796049.82396
1568796049.83959
1568796049.85522
1568796049.87084
1568796049.88647
1568796049.90209
1568796049.91772
1568796049.93334
1568796049.94897
1568796049.9646
1568796049.98022
1568796049.99585
1568796050.01147
1568796050.0271
1568796050.04272
1568796050.05835
1568796050.07398
1568796050.0896
1568796050.10523
1568796050.12085
1568796050.13648
1568796050.1521
1568796050.16773
1568796050.18336
1568796050.19898
1568796050.21461
1568796050.23023
1568796050.24586
1568796050.26148
1568796050.27711
1568796050.29274
1568796050.30836
1568796050.32399
1568796050.33961
1568796050.35524
1568796050.37086
1568796050.38649
1568796050.40212
1568796050.41774
1568796050.43337
1568796050.44899
1568796050.46462
1568796050.48024
1568796050.49587
1568796050.5115
1568796050.52712
1568796050.54275
1568796050.55837
1568796050.574
1568796050.58962
1568796050.60525
1568796050.62088
1568796050.6365
1568796050.65213
1568796050.66775
1568796050.68338
1568796050.699
1568796050.71463
1568796050.73026
1568796050.74588
1568796050.76151
1568796050.77713
1568796050.79276
1568796050.80838
1568796050.82401
1568796050.83964
1568796050.85526
1568796050.87089
1568796050.88651
1568796050.90214
1568796050.91776
1568796050.93339
1568796050.94902
1568796050.96464
1568796050.98027
1568796050.99589
1568796051.01152
1568796051.02714
1568796051.04277
1568796051.0584
1568796051.07402
1568796051.08965
1568796051.10527
1568796051.1209
1568796051.13652
1568796051.15215
1568796051.16778
1568796051.1834
1568796051.19903
1568796051.21465
1568796051.23028
1568796051.2459
1568796051.26153
1568796051.27716
1568796051.29278
1568796051.30841
1568796051.32403
1568796051.33966
1568796051.35528
1568796051.37091
1568796051.38654
1568796051.40216
1568796051.41779
1568796051.43341
1568796051.44904
1568796051.46466
1568796051.48029
1568796051.49592
1568796051.51154
1568796051.52717
1568796051.54279
1568796051.55842
1568796051.57404
1568796051.58967
1568796051.6053
1568796051.62092
1568796051.63655
1568796051.65217
1568796051.6678
1568796051.68342
1568796051.69905
1568796051.71468
1568796051.7303
1568796051.74593
1568796051.76155
1568796051.77718
1568796051.7928
1568796051.80843
1568796051.82406
1568796051.83968
1568796051.85531
1568796051.87093
1568796051.88656
1568796051.90218
1568796051.91781
1568796051.93344
1568796051.94906
1568796051.96469
1568796051.98031
1568796051.99594
1568796052.01156
1568796052.02719
1568796052.04282
1568796052.05844
1568796052.07407
1568796052.08969
1568796052.10532
1568796052.12094
1568796052.13657
1568796052.1522
1568796052.16782
1568796052.18345
1568796052.19907
1568796052.2147
1568796052.23033
1568796052.24595
1568796052.26158
1568796052.2772
1568796052.29283
1568796052.30845
1568796052.32408
1568796052.33971
1568796052.35533
1568796052.37096
1568796052.38658
1568796052.40221
1568796052.41783
1568796052.43346
1568796052.44909
1568796052.46471
1568796052.48034
1568796052.49596
1568796052.51159
1568796052.52721
1568796052.54284
1568796052.55847
1568796052.57409
1568796052.58972
1568796052.60534
1568796052.62097
1568796052.63659
1568796052.65222
1568796052.66785
1568796052.68347
1568796052.6991
1568796052.71472
1568796052.73035
1568796052.74597
1568796052.7616
1568796052.77723
1568796052.79285
1568796052.80848
1568796052.8241
1568796052.83973
1568796052.85535
1568796052.87098
1568796052.88661
1568796052.90223
1568796052.91786
1568796052.93348
1568796052.94911
1568796052.96473
1568796052.98036
1568796052.99599
1568796053.01161
1568796053.02724
1568796053.04286
1568796053.05849
1568796053.07411
1568796053.08974
1568796053.10537
1568796053.12099
1568796053.13662
1568796053.15224
1568796053.16787
1568796053.18349
1568796053.19912
1568796053.21475
1568796053.23037
1568796053.246
1568796053.26162
1568796053.27725
1568796053.29287
1568796053.3085
1568796053.32413
1568796053.33975
1568796053.35538
1568796053.371
1568796053.38663
1568796053.40225
1568796053.41788
1568796053.43351
1568796053.44913
1568796053.46476
1568796053.48038
1568796053.49601
1568796053.51163
1568796053.52726
1568796053.54289
1568796053.55851
1568796053.57414
1568796053.58976
1568796053.60539
1568796053.62101
1568796053.63664
1568796053.65227
1568796053.66789
1568796053.68352
1568796053.69914
1568796053.71477
1568796053.73039
1568796053.74602
1568796053.76165
1568796053.77727
1568796053.7929
1568796053.80852
1568796053.82415
1568796053.83977
1568796053.8554
1568796053.87103
1568796053.88665
1568796053.90228
1568796053.9179
1568796053.93353
1568796053.94915
1568796053.96478
1568796053.98041
1568796053.99603
1568796054.01166
1568796054.02728
1568796054.04291
1568796054.05853
1568796054.07416
1568796054.08979
1568796054.10541
1568796054.12104
1568796054.13666
1568796054.15229
1568796054.16791
1568796054.18354
1568796054.19917
1568796054.21479
1568796054.23042
1568796054.24604
1568796054.26167
1568796054.27729
1568796054.29292
1568796054.30855
1568796054.32417
1568796054.3398
1568796054.35542
1568796054.37105
1568796054.38667
1568796054.4023
1568796054.41793
1568796054.43355
1568796054.44918
1568796054.4648
1568796054.48043
1568796054.49606
1568796054.51168
1568796054.52731
1568796054.54293
1568796054.55856
1568796054.57418
1568796054.58981
1568796054.60544
1568796054.62106
1568796054.63669
1568796054.65231
1568796054.66794
1568796054.68356
1568796054.69919
1568796054.71482
1568796054.73044
1568796054.74607
1568796054.76169
1568796054.77732
1568796054.79294
1568796054.80857
1568796054.8242
1568796054.83982
1568796054.85545
1568796054.87107
1568796054.8867
1568796054.90232
1568796054.91795
1568796054.93358
1568796054.9492
1568796054.96483
1568796054.98045
1568796054.99608
1568796055.0117
1568796055.02733
1568796055.04296
1568796055.05858
1568796055.07421
1568796055.08983
1568796055.10546
1568796055.12108
1568796055.13671
1568796055.15234
1568796055.16796
1568796055.18359
1568796055.19921
1568796055.21484
1568796055.23046
1568796055.24609
1568796055.26172
1568796055.27734
1568796055.29297
1568796055.30859
1568796055.32422
1568796055.33984
1568796055.35547
1568796055.3711
1568796055.38672
1568796055.40235
1568796055.41797
1568796055.4336
1568796055.44922
1568796055.46485
1568796055.48048
1568796055.4961
1568796055.51173
1568796055.52735
1568796055.54298
1568796055.5586
1568796055.57423
1568796055.58986
1568796055.60548
1568796055.62111
1568796055.63673
1568796055.65236
1568796055.66798
1568796055.68361
1568796055.69924
1568796055.71486
1568796055.73049
1568796055.74611
1568796055.76174
1568796055.77736
1568796055.79299
1568796055.80862
1568796055.82424
1568796055.83987
1568796055.85549
1568796055.87112
1568796055.88674
1568796055.90237
1568796055.918
1568796055.93362
1568796055.94925
1568796055.96487
1568796055.9805
1568796055.99612
1568796056.01175
1568796056.02738
1568796056.043
1568796056.05863
1568796056.07425
1568796056.08988
1568796056.1055
1568796056.12113
1568796056.13676
1568796056.15238
1568796056.16801
1568796056.18363
1568796056.19926
1568796056.21488
1568796056.23051
1568796056.24614
1568796056.26176
1568796056.27739
1568796056.29301
1568796056.30864
1568796056.32426
1568796056.33989
1568796056.35552
1568796056.37114
1568796056.38677
1568796056.40239
1568796056.41802
1568796056.43364
1568796056.44927
1568796056.4649
1568796056.48052
1568796056.49615
1568796056.51177
1568796056.5274
1568796056.54302
1568796056.55865
1568796056.57428
1568796056.5899
1568796056.60553
1568796056.62115
1568796056.63678
1568796056.65241
1568796056.66803
1568796056.68366
1568796056.69928
1568796056.71491
1568796056.73053
1568796056.74616
1568796056.76179
1568796056.77741
1568796056.79304
1568796056.80866
1568796056.82429
1568796056.83991
1568796056.85554
1568796056.87117
1568796056.88679
1568796056.90242
1568796056.91804
1568796056.93367
1568796056.94929
1568796056.96492
1568796056.98055
1568796056.99617
1568796057.0118
1568796057.02742
1568796057.04305
1568796057.05867
1568796057.0743
1568796057.08993
1568796057.10555
1568796057.12118
1568796057.1368
1568796057.15243
1568796057.16805
1568796057.18368
1568796057.19931
1568796057.21493
1568796057.23056
1568796057.24618
1568796057.26181
1568796057.27743
1568796057.29306
1568796057.30869
1568796057.32431
1568796057.33994
1568796057.35556
1568796057.37119
1568796057.38681
1568796057.40244
1568796057.41807
1568796057.43369
1568796057.44932
1568796057.46494
1568796057.48057
1568796057.49619
1568796057.51182
1568796057.52745
1568796057.54307
1568796057.5587
1568796057.57432
1568796057.58995
1568796057.60557
1568796057.6212
1568796057.63683
1568796057.65245
1568796057.66808
1568796057.6837
1568796057.69933
1568796057.71495
1568796057.73058
1568796057.74621
1568796057.76183
1568796057.77746
1568796057.79308
1568796057.80871
1568796057.82433
1568796057.83996
1568796057.85559
1568796057.87121
1568796057.88684
1568796057.90246
1568796057.91809
1568796057.93371
1568796057.94934
1568796057.96497
1568796057.98059
1568796057.99622
1568796058.01184
1568796058.02747
1568796058.04309
1568796058.05872
1568796058.07435
1568796058.08997
1568796058.1056
1568796058.12122
1568796058.13685
1568796058.15247
1568796058.1681
1568796058.18373
1568796058.19935
1568796058.21498
1568796058.2306
1568796058.24623
1568796058.26185
1568796058.27748
1568796058.29311
1568796058.30873
1568796058.32436
1568796058.33998
1568796058.35561
1568796058.37123
1568796058.38686
1568796058.40249
1568796058.41811
1568796058.43374
1568796058.44936
1568796058.46499
1568796058.48061
1568796058.49624
1568796058.51187
1568796058.52749
1568796058.54312
1568796058.55874
1568796058.57437
1568796058.58999
1568796058.60562
1568796058.62125
1568796058.63687
1568796058.6525
1568796058.66812
1568796058.68375
1568796058.69937
1568796058.715
1568796058.73063
1568796058.74625
1568796058.76188
1568796058.7775
1568796058.79313
1568796058.80875
1568796058.82438
1568796058.84001
1568796058.85563
1568796058.87126
1568796058.88688
1568796058.90251
1568796058.91813
1568796058.93376
1568796058.94939
1568796058.96501
1568796058.98064
1568796058.99626
1568796059.01189
1568796059.02751
1568796059.04314
1568796059.05877
1568796059.07439
1568796059.09002
1568796059.10564
1568796059.12127
1568796059.13689
1568796059.15252
1568796059.16815
1568796059.18377
1568796059.1994
1568796059.21502
1568796059.23065
1568796059.24627
1568796059.2619
1568796059.27753
1568796059.29315
1568796059.30878
1568796059.3244
1568796059.34003
1568796059.35566
1568796059.37128
1568796059.38691
1568796059.40253
1568796059.41816
1568796059.43378
1568796059.44941
1568796059.46504
1568796059.48066
1568796059.49629
1568796059.51191
1568796059.52754
1568796059.54316
1568796059.55879
1568796059.57442
1568796059.59004
1568796059.60567
1568796059.62129
1568796059.63692
1568796059.65254
1568796059.66817
1568796059.6838
1568796059.69942
1568796059.71505
1568796059.73067
1568796059.7463
1568796059.76192
1568796059.77755
1568796059.79318
1568796059.8088
1568796059.82443
1568796059.84005
1568796059.85568
1568796059.8713
1568796059.88693
1568796059.90256
1568796059.91818
1568796059.93381
1568796059.94943
1568796059.96506
1568796059.98068
1568796059.99631
1568796060.01194
1568796060.02756
1568796060.04319
1568796060.05881
1568796060.07444
1568796060.09006
1568796060.10569
1568796060.12132
1568796060.13694
1568796060.15257
1568796060.16819
1568796060.18382
1568796060.19944
1568796060.21507
1568796060.2307
1568796060.24632
1568796060.26195
1568796060.27757
1568796060.2932
1568796060.30882
1568796060.32445
1568796060.34008
1568796060.3557
1568796060.37133
1568796060.38695
1568796060.40258
1568796060.4182
1568796060.43383
1568796060.44946
1568796060.46508
1568796060.48071
1568796060.49633
1568796060.51196
1568796060.52758
1568796060.54321
1568796060.55884
1568796060.57446
1568796060.59009
1568796060.60571
1568796060.62134
1568796060.63696
1568796060.65259
1568796060.66822
1568796060.68384
1568796060.69947
1568796060.71509
1568796060.73072
1568796060.74634
1568796060.76197
1568796060.7776
1568796060.79322
1568796060.80885
1568796060.82447
1568796060.8401
1568796060.85572
1568796060.87135
1568796060.88698
1568796060.9026
1568796060.91823
1568796060.93385
1568796060.94948
1568796060.9651
1568796060.98073
1568796060.99636
1568796061.01198
1568796061.02761
1568796061.04323
1568796061.05886
1568796061.07448
1568796061.09011
1568796061.10574
1568796061.12136
1568796061.13699
1568796061.15261
1568796061.16824
1568796061.18386
1568796061.19949
1568796061.21512
1568796061.23074
1568796061.24637
1568796061.26199
1568796061.27762
1568796061.29324
1568796061.30887
1568796061.3245
1568796061.34012
1568796061.35575
1568796061.37137
1568796061.387
1568796061.40262
1568796061.41825
1568796061.43388
1568796061.4495
1568796061.46513
1568796061.48075
1568796061.49638
1568796061.51201
1568796061.52763
1568796061.54326
1568796061.55888
1568796061.57451
1568796061.59013
1568796061.60576
1568796061.62139
1568796061.63701
1568796061.65264
1568796061.66826
1568796061.68389
1568796061.69951
1568796061.71514
1568796061.73077
1568796061.74639
1568796061.76202
1568796061.77764
1568796061.79327
1568796061.80889
1568796061.82452
1568796061.84015
1568796061.85577
1568796061.8714
1568796061.88702
1568796061.90265
1568796061.91827
1568796061.9339
1568796061.94953
1568796061.96515
1568796061.98078
1568796061.9964
1568796062.01203
1568796062.02765
1568796062.04328
1568796062.05891
1568796062.07453
1568796062.09016
1568796062.10578
1568796062.12141
1568796062.13703
1568796062.15266
1568796062.16829
1568796062.18391
1568796062.19954
1568796062.21516
1568796062.23079
1568796062.24641
1568796062.26204
1568796062.27767
1568796062.29329
1568796062.30892
1568796062.32454
1568796062.34017
1568796062.35579
1568796062.37142
1568796062.38705
1568796062.40267
1568796062.4183
1568796062.43392
1568796062.44955
1568796062.46517
1568796062.4808
1568796062.49643
1568796062.51205
1568796062.52768
1568796062.5433
1568796062.55893
1568796062.57455
1568796062.59018
1568796062.60581
1568796062.62143
1568796062.63706
1568796062.65268
1568796062.66831
1568796062.68393
1568796062.69956
1568796062.71519
1568796062.73081
1568796062.74644
1568796062.76206
1568796062.77769
1568796062.79331
1568796062.80894
1568796062.82457
1568796062.84019
1568796062.85582
1568796062.87144
1568796062.88707
1568796062.90269
1568796062.91832
1568796062.93395
1568796062.94957
1568796062.9652
1568796062.98082
1568796062.99645
1568796063.01207
1568796063.0277
1568796063.04333
1568796063.05895
1568796063.07458
1568796063.0902
1568796063.10583
1568796063.12145
1568796063.13708
1568796063.15271
1568796063.16833
1568796063.18396
1568796063.19958
1568796063.21521
1568796063.23083
1568796063.24646
1568796063.26209
1568796063.27771
1568796063.29334
1568796063.30896
1568796063.32459
1568796063.34021
1568796063.35584
1568796063.37147
1568796063.38709
1568796063.40272
1568796063.41834
1568796063.43397
1568796063.44959
1568796063.46522
1568796063.48085
1568796063.49647
1568796063.5121
1568796063.52772
1568796063.54335
1568796063.55897
1568796063.5746
1568796063.59023
1568796063.60585
1568796063.62148
1568796063.6371
1568796063.65273
1568796063.66835
1568796063.68398
1568796063.69961
1568796063.71523
1568796063.73086
1568796063.74648
1568796063.76211
1568796063.77773
1568796063.79336
1568796063.80899
1568796063.82461
1568796063.84024
1568796063.85586
1568796063.87149
1568796063.88712
1568796063.90274
1568796063.91837
1568796063.93399
1568796063.94962
1568796063.96524
1568796063.98087
1568796063.9965
1568796064.01212
1568796064.02775
1568796064.04337
1568796064.059
1568796064.07462
1568796064.09025
1568796064.10588
1568796064.1215
1568796064.13713
1568796064.15275
1568796064.16838
1568796064.184
1568796064.19963
1568796064.21526
1568796064.23088
1568796064.24651
1568796064.26213
1568796064.27776
1568796064.29338
1568796064.30901
1568796064.32464
1568796064.34026
1568796064.35589
1568796064.37151
1568796064.38714
1568796064.40276
1568796064.41839
1568796064.43402
1568796064.44964
1568796064.46527
1568796064.48089
1568796064.49652
1568796064.51214
1568796064.52777
1568796064.5434
1568796064.55902
1568796064.57465
1568796064.59027
1568796064.6059
1568796064.62152
1568796064.63715
1568796064.65278
1568796064.6684
1568796064.68403
1568796064.69965
1568796064.71528
1568796064.7309
1568796064.74653
1568796064.76216
1568796064.77778
1568796064.79341
1568796064.80903
1568796064.82466
1568796064.84028
1568796064.85591
1568796064.87154
1568796064.88716
1568796064.90279
1568796064.91841
1568796064.93404
1568796064.94966
1568796064.96529
1568796064.98092
1568796064.99654
1568796065.01217
1568796065.02779
1568796065.04342
1568796065.05904
1568796065.07467
1568796065.0903
1568796065.10592
1568796065.12155
1568796065.13717
1568796065.1528
1568796065.16842
1568796065.18405
1568796065.19968
1568796065.2153
1568796065.23093
1568796065.24655
1568796065.26218
1568796065.2778
1568796065.29343
1568796065.30906
1568796065.32468
1568796065.34031
1568796065.35593
1568796065.37156
1568796065.38718
1568796065.40281
1568796065.41844
1568796065.43406
1568796065.44969
1568796065.46531
1568796065.48094
1568796065.49656
1568796065.51219
1568796065.52782
1568796065.54344
1568796065.55907
1568796065.57469
1568796065.59032
1568796065.60594
1568796065.62157
1568796065.6372
1568796065.65282
1568796065.66845
1568796065.68407
1568796065.6997
1568796065.71532
1568796065.73095
1568796065.74658
1568796065.7622
1568796065.77783
1568796065.79345
1568796065.80908
1568796065.8247
1568796065.84033
1568796065.85596
1568796065.87158
1568796065.88721
1568796065.90283
1568796065.91846
1568796065.93408
1568796065.94971
1568796065.96534
1568796065.98096
1568796065.99659
1568796066.01221
1568796066.02784
1568796066.04346
1568796066.05909
1568796066.07472
1568796066.09034
1568796066.10597
1568796066.12159
1568796066.13722
1568796066.15284
1568796066.16847
1568796066.1841
1568796066.19972
1568796066.21535
1568796066.23097
1568796066.2466
1568796066.26222
1568796066.27785
1568796066.29348
1568796066.3091
1568796066.32473
1568796066.34035
1568796066.35598
1568796066.37161
1568796066.38723
1568796066.40286
1568796066.41848
1568796066.43411
1568796066.44973
1568796066.46536
1568796066.48099
1568796066.49661
1568796066.51224
1568796066.52786
1568796066.54349
1568796066.55911
1568796066.57474
1568796066.59037
1568796066.60599
1568796066.62162
1568796066.63724
1568796066.65287
1568796066.66849
1568796066.68412
1568796066.69975
1568796066.71537
1568796066.731
1568796066.74662
1568796066.76225
1568796066.77787
1568796066.7935
1568796066.80913
1568796066.82475
1568796066.84038
1568796066.856
1568796066.87163
1568796066.88725
1568796066.90288
1568796066.91851
1568796066.93413
1568796066.94976
1568796066.96538
1568796066.98101
1568796066.99663
1568796067.01226
1568796067.02789
1568796067.04351
1568796067.05914
1568796067.07476
1568796067.09039
1568796067.10601
1568796067.12164
1568796067.13727
1568796067.15289
1568796067.16852
1568796067.18414
1568796067.19977
1568796067.21539
1568796067.23102
1568796067.24665
1568796067.26227
1568796067.2779
1568796067.29352
1568796067.30915
1568796067.32477
1568796067.3404
1568796067.35603
1568796067.37165
1568796067.38728
1568796067.4029
1568796067.41853
1568796067.43415
1568796067.44978
1568796067.46541
1568796067.48103
1568796067.49666
1568796067.51228
1568796067.52791
1568796067.54353
1568796067.55916
1568796067.57479
1568796067.59041
1568796067.60604
1568796067.62166
1568796067.63729
1568796067.65291
1568796067.66854
1568796067.68417
1568796067.69979
1568796067.71542
1568796067.73104
1568796067.74667
1568796067.76229
1568796067.77792
1568796067.79355
1568796067.80917
1568796067.8248
1568796067.84042
1568796067.85605
1568796067.87167
1568796067.8873
1568796067.90293
1568796067.91855
1568796067.93418
1568796067.9498
1568796067.96543
1568796067.98105
1568796067.99668
1568796068.01231
1568796068.02793
1568796068.04356
1568796068.05918
1568796068.07481
1568796068.09043
1568796068.10606
1568796068.12169
1568796068.13731
1568796068.15294
1568796068.16856
1568796068.18419
1568796068.19981
1568796068.21544
1568796068.23107
1568796068.24669
1568796068.26232
1568796068.27794
1568796068.29357
1568796068.30919
1568796068.32482
1568796068.34045
1568796068.35607
1568796068.3717
1568796068.38732
1568796068.40295
1568796068.41857
1568796068.4342
1568796068.44983
1568796068.46545
1568796068.48108
1568796068.4967
1568796068.51233
1568796068.52795
1568796068.54358
1568796068.55921
1568796068.57483
1568796068.59046
1568796068.60608
1568796068.62171
1568796068.63734
1568796068.65296
1568796068.66859
1568796068.68421
1568796068.69984
1568796068.71546
1568796068.73109
1568796068.74672
1568796068.76234
1568796068.77797
1568796068.79359
1568796068.80922
1568796068.82484
1568796068.84047
1568796068.8561
1568796068.87172
1568796068.88735
1568796068.90297
1568796068.9186
1568796068.93422
1568796068.94985
1568796068.96548
1568796068.9811
1568796068.99673
1568796069.01235
1568796069.02798
1568796069.0436
1568796069.05923
1568796069.07486
1568796069.09048
1568796069.10611
1568796069.12173
1568796069.13736
1568796069.15298
1568796069.16861
1568796069.18424
1568796069.19986
1568796069.21549
1568796069.23111
1568796069.24674
1568796069.26236
1568796069.27799
1568796069.29362
1568796069.30924
1568796069.32487
1568796069.34049
1568796069.35612
1568796069.37174
1568796069.38737
1568796069.403
1568796069.41862
1568796069.43425
1568796069.44987
1568796069.4655
1568796069.48112
1568796069.49675
1568796069.51238
1568796069.528
1568796069.54363
1568796069.55925
1568796069.57488
1568796069.5905
1568796069.60613
1568796069.62176
1568796069.63738
1568796069.65301
1568796069.66863
1568796069.68426
1568796069.69988
1568796069.71551
1568796069.73114
1568796069.74676
1568796069.76239
1568796069.77801
1568796069.79364
1568796069.80926
1568796069.82489
1568796069.84052
1568796069.85614
1568796069.87177
1568796069.88739
1568796069.90302
1568796069.91864
1568796069.93427
1568796069.9499
1568796069.96552
1568796069.98115
1568796069.99677
1568796070.0124
1568796070.02802
1568796070.04365
1568796070.05928
1568796070.0749
1568796070.09053
1568796070.10615
1568796070.12178
1568796070.1374
1568796070.15303
1568796070.16866
1568796070.18428
1568796070.19991
1568796070.21553
1568796070.23116
1568796070.24678
1568796070.26241
1568796070.27804
1568796070.29366
1568796070.30929
1568796070.32491
1568796070.34054
1568796070.35616
1568796070.37179
1568796070.38742
1568796070.40304
1568796070.41867
1568796070.43429
1568796070.44992
1568796070.46554
1568796070.48117
1568796070.4968
1568796070.51242
1568796070.52805
1568796070.54367
1568796070.5593
1568796070.57492
1568796070.59055
1568796070.60618
1568796070.6218
1568796070.63743
1568796070.65305
1568796070.66868
1568796070.6843
1568796070.69993
1568796070.71556
1568796070.73118
1568796070.74681
1568796070.76243
1568796070.77806
1568796070.79368
1568796070.80931
1568796070.82494
1568796070.84056
1568796070.85619
1568796070.87181
1568796070.88744
1568796070.90306
1568796070.91869
1568796070.93432
1568796070.94994
1568796070.96557
1568796070.98119
1568796070.99682
1568796071.01244
1568796071.02807
1568796071.0437
1568796071.05932
1568796071.07495
1568796071.09057
1568796071.1062
1568796071.12182
1568796071.13745
1568796071.15308
1568796071.1687
1568796071.18433
1568796071.19995
1568796071.21558
1568796071.2312
1568796071.24683
1568796071.26246
1568796071.27808
1568796071.29371
1568796071.30933
1568796071.32496
1568796071.34059
1568796071.35621
1568796071.37184
1568796071.38746
1568796071.40309
1568796071.41871
1568796071.43434
1568796071.44997
1568796071.46559
1568796071.48122
1568796071.49684
1568796071.51247
1568796071.52809
1568796071.54372
1568796071.55935
1568796071.57497
1568796071.5906
1568796071.60622
1568796071.62185
1568796071.63747
1568796071.6531
1568796071.66873
1568796071.68435
1568796071.69998
1568796071.7156
1568796071.73123
1568796071.74685
1568796071.76248
1568796071.77811
1568796071.79373
1568796071.80936
1568796071.82498
1568796071.84061
1568796071.85623
1568796071.87186
1568796071.88749
1568796071.90311
1568796071.91874
1568796071.93436
1568796071.94999
1568796071.96561
1568796071.98124
1568796071.99687
1568796072.01249
1568796072.02812
1568796072.04374
1568796072.05937
1568796072.07499
1568796072.09062
1568796072.10625
1568796072.12187
1568796072.1375
1568796072.15312
1568796072.16875
1568796072.18437
1568796072.2
1568796072.21563
1568796072.23125
1568796072.24688
1568796072.2625
1568796072.27813
1568796072.29375
1568796072.30938
1568796072.32501
1568796072.34063
1568796072.35626
1568796072.37188
1568796072.38751
1568796072.40313
1568796072.41876
1568796072.43439
1568796072.45001
1568796072.46564
1568796072.48126
1568796072.49689
1568796072.51251
1568796072.52814
1568796072.54377
1568796072.55939
1568796072.57502
1568796072.59064
1568796072.60627
1568796072.62189
1568796072.63752
1568796072.65315
1568796072.66877
1568796072.6844
1568796072.70002
1568796072.71565
1568796072.73127
1568796072.7469
1568796072.76253
1568796072.77815
1568796072.79378
1568796072.8094
1568796072.82503
1568796072.84065
1568796072.85628
1568796072.87191
1568796072.88753
1568796072.90316
1568796072.91878
1568796072.93441
1568796072.95003
1568796072.96566
1568796072.98129
1568796072.99691
1568796073.01254
1568796073.02816
1568796073.04379
1568796073.05941
1568796073.07504
1568796073.09067
1568796073.10629
1568796073.12192
1568796073.13754
1568796073.15317
1568796073.16879
1568796073.18442
1568796073.20005
1568796073.21567
1568796073.2313
1568796073.24692
1568796073.26255
1568796073.27817
1568796073.2938
1568796073.30943
1568796073.32505
1568796073.34068
1568796073.3563
1568796073.37193
1568796073.38755
1568796073.40318
1568796073.41881
1568796073.43443
1568796073.45006
1568796073.46568
1568796073.48131
1568796073.49694
1568796073.51256
1568796073.52819
1568796073.54381
1568796073.55944
1568796073.57506
1568796073.59069
1568796073.60632
1568796073.62194
1568796073.63757
1568796073.65319
1568796073.66882
1568796073.68444
1568796073.70007
1568796073.7157
1568796073.73132
1568796073.74695
1568796073.76257
1568796073.7782
1568796073.79382
1568796073.80945
1568796073.82508
1568796073.8407
1568796073.85633
1568796073.87195
1568796073.88758
1568796073.9032
1568796073.91883
1568796073.93446
1568796073.95008
1568796073.96571
1568796073.98133
1568796073.99696
1568796074.01258
1568796074.02821
1568796074.04384
1568796074.05946
1568796074.07509
1568796074.09071
1568796074.10634
1568796074.12196
1568796074.13759
1568796074.15322
1568796074.16884
1568796074.18447
1568796074.20009
1568796074.21572
1568796074.23134
1568796074.24697
1568796074.2626
1568796074.27822
1568796074.29385
1568796074.30947
1568796074.3251
1568796074.34072
1568796074.35635
1568796074.37198
1568796074.3876
1568796074.40323
1568796074.41885
1568796074.43448
1568796074.4501
1568796074.46573
1568796074.48136
1568796074.49698
1568796074.51261
1568796074.52823
1568796074.54386
1568796074.55948
1568796074.57511
1568796074.59074
1568796074.60636
1568796074.62199
1568796074.63761
1568796074.65324
1568796074.66886
1568796074.68449
1568796074.70012
1568796074.71574
1568796074.73137
1568796074.74699
1568796074.76262
1568796074.77824
1568796074.79387
1568796074.8095
1568796074.82512
1568796074.84075
1568796074.85637
1568796074.872
1568796074.88762
1568796074.90325
1568796074.91888
1568796074.9345
1568796074.95013
1568796074.96575
1568796074.98138
1568796074.997
1568796075.01263
1568796075.02826
1568796075.04388
1568796075.05951
1568796075.07513
1568796075.09076
1568796075.10638
1568796075.12201
1568796075.13764
1568796075.15326
1568796075.16889
1568796075.18451
1568796075.20014
1568796075.21576
1568796075.23139
1568796075.24702
1568796075.26264
1568796075.27827
1568796075.29389
1568796075.30952
1568796075.32514
1568796075.34077
1568796075.3564
1568796075.37202
1568796075.38765
1568796075.40327
1568796075.4189
1568796075.43452
1568796075.45015
1568796075.46578
1568796075.4814
1568796075.49703
1568796075.51265
1568796075.52828
1568796075.5439
1568796075.55953
1568796075.57516
1568796075.59078
1568796075.60641
1568796075.62203
1568796075.63766
1568796075.65328
1568796075.66891
1568796075.68454
1568796075.70016
1568796075.71579
1568796075.73141
1568796075.74704
1568796075.76267
1568796075.77829
1568796075.79392
1568796075.80954
1568796075.82517
1568796075.84079
1568796075.85642
1568796075.87205
1568796075.88767
1568796075.9033
1568796075.91892
1568796075.93455
1568796075.95017
1568796075.9658
1568796075.98143
1568796075.99705
1568796076.01268
1568796076.0283
1568796076.04393
1568796076.05955
1568796076.07518
1568796076.09081
1568796076.10643
1568796076.12206
1568796076.13768
1568796076.15331
1568796076.16893
1568796076.18456
1568796076.20019
1568796076.21581
1568796076.23144
1568796076.24706
1568796076.26269
1568796076.27831
1568796076.29394
1568796076.30957
1568796076.32519
1568796076.34082
1568796076.35644
1568796076.37207
1568796076.38769
1568796076.40332
1568796076.41895
1568796076.43457
1568796076.4502
1568796076.46582
1568796076.48145
1568796076.49707
1568796076.5127
1568796076.52833
1568796076.54395
1568796076.55958
1568796076.5752
1568796076.59083
1568796076.60645
1568796076.62208
1568796076.63771
1568796076.65333
1568796076.66896
1568796076.68458
1568796076.70021
1568796076.71583
1568796076.73146
1568796076.74709
1568796076.76271
1568796076.77834
1568796076.79396
1568796076.80959
1568796076.82521
1568796076.84084
1568796076.85647
1568796076.87209
1568796076.88772
1568796076.90334
1568796076.91897
1568796076.93459
1568796076.95022
1568796076.96585
1568796076.98147
1568796076.9971
1568796077.01272
1568796077.02835
1568796077.04397
1568796077.0596
1568796077.07523
1568796077.09085
1568796077.10648
1568796077.1221
1568796077.13773
1568796077.15335
1568796077.16898
1568796077.18461
1568796077.20023
1568796077.21586
1568796077.23148
1568796077.24711
1568796077.26273
1568796077.27836
1568796077.29399
1568796077.30961
1568796077.32524
1568796077.34086
1568796077.35649
1568796077.37211
1568796077.38774
1568796077.40337
1568796077.41899
1568796077.43462
1568796077.45024
1568796077.46587
1568796077.48149
1568796077.49712
1568796077.51275
1568796077.52837
1568796077.544
1568796077.55962
1568796077.57525
1568796077.59087
1568796077.6065
1568796077.62213
1568796077.63775
1568796077.65338
1568796077.669
1568796077.68463
1568796077.70025
1568796077.71588
1568796077.73151
1568796077.74713
1568796077.76276
1568796077.77838
1568796077.79401
1568796077.80963
1568796077.82526
1568796077.84089
1568796077.85651
1568796077.87214
1568796077.88776
1568796077.90339
1568796077.91901
1568796077.93464
1568796077.95027
1568796077.96589
1568796077.98152
1568796077.99714
1568796078.01277
1568796078.02839
1568796078.04402
1568796078.05965
1568796078.07527
1568796078.0909
1568796078.10652
1568796078.12215
1568796078.13777
1568796078.1534
1568796078.16903
1568796078.18465
1568796078.20028
1568796078.2159
1568796078.23153
1568796078.24715
1568796078.26278
1568796078.27841
1568796078.29403
1568796078.30966
1568796078.32528
1568796078.34091
1568796078.35654
1568796078.37216
1568796078.38779
1568796078.40341
1568796078.41904
1568796078.43466
1568796078.45029
1568796078.46592
1568796078.48154
1568796078.49717
1568796078.51279
1568796078.52842
1568796078.54404
1568796078.55967
1568796078.5753
1568796078.59092
1568796078.60655
1568796078.62217
1568796078.6378
1568796078.65342
1568796078.66905
1568796078.68468
1568796078.7003
1568796078.71593
1568796078.73155
1568796078.74718
1568796078.7628
1568796078.77843
1568796078.79406
1568796078.80968
1568796078.82531
1568796078.84093
1568796078.85656
1568796078.87218
1568796078.88781
1568796078.90344
1568796078.91906
1568796078.93469
1568796078.95031
1568796078.96594
1568796078.98156
1568796078.99719
1568796079.01282
1568796079.02844
1568796079.04407
1568796079.05969
1568796079.07532
1568796079.09094
1568796079.10657
1568796079.1222
1568796079.13782
1568796079.15345
1568796079.16907
1568796079.1847
1568796079.20032
1568796079.21595
1568796079.23158
1568796079.2472
1568796079.26283
1568796079.27845
1568796079.29408
1568796079.3097
1568796079.32533
1568796079.34096
1568796079.35658
1568796079.37221
1568796079.38783
1568796079.40346
1568796079.41908
1568796079.43471
1568796079.45034
1568796079.46596
1568796079.48159
1568796079.49721
1568796079.51284
1568796079.52846
1568796079.54409
1568796079.55972
1568796079.57534
1568796079.59097
1568796079.60659
1568796079.62222
1568796079.63784
1568796079.65347
1568796079.6691
1568796079.68472
1568796079.70035
1568796079.71597
1568796079.7316
1568796079.74722
1568796079.76285
1568796079.77848
1568796079.7941
1568796079.80973
1568796079.82535
1568796079.84098
1568796079.8566
1568796079.87223
1568796079.88786
1568796079.90348
1568796079.91911
1568796079.93473
1568796079.95036
1568796079.96598
1568796079.98161
1568796079.99724
1568796080.01286
1568796080.02849
1568796080.04411
1568796080.05974
1568796080.07536
1568796080.09099
1568796080.10662
1568796080.12224
1568796080.13787
1568796080.15349
1568796080.16912
1568796080.18474
1568796080.20037
1568796080.216
1568796080.23162
1568796080.24725
1568796080.26287
1568796080.2785
1568796080.29412
1568796080.30975
1568796080.32538
1568796080.341
1568796080.35663
1568796080.37225
1568796080.38788
1568796080.4035
1568796080.41913
1568796080.43476
1568796080.45038
1568796080.46601
1568796080.48163
1568796080.49726
1568796080.51288
1568796080.52851
1568796080.54414
1568796080.55976
1568796080.57539
1568796080.59101
1568796080.60664
1568796080.62227
1568796080.63789
1568796080.65352
1568796080.66914
1568796080.68477
1568796080.70039
1568796080.71602
1568796080.73165
1568796080.74727
1568796080.7629
1568796080.77852
1568796080.79415
1568796080.80977
1568796080.8254
1568796080.84103
1568796080.85665
1568796080.87228
1568796080.8879
1568796080.90353
1568796080.91915
1568796080.93478
1568796080.95041
1568796080.96603
1568796080.98166
1568796080.99728
1568796081.01291
1568796081.02853
1568796081.04416
1568796081.05979
1568796081.07541
1568796081.09104
1568796081.10666
1568796081.12229
1568796081.13791
1568796081.15354
1568796081.16917
1568796081.18479
1568796081.20042
1568796081.21604
1568796081.23167
1568796081.24729
1568796081.26292
1568796081.27855
1568796081.29417
1568796081.3098
1568796081.32542
1568796081.34105
1568796081.35667
1568796081.3723
1568796081.38793
1568796081.40355
1568796081.41918
1568796081.4348
1568796081.45043
1568796081.46605
1568796081.48168
1568796081.49731
1568796081.51293
1568796081.52856
1568796081.54418
1568796081.55981
1568796081.57543
1568796081.59106
1568796081.60669
1568796081.62231
1568796081.63794
1568796081.65356
1568796081.66919
1568796081.68481
1568796081.70044
1568796081.71607
1568796081.73169
1568796081.74732
1568796081.76294
1568796081.77857
1568796081.79419
1568796081.80982
1568796081.82545
1568796081.84107
1568796081.8567
1568796081.87232
1568796081.88795
1568796081.90357
1568796081.9192
1568796081.93483
1568796081.95045
1568796081.96608
1568796081.9817
1568796081.99733
1568796082.01295
1568796082.02858
1568796082.04421
1568796082.05983
1568796082.07546
1568796082.09108
1568796082.10671
1568796082.12233
1568796082.13796
1568796082.15359
1568796082.16921
1568796082.18484
1568796082.20046
1568796082.21609
1568796082.23171
1568796082.24734
1568796082.26297
1568796082.27859
1568796082.29422
1568796082.30984
1568796082.32547
1568796082.34109
1568796082.35672
1568796082.37235
1568796082.38797
1568796082.4036
1568796082.41922
1568796082.43485
1568796082.45047
1568796082.4661
1568796082.48173
1568796082.49735
1568796082.51298
1568796082.5286
1568796082.54423
1568796082.55985
1568796082.57548
1568796082.59111
1568796082.60673
1568796082.62236
1568796082.63798
1568796082.65361
1568796082.66923
1568796082.68486
1568796082.70049
1568796082.71611
1568796082.73174
1568796082.74736
1568796082.76299
1568796082.77862
1568796082.79424
1568796082.80987
1568796082.82549
1568796082.84112
1568796082.85674
1568796082.87237
1568796082.888
1568796082.90362
1568796082.91925
1568796082.93487
1568796082.9505
1568796082.96612
1568796082.98175
1568796082.99738
1568796083.013
1568796083.02863
1568796083.04425
1568796083.05988
1568796083.0755
1568796083.09113
1568796083.10676
1568796083.12238
1568796083.13801
1568796083.15363
1568796083.16926
1568796083.18488
1568796083.20051
1568796083.21614
1568796083.23176
1568796083.24739
1568796083.26301
1568796083.27864
1568796083.29426
1568796083.30989
1568796083.32552
1568796083.34114
1568796083.35677
1568796083.37239
1568796083.38802
1568796083.40364
1568796083.41927
1568796083.4349
1568796083.45052
1568796083.46615
1568796083.48177
1568796083.4974
1568796083.51302
1568796083.52865
1568796083.54428
1568796083.5599
1568796083.57553
1568796083.59115
1568796083.60678
1568796083.6224
1568796083.63803
1568796083.65366
1568796083.66928
1568796083.68491
1568796083.70053
1568796083.71616
1568796083.73178
1568796083.74741
1568796083.76304
1568796083.77866
1568796083.79429
1568796083.80991
1568796083.82554
1568796083.84116
1568796083.85679
1568796083.87242
1568796083.88804
1568796083.90367
1568796083.91929
1568796083.93492
1568796083.95054
1568796083.96617
1568796083.9818
1568796083.99742
1568796084.01305
1568796084.02867
1568796084.0443
1568796084.05992
1568796084.07555
1568796084.09118
1568796084.1068
1568796084.12243
1568796084.13805
1568796084.15368
1568796084.1693
1568796084.18493
1568796084.20056
1568796084.21618
1568796084.23181
1568796084.24743
1568796084.26306
1568796084.27868
1568796084.29431
1568796084.30994
1568796084.32556
1568796084.34119
1568796084.35681
1568796084.37244
1568796084.38806
1568796084.40369
1568796084.41932
1568796084.43494
1568796084.45057
1568796084.46619
1568796084.48182
1568796084.49744
1568796084.51307
1568796084.5287
1568796084.54432
1568796084.55995
1568796084.57557
1568796084.5912
1568796084.60682
1568796084.62245
1568796084.63808
1568796084.6537
1568796084.66933
1568796084.68495
1568796084.70058
1568796084.7162
1568796084.73183
1568796084.74746
1568796084.76308
1568796084.77871
1568796084.79433
1568796084.80996
1568796084.82558
1568796084.84121
1568796084.85684
1568796084.87246
1568796084.88809
1568796084.90371
1568796084.91934
1568796084.93496
1568796084.95059
1568796084.96622
1568796084.98184
1568796084.99747
1568796085.01309
1568796085.02872
1568796085.04434
1568796085.05997
1568796085.0756
1568796085.09122
1568796085.10685
1568796085.12247
1568796085.1381
1568796085.15372
1568796085.16935
1568796085.18498
1568796085.2006
1568796085.21623
1568796085.23185
1568796085.24748
1568796085.2631
1568796085.27873
1568796085.29436
1568796085.30998
1568796085.32561
1568796085.34123
1568796085.35686
1568796085.37248
1568796085.38811
1568796085.40374
1568796085.41936
1568796085.43499
1568796085.45061
1568796085.46624
1568796085.48187
1568796085.49749
1568796085.51312
1568796085.52874
1568796085.54437
1568796085.55999
1568796085.57562
1568796085.59125
1568796085.60687
1568796085.6225
1568796085.63812
1568796085.65375
1568796085.66937
1568796085.685
1568796085.70063
1568796085.71625
1568796085.73188
1568796085.7475
1568796085.76313
1568796085.77875
1568796085.79438
1568796085.81001
1568796085.82563
1568796085.84126
1568796085.85688
1568796085.87251
1568796085.88813
1568796085.90376
1568796085.91939
1568796085.93501
1568796085.95064
1568796085.96626
1568796085.98189
1568796085.99751
1568796086.01314
1568796086.02877
1568796086.04439
1568796086.06002
1568796086.07564
1568796086.09127
1568796086.10689
1568796086.12252
1568796086.13815
1568796086.15377
1568796086.1694
1568796086.18502
1568796086.20065
1568796086.21627
1568796086.2319
1568796086.24753
1568796086.26315
1568796086.27878
1568796086.2944
1568796086.31003
1568796086.32565
1568796086.34128
1568796086.35691
1568796086.37253
1568796086.38816
1568796086.40378
1568796086.41941
1568796086.43503
1568796086.45066
1568796086.46629
1568796086.48191
1568796086.49754
1568796086.51316
1568796086.52879
1568796086.54441
1568796086.56004
1568796086.57567
1568796086.59129
1568796086.60692
1568796086.62254
1568796086.63817
1568796086.65379
1568796086.66942
1568796086.68505
1568796086.70067
1568796086.7163
1568796086.73192
1568796086.74755
1568796086.76317
1568796086.7788
1568796086.79443
1568796086.81005
1568796086.82568
1568796086.8413
1568796086.85693
1568796086.87255
1568796086.88818
1568796086.90381
1568796086.91943
1568796086.93506
1568796086.95068
1568796086.96631
1568796086.98193
1568796086.99756
1568796087.01319
1568796087.02881
1568796087.04444
1568796087.06006
1568796087.07569
1568796087.09131
1568796087.10694
1568796087.12257
1568796087.13819
1568796087.15382
1568796087.16944
1568796087.18507
1568796087.20069
1568796087.21632
1568796087.23195
1568796087.24757
1568796087.2632
1568796087.27882
1568796087.29445
1568796087.31007
1568796087.3257
1568796087.34133
1568796087.35695
1568796087.37258
1568796087.3882
1568796087.40383
1568796087.41945
1568796087.43508
1568796087.45071
1568796087.46633
1568796087.48196
1568796087.49758
1568796087.51321
1568796087.52883
1568796087.54446
1568796087.56009
1568796087.57571
1568796087.59134
1568796087.60696
1568796087.62259
1568796087.63822
1568796087.65384
1568796087.66947
1568796087.68509
1568796087.70072
1568796087.71634
1568796087.73197
1568796087.7476
1568796087.76322
1568796087.77885
1568796087.79447
1568796087.8101
1568796087.82572
1568796087.84135
1568796087.85698
1568796087.8726
1568796087.88823
1568796087.90385
1568796087.91948
1568796087.9351
1568796087.95073
1568796087.96636
1568796087.98198
1568796087.99761
1568796088.01323
1568796088.02886
1568796088.04448
1568796088.06011
1568796088.07574
1568796088.09136
1568796088.10699
1568796088.12261
1568796088.13824
1568796088.15386
1568796088.16949
1568796088.18512
1568796088.20074
1568796088.21637
1568796088.23199
1568796088.24762
1568796088.26324
1568796088.27887
1568796088.2945
1568796088.31012
1568796088.32575
1568796088.34137
1568796088.357
1568796088.37262
1568796088.38825
1568796088.40388
1568796088.4195
1568796088.43513
1568796088.45075
1568796088.46638
1568796088.482
1568796088.49763
1568796088.51326
1568796088.52888
1568796088.54451
1568796088.56013
1568796088.57576
1568796088.59138
1568796088.60701
1568796088.62264
1568796088.63826
1568796088.65389
1568796088.66951
1568796088.68514
1568796088.70076
1568796088.71639
1568796088.73202
1568796088.74764
1568796088.76327
1568796088.77889
1568796088.79452
1568796088.81014
1568796088.82577
1568796088.8414
1568796088.85702
1568796088.87265
1568796088.88827
1568796088.9039
1568796088.91952
1568796088.93515
1568796088.95078
1568796088.9664
1568796088.98203
1568796088.99765
1568796089.01328
1568796089.0289
1568796089.04453
1568796089.06016
1568796089.07578
1568796089.09141
1568796089.10703
1568796089.12266
1568796089.13828
1568796089.15391
1568796089.16954
1568796089.18516
1568796089.20079
1568796089.21641
1568796089.23204
1568796089.24766
1568796089.26329
1568796089.27892
1568796089.29454
1568796089.31017
1568796089.32579
1568796089.34142
1568796089.35704
1568796089.37267
1568796089.3883
1568796089.40392
1568796089.41955
1568796089.43517
1568796089.4508
1568796089.46642
1568796089.48205
1568796089.49768
1568796089.5133
1568796089.52893
1568796089.54455
1568796089.56018
1568796089.5758
1568796089.59143
1568796089.60706
1568796089.62268
1568796089.63831
1568796089.65393
1568796089.66956
1568796089.68518
1568796089.70081
1568796089.71644
1568796089.73206
1568796089.74769
1568796089.76331
1568796089.77894
1568796089.79456
1568796089.81019
1568796089.82582
1568796089.84144
1568796089.85707
1568796089.87269
1568796089.88832
1568796089.90394
1568796089.91957
1568796089.9352
1568796089.95082
1568796089.96645
1568796089.98207
1568796089.9977
1568796090.01332
1568796090.02895
1568796090.04458
1568796090.0602
1568796090.07583
1568796090.09145
1568796090.10708
1568796090.1227
1568796090.13833
1568796090.15396
1568796090.16958
1568796090.18521
1568796090.20083
1568796090.21646
1568796090.23208
1568796090.24771
1568796090.26334
1568796090.27896
1568796090.29459
1568796090.31021
1568796090.32584
1568796090.34147
1568796090.35709
1568796090.37272
1568796090.38834
1568796090.40397
1568796090.41959
1568796090.43522
1568796090.45085
1568796090.46647
1568796090.4821
1568796090.49772
1568796090.51335
1568796090.52897
1568796090.5446
1568796090.56023
1568796090.57585
1568796090.59148
1568796090.6071
1568796090.62273
1568796090.63835
1568796090.65398
1568796090.66961
1568796090.68523
1568796090.70086
1568796090.71648
1568796090.73211
1568796090.74773
1568796090.76336
1568796090.77899
1568796090.79461
1568796090.81024
1568796090.82586
1568796090.84149
1568796090.85711
1568796090.87274
1568796090.88837
1568796090.90399
1568796090.91962
1568796090.93524
1568796090.95087
1568796090.96649
1568796090.98212
1568796090.99775
1568796091.01337
1568796091.029
1568796091.04462
1568796091.06025
1568796091.07587
1568796091.0915
1568796091.10713
1568796091.12275
1568796091.13838
1568796091.154
1568796091.16963
1568796091.18525
1568796091.20088
1568796091.21651
1568796091.23213
1568796091.24776
1568796091.26338
1568796091.27901
1568796091.29463
1568796091.31026
1568796091.32589
1568796091.34151
1568796091.35714
1568796091.37276
1568796091.38839
1568796091.40401
1568796091.41964
1568796091.43527
1568796091.45089
1568796091.46652
1568796091.48214
1568796091.49777
1568796091.51339
1568796091.52902
1568796091.54465
1568796091.56027
1568796091.5759
1568796091.59152
1568796091.60715
1568796091.62277
1568796091.6384
1568796091.65403
1568796091.66965
1568796091.68528
1568796091.7009
1568796091.71653
1568796091.73215
1568796091.74778
1568796091.76341
1568796091.77903
1568796091.79466
1568796091.81028
1568796091.82591
1568796091.84153
1568796091.85716
1568796091.87279
1568796091.88841
1568796091.90404
1568796091.91966
1568796091.93529
1568796091.95091
1568796091.96654
1568796091.98217
1568796091.99779
1568796092.01342
1568796092.02904
1568796092.04467
1568796092.06029
1568796092.07592
1568796092.09155
1568796092.10717
1568796092.1228
1568796092.13842
1568796092.15405
1568796092.16967
1568796092.1853
1568796092.20093
1568796092.21655
1568796092.23218
1568796092.2478
1568796092.26343
1568796092.27905
1568796092.29468
1568796092.31031
1568796092.32593
1568796092.34156
1568796092.35718
1568796092.37281
1568796092.38843
1568796092.40406
1568796092.41969
1568796092.43531
1568796092.45094
1568796092.46656
1568796092.48219
1568796092.49782
1568796092.51344
1568796092.52907
1568796092.54469
1568796092.56032
1568796092.57594
1568796092.59157
1568796092.6072
1568796092.62282
1568796092.63845
1568796092.65407
1568796092.6697
1568796092.68532
1568796092.70095
1568796092.71658
1568796092.7322
1568796092.74783
1568796092.76345
1568796092.77908
1568796092.7947
1568796092.81033
1568796092.82596
1568796092.84158
1568796092.85721
1568796092.87283
1568796092.88846
1568796092.90408
1568796092.91971
1568796092.93534
1568796092.95096
1568796092.96659
1568796092.98221
1568796092.99784
1568796093.01346
1568796093.02909
1568796093.04472
1568796093.06034
1568796093.07597
1568796093.09159
1568796093.10722
1568796093.12284
1568796093.13847
1568796093.1541
1568796093.16972
1568796093.18535
1568796093.20097
1568796093.2166
1568796093.23222
1568796093.24785
1568796093.26348
1568796093.2791
1568796093.29473
1568796093.31035
1568796093.32598
1568796093.3416
1568796093.35723
1568796093.37286
1568796093.38848
1568796093.40411
1568796093.41973
1568796093.43536
1568796093.45098
1568796093.46661
1568796093.48224
1568796093.49786
1568796093.51349
1568796093.52911
1568796093.54474
1568796093.56036
1568796093.57599
1568796093.59162
1568796093.60724
1568796093.62287
1568796093.63849
1568796093.65412
1568796093.66974
1568796093.68537
1568796093.701
1568796093.71662
1568796093.73225
1568796093.74787
1568796093.7635
1568796093.77912
1568796093.79475
1568796093.81038
1568796093.826
1568796093.84163
1568796093.85725
1568796093.87288
1568796093.8885
1568796093.90413
1568796093.91976
1568796093.93538
1568796093.95101
1568796093.96663
1568796093.98226
1568796093.99788
1568796094.01351
1568796094.02914
1568796094.04476
1568796094.06039
1568796094.07601
1568796094.09164
1568796094.10726
1568796094.12289
1568796094.13852
1568796094.15414
1568796094.16977
1568796094.18539
1568796094.20102
1568796094.21664
1568796094.23227
1568796094.2479
1568796094.26352
1568796094.27915
1568796094.29477
1568796094.3104
1568796094.32602
1568796094.34165
1568796094.35728
1568796094.3729
1568796094.38853
1568796094.40415
1568796094.41978
1568796094.4354
1568796094.45103
1568796094.46666
1568796094.48228
1568796094.49791
1568796094.51353
1568796094.52916
1568796094.54478
1568796094.56041
1568796094.57604
1568796094.59166
1568796094.60729
1568796094.62291
1568796094.63854
1568796094.65416
1568796094.66979
1568796094.68542
1568796094.70104
1568796094.71667
1568796094.73229
1568796094.74792
1568796094.76355
1568796094.77917
1568796094.7948
1568796094.81042
1568796094.82605
1568796094.84167
1568796094.8573
1568796094.87293
1568796094.88855
1568796094.90418
1568796094.9198
1568796094.93543
1568796094.95105
1568796094.96668
1568796094.98231
1568796094.99793
1568796095.01356
1568796095.02918
1568796095.04481
1568796095.06043
1568796095.07606
1568796095.09169
1568796095.10731
1568796095.12294
1568796095.13856
1568796095.15419
1568796095.16981
1568796095.18544
1568796095.20107
1568796095.21669
1568796095.23232
1568796095.24794
1568796095.26357
1568796095.27919
1568796095.29482
1568796095.31045
1568796095.32607
1568796095.3417
1568796095.35732
1568796095.37295
1568796095.38857
1568796095.4042
1568796095.41983
1568796095.43545
1568796095.45108
1568796095.4667
1568796095.48233
1568796095.49795
1568796095.51358
1568796095.52921
1568796095.54483
1568796095.56046
1568796095.57608
1568796095.59171
1568796095.60733
1568796095.62296
1568796095.63859
1568796095.65421
1568796095.66984
1568796095.68546
1568796095.70109
1568796095.71671
1568796095.73234
1568796095.74797
1568796095.76359
1568796095.77922
1568796095.79484
1568796095.81047
1568796095.82609
1568796095.84172
1568796095.85735
1568796095.87297
1568796095.8886
1568796095.90422
1568796095.91985
1568796095.93547
1568796095.9511
1568796095.96673
1568796095.98235
1568796095.99798
1568796096.0136
1568796096.02923
1568796096.04485
1568796096.06048
1568796096.07611
1568796096.09173
1568796096.10736
1568796096.12298
1568796096.13861
1568796096.15423
1568796096.16986
1568796096.18549
1568796096.20111
1568796096.21674
1568796096.23236
1568796096.24799
1568796096.26361
1568796096.27924
1568796096.29487
1568796096.31049
1568796096.32612
1568796096.34174
1568796096.35737
1568796096.37299
1568796096.38862
1568796096.40425
1568796096.41987
1568796096.4355
1568796096.45112
1568796096.46675
1568796096.48237
1568796096.498
1568796096.51363
1568796096.52925
1568796096.54488
1568796096.5605
1568796096.57613
1568796096.59175
1568796096.60738
1568796096.62301
1568796096.63863
1568796096.65426
1568796096.66988
1568796096.68551
1568796096.70113
1568796096.71676
1568796096.73239
1568796096.74801
1568796096.76364
1568796096.77926
1568796096.79489
1568796096.81051
1568796096.82614
1568796096.84177
1568796096.85739
1568796096.87302
1568796096.88864
1568796096.90427
1568796096.91989
1568796096.93552
1568796096.95115
1568796096.96677
1568796096.9824
1568796096.99802
1568796097.01365
1568796097.02927
1568796097.0449
1568796097.06053
1568796097.07615
1568796097.09178
1568796097.1074
1568796097.12303
1568796097.13865
1568796097.15428
1568796097.16991
1568796097.18553
1568796097.20116
1568796097.21678
1568796097.23241
1568796097.24803
1568796097.26366
1568796097.27929
1568796097.29491
1568796097.31054
1568796097.32616
1568796097.34179
1568796097.35742
1568796097.37304
1568796097.38867
1568796097.40429
1568796097.41992
1568796097.43554
1568796097.45117
1568796097.4668
1568796097.48242
1568796097.49805
1568796097.51367
1568796097.5293
1568796097.54492
1568796097.56055
1568796097.57618
1568796097.5918
1568796097.60743
1568796097.62305
1568796097.63868
1568796097.6543
1568796097.66993
1568796097.68556
1568796097.70118
1568796097.71681
1568796097.73243
1568796097.74806
1568796097.76368
1568796097.77931
1568796097.79494
1568796097.81056
1568796097.82619
1568796097.84181
1568796097.85744
1568796097.87306
1568796097.88869
1568796097.90432
1568796097.91994
1568796097.93557
1568796097.95119
1568796097.96682
1568796097.98244
1568796097.99807
1568796098.0137
1568796098.02932
1568796098.04495
1568796098.06057
1568796098.0762
1568796098.09182
1568796098.10745
1568796098.12308
1568796098.1387
1568796098.15433
1568796098.16995
1568796098.18558
1568796098.2012
1568796098.21683
1568796098.23246
1568796098.24808
1568796098.26371
1568796098.27933
1568796098.29496
1568796098.31058
1568796098.32621
1568796098.34184
1568796098.35746
1568796098.37309
1568796098.38871
1568796098.40434
1568796098.41996
1568796098.43559
1568796098.45122
1568796098.46684
1568796098.48247
1568796098.49809
1568796098.51372
1568796098.52934
1568796098.54497
1568796098.5606
1568796098.57622
1568796098.59185
1568796098.60747
1568796098.6231
1568796098.63872
1568796098.65435
1568796098.66998
1568796098.6856
1568796098.70123
1568796098.71685
1568796098.73248
1568796098.7481
1568796098.76373
1568796098.77936
1568796098.79498
1568796098.81061
1568796098.82623
1568796098.84186
1568796098.85748
1568796098.87311
1568796098.88874
1568796098.90436
1568796098.91999
1568796098.93561
1568796098.95124
1568796098.96686
1568796098.98249
1568796098.99812
1568796099.01374
1568796099.02937
1568796099.04499
1568796099.06062
1568796099.07624
1568796099.09187
1568796099.1075
1568796099.12312
1568796099.13875
1568796099.15437
1568796099.17
1568796099.18562
1568796099.20125
1568796099.21688
1568796099.2325
1568796099.24813
1568796099.26375
1568796099.27938
1568796099.295
1568796099.31063
1568796099.32626
1568796099.34188
1568796099.35751
1568796099.37313
1568796099.38876
1568796099.40438
1568796099.42001
1568796099.43564
1568796099.45126
1568796099.46689
1568796099.48251
1568796099.49814
1568796099.51376
1568796099.52939
1568796099.54502
1568796099.56064
1568796099.57627
1568796099.59189
1568796099.60752
1568796099.62315
1568796099.63877
1568796099.6544
1568796099.67002
1568796099.68565
1568796099.70127
1568796099.7169
1568796099.73253
1568796099.74815
1568796099.76378
1568796099.7794
1568796099.79503
1568796099.81065
1568796099.82628
1568796099.84191
1568796099.85753
1568796099.87316
1568796099.88878
1568796099.90441
1568796099.92003
1568796099.93566
1568796099.95129
1568796099.96691
1568796099.98254
1568796099.99816
1568796100.01379
1568796100.02941
1568796100.04504
1568796100.06067
1568796100.07629
1568796100.09192
1568796100.10754
1568796100.12317
1568796100.13879
1568796100.15442
1568796100.17005
1568796100.18567
1568796100.2013
1568796100.21692
1568796100.23255
1568796100.24817
1568796100.2638
1568796100.27943
1568796100.29505
1568796100.31068
1568796100.3263
1568796100.34193
1568796100.35755
1568796100.37318
1568796100.38881
1568796100.40443
1568796100.42006
1568796100.43568
1568796100.45131
1568796100.46693
1568796100.48256
1568796100.49819
1568796100.51381
1568796100.52944
1568796100.54506
1568796100.56069
1568796100.57631
1568796100.59194
1568796100.60757
1568796100.62319
1568796100.63882
1568796100.65444
1568796100.67007
1568796100.68569
1568796100.70132
1568796100.71695
1568796100.73257
1568796100.7482
1568796100.76382
1568796100.77945
1568796100.79507
1568796100.8107
1568796100.82633
1568796100.84195
1568796100.85758
1568796100.8732
1568796100.88883
1568796100.90445
1568796100.92008
1568796100.93571
1568796100.95133
1568796100.96696
1568796100.98258
1568796100.99821
1568796101.01383
1568796101.02946
1568796101.04509
1568796101.06071
1568796101.07634
1568796101.09196
1568796101.10759
1568796101.12321
1568796101.13884
1568796101.15447
1568796101.17009
1568796101.18572
1568796101.20134
1568796101.21697
1568796101.23259
1568796101.24822
1568796101.26385
1568796101.27947
1568796101.2951
1568796101.31072
1568796101.32635
1568796101.34197
1568796101.3576
1568796101.37323
1568796101.38885
1568796101.40448
1568796101.4201
1568796101.43573
1568796101.45135
1568796101.46698
1568796101.48261
1568796101.49823
1568796101.51386
1568796101.52948
1568796101.54511
1568796101.56073
1568796101.57636
1568796101.59199
1568796101.60761
1568796101.62324
1568796101.63886
1568796101.65449
1568796101.67011
1568796101.68574
1568796101.70137
1568796101.71699
1568796101.73262
1568796101.74824
1568796101.76387
1568796101.77949
1568796101.79512
1568796101.81075
1568796101.82637
1568796101.842
1568796101.85762
1568796101.87325
1568796101.88888
1568796101.9045
1568796101.92013
1568796101.93575
1568796101.95138
1568796101.967
1568796101.98263
1568796101.99826
1568796102.01388
1568796102.02951
1568796102.04513
1568796102.06076
1568796102.07638
1568796102.09201
1568796102.10764
1568796102.12326
1568796102.13889
1568796102.15451
1568796102.17014
1568796102.18576
1568796102.20139
1568796102.21702
1568796102.23264
1568796102.24827
1568796102.26389
1568796102.27952
1568796102.29514
1568796102.31077
1568796102.3264
1568796102.34202
1568796102.35765
1568796102.37327
1568796102.3889
1568796102.40452
1568796102.42015
1568796102.43578
1568796102.4514
1568796102.46703
1568796102.48265
1568796102.49828
1568796102.5139
1568796102.52953
1568796102.54516
1568796102.56078
1568796102.57641
1568796102.59203
1568796102.60766
1568796102.62328
1568796102.63891
1568796102.65454
1568796102.67016
1568796102.68579
1568796102.70141
1568796102.71704
1568796102.73266
1568796102.74829
1568796102.76392
1568796102.77954
1568796102.79517
1568796102.81079
1568796102.82642
1568796102.84204
1568796102.85767
1568796102.8733
1568796102.88892
1568796102.90455
1568796102.92017
1568796102.9358
1568796102.95142
1568796102.96705
1568796102.98268
1568796102.9983
1568796103.01393
1568796103.02955
1568796103.04518
1568796103.0608
1568796103.07643
1568796103.09206
1568796103.10768
1568796103.12331
1568796103.13893
1568796103.15456
1568796103.17018
1568796103.18581
1568796103.20144
1568796103.21706
1568796103.23269
1568796103.24831
1568796103.26394
1568796103.27956
1568796103.29519
1568796103.31082
1568796103.32644
1568796103.34207
1568796103.35769
1568796103.37332
1568796103.38894
1568796103.40457
1568796103.4202
1568796103.43582
1568796103.45145
1568796103.46707
1568796103.4827
1568796103.49832
1568796103.51395
1568796103.52958
1568796103.5452
1568796103.56083
1568796103.57645
1568796103.59208
1568796103.6077
1568796103.62333
1568796103.63896
1568796103.65458
1568796103.67021
1568796103.68583
1568796103.70146
1568796103.71708
1568796103.73271
1568796103.74834
1568796103.76396
1568796103.77959
1568796103.79521
1568796103.81084
1568796103.82646
1568796103.84209
1568796103.85772
1568796103.87334
1568796103.88897
1568796103.90459
1568796103.92022
1568796103.93584
1568796103.95147
1568796103.9671
1568796103.98272
1568796103.99835
1568796104.01397
1568796104.0296
1568796104.04522
1568796104.06085
1568796104.07648
1568796104.0921
1568796104.10773
1568796104.12335
1568796104.13898
1568796104.1546
1568796104.17023
1568796104.18586
1568796104.20148
1568796104.21711
1568796104.23273
1568796104.24836
1568796104.26398
1568796104.27961
1568796104.29524
1568796104.31086
1568796104.32649
1568796104.34211
1568796104.35774
1568796104.37336
1568796104.38899
1568796104.40462
1568796104.42024
1568796104.43587
1568796104.45149
1568796104.46712
1568796104.48275
1568796104.49837
1568796104.514
1568796104.52962
1568796104.54525
1568796104.56087
1568796104.5765
1568796104.59213
1568796104.60775
1568796104.62338
1568796104.639
1568796104.65463
1568796104.67025
1568796104.68588
1568796104.70151
1568796104.71713
1568796104.73276
1568796104.74838
1568796104.76401
1568796104.77963
1568796104.79526
1568796104.81089
1568796104.82651
1568796104.84214
1568796104.85776
1568796104.87339
1568796104.88901
1568796104.90464
1568796104.92027
1568796104.93589
1568796104.95152
1568796104.96714
1568796104.98277
1568796104.99839
1568796105.01402
1568796105.02965
1568796105.04527
1568796105.0609
1568796105.07652
1568796105.09215
1568796105.10777
1568796105.1234
1568796105.13903
1568796105.15465
1568796105.17028
1568796105.1859
1568796105.20153
1568796105.21715
1568796105.23278
1568796105.24841
1568796105.26403
1568796105.27966
1568796105.29528
1568796105.31091
1568796105.32653
1568796105.34216
1568796105.35779
1568796105.37341
1568796105.38904
1568796105.40466
1568796105.42029
1568796105.43591
1568796105.45154
1568796105.46717
1568796105.48279
1568796105.49842
1568796105.51404
1568796105.52967
1568796105.54529
1568796105.56092
1568796105.57655
1568796105.59217
1568796105.6078
1568796105.62342
1568796105.63905
1568796105.65467
1568796105.6703
1568796105.68593
1568796105.70155
1568796105.71718
1568796105.7328
1568796105.74843
1568796105.76405
1568796105.77968
1568796105.79531
1568796105.81093
1568796105.82656
1568796105.84218
1568796105.85781
1568796105.87343
1568796105.88906
1568796105.90469
1568796105.92031
1568796105.93594
1568796105.95156
1568796105.96719
1568796105.98281
1568796105.99844
1568796106.01407
1568796106.02969
1568796106.04532
1568796106.06094
1568796106.07657
1568796106.09219
1568796106.10782
1568796106.12345
1568796106.13907
1568796106.1547
1568796106.17032
1568796106.18595
1568796106.20157
1568796106.2172
1568796106.23283
1568796106.24845
1568796106.26408
1568796106.2797
1568796106.29533
1568796106.31095
1568796106.32658
1568796106.34221
1568796106.35783
1568796106.37346
1568796106.38908
1568796106.40471
1568796106.42033
1568796106.43596
1568796106.45159
1568796106.46721
1568796106.48284
1568796106.49846
1568796106.51409
1568796106.52971
1568796106.54534
1568796106.56097
1568796106.57659
1568796106.59222
1568796106.60784
1568796106.62347
1568796106.63909
1568796106.65472
1568796106.67035
1568796106.68597
1568796106.7016
1568796106.71722
1568796106.73285
1568796106.74848
1568796106.7641
1568796106.77973
1568796106.79535
1568796106.81098
1568796106.8266
1568796106.84223
1568796106.85786
1568796106.87348
1568796106.88911
1568796106.90473
1568796106.92036
1568796106.93598
1568796106.95161
1568796106.96724
1568796106.98286
1568796106.99849
1568796107.01411
1568796107.02974
1568796107.04536
1568796107.06099
1568796107.07662
1568796107.09224
1568796107.10787
1568796107.12349
1568796107.13912
1568796107.15474
1568796107.17037
1568796107.186
1568796107.20162
1568796107.21725
1568796107.23287
1568796107.2485
1568796107.26412
1568796107.27975
1568796107.29538
1568796107.311
1568796107.32663
1568796107.34225
1568796107.35788
1568796107.3735
1568796107.38913
1568796107.40476
1568796107.42038
1568796107.43601
1568796107.45163
1568796107.46726
1568796107.48288
1568796107.49851
1568796107.51414
1568796107.52976
1568796107.54539
1568796107.56101
1568796107.57664
1568796107.59226
1568796107.60789
1568796107.62352
1568796107.63914
1568796107.65477
1568796107.67039
1568796107.68602
1568796107.70164
1568796107.71727
1568796107.7329
1568796107.74852
1568796107.76415
1568796107.77977
1568796107.7954
1568796107.81102
1568796107.82665
1568796107.84228
1568796107.8579
1568796107.87353
1568796107.88915
1568796107.90478
1568796107.9204
1568796107.93603
1568796107.95166
1568796107.96728
1568796107.98291
1568796107.99853
1568796108.01416
1568796108.02978
1568796108.04541
1568796108.06104
1568796108.07666
1568796108.09229
1568796108.10791
1568796108.12354
1568796108.13916
1568796108.15479
1568796108.17042
1568796108.18604
1568796108.20167
1568796108.21729
1568796108.23292
1568796108.24854
1568796108.26417
1568796108.2798
1568796108.29542
1568796108.31105
1568796108.32667
1568796108.3423
1568796108.35792
1568796108.37355
1568796108.38918
1568796108.4048
1568796108.42043
1568796108.43605
1568796108.45168
1568796108.4673
1568796108.48293
1568796108.49856
1568796108.51418
1568796108.52981
1568796108.54543
1568796108.56106
1568796108.57668
1568796108.59231
1568796108.60794
1568796108.62356
1568796108.63919
1568796108.65481
1568796108.67044
1568796108.68606
1568796108.70169
1568796108.71732
1568796108.73294
1568796108.74857
1568796108.76419
1568796108.77982
1568796108.79544
1568796108.81107
1568796108.8267
1568796108.84232
1568796108.85795
1568796108.87357
1568796108.8892
1568796108.90482
1568796108.92045
1568796108.93608
1568796108.9517
1568796108.96733
1568796108.98295
1568796108.99858
1568796109.0142
1568796109.02983
1568796109.04546
1568796109.06108
1568796109.07671
1568796109.09233
1568796109.10796
1568796109.12358
1568796109.13921
1568796109.15484
1568796109.17046
1568796109.18609
1568796109.20171
1568796109.21734
1568796109.23296
1568796109.24859
1568796109.26422
1568796109.27984
1568796109.29547
1568796109.31109
1568796109.32672
1568796109.34235
1568796109.35797
1568796109.3736
1568796109.38922
1568796109.40485
1568796109.42047
1568796109.4361
1568796109.45173
1568796109.46735
1568796109.48298
1568796109.4986
1568796109.51423
1568796109.52985
1568796109.54548
1568796109.56111
1568796109.57673
1568796109.59236
1568796109.60798
1568796109.62361
1568796109.63923
1568796109.65486
1568796109.67049
1568796109.68611
1568796109.70174
1568796109.71736
1568796109.73299
1568796109.74861
1568796109.76424
1568796109.77987
1568796109.79549
1568796109.81112
1568796109.82674
1568796109.84237
1568796109.85799
1568796109.87362
1568796109.88925
1568796109.90487
1568796109.9205
1568796109.93612
1568796109.95175
1568796109.96737
1568796109.983
1568796109.99863
1568796110.01425
1568796110.02988
1568796110.0455
1568796110.06113
1568796110.07675
1568796110.09238
1568796110.10801
1568796110.12363
1568796110.13926
1568796110.15488
1568796110.17051
1568796110.18613
1568796110.20176
1568796110.21739
1568796110.23301
1568796110.24864
1568796110.26426
1568796110.27989
1568796110.29551
1568796110.31114
1568796110.32677
1568796110.34239
1568796110.35802
1568796110.37364
1568796110.38927
1568796110.40489
1568796110.42052
1568796110.43615
1568796110.45177
1568796110.4674
1568796110.48302
1568796110.49865
1568796110.51427
1568796110.5299
1568796110.54553
1568796110.56115
1568796110.57678
1568796110.5924
1568796110.60803
1568796110.62365
1568796110.63928
1568796110.65491
1568796110.67053
1568796110.68616
1568796110.70178
1568796110.71741
1568796110.73303
1568796110.74866
1568796110.76429
1568796110.77991
1568796110.79554
1568796110.81116
1568796110.82679
1568796110.84241
1568796110.85804
1568796110.87367
1568796110.88929
1568796110.90492
1568796110.92054
1568796110.93617
1568796110.95179
1568796110.96742
1568796110.98305
1568796110.99867
1568796111.0143
1568796111.02992
1568796111.04555
1568796111.06117
1568796111.0768
1568796111.09243
1568796111.10805
1568796111.12368
1568796111.1393
1568796111.15493
1568796111.17055
1568796111.18618
1568796111.20181
1568796111.21743
1568796111.23306
1568796111.24868
1568796111.26431
1568796111.27993
1568796111.29556
1568796111.31119
1568796111.32681
1568796111.34244
1568796111.35806
1568796111.37369
1568796111.38931
1568796111.40494
1568796111.42057
1568796111.43619
1568796111.45182
1568796111.46744
1568796111.48307
1568796111.49869
1568796111.51432
1568796111.52995
1568796111.54557
1568796111.5612
1568796111.57682
1568796111.59245
1568796111.60808
1568796111.6237
1568796111.63933
1568796111.65495
1568796111.67058
1568796111.6862
1568796111.70183
1568796111.71746
1568796111.73308
1568796111.74871
1568796111.76433
1568796111.77996
1568796111.79558
1568796111.81121
1568796111.82684
1568796111.84246
1568796111.85809
1568796111.87371
1568796111.88934
1568796111.90496
1568796111.92059
1568796111.93622
1568796111.95184
1568796111.96747
1568796111.98309
1568796111.99872
1568796112.01434
1568796112.02997
1568796112.0456
1568796112.06122
1568796112.07685
1568796112.09247
1568796112.1081
1568796112.12372
1568796112.13935
1568796112.15498
1568796112.1706
1568796112.18623
1568796112.20185
1568796112.21748
1568796112.2331
1568796112.24873
1568796112.26436
1568796112.27998
1568796112.29561
1568796112.31123
1568796112.32686
1568796112.34248
1568796112.35811
1568796112.37374
1568796112.38936
1568796112.40499
1568796112.42061
1568796112.43624
1568796112.45186
1568796112.46749
1568796112.48312
1568796112.49874
1568796112.51437
1568796112.52999
1568796112.54562
1568796112.56124
1568796112.57687
1568796112.5925
1568796112.60812
1568796112.62375
1568796112.63937
1568796112.655
1568796112.67062
1568796112.68625
1568796112.70188
1568796112.7175
1568796112.73313
1568796112.74875
1568796112.76438
1568796112.78
1568796112.79563
1568796112.81126
1568796112.82688
1568796112.84251
1568796112.85813
1568796112.87376
1568796112.88938
1568796112.90501
1568796112.92064
1568796112.93626
1568796112.95189
1568796112.96751
1568796112.98314
1568796112.99876
1568796113.01439
1568796113.03002
1568796113.04564
1568796113.06127
1568796113.07689
1568796113.09252
1568796113.10814
1568796113.12377
1568796113.1394
1568796113.15502
1568796113.17065
1568796113.18627
1568796113.2019
1568796113.21752
1568796113.23315
1568796113.24878
1568796113.2644
1568796113.28003
1568796113.29565
1568796113.31128
1568796113.3269
1568796113.34253
1568796113.35816
1568796113.37378
1568796113.38941
1568796113.40503
1568796113.42066
1568796113.43628
1568796113.45191
1568796113.46754
1568796113.48316
1568796113.49879
1568796113.51441
1568796113.53004
1568796113.54566
1568796113.56129
1568796113.57692
1568796113.59254
1568796113.60817
1568796113.62379
1568796113.63942
1568796113.65504
1568796113.67067
1568796113.6863
1568796113.70192
1568796113.71755
1568796113.73317
1568796113.7488
1568796113.76443
1568796113.78005
1568796113.79568
1568796113.8113
1568796113.82693
1568796113.84255
1568796113.85818
1568796113.87381
1568796113.88943
1568796113.90506
1568796113.92068
1568796113.93631
1568796113.95193
1568796113.96756
1568796113.98319
1568796113.99881
1568796114.01444
1568796114.03006
1568796114.04569
1568796114.06131
1568796114.07694
1568796114.09257
1568796114.10819
1568796114.12382
1568796114.13944
1568796114.15507
1568796114.17069
1568796114.18632
1568796114.20195
1568796114.21757
1568796114.2332
1568796114.24882
1568796114.26445
1568796114.28007
1568796114.2957
1568796114.31133
1568796114.32695
1568796114.34258
1568796114.3582
1568796114.37383
1568796114.38945
1568796114.40508
1568796114.42071
1568796114.43633
1568796114.45196
1568796114.46758
1568796114.48321
1568796114.49883
1568796114.51446
1568796114.53009
1568796114.54571
1568796114.56134
1568796114.57696
1568796114.59259
1568796114.60821
1568796114.62384
1568796114.63947
1568796114.65509
1568796114.67072
1568796114.68634
1568796114.70197
1568796114.71759
1568796114.73322
1568796114.74885
1568796114.76447
1568796114.7801
1568796114.79572
1568796114.81135
1568796114.82697
1568796114.8426
1568796114.85823
1568796114.87385
1568796114.88948
1568796114.9051
1568796114.92073
1568796114.93635
1568796114.95198
1568796114.96761
1568796114.98323
1568796114.99886
1568796115.01448
1568796115.03011
1568796115.04573
1568796115.06136
1568796115.07699
1568796115.09261
1568796115.10824
1568796115.12386
1568796115.13949
1568796115.15511
1568796115.17074
1568796115.18637
1568796115.20199
1568796115.21762
1568796115.23324
1568796115.24887
1568796115.26449
1568796115.28012
1568796115.29575
1568796115.31137
1568796115.327
1568796115.34262
1568796115.35825
1568796115.37387
1568796115.3895
1568796115.40513
1568796115.42075
1568796115.43638
1568796115.452
1568796115.46763
1568796115.48325
1568796115.49888
1568796115.51451
1568796115.53013
1568796115.54576
1568796115.56138
1568796115.57701
1568796115.59263
1568796115.60826
1568796115.62389
