1568794076.52945
1568794076.54508
1568794076.5607
1568794076.57633
1568794076.59195
1568794076.60758
1568794076.6232
1568794076.63883
1568794076.65446
1568794076.67008
1568794076.68571
1568794076.70133
1568794076.71696
1568794076.73258
1568794076.74821
1568794076.76384
1568794076.77946
1568794076.79509
1568794076.81071
1568794076.82634
1568794076.84196
1568794076.85759
1568794076.87322
1568794076.88884
1568794076.90447
1568794076.92009
1568794076.93572
1568794076.95134
1568794076.96697
1568794076.9826
1568794076.99822
1568794077.01385
1568794077.02947
1568794077.0451
1568794077.06072
1568794077.07635
1568794077.09198
1568794077.1076
1568794077.12323
1568794077.13885
1568794077.15448
1568794077.1701
1568794077.18573
1568794077.20136
1568794077.21698
1568794077.23261
1568794077.24823
1568794077.26386
1568794077.27948
1568794077.29511
1568794077.31074
1568794077.32636
1568794077.34199
1568794077.35761
1568794077.37324
1568794077.38886
1568794077.40449
1568794077.42012
1568794077.43574
1568794077.45137
1568794077.46699
1568794077.48262
1568794077.49824
1568794077.51387
1568794077.5295
1568794077.54512
1568794077.56075
1568794077.57637
1568794077.592
1568794077.60762
1568794077.62325
1568794077.63888
1568794077.6545
1568794077.67013
1568794077.68575
1568794077.70138
1568794077.717
1568794077.73263
1568794077.74826
1568794077.76388
1568794077.77951
1568794077.79513
1568794077.81076
1568794077.82639
1568794077.84201
1568794077.85764
1568794077.87326
1568794077.88889
1568794077.90451
1568794077.92014
1568794077.93577
1568794077.95139
1568794077.96702
1568794077.98264
1568794077.99827
1568794078.01389
1568794078.02952
1568794078.04515
1568794078.06077
1568794078.0764
1568794078.09202
1568794078.10765
1568794078.12327
1568794078.1389
1568794078.15453
1568794078.17015
1568794078.18578
1568794078.2014
1568794078.21703
1568794078.23265
1568794078.24828
1568794078.26391
1568794078.27953
1568794078.29516
1568794078.31078
1568794078.32641
1568794078.34203
1568794078.35766
1568794078.37329
1568794078.38891
1568794078.40454
1568794078.42016
1568794078.43579
1568794078.45141
1568794078.46704
1568794078.48267
1568794078.49829
1568794078.51392
1568794078.52954
1568794078.54517
1568794078.56079
1568794078.57642
1568794078.59205
1568794078.60767
1568794078.6233
1568794078.63892
1568794078.65455
1568794078.67017
1568794078.6858
1568794078.70143
1568794078.71705
1568794078.73268
1568794078.7483
1568794078.76393
1568794078.77955
1568794078.79518
1568794078.81081
1568794078.82643
1568794078.84206
1568794078.85768
1568794078.87331
1568794078.88893
1568794078.90456
1568794078.92019
1568794078.93581
1568794078.95144
1568794078.96706
1568794078.98269
1568794078.99831
1568794079.01394
1568794079.02957
1568794079.04519
1568794079.06082
1568794079.07644
1568794079.09207
1568794079.10769
1568794079.12332
1568794079.13895
1568794079.15457
1568794079.1702
1568794079.18582
1568794079.20145
1568794079.21707
1568794079.2327
1568794079.24833
1568794079.26395
1568794079.27958
1568794079.2952
1568794079.31083
1568794079.32645
1568794079.34208
1568794079.35771
1568794079.37333
1568794079.38896
1568794079.40458
1568794079.42021
1568794079.43583
1568794079.45146
1568794079.46709
1568794079.48271
1568794079.49834
1568794079.51396
1568794079.52959
1568794079.54521
1568794079.56084
1568794079.57647
1568794079.59209
1568794079.60772
1568794079.62334
1568794079.63897
1568794079.65459
1568794079.67022
1568794079.68585
1568794079.70147
1568794079.7171
1568794079.73272
1568794079.74835
1568794079.76397
1568794079.7796
1568794079.79523
1568794079.81085
1568794079.82648
1568794079.8421
1568794079.85773
1568794079.87335
1568794079.88898
1568794079.90461
1568794079.92023
1568794079.93586
1568794079.95148
1568794079.96711
1568794079.98273
1568794079.99836
1568794080.01399
1568794080.02961
1568794080.04524
1568794080.06086
1568794080.07649
1568794080.09211
1568794080.10774
1568794080.12337
1568794080.13899
1568794080.15462
1568794080.17024
1568794080.18587
1568794080.20149
1568794080.21712
1568794080.23275
1568794080.24837
1568794080.264
1568794080.27962
1568794080.29525
1568794080.31087
1568794080.3265
1568794080.34213
1568794080.35775
1568794080.37338
1568794080.389
1568794080.40463
1568794080.42025
1568794080.43588
1568794080.45151
1568794080.46713
1568794080.48276
1568794080.49838
1568794080.51401
1568794080.52964
1568794080.54526
1568794080.56089
1568794080.57651
1568794080.59214
1568794080.60776
1568794080.62339
1568794080.63902
1568794080.65464
1568794080.67027
1568794080.68589
1568794080.70152
1568794080.71714
1568794080.73277
1568794080.7484
1568794080.76402
1568794080.77965
1568794080.79527
1568794080.8109
1568794080.82652
1568794080.84215
1568794080.85778
1568794080.8734
1568794080.88903
1568794080.90465
1568794080.92028
1568794080.9359
1568794080.95153
1568794080.96716
1568794080.98278
1568794080.99841
1568794081.01403
1568794081.02966
1568794081.04528
1568794081.06091
1568794081.07654
1568794081.09216
1568794081.10779
1568794081.12341
1568794081.13904
1568794081.15466
1568794081.17029
1568794081.18592
1568794081.20154
1568794081.21717
1568794081.23279
1568794081.24842
1568794081.26404
1568794081.27967
1568794081.2953
1568794081.31092
1568794081.32655
1568794081.34217
1568794081.3578
1568794081.37342
1568794081.38905
1568794081.40468
1568794081.4203
1568794081.43593
1568794081.45155
1568794081.46718
1568794081.4828
1568794081.49843
1568794081.51406
1568794081.52968
1568794081.54531
1568794081.56093
1568794081.57656
1568794081.59218
1568794081.60781
1568794081.62344
1568794081.63906
1568794081.65469
1568794081.67031
1568794081.68594
1568794081.70156
1568794081.71719
1568794081.73282
1568794081.74844
1568794081.76407
1568794081.77969
1568794081.79532
1568794081.81094
1568794081.82657
1568794081.8422
1568794081.85782
1568794081.87345
1568794081.88907
1568794081.9047
1568794081.92032
1568794081.93595
1568794081.95158
1568794081.9672
1568794081.98283
1568794081.99845
1568794082.01408
1568794082.0297
1568794082.04533
1568794082.06096
1568794082.07658
1568794082.09221
1568794082.10783
1568794082.12346
1568794082.13908
1568794082.15471
1568794082.17034
1568794082.18596
1568794082.20159
1568794082.21721
1568794082.23284
1568794082.24846
1568794082.26409
1568794082.27972
1568794082.29534
1568794082.31097
1568794082.32659
1568794082.34222
1568794082.35784
1568794082.37347
1568794082.3891
1568794082.40472
1568794082.42035
1568794082.43597
1568794082.4516
1568794082.46722
1568794082.48285
1568794082.49848
1568794082.5141
1568794082.52973
1568794082.54535
1568794082.56098
1568794082.5766
1568794082.59223
1568794082.60786
1568794082.62348
1568794082.63911
1568794082.65473
1568794082.67036
1568794082.68599
1568794082.70161
1568794082.71724
1568794082.73286
1568794082.74849
1568794082.76411
1568794082.77974
1568794082.79537
1568794082.81099
1568794082.82662
1568794082.84224
1568794082.85787
1568794082.87349
1568794082.88912
1568794082.90475
1568794082.92037
1568794082.936
1568794082.95162
1568794082.96725
1568794082.98287
1568794082.9985
1568794083.01413
1568794083.02975
1568794083.04538
1568794083.061
1568794083.07663
1568794083.09225
1568794083.10788
1568794083.12351
1568794083.13913
1568794083.15476
1568794083.17038
1568794083.18601
1568794083.20163
1568794083.21726
1568794083.23289
1568794083.24851
1568794083.26414
1568794083.27976
1568794083.29539
1568794083.31101
1568794083.32664
1568794083.34227
1568794083.35789
1568794083.37352
1568794083.38914
1568794083.40477
1568794083.42039
1568794083.43602
1568794083.45165
1568794083.46727
1568794083.4829
1568794083.49852
1568794083.51415
1568794083.52977
1568794083.5454
1568794083.56103
1568794083.57665
1568794083.59228
1568794083.6079
1568794083.62353
1568794083.63915
1568794083.65478
1568794083.67041
1568794083.68603
1568794083.70166
1568794083.71728
1568794083.73291
1568794083.74853
1568794083.76416
1568794083.77979
1568794083.79541
1568794083.81104
1568794083.82666
1568794083.84229
1568794083.85791
1568794083.87354
1568794083.88917
1568794083.90479
1568794083.92042
1568794083.93604
1568794083.95167
1568794083.96729
1568794083.98292
1568794083.99855
1568794084.01417
1568794084.0298
1568794084.04542
1568794084.06105
1568794084.07667
1568794084.0923
1568794084.10793
1568794084.12355
1568794084.13918
1568794084.1548
1568794084.17043
1568794084.18605
1568794084.20168
1568794084.21731
1568794084.23293
1568794084.24856
1568794084.26418
1568794084.27981
1568794084.29543
1568794084.31106
1568794084.32669
1568794084.34231
1568794084.35794
1568794084.37356
1568794084.38919
1568794084.40481
1568794084.42044
1568794084.43607
1568794084.45169
1568794084.46732
1568794084.48294
1568794084.49857
1568794084.51419
1568794084.52982
1568794084.54545
1568794084.56107
1568794084.5767
1568794084.59232
1568794084.60795
1568794084.62357
1568794084.6392
1568794084.65483
1568794084.67045
1568794084.68608
1568794084.7017
1568794084.71733
1568794084.73295
1568794084.74858
1568794084.76421
1568794084.77983
1568794084.79546
1568794084.81108
1568794084.82671
1568794084.84233
1568794084.85796
1568794084.87359
1568794084.88921
1568794084.90484
1568794084.92046
1568794084.93609
1568794084.95171
1568794084.96734
1568794084.98297
1568794084.99859
1568794085.01422
1568794085.02984
1568794085.04547
1568794085.0611
1568794085.07672
1568794085.09235
1568794085.10797
1568794085.1236
1568794085.13922
1568794085.15485
1568794085.17048
1568794085.1861
1568794085.20173
1568794085.21735
1568794085.23298
1568794085.2486
1568794085.26423
1568794085.27986
1568794085.29548
1568794085.31111
1568794085.32673
1568794085.34236
1568794085.35798
1568794085.37361
1568794085.38924
1568794085.40486
1568794085.42049
1568794085.43611
1568794085.45174
1568794085.46736
1568794085.48299
1568794085.49862
1568794085.51424
1568794085.52987
1568794085.54549
1568794085.56112
1568794085.57674
1568794085.59237
1568794085.608
1568794085.62362
1568794085.63925
1568794085.65487
1568794085.6705
1568794085.68612
1568794085.70175
1568794085.71738
1568794085.733
1568794085.74863
1568794085.76425
1568794085.77988
1568794085.7955
1568794085.81113
1568794085.82676
1568794085.84238
1568794085.85801
1568794085.87363
1568794085.88926
1568794085.90488
1568794085.92051
1568794085.93614
1568794085.95176
1568794085.96739
1568794085.98301
1568794085.99864
1568794086.01426
1568794086.02989
1568794086.04552
1568794086.06114
1568794086.07677
1568794086.09239
1568794086.10802
1568794086.12364
1568794086.13927
1568794086.1549
1568794086.17052
1568794086.18615
1568794086.20177
1568794086.2174
1568794086.23302
1568794086.24865
1568794086.26428
1568794086.2799
1568794086.29553
1568794086.31115
1568794086.32678
1568794086.3424
1568794086.35803
1568794086.37366
1568794086.38928
1568794086.40491
1568794086.42053
1568794086.43616
1568794086.45178
1568794086.46741
1568794086.48304
1568794086.49866
1568794086.51429
1568794086.52991
1568794086.54554
1568794086.56116
1568794086.57679
1568794086.59242
1568794086.60804
1568794086.62367
1568794086.63929
1568794086.65492
1568794086.67054
1568794086.68617
1568794086.7018
1568794086.71742
1568794086.73305
1568794086.74867
1568794086.7643
1568794086.77992
1568794086.79555
1568794086.81118
1568794086.8268
1568794086.84243
1568794086.85805
1568794086.87368
1568794086.8893
1568794086.90493
1568794086.92056
1568794086.93618
1568794086.95181
1568794086.96743
1568794086.98306
1568794086.99868
1568794087.01431
1568794087.02994
1568794087.04556
1568794087.06119
1568794087.07681
1568794087.09244
1568794087.10806
1568794087.12369
1568794087.13932
1568794087.15494
1568794087.17057
1568794087.18619
1568794087.20182
1568794087.21744
1568794087.23307
1568794087.2487
1568794087.26432
1568794087.27995
1568794087.29557
1568794087.3112
1568794087.32682
1568794087.34245
1568794087.35808
1568794087.3737
1568794087.38933
1568794087.40495
1568794087.42058
1568794087.4362
1568794087.45183
1568794087.46746
1568794087.48308
1568794087.49871
1568794087.51433
1568794087.52996
1568794087.54559
1568794087.56121
1568794087.57684
1568794087.59246
1568794087.60809
1568794087.62371
1568794087.63934
1568794087.65497
1568794087.67059
1568794087.68622
1568794087.70184
1568794087.71747
1568794087.73309
1568794087.74872
1568794087.76435
1568794087.77997
1568794087.7956
1568794087.81122
1568794087.82685
1568794087.84247
1568794087.8581
1568794087.87373
1568794087.88935
1568794087.90498
1568794087.9206
1568794087.93623
1568794087.95185
1568794087.96748
1568794087.98311
1568794087.99873
1568794088.01436
1568794088.02998
1568794088.04561
1568794088.06123
1568794088.07686
1568794088.09249
1568794088.10811
1568794088.12374
1568794088.13936
1568794088.15499
1568794088.17061
1568794088.18624
1568794088.20187
1568794088.21749
1568794088.23312
1568794088.24874
1568794088.26437
1568794088.27999
1568794088.29562
1568794088.31125
1568794088.32687
1568794088.3425
1568794088.35812
1568794088.37375
1568794088.38937
1568794088.405
1568794088.42063
1568794088.43625
1568794088.45188
1568794088.4675
1568794088.48313
1568794088.49875
1568794088.51438
1568794088.53001
1568794088.54563
1568794088.56126
1568794088.57688
1568794088.59251
1568794088.60813
1568794088.62376
1568794088.63939
1568794088.65501
1568794088.67064
1568794088.68626
1568794088.70189
1568794088.71751
1568794088.73314
1568794088.74877
1568794088.76439
1568794088.78002
1568794088.79564
1568794088.81127
1568794088.82689
1568794088.84252
1568794088.85815
1568794088.87377
1568794088.8894
1568794088.90502
1568794088.92065
1568794088.93627
1568794088.9519
1568794088.96753
1568794088.98315
1568794088.99878
1568794089.0144
1568794089.03003
1568794089.04565
1568794089.06128
1568794089.07691
1568794089.09253
1568794089.10816
1568794089.12378
1568794089.13941
1568794089.15503
1568794089.17066
1568794089.18629
1568794089.20191
1568794089.21754
1568794089.23316
1568794089.24879
1568794089.26441
1568794089.28004
1568794089.29567
1568794089.31129
1568794089.32692
1568794089.34254
1568794089.35817
1568794089.37379
1568794089.38942
1568794089.40505
1568794089.42067
1568794089.4363
1568794089.45192
1568794089.46755
1568794089.48317
1568794089.4988
1568794089.51443
1568794089.53005
1568794089.54568
1568794089.5613
1568794089.57693
1568794089.59255
1568794089.60818
1568794089.62381
1568794089.63943
1568794089.65506
1568794089.67068
1568794089.68631
1568794089.70193
1568794089.71756
1568794089.73319
1568794089.74881
1568794089.76444
1568794089.78006
1568794089.79569
1568794089.81132
1568794089.82694
1568794089.84257
1568794089.85819
1568794089.87382
1568794089.88944
1568794089.90507
1568794089.9207
1568794089.93632
1568794089.95195
1568794089.96757
1568794089.9832
1568794089.99882
1568794090.01445
1568794090.03008
1568794090.0457
1568794090.06133
1568794090.07695
1568794090.09258
1568794090.1082
1568794090.12383
1568794090.13946
1568794090.15508
1568794090.17071
1568794090.18633
1568794090.20196
1568794090.21758
1568794090.23321
1568794090.24884
1568794090.26446
1568794090.28009
1568794090.29571
1568794090.31134
1568794090.32696
1568794090.34259
1568794090.35822
1568794090.37384
1568794090.38947
1568794090.40509
1568794090.42072
1568794090.43634
1568794090.45197
1568794090.4676
1568794090.48322
1568794090.49885
1568794090.51447
1568794090.5301
1568794090.54572
1568794090.56135
1568794090.57698
1568794090.5926
1568794090.60823
1568794090.62385
1568794090.63948
1568794090.6551
1568794090.67073
1568794090.68636
1568794090.70198
1568794090.71761
1568794090.73323
1568794090.74886
1568794090.76448
1568794090.78011
1568794090.79574
1568794090.81136
1568794090.82699
1568794090.84261
1568794090.85824
1568794090.87386
1568794090.88949
1568794090.90512
1568794090.92074
1568794090.93637
1568794090.95199
1568794090.96762
1568794090.98324
1568794090.99887
1568794091.0145
1568794091.03012
1568794091.04575
1568794091.06137
1568794091.077
1568794091.09262
1568794091.10825
1568794091.12388
1568794091.1395
1568794091.15513
1568794091.17075
1568794091.18638
1568794091.202
1568794091.21763
1568794091.23326
1568794091.24888
1568794091.26451
1568794091.28013
1568794091.29576
1568794091.31138
1568794091.32701
1568794091.34264
1568794091.35826
1568794091.37389
1568794091.38951
1568794091.40514
1568794091.42076
1568794091.43639
1568794091.45202
1568794091.46764
1568794091.48327
1568794091.49889
1568794091.51452
1568794091.53014
1568794091.54577
1568794091.5614
1568794091.57702
1568794091.59265
1568794091.60827
1568794091.6239
1568794091.63952
1568794091.65515
1568794091.67078
1568794091.6864
1568794091.70203
1568794091.71765
1568794091.73328
1568794091.7489
1568794091.76453
1568794091.78016
1568794091.79578
1568794091.81141
1568794091.82703
1568794091.84266
1568794091.85828
1568794091.87391
1568794091.88954
1568794091.90516
1568794091.92079
1568794091.93641
1568794091.95204
1568794091.96766
1568794091.98329
1568794091.99892
1568794092.01454
1568794092.03017
1568794092.04579
1568794092.06142
1568794092.07704
1568794092.09267
1568794092.1083
1568794092.12392
1568794092.13955
1568794092.15517
1568794092.1708
1568794092.18642
1568794092.20205
1568794092.21768
1568794092.2333
1568794092.24893
1568794092.26455
1568794092.28018
1568794092.2958
1568794092.31143
1568794092.32706
1568794092.34268
1568794092.35831
1568794092.37393
1568794092.38956
1568794092.40519
1568794092.42081
1568794092.43644
1568794092.45206
1568794092.46769
1568794092.48331
1568794092.49894
1568794092.51457
1568794092.53019
1568794092.54582
1568794092.56144
1568794092.57707
1568794092.59269
1568794092.60832
1568794092.62395
1568794092.63957
1568794092.6552
1568794092.67082
1568794092.68645
1568794092.70207
1568794092.7177
1568794092.73333
1568794092.74895
1568794092.76458
1568794092.7802
1568794092.79583
1568794092.81145
1568794092.82708
1568794092.84271
1568794092.85833
1568794092.87396
1568794092.88958
1568794092.90521
1568794092.92083
1568794092.93646
1568794092.95209
1568794092.96771
1568794092.98334
1568794092.99896
1568794093.01459
1568794093.03021
1568794093.04584
1568794093.06147
1568794093.07709
1568794093.09272
1568794093.10834
1568794093.12397
1568794093.13959
1568794093.15522
1568794093.17085
1568794093.18647
1568794093.2021
1568794093.21772
1568794093.23335
1568794093.24897
1568794093.2646
1568794093.28023
1568794093.29585
1568794093.31148
1568794093.3271
1568794093.34273
1568794093.35835
1568794093.37398
1568794093.38961
1568794093.40523
1568794093.42086
1568794093.43648
1568794093.45211
1568794093.46773
1568794093.48336
1568794093.49899
1568794093.51461
1568794093.53024
1568794093.54586
1568794093.56149
1568794093.57711
1568794093.59274
1568794093.60837
1568794093.62399
1568794093.63962
1568794093.65524
1568794093.67087
1568794093.68649
1568794093.70212
1568794093.71775
1568794093.73337
1568794093.749
1568794093.76462
1568794093.78025
1568794093.79587
1568794093.8115
1568794093.82713
1568794093.84275
1568794093.85838
1568794093.874
1568794093.88963
1568794093.90525
1568794093.92088
1568794093.93651
1568794093.95213
1568794093.96776
1568794093.98338
1568794093.99901
1568794094.01463
1568794094.03026
1568794094.04589
1568794094.06151
1568794094.07714
1568794094.09276
1568794094.10839
1568794094.12401
1568794094.13964
1568794094.15527
1568794094.17089
1568794094.18652
1568794094.20214
1568794094.21777
1568794094.23339
1568794094.24902
1568794094.26465
1568794094.28027
1568794094.2959
1568794094.31152
1568794094.32715
1568794094.34277
1568794094.3584
1568794094.37403
1568794094.38965
1568794094.40528
1568794094.4209
1568794094.43653
1568794094.45215
1568794094.46778
1568794094.48341
1568794094.49903
1568794094.51466
1568794094.53028
1568794094.54591
1568794094.56153
1568794094.57716
1568794094.59279
1568794094.60841
1568794094.62404
1568794094.63966
1568794094.65529
1568794094.67092
1568794094.68654
1568794094.70217
1568794094.71779
1568794094.73342
1568794094.74904
1568794094.76467
1568794094.7803
1568794094.79592
1568794094.81155
1568794094.82717
1568794094.8428
1568794094.85842
1568794094.87405
1568794094.88968
1568794094.9053
1568794094.92093
1568794094.93655
1568794094.95218
1568794094.9678
1568794094.98343
1568794094.99906
1568794095.01468
1568794095.03031
1568794095.04593
1568794095.06156
1568794095.07718
1568794095.09281
1568794095.10844
1568794095.12406
1568794095.13969
1568794095.15531
1568794095.17094
1568794095.18656
1568794095.20219
1568794095.21782
1568794095.23344
1568794095.24907
1568794095.26469
1568794095.28032
1568794095.29594
1568794095.31157
1568794095.3272
1568794095.34282
1568794095.35845
1568794095.37407
1568794095.3897
1568794095.40532
1568794095.42095
1568794095.43658
1568794095.4522
1568794095.46783
1568794095.48345
1568794095.49908
1568794095.5147
1568794095.53033
1568794095.54596
1568794095.56158
1568794095.57721
1568794095.59283
1568794095.60846
1568794095.62408
1568794095.63971
1568794095.65534
1568794095.67096
1568794095.68659
1568794095.70221
1568794095.71784
1568794095.73346
1568794095.74909
1568794095.76472
1568794095.78034
1568794095.79597
1568794095.81159
1568794095.82722
1568794095.84284
1568794095.85847
1568794095.8741
1568794095.88972
1568794095.90535
1568794095.92097
1568794095.9366
1568794095.95222
1568794095.96785
1568794095.98348
1568794095.9991
1568794096.01473
1568794096.03035
1568794096.04598
1568794096.0616
1568794096.07723
1568794096.09286
1568794096.10848
1568794096.12411
1568794096.13973
1568794096.15536
1568794096.17098
1568794096.18661
1568794096.20224
1568794096.21786
1568794096.23349
1568794096.24911
1568794096.26474
1568794096.28036
1568794096.29599
1568794096.31162
1568794096.32724
1568794096.34287
1568794096.35849
1568794096.37412
1568794096.38974
1568794096.40537
1568794096.421
1568794096.43662
1568794096.45225
1568794096.46787
1568794096.4835
1568794096.49912
1568794096.51475
1568794096.53038
1568794096.546
1568794096.56163
1568794096.57725
1568794096.59288
1568794096.6085
1568794096.62413
1568794096.63976
1568794096.65538
1568794096.67101
1568794096.68663
1568794096.70226
1568794096.71788
1568794096.73351
1568794096.74914
1568794096.76476
1568794096.78039
1568794096.79601
1568794096.81164
1568794096.82727
1568794096.84289
1568794096.85852
1568794096.87414
1568794096.88977
1568794096.90539
1568794096.92102
1568794096.93665
1568794096.95227
1568794096.9679
1568794096.98352
1568794096.99915
1568794097.01477
1568794097.0304
1568794097.04603
1568794097.06165
1568794097.07728
1568794097.0929
1568794097.10853
1568794097.12415
1568794097.13978
1568794097.15541
1568794097.17103
1568794097.18666
1568794097.20228
1568794097.21791
1568794097.23353
1568794097.24916
1568794097.26479
1568794097.28041
1568794097.29604
1568794097.31166
1568794097.32729
1568794097.34291
1568794097.35854
1568794097.37417
1568794097.38979
1568794097.40542
1568794097.42104
1568794097.43667
1568794097.45229
1568794097.46792
1568794097.48355
1568794097.49917
1568794097.5148
1568794097.53042
1568794097.54605
1568794097.56167
1568794097.5773
1568794097.59293
1568794097.60855
1568794097.62418
1568794097.6398
1568794097.65543
1568794097.67105
1568794097.68668
1568794097.70231
1568794097.71793
1568794097.73356
1568794097.74918
1568794097.76481
1568794097.78043
1568794097.79606
1568794097.81169
1568794097.82731
1568794097.84294
1568794097.85856
1568794097.87419
1568794097.88981
1568794097.90544
1568794097.92107
1568794097.93669
1568794097.95232
1568794097.96794
1568794097.98357
1568794097.99919
1568794098.01482
1568794098.03045
1568794098.04607
1568794098.0617
1568794098.07732
1568794098.09295
1568794098.10857
1568794098.1242
1568794098.13983
1568794098.15545
1568794098.17108
1568794098.1867
1568794098.20233
1568794098.21795
1568794098.23358
1568794098.24921
1568794098.26483
1568794098.28046
1568794098.29608
1568794098.31171
1568794098.32733
1568794098.34296
1568794098.35859
1568794098.37421
1568794098.38984
1568794098.40546
1568794098.42109
1568794098.43671
1568794098.45234
1568794098.46797
1568794098.48359
1568794098.49922
1568794098.51484
1568794098.53047
1568794098.54609
1568794098.56172
1568794098.57735
1568794098.59297
1568794098.6086
1568794098.62422
1568794098.63985
1568794098.65547
1568794098.6711
1568794098.68673
1568794098.70235
1568794098.71798
1568794098.7336
1568794098.74923
1568794098.76485
1568794098.78048
1568794098.79611
1568794098.81173
1568794098.82736
1568794098.84298
1568794098.85861
1568794098.87423
1568794098.88986
1568794098.90549
1568794098.92111
1568794098.93674
1568794098.95236
1568794098.96799
1568794098.98361
1568794098.99924
1568794099.01487
1568794099.03049
1568794099.04612
1568794099.06174
1568794099.07737
1568794099.09299
1568794099.10862
1568794099.12425
1568794099.13987
1568794099.1555
1568794099.17112
1568794099.18675
1568794099.20237
1568794099.218
1568794099.23363
1568794099.24925
1568794099.26488
1568794099.2805
1568794099.29613
1568794099.31175
1568794099.32738
1568794099.34301
1568794099.35863
1568794099.37426
1568794099.38988
1568794099.40551
1568794099.42113
1568794099.43676
1568794099.45239
1568794099.46801
1568794099.48364
1568794099.49926
1568794099.51489
1568794099.53052
1568794099.54614
1568794099.56177
1568794099.57739
1568794099.59302
1568794099.60864
1568794099.62427
1568794099.6399
1568794099.65552
1568794099.67115
1568794099.68677
1568794099.7024
1568794099.71802
1568794099.73365
1568794099.74928
1568794099.7649
1568794099.78053
1568794099.79615
1568794099.81178
1568794099.8274
1568794099.84303
1568794099.85866
1568794099.87428
1568794099.88991
1568794099.90553
1568794099.92116
1568794099.93678
1568794099.95241
1568794099.96804
1568794099.98366
1568794099.99929
1568794100.01491
1568794100.03054
1568794100.04616
1568794100.06179
1568794100.07742
1568794100.09304
1568794100.10867
1568794100.12429
1568794100.13992
1568794100.15554
1568794100.17117
1568794100.1868
1568794100.20242
1568794100.21805
1568794100.23367
1568794100.2493
1568794100.26492
1568794100.28055
1568794100.29618
1568794100.3118
1568794100.32743
1568794100.34305
1568794100.35868
1568794100.3743
1568794100.38993
1568794100.40556
1568794100.42118
1568794100.43681
1568794100.45243
1568794100.46806
1568794100.48368
1568794100.49931
1568794100.51494
1568794100.53056
1568794100.54619
1568794100.56181
1568794100.57744
1568794100.59306
1568794100.60869
1568794100.62432
1568794100.63994
1568794100.65557
1568794100.67119
1568794100.68682
1568794100.70244
1568794100.71807
1568794100.7337
1568794100.74932
1568794100.76495
1568794100.78057
1568794100.7962
1568794100.81182
1568794100.82745
1568794100.84308
1568794100.8587
1568794100.87433
1568794100.88995
1568794100.90558
1568794100.9212
1568794100.93683
1568794100.95246
1568794100.96808
1568794100.98371
1568794100.99933
1568794101.01496
1568794101.03058
1568794101.04621
1568794101.06184
1568794101.07746
1568794101.09309
1568794101.10871
1568794101.12434
1568794101.13996
1568794101.15559
1568794101.17122
1568794101.18684
1568794101.20247
1568794101.21809
1568794101.23372
1568794101.24934
1568794101.26497
1568794101.2806
1568794101.29622
1568794101.31185
1568794101.32747
1568794101.3431
1568794101.35872
1568794101.37435
1568794101.38998
1568794101.4056
1568794101.42123
1568794101.43685
1568794101.45248
1568794101.4681
1568794101.48373
1568794101.49936
1568794101.51498
1568794101.53061
1568794101.54623
1568794101.56186
1568794101.57748
1568794101.59311
1568794101.60874
1568794101.62436
1568794101.63999
1568794101.65561
1568794101.67124
1568794101.68687
1568794101.70249
1568794101.71812
1568794101.73374
1568794101.74937
1568794101.76499
1568794101.78062
1568794101.79625
1568794101.81187
1568794101.8275
1568794101.84312
1568794101.85875
1568794101.87437
1568794101.89
1568794101.90563
1568794101.92125
1568794101.93688
1568794101.9525
1568794101.96813
1568794101.98375
1568794101.99938
1568794102.01501
1568794102.03063
1568794102.04626
1568794102.06188
1568794102.07751
1568794102.09313
1568794102.10876
1568794102.12439
1568794102.14001
1568794102.15564
1568794102.17126
1568794102.18689
1568794102.20251
1568794102.21814
1568794102.23377
1568794102.24939
1568794102.26502
1568794102.28064
1568794102.29627
1568794102.31189
1568794102.32752
1568794102.34315
1568794102.35877
1568794102.3744
1568794102.39002
1568794102.40565
1568794102.42127
1568794102.4369
1568794102.45253
1568794102.46815
1568794102.48378
1568794102.4994
1568794102.51503
1568794102.53065
1568794102.54628
1568794102.56191
1568794102.57753
1568794102.59316
1568794102.60878
1568794102.62441
1568794102.64003
1568794102.65566
1568794102.67129
1568794102.68691
1568794102.70254
1568794102.71816
1568794102.73379
1568794102.74941
1568794102.76504
1568794102.78067
1568794102.79629
1568794102.81192
1568794102.82754
1568794102.84317
1568794102.85879
1568794102.87442
1568794102.89005
1568794102.90567
1568794102.9213
1568794102.93692
1568794102.95255
1568794102.96817
1568794102.9838
1568794102.99943
1568794103.01505
1568794103.03068
1568794103.0463
1568794103.06193
1568794103.07755
1568794103.09318
1568794103.10881
1568794103.12443
1568794103.14006
1568794103.15568
1568794103.17131
1568794103.18693
1568794103.20256
1568794103.21819
1568794103.23381
1568794103.24944
1568794103.26506
1568794103.28069
1568794103.29631
1568794103.31194
1568794103.32757
1568794103.34319
1568794103.35882
1568794103.37444
1568794103.39007
1568794103.40569
1568794103.42132
1568794103.43695
1568794103.45257
1568794103.4682
1568794103.48382
1568794103.49945
1568794103.51507
1568794103.5307
1568794103.54633
1568794103.56195
1568794103.57758
1568794103.5932
1568794103.60883
1568794103.62445
1568794103.64008
1568794103.65571
1568794103.67133
1568794103.68696
1568794103.70258
1568794103.71821
1568794103.73383
1568794103.74946
1568794103.76509
1568794103.78071
1568794103.79634
1568794103.81196
1568794103.82759
1568794103.84321
1568794103.85884
1568794103.87447
1568794103.89009
1568794103.90572
1568794103.92134
1568794103.93697
1568794103.9526
1568794103.96822
1568794103.98385
1568794103.99947
1568794104.0151
1568794104.03072
1568794104.04635
1568794104.06198
1568794104.0776
1568794104.09323
1568794104.10885
1568794104.12448
1568794104.1401
1568794104.15573
1568794104.17136
1568794104.18698
1568794104.20261
1568794104.21823
1568794104.23386
1568794104.24948
1568794104.26511
1568794104.28074
1568794104.29636
1568794104.31199
1568794104.32761
1568794104.34324
1568794104.35886
1568794104.37449
1568794104.39012
1568794104.40574
1568794104.42137
1568794104.43699
1568794104.45262
1568794104.46824
1568794104.48387
1568794104.4995
1568794104.51512
1568794104.53075
1568794104.54637
1568794104.562
1568794104.57762
1568794104.59325
1568794104.60888
1568794104.6245
1568794104.64013
1568794104.65575
1568794104.67138
1568794104.687
1568794104.70263
1568794104.71826
1568794104.73388
1568794104.74951
1568794104.76513
1568794104.78076
1568794104.79638
1568794104.81201
1568794104.82764
1568794104.84326
1568794104.85889
1568794104.87451
1568794104.89014
1568794104.90576
1568794104.92139
1568794104.93702
1568794104.95264
1568794104.96827
1568794104.98389
1568794104.99952
1568794105.01514
1568794105.03077
1568794105.0464
1568794105.06202
1568794105.07765
1568794105.09327
1568794105.1089
1568794105.12452
1568794105.14015
1568794105.15578
1568794105.1714
1568794105.18703
1568794105.20265
1568794105.21828
1568794105.2339
1568794105.24953
1568794105.26516
1568794105.28078
1568794105.29641
1568794105.31203
1568794105.32766
1568794105.34328
1568794105.35891
1568794105.37454
1568794105.39016
1568794105.40579
1568794105.42141
1568794105.43704
1568794105.45266
1568794105.46829
1568794105.48392
1568794105.49954
1568794105.51517
1568794105.53079
1568794105.54642
1568794105.56204
1568794105.57767
1568794105.5933
1568794105.60892
1568794105.62455
1568794105.64017
1568794105.6558
1568794105.67142
1568794105.68705
1568794105.70268
1568794105.7183
1568794105.73393
1568794105.74955
1568794105.76518
1568794105.7808
1568794105.79643
1568794105.81206
1568794105.82768
1568794105.84331
1568794105.85893
1568794105.87456
1568794105.89018
1568794105.90581
1568794105.92144
1568794105.93706
1568794105.95269
1568794105.96831
1568794105.98394
1568794105.99956
1568794106.01519
1568794106.03082
1568794106.04644
1568794106.06207
1568794106.07769
1568794106.09332
1568794106.10894
1568794106.12457
1568794106.1402
1568794106.15582
1568794106.17145
1568794106.18707
1568794106.2027
1568794106.21832
1568794106.23395
1568794106.24958
1568794106.2652
1568794106.28083
1568794106.29645
1568794106.31208
1568794106.3277
1568794106.34333
1568794106.35896
1568794106.37458
1568794106.39021
1568794106.40583
1568794106.42146
1568794106.43708
1568794106.45271
1568794106.46834
1568794106.48396
1568794106.49959
1568794106.51521
1568794106.53084
1568794106.54646
1568794106.56209
1568794106.57772
1568794106.59334
1568794106.60897
1568794106.62459
1568794106.64022
1568794106.65585
1568794106.67147
1568794106.6871
1568794106.70272
1568794106.71835
1568794106.73397
1568794106.7496
1568794106.76523
1568794106.78085
1568794106.79648
1568794106.8121
1568794106.82773
1568794106.84335
1568794106.85898
1568794106.87461
1568794106.89023
1568794106.90586
1568794106.92148
1568794106.93711
1568794106.95273
1568794106.96836
1568794106.98399
1568794106.99961
1568794107.01524
1568794107.03086
1568794107.04649
1568794107.06211
1568794107.07774
1568794107.09337
1568794107.10899
1568794107.12462
1568794107.14024
1568794107.15587
1568794107.17149
1568794107.18712
1568794107.20275
1568794107.21837
1568794107.234
1568794107.24962
1568794107.26525
1568794107.28087
1568794107.2965
1568794107.31213
1568794107.32775
1568794107.34338
1568794107.359
1568794107.37463
1568794107.39025
1568794107.40588
1568794107.42151
1568794107.43713
1568794107.45276
1568794107.46838
1568794107.48401
1568794107.49963
1568794107.51526
1568794107.53089
1568794107.54651
1568794107.56214
1568794107.57776
1568794107.59339
1568794107.60901
1568794107.62464
1568794107.64027
1568794107.65589
1568794107.67152
1568794107.68714
1568794107.70277
1568794107.71839
1568794107.73402
1568794107.74965
1568794107.76527
1568794107.7809
1568794107.79652
1568794107.81215
1568794107.82777
1568794107.8434
1568794107.85903
1568794107.87465
1568794107.89028
1568794107.9059
1568794107.92153
1568794107.93715
1568794107.95278
1568794107.96841
1568794107.98403
1568794107.99966
1568794108.01528
1568794108.03091
1568794108.04653
1568794108.06216
1568794108.07779
1568794108.09341
1568794108.10904
1568794108.12466
1568794108.14029
1568794108.15591
1568794108.17154
1568794108.18717
1568794108.20279
1568794108.21842
1568794108.23404
1568794108.24967
1568794108.26529
1568794108.28092
1568794108.29655
1568794108.31217
1568794108.3278
1568794108.34342
1568794108.35905
1568794108.37467
1568794108.3903
1568794108.40593
1568794108.42155
1568794108.43718
1568794108.4528
1568794108.46843
1568794108.48405
1568794108.49968
1568794108.51531
1568794108.53093
1568794108.54656
1568794108.56218
1568794108.57781
1568794108.59343
1568794108.60906
1568794108.62469
1568794108.64031
1568794108.65594
1568794108.67156
1568794108.68719
1568794108.70281
1568794108.71844
1568794108.73407
1568794108.74969
1568794108.76532
1568794108.78094
1568794108.79657
1568794108.8122
1568794108.82782
1568794108.84345
1568794108.85907
1568794108.8747
1568794108.89032
1568794108.90595
1568794108.92158
1568794108.9372
1568794108.95283
1568794108.96845
1568794108.98408
1568794108.9997
1568794109.01533
1568794109.03096
1568794109.04658
1568794109.06221
1568794109.07783
1568794109.09346
1568794109.10908
1568794109.12471
1568794109.14034
1568794109.15596
1568794109.17159
1568794109.18721
1568794109.20284
1568794109.21846
1568794109.23409
1568794109.24972
1568794109.26534
1568794109.28097
1568794109.29659
1568794109.31222
1568794109.32784
1568794109.34347
1568794109.3591
1568794109.37472
1568794109.39035
1568794109.40597
1568794109.4216
1568794109.43722
1568794109.45285
1568794109.46848
1568794109.4841
1568794109.49973
1568794109.51535
1568794109.53098
1568794109.5466
1568794109.56223
1568794109.57786
1568794109.59348
1568794109.60911
1568794109.62473
1568794109.64036
1568794109.65598
1568794109.67161
1568794109.68724
1568794109.70286
1568794109.71849
1568794109.73411
1568794109.74974
1568794109.76536
1568794109.78099
1568794109.79662
1568794109.81224
1568794109.82787
1568794109.84349
1568794109.85912
1568794109.87474
1568794109.89037
1568794109.906
1568794109.92162
1568794109.93725
1568794109.95287
1568794109.9685
1568794109.98412
1568794109.99975
1568794110.01538
1568794110.031
1568794110.04663
1568794110.06225
1568794110.07788
1568794110.0935
1568794110.10913
1568794110.12476
1568794110.14038
1568794110.15601
1568794110.17163
1568794110.18726
1568794110.20288
1568794110.21851
1568794110.23414
1568794110.24976
1568794110.26539
1568794110.28101
1568794110.29664
1568794110.31226
1568794110.32789
1568794110.34352
1568794110.35914
1568794110.37477
1568794110.39039
1568794110.40602
1568794110.42164
1568794110.43727
1568794110.4529
1568794110.46852
1568794110.48415
1568794110.49977
1568794110.5154
1568794110.53102
1568794110.54665
1568794110.56228
1568794110.5779
1568794110.59353
1568794110.60915
1568794110.62478
1568794110.6404
1568794110.65603
1568794110.67166
1568794110.68728
1568794110.70291
1568794110.71853
1568794110.73416
1568794110.74978
1568794110.76541
1568794110.78104
1568794110.79666
1568794110.81229
1568794110.82791
1568794110.84354
1568794110.85916
1568794110.87479
1568794110.89042
1568794110.90604
1568794110.92167
1568794110.93729
1568794110.95292
1568794110.96854
1568794110.98417
1568794110.9998
1568794111.01542
1568794111.03105
1568794111.04667
1568794111.0623
1568794111.07792
1568794111.09355
1568794111.10918
1568794111.1248
1568794111.14043
1568794111.15605
1568794111.17168
1568794111.1873
1568794111.20293
1568794111.21856
1568794111.23418
1568794111.24981
1568794111.26543
1568794111.28106
1568794111.29668
1568794111.31231
1568794111.32794
1568794111.34356
1568794111.35919
1568794111.37481
1568794111.39044
1568794111.40606
1568794111.42169
1568794111.43732
1568794111.45294
1568794111.46857
1568794111.48419
1568794111.49982
1568794111.51545
1568794111.53107
1568794111.5467
1568794111.56232
1568794111.57795
1568794111.59357
1568794111.6092
1568794111.62483
1568794111.64045
1568794111.65608
1568794111.6717
1568794111.68733
1568794111.70295
1568794111.71858
1568794111.73421
1568794111.74983
1568794111.76546
1568794111.78108
1568794111.79671
1568794111.81233
1568794111.82796
1568794111.84359
1568794111.85921
1568794111.87484
1568794111.89046
1568794111.90609
1568794111.92171
1568794111.93734
1568794111.95297
1568794111.96859
1568794111.98422
1568794111.99984
1568794112.01547
1568794112.03109
1568794112.04672
1568794112.06235
1568794112.07797
1568794112.0936
1568794112.10922
1568794112.12485
1568794112.14047
1568794112.1561
1568794112.17173
1568794112.18735
1568794112.20298
1568794112.2186
1568794112.23423
1568794112.24985
1568794112.26548
1568794112.28111
1568794112.29673
1568794112.31236
1568794112.32798
1568794112.34361
1568794112.35923
1568794112.37486
1568794112.39049
1568794112.40611
1568794112.42174
1568794112.43736
1568794112.45299
1568794112.46861
1568794112.48424
1568794112.49987
1568794112.51549
1568794112.53112
1568794112.54674
1568794112.56237
1568794112.57799
1568794112.59362
1568794112.60925
1568794112.62487
1568794112.6405
1568794112.65612
1568794112.67175
1568794112.68737
1568794112.703
1568794112.71863
1568794112.73425
1568794112.74988
1568794112.7655
1568794112.78113
1568794112.79675
1568794112.81238
1568794112.82801
1568794112.84363
1568794112.85926
1568794112.87488
1568794112.89051
1568794112.90613
1568794112.92176
1568794112.93739
1568794112.95301
1568794112.96864
1568794112.98426
1568794112.99989
1568794113.01551
1568794113.03114
1568794113.04677
1568794113.06239
1568794113.07802
1568794113.09364
1568794113.10927
1568794113.12489
1568794113.14052
1568794113.15615
1568794113.17177
1568794113.1874
1568794113.20302
1568794113.21865
1568794113.23427
1568794113.2499
1568794113.26553
1568794113.28115
1568794113.29678
1568794113.3124
1568794113.32803
1568794113.34365
1568794113.35928
1568794113.37491
1568794113.39053
1568794113.40616
1568794113.42178
1568794113.43741
1568794113.45303
1568794113.46866
1568794113.48429
1568794113.49991
1568794113.51554
1568794113.53116
1568794113.54679
1568794113.56241
1568794113.57804
1568794113.59367
1568794113.60929
1568794113.62492
1568794113.64054
1568794113.65617
1568794113.6718
1568794113.68742
1568794113.70305
1568794113.71867
1568794113.7343
1568794113.74992
1568794113.76555
1568794113.78118
1568794113.7968
1568794113.81243
1568794113.82805
1568794113.84368
1568794113.8593
1568794113.87493
1568794113.89056
1568794113.90618
1568794113.92181
1568794113.93743
1568794113.95306
1568794113.96868
1568794113.98431
1568794113.99994
1568794114.01556
1568794114.03119
1568794114.04681
1568794114.06244
1568794114.07806
1568794114.09369
1568794114.10932
1568794114.12494
1568794114.14057
1568794114.15619
1568794114.17182
1568794114.18744
1568794114.20307
1568794114.2187
1568794114.23432
1568794114.24995
1568794114.26557
1568794114.2812
1568794114.29682
1568794114.31245
1568794114.32808
1568794114.3437
1568794114.35933
1568794114.37495
1568794114.39058
1568794114.4062
1568794114.42183
1568794114.43746
1568794114.45308
1568794114.46871
1568794114.48433
1568794114.49996
1568794114.51558
1568794114.53121
1568794114.54684
1568794114.56246
1568794114.57809
1568794114.59371
1568794114.60934
1568794114.62496
1568794114.64059
1568794114.65622
1568794114.67184
1568794114.68747
1568794114.70309
1568794114.71872
1568794114.73434
1568794114.74997
1568794114.7656
1568794114.78122
1568794114.79685
1568794114.81247
1568794114.8281
1568794114.84372
1568794114.85935
1568794114.87498
1568794114.8906
1568794114.90623
1568794114.92185
1568794114.93748
1568794114.9531
1568794114.96873
1568794114.98436
1568794114.99998
1568794115.01561
1568794115.03123
1568794115.04686
1568794115.06248
1568794115.07811
1568794115.09374
1568794115.10936
1568794115.12499
1568794115.14061
1568794115.15624
1568794115.17186
1568794115.18749
1568794115.20312
1568794115.21874
1568794115.23437
1568794115.24999
1568794115.26562
1568794115.28124
1568794115.29687
1568794115.3125
1568794115.32812
1568794115.34375
1568794115.35937
1568794115.375
1568794115.39062
1568794115.40625
1568794115.42188
1568794115.4375
1568794115.45313
1568794115.46875
1568794115.48438
1568794115.5
1568794115.51563
1568794115.53126
1568794115.54688
1568794115.56251
1568794115.57813
1568794115.59376
1568794115.60938
1568794115.62501
1568794115.64064
1568794115.65626
1568794115.67189
1568794115.68751
1568794115.70314
1568794115.71876
1568794115.73439
1568794115.75002
1568794115.76564
1568794115.78127
1568794115.79689
1568794115.81252
1568794115.82814
1568794115.84377
1568794115.8594
1568794115.87502
1568794115.89065
1568794115.90627
1568794115.9219
1568794115.93753
1568794115.95315
1568794115.96878
1568794115.9844
1568794116.00003
1568794116.01565
1568794116.03128
1568794116.04691
1568794116.06253
1568794116.07816
1568794116.09378
1568794116.10941
1568794116.12503
1568794116.14066
1568794116.15629
1568794116.17191
1568794116.18754
1568794116.20316
1568794116.21879
1568794116.23441
1568794116.25004
1568794116.26567
1568794116.28129
1568794116.29692
1568794116.31254
1568794116.32817
1568794116.34379
1568794116.35942
1568794116.37505
1568794116.39067
1568794116.4063
1568794116.42192
1568794116.43755
1568794116.45317
1568794116.4688
1568794116.48443
1568794116.50005
1568794116.51568
1568794116.5313
1568794116.54693
1568794116.56255
1568794116.57818
1568794116.59381
1568794116.60943
1568794116.62506
1568794116.64068
1568794116.65631
1568794116.67193
1568794116.68756
1568794116.70319
1568794116.71881
1568794116.73444
1568794116.75006
1568794116.76569
1568794116.78131
1568794116.79694
1568794116.81257
1568794116.82819
1568794116.84382
1568794116.85944
1568794116.87507
1568794116.89069
1568794116.90632
1568794116.92195
1568794116.93757
1568794116.9532
1568794116.96882
1568794116.98445
1568794117.00007
1568794117.0157
1568794117.03133
1568794117.04695
1568794117.06258
1568794117.0782
1568794117.09383
1568794117.10945
1568794117.12508
1568794117.14071
1568794117.15633
1568794117.17196
1568794117.18758
1568794117.20321
1568794117.21883
1568794117.23446
1568794117.25009
1568794117.26571
1568794117.28134
1568794117.29696
1568794117.31259
1568794117.32821
1568794117.34384
1568794117.35947
1568794117.37509
1568794117.39072
1568794117.40634
1568794117.42197
1568794117.43759
1568794117.45322
1568794117.46885
1568794117.48447
1568794117.5001
1568794117.51572
1568794117.53135
1568794117.54697
1568794117.5626
1568794117.57823
1568794117.59385
1568794117.60948
1568794117.6251
1568794117.64073
1568794117.65635
1568794117.67198
1568794117.68761
1568794117.70323
1568794117.71886
1568794117.73448
1568794117.75011
1568794117.76573
1568794117.78136
1568794117.79699
1568794117.81261
1568794117.82824
1568794117.84386
1568794117.85949
1568794117.87511
1568794117.89074
1568794117.90637
1568794117.92199
1568794117.93762
1568794117.95324
1568794117.96887
1568794117.98449
1568794118.00012
1568794118.01575
1568794118.03137
1568794118.047
1568794118.06262
1568794118.07825
1568794118.09387
1568794118.1095
1568794118.12513
1568794118.14075
1568794118.15638
1568794118.172
1568794118.18763
1568794118.20325
1568794118.21888
1568794118.23451
1568794118.25013
1568794118.26576
1568794118.28138
1568794118.29701
1568794118.31263
1568794118.32826
1568794118.34389
1568794118.35951
1568794118.37514
1568794118.39076
1568794118.40639
1568794118.42201
1568794118.43764
1568794118.45327
1568794118.46889
1568794118.48452
1568794118.50014
1568794118.51577
1568794118.5314
1568794118.54702
1568794118.56265
1568794118.57827
1568794118.5939
1568794118.60952
1568794118.62515
1568794118.64078
1568794118.6564
1568794118.67203
1568794118.68765
1568794118.70328
1568794118.7189
1568794118.73453
1568794118.75016
1568794118.76578
1568794118.78141
1568794118.79703
1568794118.81266
1568794118.82828
1568794118.84391
1568794118.85954
1568794118.87516
1568794118.89079
1568794118.90641
1568794118.92204
1568794118.93766
1568794118.95329
1568794118.96892
1568794118.98454
1568794119.00017
1568794119.01579
1568794119.03142
1568794119.04704
1568794119.06267
1568794119.0783
1568794119.09392
1568794119.10955
1568794119.12517
1568794119.1408
1568794119.15642
1568794119.17205
1568794119.18768
1568794119.2033
1568794119.21893
1568794119.23455
1568794119.25018
1568794119.2658
1568794119.28143
1568794119.29706
1568794119.31268
1568794119.32831
1568794119.34393
1568794119.35956
1568794119.37518
1568794119.39081
1568794119.40644
1568794119.42206
1568794119.43769
1568794119.45331
1568794119.46894
1568794119.48456
1568794119.50019
1568794119.51582
1568794119.53144
1568794119.54707
1568794119.56269
1568794119.57832
1568794119.59394
1568794119.60957
1568794119.6252
1568794119.64082
1568794119.65645
1568794119.67207
1568794119.6877
1568794119.70332
1568794119.71895
1568794119.73458
1568794119.7502
1568794119.76583
1568794119.78145
1568794119.79708
1568794119.8127
1568794119.82833
1568794119.84396
1568794119.85958
1568794119.87521
1568794119.89083
1568794119.90646
1568794119.92208
1568794119.93771
1568794119.95334
1568794119.96896
1568794119.98459
1568794120.00021
1568794120.01584
1568794120.03146
1568794120.04709
1568794120.06272
1568794120.07834
1568794120.09397
1568794120.10959
1568794120.12522
1568794120.14084
1568794120.15647
1568794120.1721
1568794120.18772
1568794120.20335
1568794120.21897
1568794120.2346
1568794120.25022
1568794120.26585
1568794120.28148
1568794120.2971
1568794120.31273
1568794120.32835
1568794120.34398
1568794120.3596
1568794120.37523
1568794120.39086
1568794120.40648
1568794120.42211
1568794120.43773
1568794120.45336
1568794120.46898
1568794120.48461
1568794120.50024
1568794120.51586
1568794120.53149
1568794120.54711
1568794120.56274
1568794120.57836
1568794120.59399
1568794120.60962
1568794120.62524
1568794120.64087
1568794120.65649
1568794120.67212
1568794120.68774
1568794120.70337
1568794120.719
1568794120.73462
1568794120.75025
1568794120.76587
1568794120.7815
1568794120.79713
1568794120.81275
1568794120.82838
1568794120.844
1568794120.85963
1568794120.87525
1568794120.89088
1568794120.90651
1568794120.92213
1568794120.93776
1568794120.95338
1568794120.96901
1568794120.98463
1568794121.00026
1568794121.01589
1568794121.03151
1568794121.04714
1568794121.06276
1568794121.07839
1568794121.09401
1568794121.10964
1568794121.12527
1568794121.14089
1568794121.15652
1568794121.17214
1568794121.18777
1568794121.20339
1568794121.21902
1568794121.23465
1568794121.25027
1568794121.2659
1568794121.28152
1568794121.29715
1568794121.31277
1568794121.3284
1568794121.34403
1568794121.35965
1568794121.37528
1568794121.3909
1568794121.40653
1568794121.42215
1568794121.43778
1568794121.45341
1568794121.46903
1568794121.48466
1568794121.50028
1568794121.51591
1568794121.53153
1568794121.54716
1568794121.56279
1568794121.57841
1568794121.59404
1568794121.60966
1568794121.62529
1568794121.64091
1568794121.65654
1568794121.67217
1568794121.68779
1568794121.70342
1568794121.71904
1568794121.73467
1568794121.75029
1568794121.76592
1568794121.78155
1568794121.79717
1568794121.8128
1568794121.82842
1568794121.84405
1568794121.85967
1568794121.8753
1568794121.89093
1568794121.90655
1568794121.92218
1568794121.9378
1568794121.95343
1568794121.96905
1568794121.98468
1568794122.00031
1568794122.01593
1568794122.03156
1568794122.04718
1568794122.06281
1568794122.07843
1568794122.09406
1568794122.10969
1568794122.12531
1568794122.14094
1568794122.15656
1568794122.17219
1568794122.18781
1568794122.20344
1568794122.21907
1568794122.23469
1568794122.25032
1568794122.26594
1568794122.28157
1568794122.29719
1568794122.31282
1568794122.32845
1568794122.34407
1568794122.3597
1568794122.37532
1568794122.39095
1568794122.40657
1568794122.4222
1568794122.43783
1568794122.45345
1568794122.46908
1568794122.4847
1568794122.50033
1568794122.51595
1568794122.53158
1568794122.54721
1568794122.56283
1568794122.57846
1568794122.59408
1568794122.60971
1568794122.62533
1568794122.64096
1568794122.65659
1568794122.67221
1568794122.68784
1568794122.70346
1568794122.71909
1568794122.73471
1568794122.75034
1568794122.76597
1568794122.78159
1568794122.79722
1568794122.81284
1568794122.82847
1568794122.84409
1568794122.85972
1568794122.87535
1568794122.89097
1568794122.9066
1568794122.92222
1568794122.93785
1568794122.95348
1568794122.9691
1568794122.98473
1568794123.00035
1568794123.01598
1568794123.0316
1568794123.04723
1568794123.06286
1568794123.07848
1568794123.09411
1568794123.10973
1568794123.12536
1568794123.14098
1568794123.15661
1568794123.17224
1568794123.18786
1568794123.20349
1568794123.21911
1568794123.23474
1568794123.25036
1568794123.26599
1568794123.28162
1568794123.29724
1568794123.31287
1568794123.32849
1568794123.34412
1568794123.35974
1568794123.37537
1568794123.391
1568794123.40662
1568794123.42225
1568794123.43787
1568794123.4535
1568794123.46912
1568794123.48475
1568794123.50038
1568794123.516
1568794123.53163
1568794123.54725
1568794123.56288
1568794123.5785
1568794123.59413
1568794123.60976
1568794123.62538
1568794123.64101
1568794123.65663
1568794123.67226
1568794123.68788
1568794123.70351
1568794123.71914
1568794123.73476
1568794123.75039
1568794123.76601
1568794123.78164
1568794123.79726
1568794123.81289
1568794123.82852
1568794123.84414
1568794123.85977
1568794123.87539
1568794123.89102
1568794123.90664
1568794123.92227
1568794123.9379
1568794123.95352
1568794123.96915
1568794123.98477
1568794124.0004
1568794124.01602
1568794124.03165
1568794124.04728
1568794124.0629
1568794124.07853
1568794124.09415
1568794124.10978
1568794124.1254
1568794124.14103
1568794124.15666
1568794124.17228
1568794124.18791
1568794124.20353
1568794124.21916
1568794124.23478
1568794124.25041
1568794124.26604
1568794124.28166
1568794124.29729
1568794124.31291
1568794124.32854
1568794124.34416
1568794124.35979
1568794124.37542
1568794124.39104
1568794124.40667
1568794124.42229
1568794124.43792
1568794124.45354
1568794124.46917
1568794124.4848
1568794124.50042
1568794124.51605
1568794124.53167
1568794124.5473
1568794124.56292
1568794124.57855
1568794124.59418
1568794124.6098
1568794124.62543
1568794124.64105
1568794124.65668
1568794124.6723
1568794124.68793
1568794124.70356
1568794124.71918
1568794124.73481
1568794124.75043
1568794124.76606
1568794124.78168
1568794124.79731
1568794124.81294
1568794124.82856
1568794124.84419
1568794124.85981
1568794124.87544
1568794124.89106
1568794124.90669
1568794124.92232
1568794124.93794
1568794124.95357
1568794124.96919
1568794124.98482
1568794125.00044
1568794125.01607
1568794125.0317
1568794125.04732
1568794125.06295
1568794125.07857
1568794125.0942
1568794125.10982
1568794125.12545
1568794125.14108
1568794125.1567
1568794125.17233
1568794125.18795
1568794125.20358
1568794125.2192
1568794125.23483
1568794125.25046
1568794125.26608
1568794125.28171
1568794125.29733
1568794125.31296
1568794125.32858
1568794125.34421
1568794125.35984
1568794125.37546
1568794125.39109
1568794125.40671
1568794125.42234
1568794125.43796
1568794125.45359
1568794125.46922
1568794125.48484
1568794125.50047
1568794125.51609
1568794125.53172
1568794125.54734
1568794125.56297
1568794125.5786
1568794125.59422
1568794125.60985
1568794125.62547
1568794125.6411
1568794125.65673
1568794125.67235
1568794125.68798
1568794125.7036
1568794125.71923
1568794125.73485
1568794125.75048
1568794125.76611
1568794125.78173
1568794125.79736
1568794125.81298
1568794125.82861
1568794125.84423
1568794125.85986
1568794125.87549
1568794125.89111
1568794125.90674
1568794125.92236
1568794125.93799
1568794125.95361
1568794125.96924
1568794125.98487
1568794126.00049
1568794126.01612
1568794126.03174
1568794126.04737
1568794126.06299
1568794126.07862
1568794126.09425
1568794126.10987
1568794126.1255
1568794126.14112
1568794126.15675
1568794126.17237
1568794126.188
1568794126.20363
1568794126.21925
1568794126.23488
1568794126.2505
1568794126.26613
1568794126.28175
1568794126.29738
1568794126.31301
1568794126.32863
1568794126.34426
1568794126.35988
1568794126.37551
1568794126.39113
1568794126.40676
1568794126.42239
1568794126.43801
1568794126.45364
1568794126.46926
1568794126.48489
1568794126.50051
1568794126.51614
1568794126.53177
1568794126.54739
1568794126.56302
1568794126.57864
1568794126.59427
1568794126.60989
1568794126.62552
1568794126.64115
1568794126.65677
1568794126.6724
1568794126.68802
1568794126.70365
1568794126.71927
1568794126.7349
1568794126.75053
1568794126.76615
1568794126.78178
1568794126.7974
1568794126.81303
1568794126.82865
1568794126.84428
1568794126.85991
1568794126.87553
1568794126.89116
1568794126.90678
1568794126.92241
1568794126.93803
1568794126.95366
1568794126.96929
1568794126.98491
1568794127.00054
1568794127.01616
1568794127.03179
1568794127.04741
1568794127.06304
1568794127.07867
1568794127.09429
1568794127.10992
1568794127.12554
1568794127.14117
1568794127.15679
1568794127.17242
1568794127.18805
1568794127.20367
1568794127.2193
1568794127.23492
1568794127.25055
1568794127.26617
1568794127.2818
1568794127.29743
1568794127.31305
1568794127.32868
1568794127.3443
1568794127.35993
1568794127.37555
1568794127.39118
1568794127.40681
1568794127.42243
1568794127.43806
1568794127.45368
1568794127.46931
1568794127.48493
1568794127.50056
1568794127.51619
1568794127.53181
1568794127.54744
1568794127.56306
1568794127.57869
1568794127.59431
1568794127.60994
1568794127.62557
1568794127.64119
1568794127.65682
1568794127.67244
1568794127.68807
1568794127.70369
1568794127.71932
1568794127.73495
1568794127.75057
1568794127.7662
1568794127.78182
1568794127.79745
1568794127.81308
1568794127.8287
1568794127.84433
1568794127.85995
1568794127.87558
1568794127.8912
1568794127.90683
1568794127.92246
1568794127.93808
1568794127.95371
1568794127.96933
1568794127.98496
1568794128.00058
1568794128.01621
1568794128.03184
1568794128.04746
1568794128.06309
1568794128.07871
1568794128.09434
1568794128.10996
1568794128.12559
1568794128.14122
1568794128.15684
1568794128.17247
1568794128.18809
1568794128.20372
1568794128.21934
1568794128.23497
1568794128.2506
1568794128.26622
1568794128.28185
1568794128.29747
1568794128.3131
1568794128.32872
1568794128.34435
1568794128.35998
1568794128.3756
1568794128.39123
1568794128.40685
1568794128.42248
1568794128.4381
1568794128.45373
1568794128.46936
1568794128.48498
1568794128.50061
1568794128.51623
1568794128.53186
1568794128.54748
1568794128.56311
1568794128.57874
1568794128.59436
1568794128.60999
1568794128.62561
1568794128.64124
1568794128.65686
1568794128.67249
1568794128.68812
1568794128.70374
1568794128.71937
1568794128.73499
1568794128.75062
1568794128.76624
1568794128.78187
1568794128.7975
1568794128.81312
1568794128.82875
1568794128.84437
1568794128.86
1568794128.87562
1568794128.89125
1568794128.90688
1568794128.9225
1568794128.93813
1568794128.95375
1568794128.96938
1568794128.985
1568794129.00063
1568794129.01626
1568794129.03188
1568794129.04751
1568794129.06313
1568794129.07876
1568794129.09438
1568794129.11001
1568794129.12564
1568794129.14126
1568794129.15689
1568794129.17251
1568794129.18814
1568794129.20376
1568794129.21939
1568794129.23502
1568794129.25064
1568794129.26627
1568794129.28189
1568794129.29752
1568794129.31314
1568794129.32877
1568794129.3444
1568794129.36002
1568794129.37565
1568794129.39127
1568794129.4069
1568794129.42252
1568794129.43815
1568794129.45378
1568794129.4694
1568794129.48503
1568794129.50065
1568794129.51628
1568794129.5319
1568794129.54753
1568794129.56316
1568794129.57878
1568794129.59441
1568794129.61003
1568794129.62566
1568794129.64128
1568794129.65691
1568794129.67254
1568794129.68816
1568794129.70379
1568794129.71941
1568794129.73504
1568794129.75066
1568794129.76629
1568794129.78192
1568794129.79754
1568794129.81317
1568794129.82879
1568794129.84442
1568794129.86004
1568794129.87567
1568794129.8913
1568794129.90692
1568794129.92255
1568794129.93817
1568794129.9538
1568794129.96942
1568794129.98505
1568794130.00068
1568794130.0163
1568794130.03193
1568794130.04755
1568794130.06318
1568794130.0788
1568794130.09443
1568794130.11006
1568794130.12568
1568794130.14131
1568794130.15693
1568794130.17256
1568794130.18818
1568794130.20381
1568794130.21944
1568794130.23506
1568794130.25069
1568794130.26631
1568794130.28194
1568794130.29756
1568794130.31319
1568794130.32882
1568794130.34444
1568794130.36007
1568794130.37569
1568794130.39132
1568794130.40694
1568794130.42257
1568794130.4382
1568794130.45382
1568794130.46945
1568794130.48507
1568794130.5007
1568794130.51633
1568794130.53195
1568794130.54758
1568794130.5632
1568794130.57883
1568794130.59445
1568794130.61008
1568794130.62571
1568794130.64133
1568794130.65696
1568794130.67258
1568794130.68821
1568794130.70383
1568794130.71946
1568794130.73509
1568794130.75071
1568794130.76634
1568794130.78196
1568794130.79759
1568794130.81321
1568794130.82884
1568794130.84447
1568794130.86009
1568794130.87572
1568794130.89134
1568794130.90697
1568794130.92259
1568794130.93822
1568794130.95385
1568794130.96947
1568794130.9851
1568794131.00072
1568794131.01635
1568794131.03197
1568794131.0476
1568794131.06323
1568794131.07885
1568794131.09448
1568794131.1101
1568794131.12573
1568794131.14135
1568794131.15698
1568794131.17261
1568794131.18823
1568794131.20386
1568794131.21948
1568794131.23511
1568794131.25073
1568794131.26636
1568794131.28199
1568794131.29761
1568794131.31324
1568794131.32886
1568794131.34449
1568794131.36011
1568794131.37574
1568794131.39137
1568794131.40699
1568794131.42262
1568794131.43824
1568794131.45387
1568794131.46949
1568794131.48512
1568794131.50075
1568794131.51637
1568794131.532
1568794131.54762
1568794131.56325
1568794131.57887
1568794131.5945
1568794131.61013
1568794131.62575
1568794131.64138
1568794131.657
1568794131.67263
1568794131.68825
1568794131.70388
1568794131.71951
1568794131.73513
1568794131.75076
1568794131.76638
1568794131.78201
1568794131.79763
1568794131.81326
1568794131.82889
1568794131.84451
1568794131.86014
1568794131.87576
1568794131.89139
1568794131.90701
1568794131.92264
1568794131.93827
1568794131.95389
1568794131.96952
1568794131.98514
1568794132.00077
1568794132.01639
1568794132.03202
1568794132.04765
1568794132.06327
1568794132.0789
1568794132.09452
1568794132.11015
1568794132.12577
1568794132.1414
1568794132.15703
1568794132.17265
1568794132.18828
1568794132.2039
1568794132.21953
1568794132.23515
1568794132.25078
1568794132.26641
1568794132.28203
1568794132.29766
1568794132.31328
1568794132.32891
1568794132.34453
1568794132.36016
1568794132.37579
1568794132.39141
1568794132.40704
1568794132.42266
1568794132.43829
1568794132.45391
1568794132.46954
1568794132.48517
1568794132.50079
1568794132.51642
1568794132.53204
1568794132.54767
1568794132.56329
1568794132.57892
1568794132.59455
1568794132.61017
1568794132.6258
1568794132.64142
1568794132.65705
1568794132.67267
1568794132.6883
1568794132.70393
1568794132.71955
1568794132.73518
1568794132.7508
1568794132.76643
1568794132.78206
1568794132.79768
1568794132.81331
1568794132.82893
1568794132.84456
1568794132.86018
1568794132.87581
1568794132.89144
1568794132.90706
1568794132.92269
1568794132.93831
1568794132.95394
1568794132.96956
1568794132.98519
1568794133.00082
1568794133.01644
1568794133.03207
1568794133.04769
1568794133.06332
1568794133.07894
1568794133.09457
1568794133.1102
1568794133.12582
1568794133.14145
1568794133.15707
1568794133.1727
1568794133.18832
1568794133.20395
1568794133.21958
1568794133.2352
1568794133.25083
1568794133.26645
1568794133.28208
1568794133.2977
1568794133.31333
1568794133.32896
1568794133.34458
1568794133.36021
1568794133.37583
1568794133.39146
1568794133.40708
1568794133.42271
1568794133.43834
1568794133.45396
1568794133.46959
1568794133.48521
1568794133.50084
1568794133.51646
1568794133.53209
1568794133.54772
1568794133.56334
1568794133.57897
1568794133.59459
1568794133.61022
1568794133.62584
1568794133.64147
1568794133.6571
1568794133.67272
1568794133.68835
1568794133.70397
1568794133.7196
1568794133.73522
1568794133.75085
1568794133.76648
1568794133.7821
1568794133.79773
1568794133.81335
1568794133.82898
1568794133.8446
1568794133.86023
1568794133.87586
1568794133.89148
1568794133.90711
1568794133.92273
1568794133.93836
1568794133.95398
1568794133.96961
1568794133.98524
1568794134.00086
1568794134.01649
1568794134.03211
1568794134.04774
1568794134.06336
1568794134.07899
1568794134.09462
1568794134.11024
1568794134.12587
1568794134.14149
1568794134.15712
1568794134.17274
1568794134.18837
1568794134.204
1568794134.21962
1568794134.23525
1568794134.25087
1568794134.2665
1568794134.28212
1568794134.29775
1568794134.31338
1568794134.329
1568794134.34463
1568794134.36025
1568794134.37588
1568794134.3915
1568794134.40713
1568794134.42276
1568794134.43838
1568794134.45401
1568794134.46963
1568794134.48526
1568794134.50088
1568794134.51651
1568794134.53214
1568794134.54776
1568794134.56339
1568794134.57901
1568794134.59464
1568794134.61026
1568794134.62589
1568794134.64152
1568794134.65714
1568794134.67277
1568794134.68839
1568794134.70402
1568794134.71964
1568794134.73527
1568794134.7509
1568794134.76652
1568794134.78215
1568794134.79777
1568794134.8134
1568794134.82902
1568794134.84465
1568794134.86028
1568794134.8759
1568794134.89153
1568794134.90715
1568794134.92278
1568794134.93841
1568794134.95403
1568794134.96966
1568794134.98528
1568794135.00091
1568794135.01653
1568794135.03216
1568794135.04779
1568794135.06341
1568794135.07904
1568794135.09466
1568794135.11029
1568794135.12591
1568794135.14154
1568794135.15717
1568794135.17279
1568794135.18842
1568794135.20404
1568794135.21967
1568794135.23529
1568794135.25092
1568794135.26655
1568794135.28217
1568794135.2978
1568794135.31342
1568794135.32905
1568794135.34467
1568794135.3603
1568794135.37593
1568794135.39155
1568794135.40718
1568794135.4228
1568794135.43843
1568794135.45405
1568794135.46968
1568794135.48531
1568794135.50093
1568794135.51656
1568794135.53218
1568794135.54781
1568794135.56343
1568794135.57906
1568794135.59469
1568794135.61031
1568794135.62594
1568794135.64156
1568794135.65719
1568794135.67281
1568794135.68844
1568794135.70407
1568794135.71969
1568794135.73532
1568794135.75094
1568794135.76657
1568794135.78219
1568794135.79782
1568794135.81345
1568794135.82907
1568794135.8447
1568794135.86032
1568794135.87595
1568794135.89157
1568794135.9072
1568794135.92283
1568794135.93845
1568794135.95408
1568794135.9697
1568794135.98533
1568794136.00095
1568794136.01658
1568794136.03221
1568794136.04783
1568794136.06346
1568794136.07908
1568794136.09471
1568794136.11033
1568794136.12596
1568794136.14159
1568794136.15721
1568794136.17284
1568794136.18846
1568794136.20409
1568794136.21971
1568794136.23534
1568794136.25097
1568794136.26659
1568794136.28222
1568794136.29784
1568794136.31347
1568794136.32909
1568794136.34472
1568794136.36035
1568794136.37597
1568794136.3916
1568794136.40722
1568794136.42285
1568794136.43847
1568794136.4541
1568794136.46973
1568794136.48535
1568794136.50098
1568794136.5166
1568794136.53223
1568794136.54785
1568794136.56348
1568794136.57911
1568794136.59473
1568794136.61036
1568794136.62598
1568794136.64161
1568794136.65723
1568794136.67286
1568794136.68849
1568794136.70411
1568794136.71974
1568794136.73536
1568794136.75099
1568794136.76661
1568794136.78224
1568794136.79787
1568794136.81349
1568794136.82912
1568794136.84474
1568794136.86037
1568794136.87599
1568794136.89162
1568794136.90725
1568794136.92287
1568794136.9385
1568794136.95412
1568794136.96975
1568794136.98537
1568794137.001
1568794137.01663
1568794137.03225
1568794137.04788
1568794137.0635
1568794137.07913
1568794137.09475
1568794137.11038
1568794137.12601
1568794137.14163
1568794137.15726
1568794137.17288
1568794137.18851
1568794137.20413
1568794137.21976
1568794137.23539
1568794137.25101
1568794137.26664
1568794137.28226
1568794137.29789
1568794137.31351
1568794137.32914
1568794137.34477
1568794137.36039
1568794137.37602
1568794137.39164
1568794137.40727
1568794137.42289
1568794137.43852
1568794137.45415
1568794137.46977
1568794137.4854
1568794137.50102
1568794137.51665
1568794137.53227
1568794137.5479
1568794137.56353
1568794137.57915
1568794137.59478
1568794137.6104
1568794137.62603
1568794137.64166
1568794137.65728
1568794137.67291
1568794137.68853
1568794137.70416
1568794137.71978
1568794137.73541
1568794137.75104
1568794137.76666
1568794137.78229
1568794137.79791
1568794137.81354
1568794137.82916
1568794137.84479
1568794137.86042
1568794137.87604
1568794137.89167
1568794137.90729
1568794137.92292
1568794137.93854
1568794137.95417
1568794137.9698
1568794137.98542
1568794138.00105
1568794138.01667
1568794138.0323
1568794138.04792
1568794138.06355
1568794138.07918
1568794138.0948
1568794138.11043
1568794138.12605
1568794138.14168
1568794138.1573
1568794138.17293
1568794138.18856
1568794138.20418
1568794138.21981
1568794138.23543
1568794138.25106
1568794138.26668
1568794138.28231
1568794138.29794
1568794138.31356
1568794138.32919
1568794138.34481
1568794138.36044
1568794138.37606
1568794138.39169
1568794138.40732
1568794138.42294
1568794138.43857
1568794138.45419
1568794138.46982
1568794138.48544
1568794138.50107
1568794138.5167
1568794138.53232
1568794138.54795
1568794138.56357
1568794138.5792
1568794138.59482
1568794138.61045
1568794138.62608
1568794138.6417
1568794138.65733
1568794138.67295
1568794138.68858
1568794138.7042
1568794138.71983
1568794138.73546
1568794138.75108
1568794138.76671
1568794138.78233
1568794138.79796
1568794138.81358
1568794138.82921
1568794138.84484
1568794138.86046
1568794138.87609
1568794138.89171
1568794138.90734
1568794138.92296
1568794138.93859
1568794138.95422
1568794138.96984
1568794138.98547
1568794139.00109
1568794139.01672
1568794139.03234
1568794139.04797
1568794139.0636
1568794139.07922
1568794139.09485
1568794139.11047
1568794139.1261
1568794139.14172
1568794139.15735
1568794139.17298
1568794139.1886
1568794139.20423
1568794139.21985
1568794139.23548
1568794139.2511
1568794139.26673
1568794139.28236
1568794139.29798
1568794139.31361
1568794139.32923
1568794139.34486
1568794139.36048
1568794139.37611
1568794139.39174
1568794139.40736
1568794139.42299
1568794139.43861
1568794139.45424
1568794139.46986
1568794139.48549
1568794139.50112
1568794139.51674
1568794139.53237
1568794139.54799
1568794139.56362
1568794139.57924
1568794139.59487
1568794139.6105
1568794139.62612
1568794139.64175
1568794139.65737
1568794139.673
1568794139.68862
1568794139.70425
1568794139.71988
1568794139.7355
1568794139.75113
1568794139.76675
1568794139.78238
1568794139.79801
1568794139.81363
1568794139.82926
1568794139.84488
1568794139.86051
1568794139.87613
1568794139.89176
1568794139.90739
1568794139.92301
1568794139.93864
1568794139.95426
1568794139.96989
1568794139.98551
1568794140.00114
1568794140.01677
1568794140.03239
1568794140.04802
1568794140.06364
1568794140.07927
1568794140.09489
1568794140.11052
1568794140.12615
1568794140.14177
1568794140.1574
1568794140.17302
1568794140.18865
1568794140.20427
1568794140.2199
1568794140.23553
1568794140.25115
1568794140.26678
1568794140.2824
1568794140.29803
1568794140.31365
1568794140.32928
1568794140.34491
1568794140.36053
1568794140.37616
1568794140.39178
1568794140.40741
1568794140.42303
1568794140.43866
1568794140.45429
1568794140.46991
1568794140.48554
1568794140.50116
1568794140.51679
1568794140.53241
1568794140.54804
1568794140.56367
1568794140.57929
1568794140.59492
1568794140.61054
1568794140.62617
1568794140.64179
1568794140.65742
1568794140.67305
1568794140.68867
1568794140.7043
1568794140.71992
1568794140.73555
1568794140.75117
1568794140.7668
1568794140.78243
1568794140.79805
1568794140.81368
1568794140.8293
1568794140.84493
1568794140.86055
1568794140.87618
1568794140.89181
1568794140.90743
1568794140.92306
1568794140.93868
1568794140.95431
1568794140.96993
1568794140.98556
1568794141.00119
1568794141.01681
1568794141.03244
1568794141.04806
1568794141.06369
1568794141.07931
1568794141.09494
1568794141.11057
1568794141.12619
1568794141.14182
1568794141.15744
1568794141.17307
1568794141.18869
1568794141.20432
1568794141.21995
1568794141.23557
1568794141.2512
1568794141.26682
1568794141.28245
1568794141.29807
1568794141.3137
1568794141.32933
1568794141.34495
1568794141.36058
1568794141.3762
1568794141.39183
1568794141.40745
1568794141.42308
1568794141.43871
1568794141.45433
1568794141.46996
1568794141.48558
1568794141.50121
1568794141.51683
1568794141.53246
1568794141.54809
1568794141.56371
1568794141.57934
1568794141.59496
1568794141.61059
1568794141.62621
1568794141.64184
1568794141.65747
1568794141.67309
1568794141.68872
1568794141.70434
1568794141.71997
1568794141.73559
1568794141.75122
1568794141.76685
1568794141.78247
1568794141.7981
1568794141.81372
1568794141.82935
1568794141.84497
1568794141.8606
1568794141.87623
1568794141.89185
1568794141.90748
1568794141.9231
1568794141.93873
1568794141.95435
1568794141.96998
1568794141.98561
1568794142.00123
1568794142.01686
1568794142.03248
1568794142.04811
1568794142.06374
1568794142.07936
1568794142.09499
1568794142.11061
1568794142.12624
1568794142.14186
1568794142.15749
1568794142.17312
1568794142.18874
1568794142.20437
1568794142.21999
1568794142.23562
1568794142.25124
1568794142.26687
1568794142.2825
1568794142.29812
1568794142.31375
1568794142.32937
1568794142.345
1568794142.36062
1568794142.37625
1568794142.39188
1568794142.4075
1568794142.42313
1568794142.43875
1568794142.45438
1568794142.47
1568794142.48563
1568794142.50126
1568794142.51688
1568794142.53251
1568794142.54813
1568794142.56376
1568794142.57938
1568794142.59501
1568794142.61064
1568794142.62626
1568794142.64189
1568794142.65751
1568794142.67314
1568794142.68876
1568794142.70439
1568794142.72002
1568794142.73564
1568794142.75127
1568794142.76689
1568794142.78252
1568794142.79814
1568794142.81377
1568794142.8294
1568794142.84502
1568794142.86065
1568794142.87627
1568794142.8919
1568794142.90752
1568794142.92315
1568794142.93878
1568794142.9544
1568794142.97003
1568794142.98565
1568794143.00128
1568794143.0169
1568794143.03253
1568794143.04816
1568794143.06378
1568794143.07941
1568794143.09503
1568794143.11066
1568794143.12628
1568794143.14191
1568794143.15754
1568794143.17316
1568794143.18879
1568794143.20441
1568794143.22004
1568794143.23566
1568794143.25129
1568794143.26692
1568794143.28254
1568794143.29817
1568794143.31379
1568794143.32942
1568794143.34504
1568794143.36067
1568794143.3763
1568794143.39192
1568794143.40755
1568794143.42317
1568794143.4388
1568794143.45442
1568794143.47005
1568794143.48568
1568794143.5013
1568794143.51693
1568794143.53255
1568794143.54818
1568794143.5638
1568794143.57943
1568794143.59506
1568794143.61068
1568794143.62631
1568794143.64193
1568794143.65756
1568794143.67318
1568794143.68881
1568794143.70444
1568794143.72006
1568794143.73569
1568794143.75131
1568794143.76694
1568794143.78256
1568794143.79819
1568794143.81382
1568794143.82944
1568794143.84507
1568794143.86069
1568794143.87632
1568794143.89194
1568794143.90757
1568794143.9232
1568794143.93882
1568794143.95445
1568794143.97007
1568794143.9857
1568794144.00132
1568794144.01695
1568794144.03258
1568794144.0482
1568794144.06383
1568794144.07945
1568794144.09508
1568794144.1107
1568794144.12633
1568794144.14196
1568794144.15758
1568794144.17321
1568794144.18883
1568794144.20446
1568794144.22008
1568794144.23571
1568794144.25134
1568794144.26696
1568794144.28259
1568794144.29821
1568794144.31384
1568794144.32946
1568794144.34509
1568794144.36072
1568794144.37634
1568794144.39197
1568794144.40759
1568794144.42322
1568794144.43884
1568794144.45447
1568794144.4701
1568794144.48572
1568794144.50135
1568794144.51697
1568794144.5326
1568794144.54822
1568794144.56385
1568794144.57948
1568794144.5951
1568794144.61073
1568794144.62635
1568794144.64198
1568794144.65761
1568794144.67323
1568794144.68886
1568794144.70448
1568794144.72011
1568794144.73573
1568794144.75136
1568794144.76699
1568794144.78261
1568794144.79824
1568794144.81386
1568794144.82949
1568794144.84511
1568794144.86074
1568794144.87637
1568794144.89199
1568794144.90762
1568794144.92324
1568794144.93887
1568794144.95449
1568794144.97012
1568794144.98575
1568794145.00137
1568794145.017
1568794145.03262
1568794145.04825
1568794145.06387
1568794145.0795
1568794145.09513
1568794145.11075
1568794145.12638
1568794145.142
1568794145.15763
1568794145.17325
1568794145.18888
1568794145.20451
1568794145.22013
1568794145.23576
1568794145.25138
1568794145.26701
1568794145.28263
1568794145.29826
1568794145.31389
1568794145.32951
1568794145.34514
1568794145.36076
1568794145.37639
1568794145.39201
1568794145.40764
1568794145.42327
1568794145.43889
1568794145.45452
1568794145.47014
1568794145.48577
1568794145.50139
1568794145.51702
1568794145.53265
1568794145.54827
1568794145.5639
1568794145.57952
1568794145.59515
1568794145.61077
1568794145.6264
1568794145.64203
1568794145.65765
1568794145.67328
1568794145.6889
1568794145.70453
1568794145.72015
1568794145.73578
1568794145.75141
1568794145.76703
1568794145.78266
1568794145.79828
1568794145.81391
1568794145.82953
1568794145.84516
1568794145.86079
1568794145.87641
1568794145.89204
1568794145.90766
1568794145.92329
1568794145.93891
1568794145.95454
1568794145.97017
1568794145.98579
1568794146.00142
1568794146.01704
1568794146.03267
1568794146.04829
1568794146.06392
1568794146.07955
1568794146.09517
1568794146.1108
1568794146.12642
1568794146.14205
1568794146.15767
1568794146.1733
1568794146.18893
1568794146.20455
1568794146.22018
1568794146.2358
1568794146.25143
1568794146.26705
1568794146.28268
1568794146.29831
1568794146.31393
1568794146.32956
1568794146.34518
1568794146.36081
1568794146.37643
1568794146.39206
1568794146.40769
1568794146.42331
1568794146.43894
1568794146.45456
1568794146.47019
1568794146.48581
1568794146.50144
1568794146.51707
1568794146.53269
1568794146.54832
1568794146.56394
1568794146.57957
1568794146.59519
1568794146.61082
1568794146.62645
1568794146.64207
1568794146.6577
1568794146.67332
1568794146.68895
1568794146.70457
1568794146.7202
1568794146.73583
1568794146.75145
1568794146.76708
1568794146.7827
1568794146.79833
1568794146.81395
1568794146.82958
1568794146.84521
1568794146.86083
1568794146.87646
1568794146.89208
1568794146.90771
1568794146.92334
1568794146.93896
1568794146.95459
1568794146.97021
1568794146.98584
1568794147.00146
1568794147.01709
1568794147.03272
1568794147.04834
1568794147.06397
1568794147.07959
1568794147.09522
1568794147.11084
1568794147.12647
1568794147.1421
1568794147.15772
1568794147.17335
1568794147.18897
1568794147.2046
1568794147.22022
1568794147.23585
1568794147.25148
1568794147.2671
1568794147.28273
1568794147.29835
1568794147.31398
1568794147.3296
1568794147.34523
1568794147.36086
1568794147.37648
1568794147.39211
1568794147.40773
1568794147.42336
1568794147.43898
1568794147.45461
1568794147.47024
1568794147.48586
1568794147.50149
1568794147.51711
1568794147.53274
1568794147.54836
1568794147.56399
1568794147.57962
1568794147.59524
1568794147.61087
1568794147.62649
1568794147.64212
1568794147.65774
1568794147.67337
1568794147.689
1568794147.70462
1568794147.72025
1568794147.73587
1568794147.7515
1568794147.76712
1568794147.78275
1568794147.79838
1568794147.814
1568794147.82963
1568794147.84525
1568794147.86088
1568794147.8765
1568794147.89213
1568794147.90776
1568794147.92338
1568794147.93901
1568794147.95463
1568794147.97026
1568794147.98588
1568794148.00151
1568794148.01714
1568794148.03276
1568794148.04839
1568794148.06401
1568794148.07964
1568794148.09526
1568794148.11089
1568794148.12652
1568794148.14214
1568794148.15777
1568794148.17339
1568794148.18902
1568794148.20464
1568794148.22027
1568794148.2359
1568794148.25152
1568794148.26715
1568794148.28277
1568794148.2984
1568794148.31402
1568794148.32965
1568794148.34528
1568794148.3609
1568794148.37653
1568794148.39215
1568794148.40778
1568794148.4234
1568794148.43903
1568794148.45466
1568794148.47028
1568794148.48591
1568794148.50153
1568794148.51716
1568794148.53278
1568794148.54841
1568794148.56404
1568794148.57966
1568794148.59529
1568794148.61091
1568794148.62654
1568794148.64216
1568794148.65779
1568794148.67342
1568794148.68904
1568794148.70467
1568794148.72029
1568794148.73592
1568794148.75154
1568794148.76717
1568794148.7828
1568794148.79842
1568794148.81405
1568794148.82967
1568794148.8453
1568794148.86092
1568794148.87655
1568794148.89218
1568794148.9078
1568794148.92343
1568794148.93905
1568794148.95468
1568794148.9703
1568794148.98593
1568794149.00156
1568794149.01718
1568794149.03281
1568794149.04843
1568794149.06406
1568794149.07968
1568794149.09531
1568794149.11094
1568794149.12656
1568794149.14219
1568794149.15781
1568794149.17344
1568794149.18906
1568794149.20469
1568794149.22032
1568794149.23594
1568794149.25157
1568794149.26719
1568794149.28282
1568794149.29844
1568794149.31407
1568794149.3297
1568794149.34532
1568794149.36095
1568794149.37657
1568794149.3922
1568794149.40782
1568794149.42345
1568794149.43908
1568794149.4547
1568794149.47033
1568794149.48595
1568794149.50158
1568794149.51721
1568794149.53283
1568794149.54846
1568794149.56408
1568794149.57971
1568794149.59533
1568794149.61096
1568794149.62659
1568794149.64221
1568794149.65784
1568794149.67346
1568794149.68909
1568794149.70471
1568794149.72034
1568794149.73597
1568794149.75159
1568794149.76722
1568794149.78284
1568794149.79847
1568794149.81409
1568794149.82972
1568794149.84535
1568794149.86097
1568794149.8766
1568794149.89222
1568794149.90785
1568794149.92347
1568794149.9391
1568794149.95473
1568794149.97035
1568794149.98598
1568794150.0016
1568794150.01723
1568794150.03285
1568794150.04848
1568794150.06411
1568794150.07973
1568794150.09536
1568794150.11098
1568794150.12661
1568794150.14223
1568794150.15786
1568794150.17349
1568794150.18911
1568794150.20474
1568794150.22036
1568794150.23599
1568794150.25161
1568794150.26724
1568794150.28287
1568794150.29849
1568794150.31412
1568794150.32974
1568794150.34537
1568794150.36099
1568794150.37662
1568794150.39225
1568794150.40787
1568794150.4235
1568794150.43912
1568794150.45475
1568794150.47037
1568794150.486
1568794150.50163
1568794150.51725
1568794150.53288
1568794150.5485
1568794150.56413
1568794150.57975
1568794150.59538
1568794150.61101
1568794150.62663
1568794150.64226
1568794150.65788
1568794150.67351
1568794150.68913
1568794150.70476
1568794150.72039
1568794150.73601
1568794150.75164
1568794150.76726
1568794150.78289
1568794150.79851
1568794150.81414
1568794150.82977
1568794150.84539
1568794150.86102
1568794150.87664
1568794150.89227
1568794150.90789
1568794150.92352
1568794150.93915
1568794150.95477
1568794150.9704
1568794150.98602
1568794151.00165
1568794151.01727
1568794151.0329
1568794151.04853
1568794151.06415
1568794151.07978
1568794151.0954
1568794151.11103
1568794151.12665
1568794151.14228
1568794151.15791
1568794151.17353
1568794151.18916
1568794151.20478
1568794151.22041
1568794151.23603
1568794151.25166
1568794151.26729
1568794151.28291
1568794151.29854
1568794151.31416
1568794151.32979
1568794151.34541
1568794151.36104
1568794151.37667
1568794151.39229
1568794151.40792
1568794151.42354
1568794151.43917
1568794151.45479
1568794151.47042
1568794151.48605
1568794151.50167
1568794151.5173
1568794151.53292
1568794151.54855
1568794151.56417
1568794151.5798
1568794151.59543
1568794151.61105
1568794151.62668
1568794151.6423
1568794151.65793
1568794151.67355
1568794151.68918
1568794151.70481
1568794151.72043
1568794151.73606
1568794151.75168
1568794151.76731
1568794151.78294
1568794151.79856
1568794151.81419
1568794151.82981
1568794151.84544
1568794151.86106
1568794151.87669
1568794151.89232
1568794151.90794
1568794151.92357
1568794151.93919
1568794151.95482
1568794151.97044
1568794151.98607
1568794152.0017
1568794152.01732
1568794152.03295
1568794152.04857
1568794152.0642
1568794152.07982
1568794152.09545
1568794152.11108
1568794152.1267
1568794152.14233
1568794152.15795
1568794152.17358
1568794152.1892
1568794152.20483
1568794152.22046
1568794152.23608
1568794152.25171
1568794152.26733
1568794152.28296
1568794152.29858
1568794152.31421
1568794152.32984
1568794152.34546
1568794152.36109
1568794152.37671
1568794152.39234
1568794152.40796
1568794152.42359
1568794152.43922
1568794152.45484
1568794152.47047
1568794152.48609
1568794152.50172
1568794152.51734
1568794152.53297
1568794152.5486
1568794152.56422
1568794152.57985
1568794152.59547
1568794152.6111
1568794152.62672
1568794152.64235
1568794152.65798
1568794152.6736
1568794152.68923
1568794152.70485
1568794152.72048
1568794152.7361
1568794152.75173
1568794152.76736
1568794152.78298
1568794152.79861
1568794152.81423
1568794152.82986
1568794152.84548
1568794152.86111
1568794152.87674
1568794152.89236
1568794152.90799
1568794152.92361
1568794152.93924
1568794152.95486
1568794152.97049
1568794152.98612
1568794153.00174
1568794153.01737
1568794153.03299
1568794153.04862
1568794153.06424
1568794153.07987
1568794153.0955
1568794153.11112
1568794153.12675
1568794153.14237
1568794153.158
1568794153.17362
1568794153.18925
1568794153.20488
1568794153.2205
1568794153.23613
1568794153.25175
1568794153.26738
1568794153.283
1568794153.29863
1568794153.31426
1568794153.32988
1568794153.34551
1568794153.36113
1568794153.37676
1568794153.39238
1568794153.40801
1568794153.42364
1568794153.43926
1568794153.45489
1568794153.47051
1568794153.48614
1568794153.50176
1568794153.51739
1568794153.53302
1568794153.54864
1568794153.56427
1568794153.57989
1568794153.59552
1568794153.61114
1568794153.62677
1568794153.6424
1568794153.65802
1568794153.67365
1568794153.68927
1568794153.7049
1568794153.72052
1568794153.73615
1568794153.75178
1568794153.7674
1568794153.78303
1568794153.79865
1568794153.81428
1568794153.8299
1568794153.84553
1568794153.86116
1568794153.87678
1568794153.89241
1568794153.90803
1568794153.92366
1568794153.93929
1568794153.95491
1568794153.97054
1568794153.98616
1568794154.00179
1568794154.01741
1568794154.03304
1568794154.04867
1568794154.06429
1568794154.07992
1568794154.09554
1568794154.11117
1568794154.12679
1568794154.14242
1568794154.15805
1568794154.17367
1568794154.1893
1568794154.20492
1568794154.22055
1568794154.23617
1568794154.2518
1568794154.26743
1568794154.28305
1568794154.29868
1568794154.3143
1568794154.32993
1568794154.34555
1568794154.36118
1568794154.37681
1568794154.39243
1568794154.40806
1568794154.42368
1568794154.43931
1568794154.45493
1568794154.47056
1568794154.48619
1568794154.50181
1568794154.51744
1568794154.53306
1568794154.54869
1568794154.56431
1568794154.57994
1568794154.59557
1568794154.61119
1568794154.62682
1568794154.64244
1568794154.65807
1568794154.67369
1568794154.68932
1568794154.70495
1568794154.72057
1568794154.7362
1568794154.75182
1568794154.76745
1568794154.78307
1568794154.7987
1568794154.81433
1568794154.82995
1568794154.84558
1568794154.8612
1568794154.87683
1568794154.89245
1568794154.90808
1568794154.92371
1568794154.93933
1568794154.95496
1568794154.97058
1568794154.98621
1568794155.00183
1568794155.01746
1568794155.03309
1568794155.04871
1568794155.06434
1568794155.07996
1568794155.09559
1568794155.11121
1568794155.12684
1568794155.14247
1568794155.15809
1568794155.17372
1568794155.18934
1568794155.20497
1568794155.22059
1568794155.23622
1568794155.25185
1568794155.26747
1568794155.2831
1568794155.29872
1568794155.31435
1568794155.32997
1568794155.3456
1568794155.36123
1568794155.37685
1568794155.39248
1568794155.4081
1568794155.42373
1568794155.43935
1568794155.45498
1568794155.47061
1568794155.48623
1568794155.50186
1568794155.51748
1568794155.53311
1568794155.54873
1568794155.56436
1568794155.57999
1568794155.59561
1568794155.61124
1568794155.62686
1568794155.64249
1568794155.65811
1568794155.67374
1568794155.68937
1568794155.70499
1568794155.72062
1568794155.73624
1568794155.75187
1568794155.76749
1568794155.78312
1568794155.79875
1568794155.81437
1568794155.83
1568794155.84562
1568794155.86125
1568794155.87687
1568794155.8925
1568794155.90813
1568794155.92375
1568794155.93938
1568794155.955
1568794155.97063
1568794155.98625
1568794156.00188
1568794156.01751
1568794156.03313
1568794156.04876
1568794156.06438
1568794156.08001
1568794156.09563
1568794156.11126
1568794156.12689
1568794156.14251
1568794156.15814
1568794156.17376
1568794156.18939
1568794156.20501
1568794156.22064
1568794156.23627
1568794156.25189
1568794156.26752
1568794156.28314
1568794156.29877
1568794156.31439
1568794156.33002
1568794156.34565
1568794156.36127
1568794156.3769
1568794156.39252
1568794156.40815
1568794156.42377
1568794156.4394
1568794156.45503
1568794156.47065
1568794156.48628
1568794156.5019
1568794156.51753
1568794156.53315
1568794156.54878
1568794156.56441
1568794156.58003
1568794156.59566
1568794156.61128
1568794156.62691
1568794156.64254
1568794156.65816
1568794156.67379
1568794156.68941
1568794156.70504
1568794156.72066
1568794156.73629
1568794156.75192
1568794156.76754
1568794156.78317
1568794156.79879
1568794156.81442
1568794156.83004
1568794156.84567
1568794156.8613
1568794156.87692
1568794156.89255
1568794156.90817
1568794156.9238
1568794156.93942
1568794156.95505
1568794156.97068
1568794156.9863
1568794157.00193
1568794157.01755
1568794157.03318
1568794157.0488
1568794157.06443
1568794157.08006
1568794157.09568
1568794157.11131
1568794157.12693
1568794157.14256
1568794157.15818
1568794157.17381
1568794157.18944
1568794157.20506
1568794157.22069
1568794157.23631
1568794157.25194
1568794157.26756
1568794157.28319
1568794157.29882
1568794157.31444
1568794157.33007
1568794157.34569
1568794157.36132
1568794157.37694
1568794157.39257
1568794157.4082
1568794157.42382
1568794157.43945
1568794157.45507
1568794157.4707
1568794157.48632
1568794157.50195
1568794157.51758
1568794157.5332
1568794157.54883
1568794157.56445
1568794157.58008
1568794157.5957
1568794157.61133
1568794157.62696
1568794157.64258
1568794157.65821
1568794157.67383
1568794157.68946
1568794157.70508
1568794157.72071
1568794157.73634
1568794157.75196
1568794157.76759
1568794157.78321
1568794157.79884
1568794157.81446
1568794157.83009
1568794157.84572
1568794157.86134
1568794157.87697
1568794157.89259
1568794157.90822
1568794157.92384
1568794157.93947
1568794157.9551
1568794157.97072
1568794157.98635
1568794158.00197
1568794158.0176
1568794158.03322
1568794158.04885
1568794158.06448
1568794158.0801
1568794158.09573
1568794158.11135
1568794158.12698
1568794158.1426
1568794158.15823
1568794158.17386
1568794158.18948
1568794158.20511
1568794158.22073
1568794158.23636
1568794158.25198
1568794158.26761
1568794158.28324
1568794158.29886
1568794158.31449
1568794158.33011
1568794158.34574
1568794158.36136
1568794158.37699
1568794158.39262
1568794158.40824
1568794158.42387
1568794158.43949
1568794158.45512
1568794158.47074
1568794158.48637
1568794158.502
1568794158.51762
1568794158.53325
1568794158.54887
1568794158.5645
1568794158.58012
1568794158.59575
1568794158.61138
1568794158.627
1568794158.64263
1568794158.65825
1568794158.67388
1568794158.6895
1568794158.70513
1568794158.72076
1568794158.73638
1568794158.75201
1568794158.76763
1568794158.78326
1568794158.79889
1568794158.81451
1568794158.83014
1568794158.84576
1568794158.86139
1568794158.87701
1568794158.89264
1568794158.90827
1568794158.92389
1568794158.93952
1568794158.95514
1568794158.97077
1568794158.98639
1568794159.00202
1568794159.01765
1568794159.03327
1568794159.0489
1568794159.06452
1568794159.08015
1568794159.09577
1568794159.1114
1568794159.12703
1568794159.14265
1568794159.15828
1568794159.1739
1568794159.18953
1568794159.20515
1568794159.22078
1568794159.23641
1568794159.25203
1568794159.26766
1568794159.28328
1568794159.29891
1568794159.31453
1568794159.33016
1568794159.34579
1568794159.36141
1568794159.37704
1568794159.39266
1568794159.40829
1568794159.42391
1568794159.43954
1568794159.45517
1568794159.47079
1568794159.48642
1568794159.50204
1568794159.51767
1568794159.53329
1568794159.54892
1568794159.56455
1568794159.58017
1568794159.5958
1568794159.61142
1568794159.62705
1568794159.64267
1568794159.6583
1568794159.67393
1568794159.68955
1568794159.70518
1568794159.7208
1568794159.73643
1568794159.75205
1568794159.76768
1568794159.78331
1568794159.79893
1568794159.81456
1568794159.83018
1568794159.84581
1568794159.86143
1568794159.87706
1568794159.89269
1568794159.90831
1568794159.92394
1568794159.93956
1568794159.95519
1568794159.97081
1568794159.98644
1568794160.00207
1568794160.01769
1568794160.03332
1568794160.04894
1568794160.06457
1568794160.08019
1568794160.09582
1568794160.11145
1568794160.12707
1568794160.1427
1568794160.15832
1568794160.17395
1568794160.18957
1568794160.2052
1568794160.22083
1568794160.23645
1568794160.25208
1568794160.2677
1568794160.28333
1568794160.29895
1568794160.31458
1568794160.33021
1568794160.34583
1568794160.36146
1568794160.37708
1568794160.39271
1568794160.40833
1568794160.42396
1568794160.43959
1568794160.45521
1568794160.47084
1568794160.48646
1568794160.50209
1568794160.51771
1568794160.53334
1568794160.54897
1568794160.56459
1568794160.58022
1568794160.59584
1568794160.61147
1568794160.62709
1568794160.64272
1568794160.65835
1568794160.67397
1568794160.6896
1568794160.70522
1568794160.72085
1568794160.73647
1568794160.7521
1568794160.76773
1568794160.78335
1568794160.79898
1568794160.8146
1568794160.83023
1568794160.84585
1568794160.86148
1568794160.87711
1568794160.89273
1568794160.90836
1568794160.92398
1568794160.93961
1568794160.95523
1568794160.97086
1568794160.98649
1568794161.00211
1568794161.01774
1568794161.03336
1568794161.04899
1568794161.06462
1568794161.08024
1568794161.09587
1568794161.11149
1568794161.12712
1568794161.14274
1568794161.15837
1568794161.174
1568794161.18962
1568794161.20525
1568794161.22087
1568794161.2365
1568794161.25212
1568794161.26775
1568794161.28338
1568794161.299
1568794161.31463
1568794161.33025
1568794161.34588
1568794161.3615
1568794161.37713
1568794161.39276
1568794161.40838
1568794161.42401
1568794161.43963
1568794161.45526
1568794161.47088
1568794161.48651
1568794161.50214
1568794161.51776
1568794161.53339
1568794161.54901
1568794161.56464
1568794161.58026
1568794161.59589
1568794161.61152
1568794161.62714
1568794161.64277
1568794161.65839
1568794161.67402
1568794161.68964
1568794161.70527
1568794161.7209
1568794161.73652
1568794161.75215
1568794161.76777
1568794161.7834
1568794161.79902
1568794161.81465
1568794161.83028
1568794161.8459
1568794161.86153
1568794161.87715
1568794161.89278
1568794161.9084
1568794161.92403
1568794161.93966
1568794161.95528
1568794161.97091
1568794161.98653
1568794162.00216
1568794162.01778
1568794162.03341
1568794162.04904
1568794162.06466
1568794162.08029
1568794162.09591
1568794162.11154
1568794162.12716
1568794162.14279
1568794162.15842
1568794162.17404
1568794162.18967
1568794162.20529
1568794162.22092
1568794162.23654
1568794162.25217
1568794162.2678
1568794162.28342
1568794162.29905
1568794162.31467
1568794162.3303
1568794162.34592
1568794162.36155
1568794162.37718
1568794162.3928
1568794162.40843
1568794162.42405
1568794162.43968
1568794162.4553
1568794162.47093
1568794162.48656
1568794162.50218
1568794162.51781
1568794162.53343
1568794162.54906
1568794162.56468
1568794162.58031
1568794162.59594
1568794162.61156
1568794162.62719
1568794162.64281
1568794162.65844
1568794162.67406
1568794162.68969
1568794162.70532
1568794162.72094
1568794162.73657
1568794162.75219
1568794162.76782
1568794162.78344
1568794162.79907
1568794162.8147
1568794162.83032
1568794162.84595
1568794162.86157
1568794162.8772
1568794162.89282
1568794162.90845
1568794162.92408
1568794162.9397
1568794162.95533
1568794162.97095
1568794162.98658
1568794163.0022
1568794163.01783
1568794163.03346
1568794163.04908
1568794163.06471
1568794163.08033
1568794163.09596
1568794163.11158
1568794163.12721
1568794163.14284
1568794163.15846
1568794163.17409
1568794163.18971
1568794163.20534
1568794163.22096
1568794163.23659
1568794163.25222
1568794163.26784
1568794163.28347
1568794163.29909
1568794163.31472
1568794163.33034
1568794163.34597
1568794163.3616
1568794163.37722
1568794163.39285
1568794163.40847
1568794163.4241
1568794163.43972
1568794163.45535
1568794163.47098
1568794163.4866
1568794163.50223
1568794163.51785
1568794163.53348
1568794163.5491
1568794163.56473
1568794163.58036
1568794163.59598
1568794163.61161
1568794163.62723
1568794163.64286
1568794163.65848
1568794163.67411
1568794163.68974
1568794163.70536
1568794163.72099
1568794163.73661
1568794163.75224
1568794163.76787
1568794163.78349
1568794163.79912
1568794163.81474
1568794163.83037
1568794163.84599
1568794163.86162
1568794163.87725
1568794163.89287
1568794163.9085
1568794163.92412
1568794163.93975
1568794163.95537
1568794163.971
1568794163.98663
1568794164.00225
1568794164.01788
1568794164.0335
1568794164.04913
1568794164.06475
1568794164.08038
1568794164.09601
1568794164.11163
1568794164.12726
1568794164.14288
1568794164.15851
1568794164.17413
1568794164.18976
1568794164.20539
1568794164.22101
1568794164.23664
1568794164.25226
1568794164.26789
1568794164.28351
1568794164.29914
1568794164.31477
1568794164.33039
1568794164.34602
1568794164.36164
1568794164.37727
1568794164.39289
1568794164.40852
1568794164.42415
1568794164.43977
1568794164.4554
1568794164.47102
1568794164.48665
1568794164.50227
1568794164.5179
1568794164.53353
1568794164.54915
1568794164.56478
1568794164.5804
1568794164.59603
1568794164.61165
1568794164.62728
1568794164.64291
1568794164.65853
1568794164.67416
1568794164.68978
1568794164.70541
1568794164.72103
1568794164.73666
1568794164.75229
1568794164.76791
1568794164.78354
1568794164.79916
1568794164.81479
1568794164.83041
1568794164.84604
1568794164.86167
1568794164.87729
1568794164.89292
1568794164.90854
1568794164.92417
1568794164.93979
1568794164.95542
1568794164.97105
1568794164.98667
1568794165.0023
1568794165.01792
1568794165.03355
1568794165.04917
1568794165.0648
1568794165.08043
1568794165.09605
1568794165.11168
1568794165.1273
1568794165.14293
1568794165.15855
1568794165.17418
1568794165.18981
1568794165.20543
1568794165.22106
1568794165.23668
1568794165.25231
1568794165.26793
1568794165.28356
1568794165.29919
1568794165.31481
1568794165.33044
1568794165.34606
1568794165.36169
1568794165.37731
1568794165.39294
1568794165.40857
1568794165.42419
1568794165.43982
1568794165.45544
1568794165.47107
1568794165.48669
1568794165.50232
1568794165.51795
1568794165.53357
1568794165.5492
1568794165.56482
1568794165.58045
1568794165.59607
1568794165.6117
1568794165.62733
1568794165.64295
1568794165.65858
1568794165.6742
1568794165.68983
1568794165.70545
1568794165.72108
1568794165.73671
1568794165.75233
1568794165.76796
1568794165.78358
1568794165.79921
1568794165.81483
1568794165.83046
1568794165.84609
1568794165.86171
1568794165.87734
1568794165.89296
1568794165.90859
1568794165.92422
1568794165.93984
1568794165.95547
1568794165.97109
1568794165.98672
1568794166.00234
1568794166.01797
1568794166.0336
1568794166.04922
1568794166.06485
1568794166.08047
1568794166.0961
1568794166.11172
1568794166.12735
1568794166.14298
1568794166.1586
1568794166.17423
1568794166.18985
1568794166.20548
1568794166.2211
1568794166.23673
1568794166.25236
1568794166.26798
1568794166.28361
1568794166.29923
1568794166.31486
1568794166.33048
1568794166.34611
1568794166.36174
1568794166.37736
1568794166.39299
1568794166.40861
1568794166.42424
1568794166.43986
1568794166.45549
1568794166.47112
1568794166.48674
1568794166.50237
1568794166.51799
1568794166.53362
1568794166.54924
1568794166.56487
1568794166.5805
1568794166.59612
1568794166.61175
1568794166.62737
1568794166.643
1568794166.65862
1568794166.67425
1568794166.68988
1568794166.7055
1568794166.72113
1568794166.73675
1568794166.75238
1568794166.768
1568794166.78363
1568794166.79926
1568794166.81488
1568794166.83051
1568794166.84613
1568794166.86176
1568794166.87738
1568794166.89301
1568794166.90864
1568794166.92426
1568794166.93989
1568794166.95551
1568794166.97114
1568794166.98676
1568794167.00239
1568794167.01802
1568794167.03364
1568794167.04927
1568794167.06489
1568794167.08052
1568794167.09614
1568794167.11177
1568794167.1274
1568794167.14302
1568794167.15865
1568794167.17427
1568794167.1899
1568794167.20552
1568794167.22115
1568794167.23678
1568794167.2524
1568794167.26803
1568794167.28365
1568794167.29928
1568794167.3149
1568794167.33053
1568794167.34616
1568794167.36178
1568794167.37741
1568794167.39303
1568794167.40866
1568794167.42428
1568794167.43991
1568794167.45554
1568794167.47116
1568794167.48679
1568794167.50241
1568794167.51804
1568794167.53366
1568794167.54929
1568794167.56492
1568794167.58054
1568794167.59617
1568794167.61179
1568794167.62742
1568794167.64304
1568794167.65867
1568794167.6743
1568794167.68992
1568794167.70555
1568794167.72117
1568794167.7368
1568794167.75242
1568794167.76805
1568794167.78368
1568794167.7993
1568794167.81493
1568794167.83055
1568794167.84618
1568794167.8618
1568794167.87743
1568794167.89306
1568794167.90868
1568794167.92431
1568794167.93993
1568794167.95556
1568794167.97118
1568794167.98681
1568794168.00244
1568794168.01806
1568794168.03369
1568794168.04931
1568794168.06494
1568794168.08056
1568794168.09619
1568794168.11182
1568794168.12744
1568794168.14307
1568794168.15869
1568794168.17432
1568794168.18994
1568794168.20557
1568794168.2212
1568794168.23682
1568794168.25245
1568794168.26807
1568794168.2837
1568794168.29932
1568794168.31495
1568794168.33058
1568794168.3462
1568794168.36183
1568794168.37745
1568794168.39308
1568794168.40871
1568794168.42433
1568794168.43996
1568794168.45558
1568794168.47121
1568794168.48683
1568794168.50246
1568794168.51809
1568794168.53371
1568794168.54934
1568794168.56496
1568794168.58059
1568794168.59621
1568794168.61184
1568794168.62747
1568794168.64309
1568794168.65872
1568794168.67434
1568794168.68997
1568794168.70559
1568794168.72122
1568794168.73685
1568794168.75247
1568794168.7681
1568794168.78372
1568794168.79935
1568794168.81497
1568794168.8306
1568794168.84623
1568794168.86185
1568794168.87748
1568794168.8931
1568794168.90873
1568794168.92435
1568794168.93998
1568794168.95561
1568794168.97123
1568794168.98686
1568794169.00248
1568794169.01811
1568794169.03373
1568794169.04936
1568794169.06499
1568794169.08061
1568794169.09624
1568794169.11186
1568794169.12749
1568794169.14311
1568794169.15874
1568794169.17437
1568794169.18999
1568794169.20562
1568794169.22124
1568794169.23687
1568794169.25249
1568794169.26812
1568794169.28375
1568794169.29937
1568794169.315
1568794169.33062
1568794169.34625
1568794169.36187
1568794169.3775
1568794169.39313
1568794169.40875
1568794169.42438
1568794169.44
1568794169.45563
1568794169.47125
1568794169.48688
1568794169.50251
1568794169.51813
1568794169.53376
1568794169.54938
1568794169.56501
1568794169.58063
1568794169.59626
1568794169.61189
1568794169.62751
1568794169.64314
1568794169.65876
1568794169.67439
1568794169.69001
1568794169.70564
1568794169.72127
1568794169.73689
1568794169.75252
1568794169.76814
1568794169.78377
1568794169.79939
1568794169.81502
1568794169.83065
1568794169.84627
1568794169.8619
1568794169.87752
1568794169.89315
1568794169.90877
1568794169.9244
1568794169.94003
1568794169.95565
1568794169.97128
1568794169.9869
1568794170.00253
1568794170.01815
1568794170.03378
1568794170.04941
1568794170.06503
1568794170.08066
1568794170.09628
1568794170.11191
1568794170.12753
1568794170.14316
1568794170.15879
1568794170.17441
1568794170.19004
1568794170.20566
1568794170.22129
1568794170.23691
1568794170.25254
1568794170.26817
1568794170.28379
1568794170.29942
1568794170.31504
1568794170.33067
1568794170.34629
1568794170.36192
1568794170.37755
1568794170.39317
1568794170.4088
1568794170.42442
1568794170.44005
1568794170.45567
1568794170.4713
1568794170.48693
1568794170.50255
1568794170.51818
1568794170.5338
1568794170.54943
1568794170.56505
1568794170.58068
1568794170.59631
1568794170.61193
1568794170.62756
1568794170.64318
1568794170.65881
1568794170.67443
1568794170.69006
1568794170.70569
1568794170.72131
1568794170.73694
1568794170.75256
1568794170.76819
1568794170.78382
1568794170.79944
1568794170.81507
1568794170.83069
1568794170.84632
1568794170.86194
1568794170.87757
1568794170.8932
1568794170.90882
1568794170.92445
1568794170.94007
1568794170.9557
1568794170.97132
1568794170.98695
1568794171.00258
1568794171.0182
1568794171.03383
1568794171.04945
1568794171.06508
1568794171.0807
1568794171.09633
1568794171.11196
1568794171.12758
1568794171.14321
1568794171.15883
1568794171.17446
1568794171.19008
1568794171.20571
1568794171.22134
1568794171.23696
1568794171.25259
1568794171.26821
1568794171.28384
1568794171.29946
1568794171.31509
1568794171.33072
1568794171.34634
1568794171.36197
1568794171.37759
1568794171.39322
1568794171.40884
1568794171.42447
1568794171.4401
1568794171.45572
1568794171.47135
1568794171.48697
1568794171.5026
1568794171.51822
1568794171.53385
1568794171.54948
1568794171.5651
1568794171.58073
1568794171.59635
1568794171.61198
1568794171.6276
1568794171.64323
1568794171.65886
1568794171.67448
1568794171.69011
1568794171.70573
1568794171.72136
1568794171.73698
1568794171.75261
1568794171.76824
1568794171.78386
1568794171.79949
1568794171.81511
1568794171.83074
1568794171.84636
1568794171.86199
1568794171.87762
1568794171.89324
1568794171.90887
1568794171.92449
1568794171.94012
1568794171.95574
1568794171.97137
1568794171.987
1568794172.00262
1568794172.01825
1568794172.03387
1568794172.0495
1568794172.06512
1568794172.08075
1568794172.09638
1568794172.112
1568794172.12763
1568794172.14325
1568794172.15888
1568794172.1745
1568794172.19013
1568794172.20576
1568794172.22138
1568794172.23701
1568794172.25263
1568794172.26826
1568794172.28388
1568794172.29951
1568794172.31514
1568794172.33076
1568794172.34639
1568794172.36201
1568794172.37764
1568794172.39326
1568794172.40889
1568794172.42452
1568794172.44014
1568794172.45577
1568794172.47139
1568794172.48702
1568794172.50264
1568794172.51827
1568794172.5339
1568794172.54952
1568794172.56515
1568794172.58077
1568794172.5964
1568794172.61202
1568794172.62765
1568794172.64328
1568794172.6589
1568794172.67453
1568794172.69015
1568794172.70578
1568794172.7214
1568794172.73703
1568794172.75266
1568794172.76828
1568794172.78391
1568794172.79953
1568794172.81516
1568794172.83078
1568794172.84641
1568794172.86204
1568794172.87766
1568794172.89329
1568794172.90891
1568794172.92454
1568794172.94016
1568794172.95579
1568794172.97142
1568794172.98704
1568794173.00267
1568794173.01829
1568794173.03392
1568794173.04955
1568794173.06517
1568794173.0808
1568794173.09642
1568794173.11205
1568794173.12767
1568794173.1433
1568794173.15893
1568794173.17455
1568794173.19018
1568794173.2058
1568794173.22143
1568794173.23705
1568794173.25268
1568794173.26831
1568794173.28393
1568794173.29956
1568794173.31518
1568794173.33081
1568794173.34643
1568794173.36206
1568794173.37769
1568794173.39331
1568794173.40894
1568794173.42456
1568794173.44019
1568794173.45581
1568794173.47144
1568794173.48707
1568794173.50269
1568794173.51832
1568794173.53394
1568794173.54957
1568794173.56519
1568794173.58082
1568794173.59645
1568794173.61207
1568794173.6277
1568794173.64332
1568794173.65895
1568794173.67457
1568794173.6902
1568794173.70583
1568794173.72145
1568794173.73708
1568794173.7527
1568794173.76833
1568794173.78395
1568794173.79958
1568794173.81521
1568794173.83083
1568794173.84646
1568794173.86208
1568794173.87771
1568794173.89333
1568794173.90896
1568794173.92459
1568794173.94021
1568794173.95584
1568794173.97146
1568794173.98709
1568794174.00271
1568794174.01834
1568794174.03397
1568794174.04959
1568794174.06522
1568794174.08084
1568794174.09647
1568794174.11209
1568794174.12772
1568794174.14335
1568794174.15897
1568794174.1746
1568794174.19022
1568794174.20585
1568794174.22147
1568794174.2371
1568794174.25273
1568794174.26835
1568794174.28398
1568794174.2996
1568794174.31523
1568794174.33085
1568794174.34648
1568794174.36211
1568794174.37773
1568794174.39336
1568794174.40898
1568794174.42461
1568794174.44023
1568794174.45586
1568794174.47149
1568794174.48711
1568794174.50274
1568794174.51836
1568794174.53399
1568794174.54961
1568794174.56524
1568794174.58087
1568794174.59649
1568794174.61212
1568794174.62774
1568794174.64337
1568794174.65899
1568794174.67462
1568794174.69025
1568794174.70587
1568794174.7215
1568794174.73712
1568794174.75275
1568794174.76837
1568794174.784
1568794174.79963
1568794174.81525
1568794174.83088
1568794174.8465
1568794174.86213
1568794174.87775
1568794174.89338
1568794174.90901
1568794174.92463
1568794174.94026
1568794174.95588
1568794174.97151
1568794174.98713
1568794175.00276
1568794175.01839
1568794175.03401
1568794175.04964
1568794175.06526
1568794175.08089
1568794175.09651
1568794175.11214
1568794175.12777
1568794175.14339
1568794175.15902
1568794175.17464
1568794175.19027
1568794175.20589
1568794175.22152
1568794175.23715
1568794175.25277
1568794175.2684
1568794175.28402
1568794175.29965
1568794175.31527
1568794175.3309
1568794175.34653
1568794175.36215
1568794175.37778
1568794175.3934
1568794175.40903
1568794175.42465
1568794175.44028
1568794175.45591
1568794175.47153
1568794175.48716
1568794175.50278
1568794175.51841
1568794175.53403
1568794175.54966
1568794175.56529
1568794175.58091
1568794175.59654
1568794175.61216
1568794175.62779
1568794175.64342
1568794175.65904
1568794175.67467
1568794175.69029
1568794175.70592
1568794175.72154
1568794175.73717
1568794175.7528
1568794175.76842
1568794175.78405
1568794175.79967
1568794175.8153
1568794175.83092
1568794175.84655
1568794175.86218
1568794175.8778
1568794175.89343
1568794175.90905
1568794175.92468
1568794175.9403
1568794175.95593
1568794175.97156
1568794175.98718
1568794176.00281
1568794176.01843
1568794176.03406
1568794176.04968
1568794176.06531
1568794176.08094
1568794176.09656
1568794176.11219
1568794176.12781
1568794176.14344
1568794176.15906
1568794176.17469
1568794176.19032
1568794176.20594
1568794176.22157
1568794176.23719
1568794176.25282
1568794176.26844
1568794176.28407
1568794176.2997
1568794176.31532
1568794176.33095
1568794176.34657
1568794176.3622
1568794176.37782
1568794176.39345
1568794176.40908
1568794176.4247
1568794176.44033
1568794176.45595
1568794176.47158
1568794176.4872
1568794176.50283
1568794176.51846
1568794176.53408
1568794176.54971
1568794176.56533
1568794176.58096
1568794176.59658
1568794176.61221
1568794176.62784
1568794176.64346
1568794176.65909
1568794176.67471
1568794176.69034
1568794176.70596
1568794176.72159
1568794176.73722
1568794176.75284
1568794176.76847
1568794176.78409
1568794176.79972
1568794176.81534
1568794176.83097
1568794176.8466
1568794176.86222
1568794176.87785
1568794176.89347
1568794176.9091
1568794176.92472
1568794176.94035
1568794176.95598
1568794176.9716
1568794176.98723
1568794177.00285
1568794177.01848
1568794177.0341
1568794177.04973
1568794177.06536
1568794177.08098
1568794177.09661
1568794177.11223
1568794177.12786
1568794177.14348
1568794177.15911
1568794177.17474
1568794177.19036
1568794177.20599
1568794177.22161
1568794177.23724
1568794177.25286
1568794177.26849
1568794177.28412
1568794177.29974
1568794177.31537
1568794177.33099
1568794177.34662
1568794177.36224
1568794177.37787
1568794177.3935
1568794177.40912
1568794177.42475
1568794177.44037
1568794177.456
1568794177.47162
1568794177.48725
1568794177.50288
1568794177.5185
1568794177.53413
1568794177.54975
1568794177.56538
1568794177.581
1568794177.59663
1568794177.61226
1568794177.62788
1568794177.64351
1568794177.65913
1568794177.67476
1568794177.69038
1568794177.70601
1568794177.72164
1568794177.73726
1568794177.75289
1568794177.76851
1568794177.78414
1568794177.79976
1568794177.81539
1568794177.83102
1568794177.84664
1568794177.86227
1568794177.87789
1568794177.89352
1568794177.90915
1568794177.92477
1568794177.9404
1568794177.95602
1568794177.97165
1568794177.98727
1568794178.0029
1568794178.01853
1568794178.03415
1568794178.04978
1568794178.0654
1568794178.08103
1568794178.09665
1568794178.11228
1568794178.12791
1568794178.14353
1568794178.15916
1568794178.17478
1568794178.19041
1568794178.20603
1568794178.22166
1568794178.23729
1568794178.25291
1568794178.26854
1568794178.28416
1568794178.29979
1568794178.31541
1568794178.33104
1568794178.34667
1568794178.36229
1568794178.37792
1568794178.39354
1568794178.40917
1568794178.42479
1568794178.44042
1568794178.45605
1568794178.47167
1568794178.4873
1568794178.50292
1568794178.51855
1568794178.53417
1568794178.5498
1568794178.56543
1568794178.58105
1568794178.59668
1568794178.6123
1568794178.62793
1568794178.64355
1568794178.65918
1568794178.67481
1568794178.69043
1568794178.70606
1568794178.72168
1568794178.73731
1568794178.75293
1568794178.76856
1568794178.78419
1568794178.79981
1568794178.81544
1568794178.83106
1568794178.84669
1568794178.86231
1568794178.87794
1568794178.89357
1568794178.90919
1568794178.92482
1568794178.94044
1568794178.95607
1568794178.97169
1568794178.98732
1568794179.00295
1568794179.01857
1568794179.0342
1568794179.04982
1568794179.06545
1568794179.08107
1568794179.0967
1568794179.11233
1568794179.12795
1568794179.14358
1568794179.1592
1568794179.17483
1568794179.19045
1568794179.20608
1568794179.22171
1568794179.23733
1568794179.25296
1568794179.26858
1568794179.28421
1568794179.29983
1568794179.31546
1568794179.33109
1568794179.34671
1568794179.36234
1568794179.37796
1568794179.39359
1568794179.40921
1568794179.42484
1568794179.44047
1568794179.45609
1568794179.47172
1568794179.48734
1568794179.50297
1568794179.51859
1568794179.53422
1568794179.54985
1568794179.56547
1568794179.5811
1568794179.59672
1568794179.61235
1568794179.62797
1568794179.6436
1568794179.65923
1568794179.67485
1568794179.69048
1568794179.7061
1568794179.72173
1568794179.73735
1568794179.75298
1568794179.76861
1568794179.78423
1568794179.79986
1568794179.81548
1568794179.83111
1568794179.84673
1568794179.86236
1568794179.87799
1568794179.89361
1568794179.90924
1568794179.92486
1568794179.94049
1568794179.95611
1568794179.97174
1568794179.98737
1568794180.00299
1568794180.01862
1568794180.03424
1568794180.04987
1568794180.0655
1568794180.08112
1568794180.09675
1568794180.11237
1568794180.128
1568794180.14362
1568794180.15925
1568794180.17488
1568794180.1905
1568794180.20613
1568794180.22175
1568794180.23738
1568794180.253
1568794180.26863
1568794180.28426
1568794180.29988
1568794180.31551
1568794180.33113
1568794180.34676
1568794180.36238
1568794180.37801
1568794180.39364
1568794180.40926
1568794180.42489
1568794180.44051
1568794180.45614
1568794180.47176
1568794180.48739
1568794180.50302
1568794180.51864
1568794180.53427
1568794180.54989
1568794180.56552
1568794180.58114
1568794180.59677
1568794180.6124
1568794180.62802
1568794180.64365
1568794180.65927
1568794180.6749
1568794180.69052
1568794180.70615
1568794180.72178
1568794180.7374
1568794180.75303
1568794180.76865
1568794180.78428
1568794180.7999
1568794180.81553
1568794180.83116
1568794180.84678
1568794180.86241
1568794180.87803
1568794180.89366
1568794180.90928
1568794180.92491
1568794180.94054
1568794180.95616
1568794180.97179
1568794180.98741
1568794181.00304
1568794181.01866
1568794181.03429
1568794181.04992
1568794181.06554
1568794181.08117
1568794181.09679
1568794181.11242
1568794181.12804
1568794181.14367
1568794181.1593
1568794181.17492
1568794181.19055
1568794181.20617
1568794181.2218
1568794181.23742
1568794181.25305
1568794181.26868
1568794181.2843
1568794181.29993
1568794181.31555
1568794181.33118
1568794181.3468
1568794181.36243
1568794181.37806
1568794181.39368
1568794181.40931
1568794181.42493
1568794181.44056
1568794181.45618
1568794181.47181
1568794181.48744
1568794181.50306
1568794181.51869
1568794181.53431
1568794181.54994
1568794181.56556
1568794181.58119
1568794181.59682
1568794181.61244
1568794181.62807
1568794181.64369
1568794181.65932
1568794181.67494
1568794181.69057
1568794181.7062
1568794181.72182
1568794181.73745
1568794181.75307
1568794181.7687
1568794181.78432
1568794181.79995
1568794181.81558
1568794181.8312
1568794181.84683
1568794181.86245
1568794181.87808
1568794181.8937
1568794181.90933
1568794181.92496
1568794181.94058
1568794181.95621
1568794181.97183
1568794181.98746
1568794182.00308
1568794182.01871
1568794182.03434
1568794182.04996
1568794182.06559
1568794182.08121
1568794182.09684
1568794182.11246
1568794182.12809
1568794182.14372
1568794182.15934
1568794182.17497
1568794182.19059
1568794182.20622
1568794182.22184
1568794182.23747
1568794182.2531
1568794182.26872
1568794182.28435
1568794182.29997
1568794182.3156
1568794182.33122
1568794182.34685
1568794182.36248
1568794182.3781
1568794182.39373
1568794182.40935
1568794182.42498
1568794182.4406
1568794182.45623
1568794182.47186
1568794182.48748
1568794182.50311
1568794182.51873
1568794182.53436
1568794182.54998
1568794182.56561
1568794182.58124
1568794182.59686
1568794182.61249
1568794182.62811
1568794182.64374
1568794182.65936
1568794182.67499
1568794182.69062
1568794182.70624
1568794182.72187
1568794182.73749
1568794182.75312
1568794182.76875
1568794182.78437
1568794182.8
1568794182.81562
1568794182.83125
1568794182.84687
1568794182.8625
1568794182.87813
1568794182.89375
1568794182.90938
1568794182.925
1568794182.94063
1568794182.95625
1568794182.97188
1568794182.98751
1568794183.00313
1568794183.01876
1568794183.03438
1568794183.05001
1568794183.06563
1568794183.08126
1568794183.09689
1568794183.11251
1568794183.12814
1568794183.14376
1568794183.15939
1568794183.17501
1568794183.19064
1568794183.20627
1568794183.22189
1568794183.23752
1568794183.25314
1568794183.26877
1568794183.28439
1568794183.30002
1568794183.31565
1568794183.33127
1568794183.3469
1568794183.36252
1568794183.37815
1568794183.39377
1568794183.4094
1568794183.42503
1568794183.44065
1568794183.45628
1568794183.4719
1568794183.48753
1568794183.50315
1568794183.51878
1568794183.53441
1568794183.55003
1568794183.56566
1568794183.58128
1568794183.59691
1568794183.61253
1568794183.62816
1568794183.64379
1568794183.65941
1568794183.67504
1568794183.69066
1568794183.70629
1568794183.72191
1568794183.73754
1568794183.75317
1568794183.76879
1568794183.78442
1568794183.80004
1568794183.81567
1568794183.83129
1568794183.84692
1568794183.86255
1568794183.87817
1568794183.8938
1568794183.90942
1568794183.92505
1568794183.94067
1568794183.9563
1568794183.97193
1568794183.98755
1568794184.00318
1568794184.0188
1568794184.03443
1568794184.05005
1568794184.06568
1568794184.08131
1568794184.09693
1568794184.11256
1568794184.12818
1568794184.14381
1568794184.15943
1568794184.17506
1568794184.19069
1568794184.20631
1568794184.22194
1568794184.23756
1568794184.25319
1568794184.26881
1568794184.28444
1568794184.30007
1568794184.31569
1568794184.33132
1568794184.34694
1568794184.36257
1568794184.37819
1568794184.39382
1568794184.40945
1568794184.42507
1568794184.4407
1568794184.45632
1568794184.47195
1568794184.48757
1568794184.5032
1568794184.51883
1568794184.53445
1568794184.55008
1568794184.5657
1568794184.58133
1568794184.59695
1568794184.61258
1568794184.62821
1568794184.64383
1568794184.65946
1568794184.67508
1568794184.69071
1568794184.70633
1568794184.72196
1568794184.73759
1568794184.75321
1568794184.76884
1568794184.78446
1568794184.80009
1568794184.81571
1568794184.83134
1568794184.84697
1568794184.86259
1568794184.87822
1568794184.89384
1568794184.90947
1568794184.9251
1568794184.94072
1568794184.95635
1568794184.97197
1568794184.9876
1568794185.00322
1568794185.01885
1568794185.03448
1568794185.0501
1568794185.06573
1568794185.08135
1568794185.09698
1568794185.1126
1568794185.12823
1568794185.14386
1568794185.15948
1568794185.17511
1568794185.19073
1568794185.20636
1568794185.22198
1568794185.23761
1568794185.25324
1568794185.26886
1568794185.28449
1568794185.30011
1568794185.31574
1568794185.33136
1568794185.34699
1568794185.36262
1568794185.37824
1568794185.39387
1568794185.40949
1568794185.42512
1568794185.44074
1568794185.45637
1568794185.472
1568794185.48762
1568794185.50325
1568794185.51887
1568794185.5345
1568794185.55012
1568794185.56575
1568794185.58138
1568794185.597
1568794185.61263
1568794185.62825
1568794185.64388
1568794185.6595
1568794185.67513
1568794185.69076
1568794185.70638
1568794185.72201
1568794185.73763
1568794185.75326
1568794185.76888
1568794185.78451
1568794185.80014
1568794185.81576
1568794185.83139
1568794185.84701
1568794185.86264
1568794185.87826
1568794185.89389
1568794185.90952
1568794185.92514
1568794185.94077
1568794185.95639
1568794185.97202
1568794185.98764
1568794186.00327
1568794186.0189
1568794186.03452
1568794186.05015
1568794186.06577
1568794186.0814
1568794186.09702
1568794186.11265
1568794186.12828
1568794186.1439
1568794186.15953
1568794186.17515
1568794186.19078
1568794186.2064
1568794186.22203
1568794186.23766
1568794186.25328
1568794186.26891
1568794186.28453
1568794186.30016
1568794186.31578
1568794186.33141
1568794186.34704
1568794186.36266
1568794186.37829
1568794186.39391
1568794186.40954
1568794186.42516
1568794186.44079
1568794186.45642
1568794186.47204
1568794186.48767
1568794186.50329
1568794186.51892
1568794186.53454
1568794186.55017
1568794186.5658
1568794186.58142
1568794186.59705
1568794186.61267
1568794186.6283
1568794186.64392
1568794186.65955
1568794186.67518
1568794186.6908
1568794186.70643
1568794186.72205
1568794186.73768
1568794186.7533
1568794186.76893
1568794186.78456
1568794186.80018
1568794186.81581
1568794186.83143
1568794186.84706
1568794186.86268
1568794186.87831
1568794186.89394
1568794186.90956
1568794186.92519
1568794186.94081
1568794186.95644
1568794186.97206
1568794186.98769
1568794187.00332
1568794187.01894
1568794187.03457
1568794187.05019
1568794187.06582
1568794187.08144
1568794187.09707
1568794187.1127
1568794187.12832
1568794187.14395
1568794187.15957
1568794187.1752
1568794187.19082
1568794187.20645
1568794187.22208
1568794187.2377
1568794187.25333
1568794187.26895
1568794187.28458
1568794187.3002
1568794187.31583
1568794187.33146
1568794187.34708
1568794187.36271
1568794187.37833
1568794187.39396
1568794187.40959
1568794187.42521
1568794187.44084
1568794187.45646
1568794187.47209
1568794187.48771
1568794187.50334
1568794187.51897
1568794187.53459
