1568793503.50291
1568793503.51854
1568793503.53416
1568793503.54979
1568793503.56541
1568793503.58104
1568793503.59667
1568793503.61229
1568793503.62792
1568793503.64354
1568793503.65917
1568793503.67479
1568793503.69042
1568793503.70605
1568793503.72167
1568793503.7373
1568793503.75292
1568793503.76855
1568793503.78417
1568793503.7998
1568793503.81543
1568793503.83105
1568793503.84668
1568793503.8623
1568793503.87793
1568793503.89355
1568793503.90918
1568793503.92481
1568793503.94043
1568793503.95606
1568793503.97168
1568793503.98731
1568793504.00293
1568793504.01856
1568793504.03419
1568793504.04981
1568793504.06544
1568793504.08106
1568793504.09669
1568793504.11231
1568793504.12794
1568793504.14357
1568793504.15919
1568793504.17482
1568793504.19044
1568793504.20607
1568793504.22169
1568793504.23732
1568793504.25295
1568793504.26857
1568793504.2842
1568793504.29982
1568793504.31545
1568793504.33107
1568793504.3467
1568793504.36233
1568793504.37795
1568793504.39358
1568793504.4092
1568793504.42483
1568793504.44045
1568793504.45608
1568793504.47171
1568793504.48733
1568793504.50296
1568793504.51858
1568793504.53421
1568793504.54983
1568793504.56546
1568793504.58109
1568793504.59671
1568793504.61234
1568793504.62796
1568793504.64359
1568793504.65921
1568793504.67484
1568793504.69047
1568793504.70609
1568793504.72172
1568793504.73734
1568793504.75297
1568793504.76859
1568793504.78422
1568793504.79985
1568793504.81547
1568793504.8311
1568793504.84672
1568793504.86235
1568793504.87797
1568793504.8936
1568793504.90923
1568793504.92485
1568793504.94048
1568793504.9561
1568793504.97173
1568793504.98736
1568793505.00298
1568793505.01861
1568793505.03423
1568793505.04986
1568793505.06548
1568793505.08111
1568793505.09674
1568793505.11236
1568793505.12799
1568793505.14361
1568793505.15924
1568793505.17486
1568793505.19049
1568793505.20612
1568793505.22174
1568793505.23737
1568793505.25299
1568793505.26862
1568793505.28424
1568793505.29987
1568793505.3155
1568793505.33112
1568793505.34675
1568793505.36237
1568793505.378
1568793505.39362
1568793505.40925
1568793505.42488
1568793505.4405
1568793505.45613
1568793505.47175
1568793505.48738
1568793505.503
1568793505.51863
1568793505.53426
1568793505.54988
1568793505.56551
1568793505.58113
1568793505.59676
1568793505.61238
1568793505.62801
1568793505.64364
1568793505.65926
1568793505.67489
1568793505.69051
1568793505.70614
1568793505.72176
1568793505.73739
1568793505.75302
1568793505.76864
1568793505.78427
1568793505.79989
1568793505.81552
1568793505.83114
1568793505.84677
1568793505.8624
1568793505.87802
1568793505.89365
1568793505.90927
1568793505.9249
1568793505.94052
1568793505.95615
1568793505.97178
1568793505.9874
1568793506.00303
1568793506.01865
1568793506.03428
1568793506.0499
1568793506.06553
1568793506.08116
1568793506.09678
1568793506.11241
1568793506.12803
1568793506.14366
1568793506.15928
1568793506.17491
1568793506.19054
1568793506.20616
1568793506.22179
1568793506.23741
1568793506.25304
1568793506.26866
1568793506.28429
1568793506.29992
1568793506.31554
1568793506.33117
1568793506.34679
1568793506.36242
1568793506.37804
1568793506.39367
1568793506.4093
1568793506.42492
1568793506.44055
1568793506.45617
1568793506.4718
1568793506.48742
1568793506.50305
1568793506.51868
1568793506.5343
1568793506.54993
1568793506.56555
1568793506.58118
1568793506.5968
1568793506.61243
1568793506.62806
1568793506.64368
1568793506.65931
1568793506.67493
1568793506.69056
1568793506.70618
1568793506.72181
1568793506.73744
1568793506.75306
1568793506.76869
1568793506.78431
1568793506.79994
1568793506.81556
1568793506.83119
1568793506.84682
1568793506.86244
1568793506.87807
1568793506.89369
1568793506.90932
1568793506.92494
1568793506.94057
1568793506.9562
1568793506.97182
1568793506.98745
1568793507.00307
1568793507.0187
1568793507.03432
1568793507.04995
1568793507.06558
1568793507.0812
1568793507.09683
1568793507.11245
1568793507.12808
1568793507.1437
1568793507.15933
1568793507.17496
1568793507.19058
1568793507.20621
1568793507.22183
1568793507.23746
1568793507.25309
1568793507.26871
1568793507.28434
1568793507.29996
1568793507.31559
1568793507.33121
1568793507.34684
1568793507.36247
1568793507.37809
1568793507.39372
1568793507.40934
1568793507.42497
1568793507.44059
1568793507.45622
1568793507.47185
1568793507.48747
1568793507.5031
1568793507.51872
1568793507.53435
1568793507.54997
1568793507.5656
1568793507.58123
1568793507.59685
1568793507.61248
1568793507.6281
1568793507.64373
1568793507.65935
1568793507.67498
1568793507.69061
1568793507.70623
1568793507.72186
1568793507.73748
1568793507.75311
1568793507.76873
1568793507.78436
1568793507.79999
1568793507.81561
1568793507.83124
1568793507.84686
1568793507.86249
1568793507.87811
1568793507.89374
1568793507.90937
1568793507.92499
1568793507.94062
1568793507.95624
1568793507.97187
1568793507.98749
1568793508.00312
1568793508.01875
1568793508.03437
1568793508.05
1568793508.06562
1568793508.08125
1568793508.09687
1568793508.1125
1568793508.12813
1568793508.14375
1568793508.15938
1568793508.175
1568793508.19063
1568793508.20625
1568793508.22188
1568793508.23751
1568793508.25313
1568793508.26876
1568793508.28438
1568793508.30001
1568793508.31563
1568793508.33126
1568793508.34689
1568793508.36251
1568793508.37814
1568793508.39376
1568793508.40939
1568793508.42501
1568793508.44064
1568793508.45627
1568793508.47189
1568793508.48752
1568793508.50314
1568793508.51877
1568793508.53439
1568793508.55002
1568793508.56565
1568793508.58127
1568793508.5969
1568793508.61252
1568793508.62815
1568793508.64377
1568793508.6594
1568793508.67503
1568793508.69065
1568793508.70628
1568793508.7219
1568793508.73753
1568793508.75315
1568793508.76878
1568793508.78441
1568793508.80003
1568793508.81566
1568793508.83128
1568793508.84691
1568793508.86253
1568793508.87816
1568793508.89379
1568793508.90941
1568793508.92504
1568793508.94066
1568793508.95629
1568793508.97191
1568793508.98754
1568793509.00317
1568793509.01879
1568793509.03442
1568793509.05004
1568793509.06567
1568793509.08129
1568793509.09692
1568793509.11255
1568793509.12817
1568793509.1438
1568793509.15942
1568793509.17505
1568793509.19067
1568793509.2063
1568793509.22193
1568793509.23755
1568793509.25318
1568793509.2688
1568793509.28443
1568793509.30005
1568793509.31568
1568793509.33131
1568793509.34693
1568793509.36256
1568793509.37818
1568793509.39381
1568793509.40944
1568793509.42506
1568793509.44069
1568793509.45631
1568793509.47194
1568793509.48756
1568793509.50319
1568793509.51882
1568793509.53444
1568793509.55007
1568793509.56569
1568793509.58132
1568793509.59694
1568793509.61257
1568793509.6282
1568793509.64382
1568793509.65945
1568793509.67507
1568793509.6907
1568793509.70632
1568793509.72195
1568793509.73758
1568793509.7532
1568793509.76883
1568793509.78445
1568793509.80008
1568793509.8157
1568793509.83133
1568793509.84696
1568793509.86258
1568793509.87821
1568793509.89383
1568793509.90946
1568793509.92508
1568793509.94071
1568793509.95634
1568793509.97196
1568793509.98759
1568793510.00321
1568793510.01884
1568793510.03446
1568793510.05009
1568793510.06572
1568793510.08134
1568793510.09697
1568793510.11259
1568793510.12822
1568793510.14384
1568793510.15947
1568793510.1751
1568793510.19072
1568793510.20635
1568793510.22197
1568793510.2376
1568793510.25322
1568793510.26885
1568793510.28448
1568793510.3001
1568793510.31573
1568793510.33135
1568793510.34698
1568793510.3626
1568793510.37823
1568793510.39386
1568793510.40948
1568793510.42511
1568793510.44073
1568793510.45636
1568793510.47198
1568793510.48761
1568793510.50324
1568793510.51886
1568793510.53449
1568793510.55011
1568793510.56574
1568793510.58136
1568793510.59699
1568793510.61262
1568793510.62824
1568793510.64387
1568793510.65949
1568793510.67512
1568793510.69074
1568793510.70637
1568793510.722
1568793510.73762
1568793510.75325
1568793510.76887
1568793510.7845
1568793510.80012
1568793510.81575
1568793510.83138
1568793510.847
1568793510.86263
1568793510.87825
1568793510.89388
1568793510.9095
1568793510.92513
1568793510.94076
1568793510.95638
1568793510.97201
1568793510.98763
1568793511.00326
1568793511.01888
1568793511.03451
1568793511.05014
1568793511.06576
1568793511.08139
1568793511.09701
1568793511.11264
1568793511.12826
1568793511.14389
1568793511.15952
1568793511.17514
1568793511.19077
1568793511.20639
1568793511.22202
1568793511.23764
1568793511.25327
1568793511.2689
1568793511.28452
1568793511.30015
1568793511.31577
1568793511.3314
1568793511.34702
1568793511.36265
1568793511.37828
1568793511.3939
1568793511.40953
1568793511.42515
1568793511.44078
1568793511.4564
1568793511.47203
1568793511.48766
1568793511.50328
1568793511.51891
1568793511.53453
1568793511.55016
1568793511.56578
1568793511.58141
1568793511.59704
1568793511.61266
1568793511.62829
1568793511.64391
1568793511.65954
1568793511.67516
1568793511.69079
1568793511.70642
1568793511.72204
1568793511.73767
1568793511.75329
1568793511.76892
1568793511.78454
1568793511.80017
1568793511.8158
1568793511.83142
1568793511.84705
1568793511.86267
1568793511.8783
1568793511.89392
1568793511.90955
1568793511.92518
1568793511.9408
1568793511.95643
1568793511.97205
1568793511.98768
1568793512.0033
1568793512.01893
1568793512.03456
1568793512.05018
1568793512.06581
1568793512.08143
1568793512.09706
1568793512.11269
1568793512.12831
1568793512.14394
1568793512.15956
1568793512.17519
1568793512.19081
1568793512.20644
1568793512.22207
1568793512.23769
1568793512.25332
1568793512.26894
1568793512.28457
1568793512.30019
1568793512.31582
1568793512.33145
1568793512.34707
1568793512.3627
1568793512.37832
1568793512.39395
1568793512.40957
1568793512.4252
1568793512.44083
1568793512.45645
1568793512.47208
1568793512.4877
1568793512.50333
1568793512.51895
1568793512.53458
1568793512.55021
1568793512.56583
1568793512.58146
1568793512.59708
1568793512.61271
1568793512.62833
1568793512.64396
1568793512.65959
1568793512.67521
1568793512.69084
1568793512.70646
1568793512.72209
1568793512.73771
1568793512.75334
1568793512.76897
1568793512.78459
1568793512.80022
1568793512.81584
1568793512.83147
1568793512.84709
1568793512.86272
1568793512.87835
1568793512.89397
1568793512.9096
1568793512.92522
1568793512.94085
1568793512.95647
1568793512.9721
1568793512.98773
1568793513.00335
1568793513.01898
1568793513.0346
1568793513.05023
1568793513.06585
1568793513.08148
1568793513.09711
1568793513.11273
1568793513.12836
1568793513.14398
1568793513.15961
1568793513.17523
1568793513.19086
1568793513.20649
1568793513.22211
1568793513.23774
1568793513.25336
1568793513.26899
1568793513.28461
1568793513.30024
1568793513.31587
1568793513.33149
1568793513.34712
1568793513.36274
1568793513.37837
1568793513.39399
1568793513.40962
1568793513.42525
1568793513.44087
1568793513.4565
1568793513.47212
1568793513.48775
1568793513.50337
1568793513.519
1568793513.53463
1568793513.55025
1568793513.56588
1568793513.5815
1568793513.59713
1568793513.61275
1568793513.62838
1568793513.64401
1568793513.65963
1568793513.67526
1568793513.69088
1568793513.70651
1568793513.72213
1568793513.73776
1568793513.75339
1568793513.76901
1568793513.78464
1568793513.80026
1568793513.81589
1568793513.83151
1568793513.84714
1568793513.86277
1568793513.87839
1568793513.89402
1568793513.90964
1568793513.92527
1568793513.94089
1568793513.95652
1568793513.97215
1568793513.98777
1568793514.0034
1568793514.01902
1568793514.03465
1568793514.05027
1568793514.0659
1568793514.08153
1568793514.09715
1568793514.11278
1568793514.1284
1568793514.14403
1568793514.15965
1568793514.17528
1568793514.19091
1568793514.20653
1568793514.22216
1568793514.23778
1568793514.25341
1568793514.26904
1568793514.28466
1568793514.30029
1568793514.31591
1568793514.33154
1568793514.34716
1568793514.36279
1568793514.37842
1568793514.39404
1568793514.40967
1568793514.42529
1568793514.44092
1568793514.45654
1568793514.47217
1568793514.4878
1568793514.50342
1568793514.51905
1568793514.53467
1568793514.5503
1568793514.56592
1568793514.58155
1568793514.59718
1568793514.6128
1568793514.62843
1568793514.64405
1568793514.65968
1568793514.6753
1568793514.69093
1568793514.70656
1568793514.72218
1568793514.73781
1568793514.75343
1568793514.76906
1568793514.78468
1568793514.80031
1568793514.81594
1568793514.83156
1568793514.84719
1568793514.86281
1568793514.87844
1568793514.89406
1568793514.90969
1568793514.92532
1568793514.94094
1568793514.95657
1568793514.97219
1568793514.98782
1568793515.00344
1568793515.01907
1568793515.0347
1568793515.05032
1568793515.06595
1568793515.08157
1568793515.0972
1568793515.11282
1568793515.12845
1568793515.14408
1568793515.1597
1568793515.17533
1568793515.19095
1568793515.20658
1568793515.2222
1568793515.23783
1568793515.25346
1568793515.26908
1568793515.28471
1568793515.30033
1568793515.31596
1568793515.33158
1568793515.34721
1568793515.36284
1568793515.37846
1568793515.39409
1568793515.40971
1568793515.42534
1568793515.44096
1568793515.45659
1568793515.47222
1568793515.48784
1568793515.50347
1568793515.51909
1568793515.53472
1568793515.55034
1568793515.56597
1568793515.5816
1568793515.59722
1568793515.61285
1568793515.62847
1568793515.6441
1568793515.65972
1568793515.67535
1568793515.69098
1568793515.7066
1568793515.72223
1568793515.73785
1568793515.75348
1568793515.7691
1568793515.78473
1568793515.80036
1568793515.81598
1568793515.83161
1568793515.84723
1568793515.86286
1568793515.87848
1568793515.89411
1568793515.90974
1568793515.92536
1568793515.94099
1568793515.95661
1568793515.97224
1568793515.98786
1568793516.00349
1568793516.01912
1568793516.03474
1568793516.05037
1568793516.06599
1568793516.08162
1568793516.09724
1568793516.11287
1568793516.1285
1568793516.14412
1568793516.15975
1568793516.17537
1568793516.191
1568793516.20662
1568793516.22225
1568793516.23788
1568793516.2535
1568793516.26913
1568793516.28475
1568793516.30038
1568793516.316
1568793516.33163
1568793516.34726
1568793516.36288
1568793516.37851
1568793516.39413
1568793516.40976
1568793516.42538
1568793516.44101
1568793516.45664
1568793516.47226
1568793516.48789
1568793516.50351
1568793516.51914
1568793516.53477
1568793516.55039
1568793516.56602
1568793516.58164
1568793516.59727
1568793516.61289
1568793516.62852
1568793516.64415
1568793516.65977
1568793516.6754
1568793516.69102
1568793516.70665
1568793516.72227
1568793516.7379
1568793516.75353
1568793516.76915
1568793516.78478
1568793516.8004
1568793516.81603
1568793516.83165
1568793516.84728
1568793516.86291
1568793516.87853
1568793516.89416
1568793516.90978
1568793516.92541
1568793516.94103
1568793516.95666
1568793516.97229
1568793516.98791
1568793517.00354
1568793517.01916
1568793517.03479
1568793517.05041
1568793517.06604
1568793517.08167
1568793517.09729
1568793517.11292
1568793517.12854
1568793517.14417
1568793517.15979
1568793517.17542
1568793517.19105
1568793517.20667
1568793517.2223
1568793517.23792
1568793517.25355
1568793517.26917
1568793517.2848
1568793517.30043
1568793517.31605
1568793517.33168
1568793517.3473
1568793517.36293
1568793517.37855
1568793517.39418
1568793517.40981
1568793517.42543
1568793517.44106
1568793517.45668
1568793517.47231
1568793517.48793
1568793517.50356
1568793517.51919
1568793517.53481
1568793517.55044
1568793517.56606
1568793517.58169
1568793517.59731
1568793517.61294
1568793517.62857
1568793517.64419
1568793517.65982
1568793517.67544
1568793517.69107
1568793517.70669
1568793517.72232
1568793517.73795
1568793517.75357
1568793517.7692
1568793517.78482
1568793517.80045
1568793517.81607
1568793517.8317
1568793517.84733
1568793517.86295
1568793517.87858
1568793517.8942
1568793517.90983
1568793517.92545
1568793517.94108
1568793517.95671
1568793517.97233
1568793517.98796
1568793518.00358
1568793518.01921
1568793518.03483
1568793518.05046
1568793518.06609
1568793518.08171
1568793518.09734
1568793518.11296
1568793518.12859
1568793518.14421
1568793518.15984
1568793518.17547
1568793518.19109
1568793518.20672
1568793518.22234
1568793518.23797
1568793518.25359
1568793518.26922
1568793518.28485
1568793518.30047
1568793518.3161
1568793518.33172
1568793518.34735
1568793518.36297
1568793518.3786
1568793518.39423
1568793518.40985
1568793518.42548
1568793518.4411
1568793518.45673
1568793518.47235
1568793518.48798
1568793518.50361
1568793518.51923
1568793518.53486
1568793518.55048
1568793518.56611
1568793518.58173
1568793518.59736
1568793518.61299
1568793518.62861
1568793518.64424
1568793518.65986
1568793518.67549
1568793518.69111
1568793518.70674
1568793518.72237
1568793518.73799
1568793518.75362
1568793518.76924
1568793518.78487
1568793518.80049
1568793518.81612
1568793518.83175
1568793518.84737
1568793518.863
1568793518.87862
1568793518.89425
1568793518.90987
1568793518.9255
1568793518.94113
1568793518.95675
1568793518.97238
1568793518.988
1568793519.00363
1568793519.01925
1568793519.03488
1568793519.05051
1568793519.06613
1568793519.08176
1568793519.09738
1568793519.11301
1568793519.12864
1568793519.14426
1568793519.15989
1568793519.17551
1568793519.19114
1568793519.20676
1568793519.22239
1568793519.23802
1568793519.25364
1568793519.26927
1568793519.28489
1568793519.30052
1568793519.31614
1568793519.33177
1568793519.3474
1568793519.36302
1568793519.37865
1568793519.39427
1568793519.4099
1568793519.42552
1568793519.44115
1568793519.45678
1568793519.4724
1568793519.48803
1568793519.50365
1568793519.51928
1568793519.5349
1568793519.55053
1568793519.56616
1568793519.58178
1568793519.59741
1568793519.61303
1568793519.62866
1568793519.64428
1568793519.65991
1568793519.67554
1568793519.69116
1568793519.70679
1568793519.72241
1568793519.73804
1568793519.75366
1568793519.76929
1568793519.78492
1568793519.80054
1568793519.81617
1568793519.83179
1568793519.84742
1568793519.86304
1568793519.87867
1568793519.8943
1568793519.90992
1568793519.92555
1568793519.94117
1568793519.9568
1568793519.97242
1568793519.98805
1568793520.00368
1568793520.0193
1568793520.03493
1568793520.05055
1568793520.06618
1568793520.0818
1568793520.09743
1568793520.11306
1568793520.12868
1568793520.14431
1568793520.15993
1568793520.17556
1568793520.19118
1568793520.20681
1568793520.22244
1568793520.23806
1568793520.25369
1568793520.26931
1568793520.28494
1568793520.30056
1568793520.31619
1568793520.33182
1568793520.34744
1568793520.36307
1568793520.37869
1568793520.39432
1568793520.40994
1568793520.42557
1568793520.4412
1568793520.45682
1568793520.47245
1568793520.48807
1568793520.5037
1568793520.51932
1568793520.53495
1568793520.55058
1568793520.5662
1568793520.58183
1568793520.59745
1568793520.61308
1568793520.6287
1568793520.64433
1568793520.65996
1568793520.67558
1568793520.69121
1568793520.70683
1568793520.72246
1568793520.73808
1568793520.75371
1568793520.76934
1568793520.78496
1568793520.80059
1568793520.81621
1568793520.83184
1568793520.84746
1568793520.86309
1568793520.87872
1568793520.89434
1568793520.90997
1568793520.92559
1568793520.94122
1568793520.95684
1568793520.97247
1568793520.9881
1568793521.00372
1568793521.01935
1568793521.03497
1568793521.0506
1568793521.06622
1568793521.08185
1568793521.09748
1568793521.1131
1568793521.12873
1568793521.14435
1568793521.15998
1568793521.1756
1568793521.19123
1568793521.20686
1568793521.22248
1568793521.23811
1568793521.25373
1568793521.26936
1568793521.28498
1568793521.30061
1568793521.31624
1568793521.33186
1568793521.34749
1568793521.36311
1568793521.37874
1568793521.39437
1568793521.40999
1568793521.42562
1568793521.44124
1568793521.45687
1568793521.47249
1568793521.48812
1568793521.50375
1568793521.51937
1568793521.535
1568793521.55062
1568793521.56625
1568793521.58187
1568793521.5975
1568793521.61313
1568793521.62875
1568793521.64438
1568793521.66
1568793521.67563
1568793521.69125
1568793521.70688
1568793521.72251
1568793521.73813
1568793521.75376
1568793521.76938
1568793521.78501
1568793521.80063
1568793521.81626
1568793521.83189
1568793521.84751
1568793521.86314
1568793521.87876
1568793521.89439
1568793521.91001
1568793521.92564
1568793521.94127
1568793521.95689
1568793521.97252
1568793521.98814
1568793522.00377
1568793522.01939
1568793522.03502
1568793522.05065
1568793522.06627
1568793522.0819
1568793522.09752
1568793522.11315
1568793522.12877
1568793522.1444
1568793522.16003
1568793522.17565
1568793522.19128
1568793522.2069
1568793522.22253
1568793522.23815
1568793522.25378
1568793522.26941
1568793522.28503
1568793522.30066
1568793522.31628
1568793522.33191
1568793522.34753
1568793522.36316
1568793522.37879
1568793522.39441
1568793522.41004
1568793522.42566
1568793522.44129
1568793522.45691
1568793522.47254
1568793522.48817
1568793522.50379
1568793522.51942
1568793522.53504
1568793522.55067
1568793522.56629
1568793522.58192
1568793522.59755
1568793522.61317
1568793522.6288
1568793522.64442
1568793522.66005
1568793522.67567
1568793522.6913
1568793522.70693
1568793522.72255
1568793522.73818
1568793522.7538
1568793522.76943
1568793522.78505
1568793522.80068
1568793522.81631
1568793522.83193
1568793522.84756
1568793522.86318
1568793522.87881
1568793522.89443
1568793522.91006
1568793522.92569
1568793522.94131
1568793522.95694
1568793522.97256
1568793522.98819
1568793523.00381
1568793523.01944
1568793523.03507
1568793523.05069
1568793523.06632
1568793523.08194
1568793523.09757
1568793523.11319
1568793523.12882
1568793523.14445
1568793523.16007
1568793523.1757
1568793523.19132
1568793523.20695
1568793523.22257
1568793523.2382
1568793523.25383
1568793523.26945
1568793523.28508
1568793523.3007
1568793523.31633
1568793523.33195
1568793523.34758
1568793523.36321
1568793523.37883
1568793523.39446
1568793523.41008
1568793523.42571
1568793523.44133
1568793523.45696
1568793523.47259
1568793523.48821
1568793523.50384
1568793523.51946
1568793523.53509
1568793523.55071
1568793523.56634
1568793523.58197
1568793523.59759
1568793523.61322
1568793523.62884
1568793523.64447
1568793523.66009
1568793523.67572
1568793523.69135
1568793523.70697
1568793523.7226
1568793523.73822
1568793523.75385
1568793523.76947
1568793523.7851
1568793523.80073
1568793523.81635
1568793523.83198
1568793523.8476
1568793523.86323
1568793523.87885
1568793523.89448
1568793523.91011
1568793523.92573
1568793523.94136
1568793523.95698
1568793523.97261
1568793523.98824
1568793524.00386
1568793524.01949
1568793524.03511
1568793524.05074
1568793524.06636
1568793524.08199
1568793524.09762
1568793524.11324
1568793524.12887
1568793524.14449
1568793524.16012
1568793524.17574
1568793524.19137
1568793524.207
1568793524.22262
1568793524.23825
1568793524.25387
1568793524.2695
1568793524.28512
1568793524.30075
1568793524.31638
1568793524.332
1568793524.34763
1568793524.36325
1568793524.37888
1568793524.3945
1568793524.41013
1568793524.42576
1568793524.44138
1568793524.45701
1568793524.47263
1568793524.48826
1568793524.50388
1568793524.51951
1568793524.53514
1568793524.55076
1568793524.56639
1568793524.58201
1568793524.59764
1568793524.61326
1568793524.62889
1568793524.64452
1568793524.66014
1568793524.67577
1568793524.69139
1568793524.70702
1568793524.72264
1568793524.73827
1568793524.7539
1568793524.76952
1568793524.78515
1568793524.80077
1568793524.8164
1568793524.83202
1568793524.84765
1568793524.86328
1568793524.8789
1568793524.89453
1568793524.91015
1568793524.92578
1568793524.9414
1568793524.95703
1568793524.97266
1568793524.98828
1568793525.00391
1568793525.01953
1568793525.03516
1568793525.05078
1568793525.06641
1568793525.08204
1568793525.09766
1568793525.11329
1568793525.12891
1568793525.14454
1568793525.16016
1568793525.17579
1568793525.19142
1568793525.20704
1568793525.22267
1568793525.23829
1568793525.25392
1568793525.26954
1568793525.28517
1568793525.3008
1568793525.31642
1568793525.33205
1568793525.34767
1568793525.3633
1568793525.37892
1568793525.39455
1568793525.41018
1568793525.4258
1568793525.44143
1568793525.45705
1568793525.47268
1568793525.4883
1568793525.50393
1568793525.51956
1568793525.53518
1568793525.55081
1568793525.56643
1568793525.58206
1568793525.59768
1568793525.61331
1568793525.62894
1568793525.64456
1568793525.66019
1568793525.67581
1568793525.69144
1568793525.70706
1568793525.72269
1568793525.73832
1568793525.75394
1568793525.76957
1568793525.78519
1568793525.80082
1568793525.81644
1568793525.83207
1568793525.8477
1568793525.86332
1568793525.87895
1568793525.89457
1568793525.9102
1568793525.92582
1568793525.94145
1568793525.95708
1568793525.9727
1568793525.98833
1568793526.00395
1568793526.01958
1568793526.0352
1568793526.05083
1568793526.06646
1568793526.08208
1568793526.09771
1568793526.11333
1568793526.12896
1568793526.14458
1568793526.16021
1568793526.17584
1568793526.19146
1568793526.20709
1568793526.22271
1568793526.23834
1568793526.25397
1568793526.26959
1568793526.28522
1568793526.30084
1568793526.31647
1568793526.33209
1568793526.34772
1568793526.36335
1568793526.37897
1568793526.3946
1568793526.41022
1568793526.42585
1568793526.44147
1568793526.4571
1568793526.47273
1568793526.48835
1568793526.50398
1568793526.5196
1568793526.53523
1568793526.55085
1568793526.56648
1568793526.58211
1568793526.59773
1568793526.61336
1568793526.62898
1568793526.64461
1568793526.66023
1568793526.67586
1568793526.69149
1568793526.70711
1568793526.72274
1568793526.73836
1568793526.75399
1568793526.76961
1568793526.78524
1568793526.80087
1568793526.81649
1568793526.83212
1568793526.84774
1568793526.86337
1568793526.87899
1568793526.89462
1568793526.91025
1568793526.92587
1568793526.9415
1568793526.95712
1568793526.97275
1568793526.98837
1568793527.004
1568793527.01963
1568793527.03525
1568793527.05088
1568793527.0665
1568793527.08213
1568793527.09775
1568793527.11338
1568793527.12901
1568793527.14463
1568793527.16026
1568793527.17588
1568793527.19151
1568793527.20713
1568793527.22276
1568793527.23839
1568793527.25401
1568793527.26964
1568793527.28526
1568793527.30089
1568793527.31651
1568793527.33214
1568793527.34777
1568793527.36339
1568793527.37902
1568793527.39464
1568793527.41027
1568793527.42589
1568793527.44152
1568793527.45715
1568793527.47277
1568793527.4884
1568793527.50402
1568793527.51965
1568793527.53527
1568793527.5509
1568793527.56653
1568793527.58215
1568793527.59778
1568793527.6134
1568793527.62903
1568793527.64465
1568793527.66028
1568793527.67591
1568793527.69153
1568793527.70716
1568793527.72278
1568793527.73841
1568793527.75403
1568793527.76966
1568793527.78529
1568793527.80091
1568793527.81654
1568793527.83216
1568793527.84779
1568793527.86341
1568793527.87904
1568793527.89467
1568793527.91029
1568793527.92592
1568793527.94154
1568793527.95717
1568793527.97279
1568793527.98842
1568793528.00405
1568793528.01967
1568793528.0353
1568793528.05092
1568793528.06655
1568793528.08217
1568793528.0978
1568793528.11343
1568793528.12905
1568793528.14468
1568793528.1603
1568793528.17593
1568793528.19155
1568793528.20718
1568793528.22281
1568793528.23843
1568793528.25406
1568793528.26968
1568793528.28531
1568793528.30093
1568793528.31656
1568793528.33219
1568793528.34781
1568793528.36344
1568793528.37906
1568793528.39469
1568793528.41032
1568793528.42594
1568793528.44157
1568793528.45719
1568793528.47282
1568793528.48844
1568793528.50407
1568793528.5197
1568793528.53532
1568793528.55095
1568793528.56657
1568793528.5822
1568793528.59782
1568793528.61345
1568793528.62908
1568793528.6447
1568793528.66033
1568793528.67595
1568793528.69158
1568793528.7072
1568793528.72283
1568793528.73846
1568793528.75408
1568793528.76971
1568793528.78533
1568793528.80096
1568793528.81658
1568793528.83221
1568793528.84784
1568793528.86346
1568793528.87909
1568793528.89471
1568793528.91034
1568793528.92596
1568793528.94159
1568793528.95722
1568793528.97284
1568793528.98847
1568793529.00409
1568793529.01972
1568793529.03534
1568793529.05097
1568793529.0666
1568793529.08222
1568793529.09785
1568793529.11347
1568793529.1291
1568793529.14472
1568793529.16035
1568793529.17598
1568793529.1916
1568793529.20723
1568793529.22285
1568793529.23848
1568793529.2541
1568793529.26973
1568793529.28536
1568793529.30098
1568793529.31661
1568793529.33223
1568793529.34786
1568793529.36348
1568793529.37911
1568793529.39474
1568793529.41036
1568793529.42599
1568793529.44161
1568793529.45724
1568793529.47286
1568793529.48849
1568793529.50412
1568793529.51974
1568793529.53537
1568793529.55099
1568793529.56662
1568793529.58224
1568793529.59787
1568793529.6135
1568793529.62912
1568793529.64475
1568793529.66037
1568793529.676
1568793529.69162
1568793529.70725
1568793529.72288
1568793529.7385
1568793529.75413
1568793529.76975
1568793529.78538
1568793529.801
1568793529.81663
1568793529.83226
1568793529.84788
1568793529.86351
1568793529.87913
1568793529.89476
1568793529.91038
1568793529.92601
1568793529.94164
1568793529.95726
1568793529.97289
1568793529.98851
1568793530.00414
1568793530.01976
1568793530.03539
1568793530.05102
1568793530.06664
1568793530.08227
1568793530.09789
1568793530.11352
1568793530.12914
1568793530.14477
1568793530.1604
1568793530.17602
1568793530.19165
1568793530.20727
1568793530.2229
1568793530.23852
1568793530.25415
1568793530.26978
1568793530.2854
1568793530.30103
1568793530.31665
1568793530.33228
1568793530.3479
1568793530.36353
1568793530.37916
1568793530.39478
1568793530.41041
1568793530.42603
1568793530.44166
1568793530.45728
1568793530.47291
1568793530.48854
1568793530.50416
1568793530.51979
1568793530.53541
1568793530.55104
1568793530.56666
1568793530.58229
1568793530.59792
1568793530.61354
1568793530.62917
1568793530.64479
1568793530.66042
1568793530.67604
1568793530.69167
1568793530.7073
1568793530.72292
1568793530.73855
1568793530.75417
1568793530.7698
1568793530.78542
1568793530.80105
1568793530.81668
1568793530.8323
1568793530.84793
1568793530.86355
1568793530.87918
1568793530.8948
1568793530.91043
1568793530.92606
1568793530.94168
1568793530.95731
1568793530.97293
1568793530.98856
1568793531.00418
1568793531.01981
1568793531.03544
1568793531.05106
1568793531.06669
1568793531.08231
1568793531.09794
1568793531.11357
1568793531.12919
1568793531.14482
1568793531.16044
1568793531.17607
1568793531.19169
1568793531.20732
1568793531.22295
1568793531.23857
1568793531.2542
1568793531.26982
1568793531.28545
1568793531.30107
1568793531.3167
1568793531.33233
1568793531.34795
1568793531.36358
1568793531.3792
1568793531.39483
1568793531.41045
1568793531.42608
1568793531.44171
1568793531.45733
1568793531.47296
1568793531.48858
1568793531.50421
1568793531.51983
1568793531.53546
1568793531.55109
1568793531.56671
1568793531.58234
1568793531.59796
1568793531.61359
1568793531.62921
1568793531.64484
1568793531.66047
1568793531.67609
1568793531.69172
1568793531.70734
1568793531.72297
1568793531.73859
1568793531.75422
1568793531.76985
1568793531.78547
1568793531.8011
1568793531.81672
1568793531.83235
1568793531.84797
1568793531.8636
1568793531.87923
1568793531.89485
1568793531.91048
1568793531.9261
1568793531.94173
1568793531.95735
1568793531.97298
1568793531.98861
1568793532.00423
1568793532.01986
1568793532.03548
1568793532.05111
1568793532.06673
1568793532.08236
1568793532.09799
1568793532.11361
1568793532.12924
1568793532.14486
1568793532.16049
1568793532.17611
1568793532.19174
1568793532.20737
1568793532.22299
1568793532.23862
1568793532.25424
1568793532.26987
1568793532.28549
1568793532.30112
1568793532.31675
1568793532.33237
1568793532.348
1568793532.36362
1568793532.37925
1568793532.39487
1568793532.4105
1568793532.42613
1568793532.44175
1568793532.45738
1568793532.473
1568793532.48863
1568793532.50425
1568793532.51988
1568793532.53551
1568793532.55113
1568793532.56676
1568793532.58238
1568793532.59801
1568793532.61363
1568793532.62926
1568793532.64489
1568793532.66051
1568793532.67614
1568793532.69176
1568793532.70739
1568793532.72301
1568793532.73864
1568793532.75427
1568793532.76989
1568793532.78552
1568793532.80114
1568793532.81677
1568793532.83239
1568793532.84802
1568793532.86365
1568793532.87927
1568793532.8949
1568793532.91052
1568793532.92615
1568793532.94177
1568793532.9574
1568793532.97303
1568793532.98865
1568793533.00428
1568793533.0199
1568793533.03553
1568793533.05115
1568793533.06678
1568793533.08241
1568793533.09803
1568793533.11366
1568793533.12928
1568793533.14491
1568793533.16053
1568793533.17616
1568793533.19179
1568793533.20741
1568793533.22304
1568793533.23866
1568793533.25429
1568793533.26992
1568793533.28554
1568793533.30117
1568793533.31679
1568793533.33242
1568793533.34804
1568793533.36367
1568793533.3793
1568793533.39492
1568793533.41055
1568793533.42617
1568793533.4418
1568793533.45742
1568793533.47305
1568793533.48868
1568793533.5043
1568793533.51993
1568793533.53555
1568793533.55118
1568793533.5668
1568793533.58243
1568793533.59806
1568793533.61368
1568793533.62931
1568793533.64493
1568793533.66056
1568793533.67618
1568793533.69181
1568793533.70744
1568793533.72306
1568793533.73869
1568793533.75431
1568793533.76994
1568793533.78556
1568793533.80119
1568793533.81682
1568793533.83244
1568793533.84807
1568793533.86369
1568793533.87932
1568793533.89494
1568793533.91057
1568793533.9262
1568793533.94182
1568793533.95745
1568793533.97307
1568793533.9887
1568793534.00432
1568793534.01995
1568793534.03558
1568793534.0512
1568793534.06683
1568793534.08245
1568793534.09808
1568793534.1137
1568793534.12933
1568793534.14496
1568793534.16058
1568793534.17621
1568793534.19183
1568793534.20746
1568793534.22308
1568793534.23871
1568793534.25434
1568793534.26996
1568793534.28559
1568793534.30121
1568793534.31684
1568793534.33246
1568793534.34809
1568793534.36372
1568793534.37934
1568793534.39497
1568793534.41059
1568793534.42622
1568793534.44184
1568793534.45747
1568793534.4731
1568793534.48872
1568793534.50435
1568793534.51997
1568793534.5356
1568793534.55122
1568793534.56685
1568793534.58248
1568793534.5981
1568793534.61373
1568793534.62935
1568793534.64498
1568793534.6606
1568793534.67623
1568793534.69186
1568793534.70748
1568793534.72311
1568793534.73873
1568793534.75436
1568793534.76998
1568793534.78561
1568793534.80124
1568793534.81686
1568793534.83249
1568793534.84811
1568793534.86374
1568793534.87936
1568793534.89499
1568793534.91062
1568793534.92624
1568793534.94187
1568793534.95749
1568793534.97312
1568793534.98874
1568793535.00437
1568793535.02
1568793535.03562
1568793535.05125
1568793535.06687
1568793535.0825
1568793535.09812
1568793535.11375
1568793535.12938
1568793535.145
1568793535.16063
1568793535.17625
1568793535.19188
1568793535.2075
1568793535.22313
1568793535.23876
1568793535.25438
1568793535.27001
1568793535.28563
1568793535.30126
1568793535.31688
1568793535.33251
1568793535.34814
1568793535.36376
1568793535.37939
1568793535.39501
1568793535.41064
1568793535.42626
1568793535.44189
1568793535.45752
1568793535.47314
1568793535.48877
1568793535.50439
1568793535.52002
1568793535.53565
1568793535.55127
1568793535.5669
1568793535.58252
1568793535.59815
1568793535.61377
1568793535.6294
1568793535.64503
1568793535.66065
1568793535.67628
1568793535.6919
1568793535.70753
1568793535.72315
1568793535.73878
1568793535.75441
1568793535.77003
1568793535.78566
1568793535.80128
1568793535.81691
1568793535.83253
1568793535.84816
1568793535.86379
1568793535.87941
1568793535.89504
1568793535.91066
1568793535.92629
1568793535.94191
1568793535.95754
1568793535.97317
1568793535.98879
1568793536.00442
1568793536.02004
1568793536.03567
1568793536.05129
1568793536.06692
1568793536.08255
1568793536.09817
1568793536.1138
1568793536.12942
1568793536.14505
1568793536.16067
1568793536.1763
1568793536.19193
1568793536.20755
1568793536.22318
1568793536.2388
1568793536.25443
1568793536.27005
1568793536.28568
1568793536.30131
1568793536.31693
1568793536.33256
1568793536.34818
1568793536.36381
1568793536.37943
1568793536.39506
1568793536.41069
1568793536.42631
1568793536.44194
1568793536.45756
1568793536.47319
1568793536.48881
1568793536.50444
1568793536.52007
1568793536.53569
1568793536.55132
1568793536.56694
1568793536.58257
1568793536.59819
1568793536.61382
1568793536.62945
1568793536.64507
1568793536.6607
1568793536.67632
1568793536.69195
1568793536.70757
1568793536.7232
1568793536.73883
1568793536.75445
1568793536.77008
1568793536.7857
1568793536.80133
1568793536.81695
1568793536.83258
1568793536.84821
1568793536.86383
1568793536.87946
1568793536.89508
1568793536.91071
1568793536.92633
1568793536.94196
1568793536.95759
1568793536.97321
1568793536.98884
1568793537.00446
1568793537.02009
1568793537.03571
1568793537.05134
1568793537.06697
1568793537.08259
1568793537.09822
1568793537.11384
1568793537.12947
1568793537.14509
1568793537.16072
1568793537.17635
1568793537.19197
1568793537.2076
1568793537.22322
1568793537.23885
1568793537.25447
1568793537.2701
1568793537.28573
1568793537.30135
1568793537.31698
1568793537.3326
1568793537.34823
1568793537.36385
1568793537.37948
1568793537.39511
1568793537.41073
1568793537.42636
1568793537.44198
1568793537.45761
1568793537.47323
1568793537.48886
1568793537.50449
1568793537.52011
1568793537.53574
1568793537.55136
1568793537.56699
1568793537.58261
1568793537.59824
1568793537.61387
1568793537.62949
1568793537.64512
1568793537.66074
1568793537.67637
1568793537.69199
1568793537.70762
1568793537.72325
1568793537.73887
1568793537.7545
1568793537.77012
1568793537.78575
1568793537.80137
1568793537.817
1568793537.83263
1568793537.84825
1568793537.86388
1568793537.8795
1568793537.89513
1568793537.91075
1568793537.92638
1568793537.94201
1568793537.95763
1568793537.97326
1568793537.98888
1568793538.00451
1568793538.02013
1568793538.03576
1568793538.05139
1568793538.06701
1568793538.08264
1568793538.09826
1568793538.11389
1568793538.12951
1568793538.14514
1568793538.16077
1568793538.17639
1568793538.19202
1568793538.20764
1568793538.22327
1568793538.2389
1568793538.25452
1568793538.27015
1568793538.28577
1568793538.3014
1568793538.31702
1568793538.33265
1568793538.34828
1568793538.3639
1568793538.37953
1568793538.39515
1568793538.41078
1568793538.4264
1568793538.44203
1568793538.45766
1568793538.47328
1568793538.48891
1568793538.50453
1568793538.52016
1568793538.53578
1568793538.55141
1568793538.56704
1568793538.58266
1568793538.59829
1568793538.61391
1568793538.62954
1568793538.64516
1568793538.66079
1568793538.67642
1568793538.69204
1568793538.70767
1568793538.72329
1568793538.73892
1568793538.75454
1568793538.77017
1568793538.7858
1568793538.80142
1568793538.81705
1568793538.83267
1568793538.8483
1568793538.86392
1568793538.87955
1568793538.89518
1568793538.9108
1568793538.92643
1568793538.94205
1568793538.95768
1568793538.9733
1568793538.98893
1568793539.00456
1568793539.02018
1568793539.03581
1568793539.05143
1568793539.06706
1568793539.08268
1568793539.09831
1568793539.11394
1568793539.12956
1568793539.14519
1568793539.16081
1568793539.17644
1568793539.19206
1568793539.20769
1568793539.22332
1568793539.23894
1568793539.25457
1568793539.27019
1568793539.28582
1568793539.30144
1568793539.31707
1568793539.3327
1568793539.34832
1568793539.36395
1568793539.37957
1568793539.3952
1568793539.41082
1568793539.42645
1568793539.44208
1568793539.4577
1568793539.47333
1568793539.48895
1568793539.50458
1568793539.5202
1568793539.53583
1568793539.55146
1568793539.56708
1568793539.58271
1568793539.59833
1568793539.61396
1568793539.62958
1568793539.64521
1568793539.66084
1568793539.67646
1568793539.69209
1568793539.70771
1568793539.72334
1568793539.73896
1568793539.75459
1568793539.77022
1568793539.78584
1568793539.80147
1568793539.81709
1568793539.83272
1568793539.84834
1568793539.86397
1568793539.8796
1568793539.89522
1568793539.91085
1568793539.92647
1568793539.9421
1568793539.95772
1568793539.97335
1568793539.98898
1568793540.0046
1568793540.02023
1568793540.03585
1568793540.05148
1568793540.0671
1568793540.08273
1568793540.09836
1568793540.11398
1568793540.12961
1568793540.14523
1568793540.16086
1568793540.17648
1568793540.19211
1568793540.20774
1568793540.22336
1568793540.23899
1568793540.25461
1568793540.27024
1568793540.28586
1568793540.30149
1568793540.31712
1568793540.33274
1568793540.34837
1568793540.36399
1568793540.37962
1568793540.39525
1568793540.41087
1568793540.4265
1568793540.44212
1568793540.45775
1568793540.47337
1568793540.489
1568793540.50463
1568793540.52025
1568793540.53588
1568793540.5515
1568793540.56713
1568793540.58275
1568793540.59838
1568793540.61401
1568793540.62963
1568793540.64526
1568793540.66088
1568793540.67651
1568793540.69213
1568793540.70776
1568793540.72339
1568793540.73901
1568793540.75464
1568793540.77026
1568793540.78589
1568793540.80151
1568793540.81714
1568793540.83277
1568793540.84839
1568793540.86402
1568793540.87964
1568793540.89527
1568793540.91089
1568793540.92652
1568793540.94215
1568793540.95777
1568793540.9734
1568793540.98902
1568793541.00465
1568793541.02027
1568793541.0359
1568793541.05153
1568793541.06715
1568793541.08278
1568793541.0984
1568793541.11403
1568793541.12965
1568793541.14528
1568793541.16091
1568793541.17653
1568793541.19216
1568793541.20778
1568793541.22341
1568793541.23903
1568793541.25466
1568793541.27029
1568793541.28591
1568793541.30154
1568793541.31716
1568793541.33279
1568793541.34841
1568793541.36404
1568793541.37967
1568793541.39529
1568793541.41092
1568793541.42654
1568793541.44217
1568793541.45779
1568793541.47342
1568793541.48905
1568793541.50467
1568793541.5203
1568793541.53592
1568793541.55155
1568793541.56717
1568793541.5828
1568793541.59843
1568793541.61405
1568793541.62968
1568793541.6453
1568793541.66093
1568793541.67655
1568793541.69218
1568793541.70781
1568793541.72343
1568793541.73906
1568793541.75468
1568793541.77031
1568793541.78593
1568793541.80156
1568793541.81719
1568793541.83281
1568793541.84844
1568793541.86406
1568793541.87969
1568793541.89531
1568793541.91094
1568793541.92657
1568793541.94219
1568793541.95782
1568793541.97344
1568793541.98907
1568793542.00469
1568793542.02032
1568793542.03595
1568793542.05157
1568793542.0672
1568793542.08282
1568793542.09845
1568793542.11407
1568793542.1297
1568793542.14533
1568793542.16095
1568793542.17658
1568793542.1922
1568793542.20783
1568793542.22345
1568793542.23908
1568793542.25471
1568793542.27033
1568793542.28596
1568793542.30158
1568793542.31721
1568793542.33283
1568793542.34846
1568793542.36409
1568793542.37971
1568793542.39534
1568793542.41096
1568793542.42659
1568793542.44221
1568793542.45784
1568793542.47347
1568793542.48909
1568793542.50472
1568793542.52034
1568793542.53597
1568793542.55159
1568793542.56722
1568793542.58285
1568793542.59847
1568793542.6141
1568793542.62972
1568793542.64535
1568793542.66097
1568793542.6766
1568793542.69223
1568793542.70785
1568793542.72348
1568793542.7391
1568793542.75473
1568793542.77035
1568793542.78598
1568793542.80161
1568793542.81723
1568793542.83286
1568793542.84848
1568793542.86411
1568793542.87973
1568793542.89536
1568793542.91099
1568793542.92661
1568793542.94224
1568793542.95786
1568793542.97349
1568793542.98912
1568793543.00474
1568793543.02037
1568793543.03599
1568793543.05162
1568793543.06724
1568793543.08287
1568793543.0985
1568793543.11412
1568793543.12975
1568793543.14537
1568793543.161
1568793543.17662
1568793543.19225
1568793543.20788
1568793543.2235
1568793543.23913
1568793543.25475
1568793543.27038
1568793543.286
1568793543.30163
1568793543.31726
1568793543.33288
1568793543.34851
1568793543.36413
1568793543.37976
1568793543.39538
1568793543.41101
1568793543.42664
1568793543.44226
1568793543.45789
1568793543.47351
1568793543.48914
1568793543.50476
1568793543.52039
1568793543.53602
1568793543.55164
1568793543.56727
1568793543.58289
1568793543.59852
1568793543.61414
1568793543.62977
1568793543.6454
1568793543.66102
1568793543.67665
1568793543.69227
1568793543.7079
1568793543.72352
1568793543.73915
1568793543.75478
1568793543.7704
1568793543.78603
1568793543.80165
1568793543.81728
1568793543.8329
1568793543.84853
1568793543.86416
1568793543.87978
1568793543.89541
1568793543.91103
1568793543.92666
1568793543.94228
1568793543.95791
1568793543.97354
1568793543.98916
1568793544.00479
1568793544.02041
1568793544.03604
1568793544.05166
1568793544.06729
1568793544.08292
1568793544.09854
1568793544.11417
1568793544.12979
1568793544.14542
1568793544.16104
1568793544.17667
1568793544.1923
1568793544.20792
1568793544.22355
1568793544.23917
1568793544.2548
1568793544.27042
1568793544.28605
1568793544.30168
1568793544.3173
1568793544.33293
1568793544.34855
1568793544.36418
1568793544.3798
1568793544.39543
1568793544.41106
1568793544.42668
1568793544.44231
1568793544.45793
1568793544.47356
1568793544.48918
1568793544.50481
1568793544.52044
1568793544.53606
1568793544.55169
1568793544.56731
1568793544.58294
1568793544.59856
1568793544.61419
1568793544.62982
1568793544.64544
1568793544.66107
1568793544.67669
1568793544.69232
1568793544.70794
1568793544.72357
1568793544.7392
1568793544.75482
1568793544.77045
1568793544.78607
1568793544.8017
1568793544.81732
1568793544.83295
1568793544.84858
1568793544.8642
1568793544.87983
1568793544.89545
1568793544.91108
1568793544.9267
1568793544.94233
1568793544.95796
1568793544.97358
1568793544.98921
1568793545.00483
1568793545.02046
1568793545.03608
1568793545.05171
1568793545.06734
1568793545.08296
1568793545.09859
1568793545.11421
1568793545.12984
1568793545.14546
1568793545.16109
1568793545.17672
1568793545.19234
1568793545.20797
1568793545.22359
1568793545.23922
1568793545.25485
1568793545.27047
1568793545.2861
1568793545.30172
1568793545.31735
1568793545.33297
1568793545.3486
1568793545.36423
1568793545.37985
1568793545.39548
1568793545.4111
1568793545.42673
1568793545.44235
1568793545.45798
1568793545.47361
1568793545.48923
1568793545.50486
1568793545.52048
1568793545.53611
1568793545.55173
1568793545.56736
1568793545.58299
1568793545.59861
1568793545.61424
1568793545.62986
1568793545.64549
1568793545.66111
1568793545.67674
1568793545.69237
1568793545.70799
1568793545.72362
1568793545.73924
1568793545.75487
1568793545.77049
1568793545.78612
1568793545.80175
1568793545.81737
1568793545.833
1568793545.84862
1568793545.86425
1568793545.87987
1568793545.8955
1568793545.91113
1568793545.92675
1568793545.94238
1568793545.958
1568793545.97363
1568793545.98925
1568793546.00488
1568793546.02051
1568793546.03613
1568793546.05176
1568793546.06738
1568793546.08301
1568793546.09863
1568793546.11426
1568793546.12989
1568793546.14551
1568793546.16114
1568793546.17676
1568793546.19239
1568793546.20801
1568793546.22364
1568793546.23927
1568793546.25489
1568793546.27052
1568793546.28614
1568793546.30177
1568793546.31739
1568793546.33302
1568793546.34865
1568793546.36427
1568793546.3799
1568793546.39552
1568793546.41115
1568793546.42677
1568793546.4424
1568793546.45803
1568793546.47365
1568793546.48928
1568793546.5049
1568793546.52053
1568793546.53615
1568793546.55178
1568793546.56741
1568793546.58303
1568793546.59866
1568793546.61428
1568793546.62991
1568793546.64553
1568793546.66116
1568793546.67679
1568793546.69241
1568793546.70804
1568793546.72366
1568793546.73929
1568793546.75491
1568793546.77054
1568793546.78617
1568793546.80179
1568793546.81742
1568793546.83304
1568793546.84867
1568793546.86429
1568793546.87992
1568793546.89555
1568793546.91117
1568793546.9268
1568793546.94242
1568793546.95805
1568793546.97367
1568793546.9893
1568793547.00493
1568793547.02055
1568793547.03618
1568793547.0518
1568793547.06743
1568793547.08305
1568793547.09868
1568793547.11431
1568793547.12993
1568793547.14556
1568793547.16118
1568793547.17681
1568793547.19243
1568793547.20806
1568793547.22369
1568793547.23931
1568793547.25494
1568793547.27056
1568793547.28619
1568793547.30181
1568793547.31744
1568793547.33307
1568793547.34869
1568793547.36432
1568793547.37994
1568793547.39557
1568793547.41119
1568793547.42682
1568793547.44245
1568793547.45807
1568793547.4737
1568793547.48932
1568793547.50495
1568793547.52058
1568793547.5362
1568793547.55183
1568793547.56745
1568793547.58308
1568793547.5987
1568793547.61433
1568793547.62996
1568793547.64558
1568793547.66121
1568793547.67683
1568793547.69246
1568793547.70808
1568793547.72371
1568793547.73934
1568793547.75496
1568793547.77059
1568793547.78621
1568793547.80184
1568793547.81746
1568793547.83309
1568793547.84872
1568793547.86434
1568793547.87997
1568793547.89559
1568793547.91122
1568793547.92684
1568793547.94247
1568793547.9581
1568793547.97372
1568793547.98935
1568793548.00497
1568793548.0206
1568793548.03622
1568793548.05185
1568793548.06748
1568793548.0831
1568793548.09873
1568793548.11435
1568793548.12998
1568793548.1456
1568793548.16123
1568793548.17686
1568793548.19248
1568793548.20811
1568793548.22373
1568793548.23936
1568793548.25498
1568793548.27061
1568793548.28624
1568793548.30186
1568793548.31749
1568793548.33311
1568793548.34874
1568793548.36436
1568793548.37999
1568793548.39562
1568793548.41124
1568793548.42687
1568793548.44249
1568793548.45812
1568793548.47374
1568793548.48937
1568793548.505
1568793548.52062
1568793548.53625
1568793548.55187
1568793548.5675
1568793548.58312
1568793548.59875
1568793548.61438
1568793548.63
1568793548.64563
1568793548.66125
1568793548.67688
1568793548.6925
1568793548.70813
1568793548.72376
1568793548.73938
1568793548.75501
1568793548.77063
1568793548.78626
1568793548.80188
1568793548.81751
1568793548.83314
1568793548.84876
1568793548.86439
1568793548.88001
1568793548.89564
1568793548.91126
1568793548.92689
1568793548.94252
1568793548.95814
1568793548.97377
1568793548.98939
1568793549.00502
1568793549.02064
1568793549.03627
1568793549.0519
1568793549.06752
1568793549.08315
1568793549.09877
1568793549.1144
1568793549.13002
1568793549.14565
1568793549.16128
1568793549.1769
1568793549.19253
1568793549.20815
1568793549.22378
1568793549.2394
1568793549.25503
1568793549.27066
1568793549.28628
1568793549.30191
1568793549.31753
1568793549.33316
1568793549.34878
1568793549.36441
1568793549.38004
1568793549.39566
1568793549.41129
1568793549.42691
1568793549.44254
1568793549.45816
1568793549.47379
1568793549.48942
1568793549.50504
1568793549.52067
1568793549.53629
1568793549.55192
1568793549.56754
1568793549.58317
1568793549.5988
1568793549.61442
1568793549.63005
1568793549.64567
1568793549.6613
1568793549.67692
1568793549.69255
1568793549.70818
1568793549.7238
1568793549.73943
1568793549.75505
1568793549.77068
1568793549.7863
1568793549.80193
1568793549.81756
1568793549.83318
1568793549.84881
1568793549.86443
1568793549.88006
1568793549.89568
1568793549.91131
1568793549.92694
1568793549.94256
1568793549.95819
1568793549.97381
1568793549.98944
1568793550.00506
1568793550.02069
1568793550.03632
1568793550.05194
1568793550.06757
1568793550.08319
1568793550.09882
1568793550.11445
1568793550.13007
1568793550.1457
1568793550.16132
1568793550.17695
1568793550.19257
1568793550.2082
1568793550.22383
1568793550.23945
1568793550.25508
1568793550.2707
1568793550.28633
1568793550.30195
1568793550.31758
1568793550.33321
1568793550.34883
1568793550.36446
1568793550.38008
1568793550.39571
1568793550.41133
1568793550.42696
1568793550.44259
1568793550.45821
1568793550.47384
1568793550.48946
1568793550.50509
1568793550.52071
1568793550.53634
1568793550.55197
1568793550.56759
1568793550.58322
1568793550.59884
1568793550.61447
1568793550.63009
1568793550.64572
1568793550.66135
1568793550.67697
1568793550.6926
1568793550.70822
1568793550.72385
1568793550.73947
1568793550.7551
1568793550.77073
1568793550.78635
1568793550.80198
1568793550.8176
1568793550.83323
1568793550.84885
1568793550.86448
1568793550.88011
1568793550.89573
1568793550.91136
1568793550.92698
1568793550.94261
1568793550.95823
1568793550.97386
1568793550.98949
1568793551.00511
1568793551.02074
1568793551.03636
1568793551.05199
1568793551.06761
1568793551.08324
1568793551.09887
1568793551.11449
1568793551.13012
1568793551.14574
1568793551.16137
1568793551.17699
1568793551.19262
1568793551.20825
1568793551.22387
1568793551.2395
1568793551.25512
1568793551.27075
1568793551.28637
1568793551.302
1568793551.31763
1568793551.33325
1568793551.34888
1568793551.3645
1568793551.38013
1568793551.39575
1568793551.41138
1568793551.42701
1568793551.44263
1568793551.45826
1568793551.47388
1568793551.48951
1568793551.50513
1568793551.52076
1568793551.53639
1568793551.55201
1568793551.56764
1568793551.58326
1568793551.59889
1568793551.61451
1568793551.63014
1568793551.64577
1568793551.66139
1568793551.67702
1568793551.69264
1568793551.70827
1568793551.72389
1568793551.73952
1568793551.75515
1568793551.77077
1568793551.7864
1568793551.80202
1568793551.81765
1568793551.83327
1568793551.8489
1568793551.86453
1568793551.88015
1568793551.89578
1568793551.9114
1568793551.92703
1568793551.94265
1568793551.95828
1568793551.97391
1568793551.98953
1568793552.00516
1568793552.02078
1568793552.03641
1568793552.05203
1568793552.06766
1568793552.08329
1568793552.09891
1568793552.11454
1568793552.13016
1568793552.14579
1568793552.16141
1568793552.17704
1568793552.19267
1568793552.20829
1568793552.22392
1568793552.23954
1568793552.25517
1568793552.27079
1568793552.28642
1568793552.30205
1568793552.31767
1568793552.3333
1568793552.34892
1568793552.36455
1568793552.38018
1568793552.3958
1568793552.41143
1568793552.42705
1568793552.44268
1568793552.4583
1568793552.47393
1568793552.48956
1568793552.50518
1568793552.52081
1568793552.53643
1568793552.55206
1568793552.56768
1568793552.58331
1568793552.59894
1568793552.61456
1568793552.63019
1568793552.64581
1568793552.66144
1568793552.67706
1568793552.69269
1568793552.70832
1568793552.72394
1568793552.73957
1568793552.75519
1568793552.77082
1568793552.78644
1568793552.80207
1568793552.8177
1568793552.83332
1568793552.84895
1568793552.86457
1568793552.8802
1568793552.89582
1568793552.91145
1568793552.92708
1568793552.9427
1568793552.95833
1568793552.97395
1568793552.98958
1568793553.0052
1568793553.02083
1568793553.03646
1568793553.05208
1568793553.06771
1568793553.08333
1568793553.09896
1568793553.11458
1568793553.13021
1568793553.14584
1568793553.16146
1568793553.17709
1568793553.19271
1568793553.20834
1568793553.22396
1568793553.23959
1568793553.25522
1568793553.27084
1568793553.28647
1568793553.30209
1568793553.31772
1568793553.33334
1568793553.34897
1568793553.3646
1568793553.38022
1568793553.39585
1568793553.41147
1568793553.4271
1568793553.44272
1568793553.45835
1568793553.47398
1568793553.4896
1568793553.50523
1568793553.52085
1568793553.53648
1568793553.5521
1568793553.56773
1568793553.58336
1568793553.59898
1568793553.61461
1568793553.63023
1568793553.64586
1568793553.66148
1568793553.67711
1568793553.69274
1568793553.70836
1568793553.72399
1568793553.73961
1568793553.75524
1568793553.77086
1568793553.78649
1568793553.80212
1568793553.81774
1568793553.83337
1568793553.84899
1568793553.86462
1568793553.88024
1568793553.89587
1568793553.9115
1568793553.92712
1568793553.94275
1568793553.95837
1568793553.974
1568793553.98962
1568793554.00525
1568793554.02088
1568793554.0365
1568793554.05213
1568793554.06775
1568793554.08338
1568793554.099
1568793554.11463
1568793554.13026
1568793554.14588
1568793554.16151
1568793554.17713
1568793554.19276
1568793554.20838
1568793554.22401
1568793554.23964
1568793554.25526
1568793554.27089
1568793554.28651
1568793554.30214
1568793554.31776
1568793554.33339
1568793554.34902
1568793554.36464
1568793554.38027
1568793554.39589
1568793554.41152
1568793554.42714
1568793554.44277
1568793554.4584
1568793554.47402
1568793554.48965
1568793554.50527
1568793554.5209
1568793554.53653
1568793554.55215
1568793554.56778
1568793554.5834
1568793554.59903
1568793554.61465
1568793554.63028
1568793554.64591
1568793554.66153
1568793554.67716
1568793554.69278
1568793554.70841
1568793554.72403
1568793554.73966
1568793554.75529
1568793554.77091
1568793554.78654
1568793554.80216
1568793554.81779
1568793554.83341
1568793554.84904
1568793554.86467
1568793554.88029
1568793554.89592
1568793554.91154
1568793554.92717
1568793554.94279
1568793554.95842
1568793554.97405
1568793554.98967
1568793555.0053
1568793555.02092
1568793555.03655
1568793555.05217
1568793555.0678
1568793555.08343
1568793555.09905
1568793555.11468
1568793555.1303
1568793555.14593
1568793555.16155
1568793555.17718
1568793555.19281
1568793555.20843
1568793555.22406
1568793555.23968
1568793555.25531
1568793555.27093
1568793555.28656
1568793555.30219
1568793555.31781
1568793555.33344
1568793555.34906
1568793555.36469
1568793555.38031
1568793555.39594
1568793555.41157
1568793555.42719
1568793555.44282
1568793555.45844
1568793555.47407
1568793555.48969
1568793555.50532
1568793555.52095
1568793555.53657
1568793555.5522
1568793555.56782
1568793555.58345
1568793555.59907
1568793555.6147
1568793555.63033
1568793555.64595
1568793555.66158
1568793555.6772
1568793555.69283
1568793555.70845
1568793555.72408
1568793555.73971
1568793555.75533
1568793555.77096
1568793555.78658
1568793555.80221
1568793555.81783
1568793555.83346
1568793555.84909
1568793555.86471
1568793555.88034
1568793555.89596
1568793555.91159
1568793555.92721
1568793555.94284
1568793555.95847
1568793555.97409
1568793555.98972
1568793556.00534
1568793556.02097
1568793556.03659
1568793556.05222
1568793556.06785
1568793556.08347
1568793556.0991
1568793556.11472
1568793556.13035
1568793556.14597
1568793556.1616
1568793556.17723
1568793556.19285
1568793556.20848
1568793556.2241
1568793556.23973
1568793556.25535
1568793556.27098
1568793556.28661
1568793556.30223
1568793556.31786
1568793556.33348
1568793556.34911
1568793556.36473
1568793556.38036
1568793556.39599
1568793556.41161
1568793556.42724
1568793556.44286
1568793556.45849
1568793556.47411
1568793556.48974
1568793556.50537
1568793556.52099
1568793556.53662
1568793556.55224
1568793556.56787
1568793556.58349
1568793556.59912
1568793556.61475
1568793556.63037
1568793556.646
1568793556.66162
1568793556.67725
1568793556.69287
1568793556.7085
1568793556.72413
1568793556.73975
1568793556.75538
1568793556.771
1568793556.78663
1568793556.80225
1568793556.81788
1568793556.83351
1568793556.84913
1568793556.86476
1568793556.88038
1568793556.89601
1568793556.91163
1568793556.92726
1568793556.94289
1568793556.95851
1568793556.97414
1568793556.98976
1568793557.00539
1568793557.02101
1568793557.03664
1568793557.05227
1568793557.06789
1568793557.08352
1568793557.09914
1568793557.11477
1568793557.13039
1568793557.14602
1568793557.16165
1568793557.17727
1568793557.1929
1568793557.20852
1568793557.22415
1568793557.23978
1568793557.2554
1568793557.27103
1568793557.28665
1568793557.30228
1568793557.3179
1568793557.33353
1568793557.34916
1568793557.36478
1568793557.38041
1568793557.39603
1568793557.41166
1568793557.42728
1568793557.44291
1568793557.45854
1568793557.47416
1568793557.48979
1568793557.50541
1568793557.52104
1568793557.53666
1568793557.55229
1568793557.56792
1568793557.58354
1568793557.59917
1568793557.61479
1568793557.63042
1568793557.64604
1568793557.66167
1568793557.6773
1568793557.69292
1568793557.70855
1568793557.72417
1568793557.7398
1568793557.75542
1568793557.77105
1568793557.78668
1568793557.8023
1568793557.81793
1568793557.83355
1568793557.84918
1568793557.8648
1568793557.88043
1568793557.89606
1568793557.91168
1568793557.92731
1568793557.94293
1568793557.95856
1568793557.97418
1568793557.98981
1568793558.00544
1568793558.02106
1568793558.03669
1568793558.05231
1568793558.06794
1568793558.08356
1568793558.09919
1568793558.11482
1568793558.13044
1568793558.14607
1568793558.16169
1568793558.17732
1568793558.19294
1568793558.20857
1568793558.2242
1568793558.23982
1568793558.25545
1568793558.27107
1568793558.2867
1568793558.30232
1568793558.31795
1568793558.33358
1568793558.3492
1568793558.36483
1568793558.38045
1568793558.39608
1568793558.4117
1568793558.42733
1568793558.44296
1568793558.45858
1568793558.47421
1568793558.48983
1568793558.50546
1568793558.52108
1568793558.53671
1568793558.55234
1568793558.56796
1568793558.58359
1568793558.59921
1568793558.61484
1568793558.63046
1568793558.64609
1568793558.66172
1568793558.67734
1568793558.69297
1568793558.70859
1568793558.72422
1568793558.73984
1568793558.75547
1568793558.7711
1568793558.78672
1568793558.80235
1568793558.81797
1568793558.8336
1568793558.84922
1568793558.86485
1568793558.88048
1568793558.8961
1568793558.91173
1568793558.92735
1568793558.94298
1568793558.9586
1568793558.97423
1568793558.98986
1568793559.00548
1568793559.02111
1568793559.03673
1568793559.05236
1568793559.06798
1568793559.08361
1568793559.09924
1568793559.11486
1568793559.13049
1568793559.14611
1568793559.16174
1568793559.17736
1568793559.19299
1568793559.20862
1568793559.22424
1568793559.23987
1568793559.25549
1568793559.27112
1568793559.28674
1568793559.30237
1568793559.318
1568793559.33362
1568793559.34925
1568793559.36487
1568793559.3805
1568793559.39613
1568793559.41175
1568793559.42738
1568793559.443
1568793559.45863
1568793559.47425
1568793559.48988
1568793559.50551
1568793559.52113
1568793559.53676
1568793559.55238
1568793559.56801
1568793559.58363
1568793559.59926
1568793559.61489
1568793559.63051
1568793559.64614
1568793559.66176
1568793559.67739
1568793559.69301
1568793559.70864
1568793559.72427
1568793559.73989
1568793559.75552
1568793559.77114
1568793559.78677
1568793559.80239
1568793559.81802
1568793559.83365
1568793559.84927
1568793559.8649
1568793559.88052
1568793559.89615
1568793559.91177
1568793559.9274
1568793559.94303
1568793559.95865
1568793559.97428
1568793559.9899
1568793560.00553
1568793560.02115
1568793560.03678
1568793560.05241
1568793560.06803
1568793560.08366
1568793560.09928
1568793560.11491
1568793560.13053
1568793560.14616
1568793560.16179
1568793560.17741
1568793560.19304
1568793560.20866
1568793560.22429
1568793560.23991
1568793560.25554
1568793560.27117
1568793560.28679
1568793560.30242
1568793560.31804
1568793560.33367
1568793560.34929
1568793560.36492
1568793560.38055
1568793560.39617
1568793560.4118
1568793560.42742
1568793560.44305
1568793560.45867
1568793560.4743
1568793560.48993
1568793560.50555
1568793560.52118
1568793560.5368
1568793560.55243
1568793560.56805
1568793560.58368
1568793560.59931
1568793560.61493
1568793560.63056
1568793560.64618
1568793560.66181
1568793560.67743
1568793560.69306
1568793560.70869
1568793560.72431
1568793560.73994
1568793560.75556
1568793560.77119
1568793560.78681
1568793560.80244
1568793560.81807
1568793560.83369
1568793560.84932
1568793560.86494
1568793560.88057
1568793560.89619
1568793560.91182
1568793560.92745
1568793560.94307
1568793560.9587
1568793560.97432
1568793560.98995
1568793561.00557
1568793561.0212
1568793561.03683
1568793561.05245
1568793561.06808
1568793561.0837
1568793561.09933
1568793561.11495
1568793561.13058
1568793561.14621
1568793561.16183
1568793561.17746
1568793561.19308
1568793561.20871
1568793561.22433
1568793561.23996
1568793561.25559
1568793561.27121
1568793561.28684
1568793561.30246
1568793561.31809
1568793561.33371
1568793561.34934
1568793561.36497
1568793561.38059
1568793561.39622
1568793561.41184
1568793561.42747
1568793561.44309
1568793561.45872
1568793561.47435
1568793561.48997
1568793561.5056
1568793561.52122
1568793561.53685
1568793561.55247
1568793561.5681
1568793561.58373
1568793561.59935
1568793561.61498
1568793561.6306
1568793561.64623
1568793561.66185
1568793561.67748
1568793561.69311
1568793561.70873
1568793561.72436
1568793561.73998
1568793561.75561
1568793561.77123
1568793561.78686
1568793561.80249
1568793561.81811
1568793561.83374
1568793561.84936
1568793561.86499
1568793561.88062
1568793561.89624
1568793561.91187
1568793561.92749
1568793561.94312
1568793561.95874
1568793561.97437
1568793561.99
1568793562.00562
1568793562.02125
1568793562.03687
1568793562.0525
1568793562.06812
1568793562.08375
1568793562.09938
1568793562.115
1568793562.13063
1568793562.14625
1568793562.16188
1568793562.1775
1568793562.19313
1568793562.20876
1568793562.22438
1568793562.24001
1568793562.25563
1568793562.27126
1568793562.28688
1568793562.30251
1568793562.31814
1568793562.33376
1568793562.34939
1568793562.36501
1568793562.38064
1568793562.39626
1568793562.41189
1568793562.42752
1568793562.44314
1568793562.45877
1568793562.47439
1568793562.49002
1568793562.50564
1568793562.52127
1568793562.5369
1568793562.55252
1568793562.56815
1568793562.58377
1568793562.5994
1568793562.61502
1568793562.63065
1568793562.64628
1568793562.6619
1568793562.67753
1568793562.69315
1568793562.70878
1568793562.7244
1568793562.74003
1568793562.75566
1568793562.77128
1568793562.78691
1568793562.80253
1568793562.81816
1568793562.83378
1568793562.84941
1568793562.86504
1568793562.88066
1568793562.89629
1568793562.91191
1568793562.92754
1568793562.94316
1568793562.95879
1568793562.97442
1568793562.99004
1568793563.00567
1568793563.02129
1568793563.03692
1568793563.05254
1568793563.06817
1568793563.0838
1568793563.09942
1568793563.11505
1568793563.13067
1568793563.1463
1568793563.16192
1568793563.17755
1568793563.19318
1568793563.2088
1568793563.22443
1568793563.24005
1568793563.25568
1568793563.2713
1568793563.28693
1568793563.30256
1568793563.31818
1568793563.33381
1568793563.34943
1568793563.36506
1568793563.38068
1568793563.39631
1568793563.41194
1568793563.42756
1568793563.44319
1568793563.45881
1568793563.47444
1568793563.49006
1568793563.50569
1568793563.52132
1568793563.53694
1568793563.55257
1568793563.56819
1568793563.58382
1568793563.59944
1568793563.61507
1568793563.6307
1568793563.64632
1568793563.66195
1568793563.67757
1568793563.6932
1568793563.70882
1568793563.72445
1568793563.74008
1568793563.7557
1568793563.77133
1568793563.78695
1568793563.80258
1568793563.8182
1568793563.83383
1568793563.84946
1568793563.86508
1568793563.88071
1568793563.89633
1568793563.91196
1568793563.92758
1568793563.94321
1568793563.95884
1568793563.97446
1568793563.99009
1568793564.00571
1568793564.02134
1568793564.03696
1568793564.05259
1568793564.06822
1568793564.08384
1568793564.09947
1568793564.11509
1568793564.13072
1568793564.14634
1568793564.16197
1568793564.1776
1568793564.19322
1568793564.20885
1568793564.22447
1568793564.2401
1568793564.25573
1568793564.27135
1568793564.28698
1568793564.3026
1568793564.31823
1568793564.33385
1568793564.34948
1568793564.36511
1568793564.38073
1568793564.39636
1568793564.41198
1568793564.42761
1568793564.44323
1568793564.45886
1568793564.47449
1568793564.49011
1568793564.50574
1568793564.52136
1568793564.53699
1568793564.55261
1568793564.56824
1568793564.58387
1568793564.59949
1568793564.61512
1568793564.63074
1568793564.64637
1568793564.66199
1568793564.67762
1568793564.69325
1568793564.70887
1568793564.7245
1568793564.74012
1568793564.75575
1568793564.77137
1568793564.787
1568793564.80263
1568793564.81825
1568793564.83388
1568793564.8495
1568793564.86513
1568793564.88075
1568793564.89638
1568793564.91201
1568793564.92763
1568793564.94326
1568793564.95888
1568793564.97451
1568793564.99013
1568793565.00576
1568793565.02139
1568793565.03701
1568793565.05264
1568793565.06826
1568793565.08389
1568793565.09951
1568793565.11514
1568793565.13077
1568793565.14639
1568793565.16202
1568793565.17764
1568793565.19327
1568793565.20889
1568793565.22452
1568793565.24015
1568793565.25577
1568793565.2714
1568793565.28702
1568793565.30265
1568793565.31827
1568793565.3339
1568793565.34953
1568793565.36515
1568793565.38078
1568793565.3964
1568793565.41203
1568793565.42765
1568793565.44328
1568793565.45891
1568793565.47453
1568793565.49016
1568793565.50578
1568793565.52141
1568793565.53703
1568793565.55266
1568793565.56829
1568793565.58391
1568793565.59954
1568793565.61516
1568793565.63079
1568793565.64641
1568793565.66204
1568793565.67767
1568793565.69329
1568793565.70892
1568793565.72454
1568793565.74017
1568793565.75579
1568793565.77142
1568793565.78705
1568793565.80267
1568793565.8183
1568793565.83392
1568793565.84955
1568793565.86517
1568793565.8808
1568793565.89643
1568793565.91205
1568793565.92768
1568793565.9433
1568793565.95893
1568793565.97455
1568793565.99018
1568793566.00581
1568793566.02143
1568793566.03706
1568793566.05268
1568793566.06831
1568793566.08393
1568793566.09956
1568793566.11519
1568793566.13081
1568793566.14644
1568793566.16206
1568793566.17769
1568793566.19331
1568793566.20894
1568793566.22457
1568793566.24019
1568793566.25582
1568793566.27144
1568793566.28707
1568793566.30269
1568793566.31832
1568793566.33395
1568793566.34957
1568793566.3652
1568793566.38082
1568793566.39645
1568793566.41207
1568793566.4277
1568793566.44333
1568793566.45895
1568793566.47458
1568793566.4902
1568793566.50583
1568793566.52146
1568793566.53708
1568793566.55271
1568793566.56833
1568793566.58396
1568793566.59958
1568793566.61521
1568793566.63084
1568793566.64646
1568793566.66209
1568793566.67771
1568793566.69334
1568793566.70896
1568793566.72459
1568793566.74022
1568793566.75584
1568793566.77147
1568793566.78709
1568793566.80272
1568793566.81834
1568793566.83397
1568793566.8496
1568793566.86522
1568793566.88085
1568793566.89647
1568793566.9121
1568793566.92772
1568793566.94335
1568793566.95898
1568793566.9746
1568793566.99023
1568793567.00585
1568793567.02148
1568793567.0371
1568793567.05273
1568793567.06836
1568793567.08398
1568793567.09961
1568793567.11523
1568793567.13086
1568793567.14648
1568793567.16211
1568793567.17774
1568793567.19336
1568793567.20899
1568793567.22461
1568793567.24024
1568793567.25586
1568793567.27149
1568793567.28712
1568793567.30274
1568793567.31837
1568793567.33399
1568793567.34962
1568793567.36524
1568793567.38087
1568793567.3965
1568793567.41212
1568793567.42775
1568793567.44337
1568793567.459
1568793567.47462
1568793567.49025
1568793567.50588
1568793567.5215
1568793567.53713
1568793567.55275
1568793567.56838
1568793567.584
1568793567.59963
1568793567.61526
1568793567.63088
1568793567.64651
1568793567.66213
1568793567.67776
1568793567.69338
1568793567.70901
1568793567.72464
1568793567.74026
1568793567.75589
1568793567.77151
1568793567.78714
1568793567.80276
1568793567.81839
1568793567.83402
1568793567.84964
1568793567.86527
1568793567.88089
1568793567.89652
1568793567.91214
1568793567.92777
1568793567.9434
1568793567.95902
1568793567.97465
1568793567.99027
1568793568.0059
1568793568.02152
1568793568.03715
1568793568.05278
1568793568.0684
1568793568.08403
1568793568.09965
1568793568.11528
1568793568.1309
1568793568.14653
1568793568.16216
1568793568.17778
1568793568.19341
1568793568.20903
1568793568.22466
1568793568.24028
1568793568.25591
1568793568.27154
1568793568.28716
1568793568.30279
1568793568.31841
1568793568.33404
1568793568.34966
1568793568.36529
1568793568.38092
1568793568.39654
1568793568.41217
1568793568.42779
1568793568.44342
1568793568.45904
1568793568.47467
1568793568.4903
1568793568.50592
1568793568.52155
1568793568.53717
1568793568.5528
1568793568.56842
1568793568.58405
1568793568.59968
1568793568.6153
1568793568.63093
1568793568.64655
1568793568.66218
1568793568.6778
1568793568.69343
1568793568.70906
1568793568.72468
1568793568.74031
1568793568.75593
1568793568.77156
1568793568.78718
1568793568.80281
1568793568.81844
1568793568.83406
1568793568.84969
1568793568.86531
1568793568.88094
1568793568.89656
1568793568.91219
1568793568.92782
1568793568.94344
1568793568.95907
1568793568.97469
1568793568.99032
1568793569.00594
1568793569.02157
1568793569.0372
1568793569.05282
1568793569.06845
1568793569.08407
1568793569.0997
1568793569.11532
1568793569.13095
1568793569.14658
1568793569.1622
1568793569.17783
1568793569.19345
1568793569.20908
1568793569.22471
1568793569.24033
1568793569.25596
1568793569.27158
1568793569.28721
1568793569.30283
1568793569.31846
1568793569.33409
1568793569.34971
1568793569.36534
1568793569.38096
1568793569.39659
1568793569.41221
1568793569.42784
1568793569.44347
1568793569.45909
1568793569.47472
1568793569.49034
1568793569.50597
1568793569.52159
1568793569.53722
1568793569.55285
1568793569.56847
1568793569.5841
1568793569.59972
1568793569.61535
1568793569.63097
1568793569.6466
1568793569.66223
1568793569.67785
1568793569.69348
1568793569.7091
1568793569.72473
1568793569.74035
1568793569.75598
1568793569.77161
1568793569.78723
1568793569.80286
1568793569.81848
1568793569.83411
1568793569.84973
1568793569.86536
1568793569.88099
1568793569.89661
1568793569.91224
1568793569.92786
1568793569.94349
1568793569.95911
1568793569.97474
1568793569.99037
1568793570.00599
1568793570.02162
1568793570.03724
1568793570.05287
1568793570.06849
1568793570.08412
1568793570.09975
1568793570.11537
1568793570.131
1568793570.14662
1568793570.16225
1568793570.17787
1568793570.1935
1568793570.20913
1568793570.22475
1568793570.24038
1568793570.256
1568793570.27163
1568793570.28725
1568793570.30288
1568793570.31851
1568793570.33413
1568793570.34976
1568793570.36538
1568793570.38101
1568793570.39663
1568793570.41226
1568793570.42789
1568793570.44351
1568793570.45914
1568793570.47476
1568793570.49039
1568793570.50601
1568793570.52164
1568793570.53727
1568793570.55289
1568793570.56852
1568793570.58414
1568793570.59977
1568793570.61539
1568793570.63102
1568793570.64665
1568793570.66227
1568793570.6779
1568793570.69352
1568793570.70915
1568793570.72477
1568793570.7404
1568793570.75603
1568793570.77165
1568793570.78728
1568793570.8029
1568793570.81853
1568793570.83415
1568793570.84978
1568793570.86541
1568793570.88103
1568793570.89666
1568793570.91228
1568793570.92791
1568793570.94353
1568793570.95916
1568793570.97479
1568793570.99041
1568793571.00604
1568793571.02166
1568793571.03729
1568793571.05291
1568793571.06854
1568793571.08417
1568793571.09979
1568793571.11542
1568793571.13104
1568793571.14667
1568793571.16229
1568793571.17792
1568793571.19355
1568793571.20917
1568793571.2248
1568793571.24042
1568793571.25605
1568793571.27167
1568793571.2873
1568793571.30293
1568793571.31855
1568793571.33418
1568793571.3498
1568793571.36543
1568793571.38106
1568793571.39668
1568793571.41231
1568793571.42793
1568793571.44356
1568793571.45918
1568793571.47481
1568793571.49044
1568793571.50606
1568793571.52169
1568793571.53731
1568793571.55294
1568793571.56856
1568793571.58419
1568793571.59982
1568793571.61544
1568793571.63107
1568793571.64669
1568793571.66232
1568793571.67794
1568793571.69357
1568793571.7092
1568793571.72482
1568793571.74045
1568793571.75607
1568793571.7717
1568793571.78732
1568793571.80295
1568793571.81858
1568793571.8342
1568793571.84983
1568793571.86545
1568793571.88108
1568793571.8967
1568793571.91233
1568793571.92796
1568793571.94358
1568793571.95921
1568793571.97483
1568793571.99046
1568793572.00608
1568793572.02171
1568793572.03734
1568793572.05296
1568793572.06859
1568793572.08421
1568793572.09984
1568793572.11546
1568793572.13109
1568793572.14672
1568793572.16234
1568793572.17797
1568793572.19359
1568793572.20922
1568793572.22484
1568793572.24047
1568793572.2561
1568793572.27172
1568793572.28735
1568793572.30297
1568793572.3186
1568793572.33422
1568793572.34985
1568793572.36548
1568793572.3811
1568793572.39673
1568793572.41235
1568793572.42798
1568793572.4436
1568793572.45923
1568793572.47486
1568793572.49048
1568793572.50611
1568793572.52173
1568793572.53736
1568793572.55298
1568793572.56861
1568793572.58424
1568793572.59986
1568793572.61549
1568793572.63111
1568793572.64674
1568793572.66236
1568793572.67799
1568793572.69362
1568793572.70924
1568793572.72487
1568793572.74049
1568793572.75612
1568793572.77174
1568793572.78737
1568793572.803
1568793572.81862
1568793572.83425
1568793572.84987
1568793572.8655
1568793572.88112
1568793572.89675
1568793572.91238
1568793572.928
1568793572.94363
1568793572.95925
1568793572.97488
1568793572.9905
1568793573.00613
1568793573.02176
1568793573.03738
1568793573.05301
1568793573.06863
1568793573.08426
1568793573.09988
1568793573.11551
1568793573.13114
1568793573.14676
1568793573.16239
1568793573.17801
1568793573.19364
1568793573.20926
1568793573.22489
1568793573.24052
1568793573.25614
1568793573.27177
1568793573.28739
1568793573.30302
1568793573.31864
1568793573.33427
1568793573.3499
1568793573.36552
1568793573.38115
1568793573.39677
1568793573.4124
1568793573.42802
1568793573.44365
1568793573.45928
1568793573.4749
1568793573.49053
1568793573.50615
1568793573.52178
1568793573.5374
1568793573.55303
1568793573.56866
1568793573.58428
1568793573.59991
1568793573.61553
1568793573.63116
1568793573.64679
1568793573.66241
1568793573.67804
1568793573.69366
1568793573.70929
1568793573.72491
1568793573.74054
1568793573.75617
1568793573.77179
1568793573.78742
1568793573.80304
1568793573.81867
1568793573.83429
1568793573.84992
1568793573.86555
1568793573.88117
1568793573.8968
1568793573.91242
1568793573.92805
1568793573.94367
1568793573.9593
1568793573.97493
1568793573.99055
1568793574.00618
1568793574.0218
1568793574.03743
1568793574.05305
1568793574.06868
1568793574.08431
1568793574.09993
1568793574.11556
1568793574.13118
1568793574.14681
1568793574.16243
1568793574.17806
1568793574.19369
1568793574.20931
1568793574.22494
1568793574.24056
1568793574.25619
1568793574.27181
1568793574.28744
1568793574.30307
1568793574.31869
1568793574.33432
1568793574.34994
1568793574.36557
1568793574.38119
1568793574.39682
1568793574.41245
1568793574.42807
1568793574.4437
1568793574.45932
1568793574.47495
1568793574.49057
1568793574.5062
1568793574.52183
1568793574.53745
1568793574.55308
1568793574.5687
1568793574.58433
1568793574.59995
1568793574.61558
1568793574.63121
1568793574.64683
1568793574.66246
1568793574.67808
1568793574.69371
1568793574.70933
1568793574.72496
1568793574.74059
1568793574.75621
1568793574.77184
1568793574.78746
1568793574.80309
1568793574.81871
1568793574.83434
1568793574.84997
1568793574.86559
1568793574.88122
1568793574.89684
1568793574.91247
1568793574.92809
1568793574.94372
1568793574.95935
1568793574.97497
1568793574.9906
1568793575.00622
1568793575.02185
1568793575.03747
1568793575.0531
1568793575.06873
1568793575.08435
1568793575.09998
1568793575.1156
1568793575.13123
1568793575.14685
1568793575.16248
1568793575.17811
1568793575.19373
1568793575.20936
1568793575.22498
1568793575.24061
1568793575.25623
1568793575.27186
1568793575.28749
1568793575.30311
1568793575.31874
1568793575.33436
1568793575.34999
1568793575.36561
1568793575.38124
1568793575.39687
1568793575.41249
1568793575.42812
1568793575.44374
1568793575.45937
1568793575.47499
1568793575.49062
1568793575.50625
1568793575.52187
1568793575.5375
1568793575.55312
1568793575.56875
1568793575.58437
1568793575.6
1568793575.61563
1568793575.63125
1568793575.64688
1568793575.6625
1568793575.67813
1568793575.69375
1568793575.70938
1568793575.72501
1568793575.74063
1568793575.75626
1568793575.77188
1568793575.78751
1568793575.80313
1568793575.81876
1568793575.83439
1568793575.85001
1568793575.86564
1568793575.88126
1568793575.89689
1568793575.91251
1568793575.92814
1568793575.94377
1568793575.95939
1568793575.97502
1568793575.99064
1568793576.00627
1568793576.02189
1568793576.03752
1568793576.05315
1568793576.06877
1568793576.0844
1568793576.10002
1568793576.11565
1568793576.13127
1568793576.1469
1568793576.16253
1568793576.17815
1568793576.19378
1568793576.2094
1568793576.22503
1568793576.24066
1568793576.25628
1568793576.27191
1568793576.28753
1568793576.30316
1568793576.31878
1568793576.33441
1568793576.35004
1568793576.36566
1568793576.38129
1568793576.39691
1568793576.41254
1568793576.42816
1568793576.44379
1568793576.45942
1568793576.47504
1568793576.49067
1568793576.50629
1568793576.52192
1568793576.53754
1568793576.55317
1568793576.5688
1568793576.58442
1568793576.60005
1568793576.61567
1568793576.6313
1568793576.64692
1568793576.66255
1568793576.67818
1568793576.6938
1568793576.70943
1568793576.72505
1568793576.74068
1568793576.7563
1568793576.77193
1568793576.78756
1568793576.80318
1568793576.81881
1568793576.83443
1568793576.85006
1568793576.86568
1568793576.88131
1568793576.89694
1568793576.91256
1568793576.92819
1568793576.94381
1568793576.95944
1568793576.97506
1568793576.99069
1568793577.00632
1568793577.02194
1568793577.03757
1568793577.05319
1568793577.06882
1568793577.08444
1568793577.10007
1568793577.1157
1568793577.13132
1568793577.14695
1568793577.16257
1568793577.1782
1568793577.19382
1568793577.20945
1568793577.22508
1568793577.2407
1568793577.25633
1568793577.27195
1568793577.28758
1568793577.3032
1568793577.31883
1568793577.33446
1568793577.35008
1568793577.36571
1568793577.38133
1568793577.39696
1568793577.41258
1568793577.42821
1568793577.44384
1568793577.45946
1568793577.47509
1568793577.49071
1568793577.50634
1568793577.52196
1568793577.53759
1568793577.55322
1568793577.56884
1568793577.58447
1568793577.60009
1568793577.61572
1568793577.63134
1568793577.64697
1568793577.6626
1568793577.67822
1568793577.69385
1568793577.70947
1568793577.7251
1568793577.74072
1568793577.75635
1568793577.77198
1568793577.7876
1568793577.80323
1568793577.81885
1568793577.83448
1568793577.8501
1568793577.86573
1568793577.88136
1568793577.89698
1568793577.91261
1568793577.92823
1568793577.94386
1568793577.95948
1568793577.97511
1568793577.99074
1568793578.00636
1568793578.02199
1568793578.03761
1568793578.05324
1568793578.06886
1568793578.08449
1568793578.10012
1568793578.11574
1568793578.13137
1568793578.14699
1568793578.16262
1568793578.17824
1568793578.19387
1568793578.2095
1568793578.22512
1568793578.24075
1568793578.25637
1568793578.272
1568793578.28762
1568793578.30325
1568793578.31888
1568793578.3345
1568793578.35013
1568793578.36575
1568793578.38138
1568793578.397
1568793578.41263
1568793578.42826
1568793578.44388
1568793578.45951
1568793578.47513
1568793578.49076
1568793578.50639
1568793578.52201
1568793578.53764
1568793578.55326
1568793578.56889
1568793578.58451
1568793578.60014
1568793578.61577
1568793578.63139
1568793578.64702
1568793578.66264
1568793578.67827
1568793578.69389
1568793578.70952
1568793578.72515
1568793578.74077
1568793578.7564
1568793578.77202
1568793578.78765
1568793578.80327
1568793578.8189
1568793578.83453
1568793578.85015
1568793578.86578
1568793578.8814
1568793578.89703
1568793578.91265
1568793578.92828
1568793578.94391
1568793578.95953
1568793578.97516
1568793578.99078
1568793579.00641
1568793579.02203
1568793579.03766
1568793579.05329
1568793579.06891
1568793579.08454
1568793579.10016
1568793579.11579
1568793579.13141
1568793579.14704
1568793579.16267
1568793579.17829
1568793579.19392
1568793579.20954
1568793579.22517
1568793579.24079
1568793579.25642
1568793579.27205
1568793579.28767
1568793579.3033
1568793579.31892
1568793579.33455
1568793579.35017
1568793579.3658
1568793579.38143
1568793579.39705
1568793579.41268
1568793579.4283
1568793579.44393
1568793579.45955
1568793579.47518
1568793579.49081
1568793579.50643
1568793579.52206
1568793579.53768
1568793579.55331
1568793579.56893
1568793579.58456
1568793579.60019
1568793579.61581
1568793579.63144
1568793579.64706
1568793579.66269
1568793579.67831
1568793579.69394
1568793579.70957
1568793579.72519
1568793579.74082
1568793579.75644
1568793579.77207
1568793579.78769
1568793579.80332
1568793579.81895
1568793579.83457
1568793579.8502
1568793579.86582
1568793579.88145
1568793579.89707
1568793579.9127
1568793579.92833
1568793579.94395
1568793579.95958
1568793579.9752
1568793579.99083
1568793580.00645
1568793580.02208
1568793580.03771
1568793580.05333
1568793580.06896
1568793580.08458
1568793580.10021
1568793580.11583
1568793580.13146
1568793580.14709
1568793580.16271
1568793580.17834
1568793580.19396
1568793580.20959
1568793580.22521
1568793580.24084
1568793580.25647
1568793580.27209
1568793580.28772
1568793580.30334
1568793580.31897
1568793580.33459
1568793580.35022
1568793580.36585
1568793580.38147
1568793580.3971
1568793580.41272
1568793580.42835
1568793580.44397
1568793580.4596
1568793580.47523
1568793580.49085
1568793580.50648
1568793580.5221
1568793580.53773
1568793580.55335
1568793580.56898
1568793580.58461
1568793580.60023
1568793580.61586
1568793580.63148
1568793580.64711
1568793580.66273
1568793580.67836
1568793580.69399
1568793580.70961
1568793580.72524
1568793580.74086
1568793580.75649
1568793580.77211
1568793580.78774
1568793580.80337
1568793580.81899
1568793580.83462
1568793580.85024
1568793580.86587
1568793580.8815
1568793580.89712
1568793580.91275
1568793580.92837
1568793580.944
1568793580.95962
1568793580.97525
1568793580.99088
1568793581.0065
1568793581.02213
1568793581.03775
1568793581.05338
1568793581.069
1568793581.08463
1568793581.10026
1568793581.11588
1568793581.13151
1568793581.14713
1568793581.16276
1568793581.17838
1568793581.19401
1568793581.20964
1568793581.22526
1568793581.24089
1568793581.25651
1568793581.27214
1568793581.28776
1568793581.30339
1568793581.31902
1568793581.33464
1568793581.35027
1568793581.36589
1568793581.38152
1568793581.39714
1568793581.41277
1568793581.4284
1568793581.44402
1568793581.45965
1568793581.47527
1568793581.4909
1568793581.50652
1568793581.52215
1568793581.53778
1568793581.5534
1568793581.56903
1568793581.58465
1568793581.60028
1568793581.6159
1568793581.63153
1568793581.64716
1568793581.66278
1568793581.67841
1568793581.69403
1568793581.70966
1568793581.72528
1568793581.74091
1568793581.75654
1568793581.77216
1568793581.78779
1568793581.80341
1568793581.81904
1568793581.83466
1568793581.85029
1568793581.86592
1568793581.88154
1568793581.89717
1568793581.91279
1568793581.92842
1568793581.94404
1568793581.95967
1568793581.9753
1568793581.99092
1568793582.00655
1568793582.02217
1568793582.0378
1568793582.05342
1568793582.06905
1568793582.08468
1568793582.1003
1568793582.11593
1568793582.13155
1568793582.14718
1568793582.1628
1568793582.17843
1568793582.19406
1568793582.20968
1568793582.22531
1568793582.24093
1568793582.25656
1568793582.27218
1568793582.28781
1568793582.30344
1568793582.31906
1568793582.33469
1568793582.35031
1568793582.36594
1568793582.38156
1568793582.39719
1568793582.41282
1568793582.42844
1568793582.44407
1568793582.45969
1568793582.47532
1568793582.49094
1568793582.50657
1568793582.5222
1568793582.53782
1568793582.55345
1568793582.56907
1568793582.5847
1568793582.60032
1568793582.61595
1568793582.63158
1568793582.6472
1568793582.66283
1568793582.67845
1568793582.69408
1568793582.7097
1568793582.72533
1568793582.74096
1568793582.75658
1568793582.77221
1568793582.78783
1568793582.80346
1568793582.81908
1568793582.83471
1568793582.85034
1568793582.86596
1568793582.88159
1568793582.89721
1568793582.91284
1568793582.92846
1568793582.94409
1568793582.95972
1568793582.97534
1568793582.99097
1568793583.00659
1568793583.02222
1568793583.03784
1568793583.05347
1568793583.0691
1568793583.08472
1568793583.10035
1568793583.11597
1568793583.1316
1568793583.14722
1568793583.16285
1568793583.17848
1568793583.1941
1568793583.20973
1568793583.22535
1568793583.24098
1568793583.2566
1568793583.27223
1568793583.28786
1568793583.30348
1568793583.31911
1568793583.33473
1568793583.35036
1568793583.36599
1568793583.38161
1568793583.39724
1568793583.41286
1568793583.42849
1568793583.44411
1568793583.45974
1568793583.47537
1568793583.49099
1568793583.50662
1568793583.52224
1568793583.53787
1568793583.55349
1568793583.56912
1568793583.58475
1568793583.60037
1568793583.616
1568793583.63162
1568793583.64725
1568793583.66287
1568793583.6785
1568793583.69413
1568793583.70975
1568793583.72538
1568793583.741
1568793583.75663
1568793583.77225
1568793583.78788
1568793583.80351
1568793583.81913
1568793583.83476
1568793583.85038
1568793583.86601
1568793583.88163
1568793583.89726
1568793583.91289
1568793583.92851
1568793583.94414
1568793583.95976
1568793583.97539
1568793583.99101
1568793584.00664
1568793584.02227
1568793584.03789
1568793584.05352
1568793584.06914
1568793584.08477
1568793584.10039
1568793584.11602
1568793584.13165
1568793584.14727
1568793584.1629
1568793584.17852
1568793584.19415
1568793584.20977
1568793584.2254
1568793584.24103
1568793584.25665
1568793584.27228
1568793584.2879
1568793584.30353
1568793584.31915
1568793584.33478
1568793584.35041
1568793584.36603
1568793584.38166
1568793584.39728
1568793584.41291
1568793584.42853
1568793584.44416
1568793584.45979
1568793584.47541
1568793584.49104
1568793584.50666
1568793584.52229
1568793584.53791
1568793584.55354
1568793584.56917
1568793584.58479
1568793584.60042
1568793584.61604
1568793584.63167
1568793584.64729
1568793584.66292
1568793584.67855
1568793584.69417
1568793584.7098
1568793584.72542
1568793584.74105
1568793584.75667
1568793584.7723
1568793584.78793
1568793584.80355
1568793584.81918
1568793584.8348
1568793584.85043
1568793584.86605
1568793584.88168
1568793584.89731
1568793584.91293
1568793584.92856
1568793584.94418
1568793584.95981
1568793584.97543
1568793584.99106
1568793585.00669
1568793585.02231
1568793585.03794
1568793585.05356
1568793585.06919
1568793585.08481
1568793585.10044
1568793585.11607
1568793585.13169
1568793585.14732
1568793585.16294
1568793585.17857
1568793585.19419
1568793585.20982
1568793585.22545
1568793585.24107
1568793585.2567
1568793585.27232
1568793585.28795
1568793585.30357
1568793585.3192
1568793585.33483
1568793585.35045
1568793585.36608
1568793585.3817
1568793585.39733
1568793585.41295
1568793585.42858
1568793585.44421
1568793585.45983
1568793585.47546
1568793585.49108
1568793585.50671
1568793585.52234
1568793585.53796
1568793585.55359
1568793585.56921
1568793585.58484
1568793585.60046
1568793585.61609
1568793585.63172
1568793585.64734
1568793585.66297
1568793585.67859
1568793585.69422
1568793585.70984
1568793585.72547
1568793585.7411
1568793585.75672
1568793585.77235
1568793585.78797
1568793585.8036
1568793585.81922
1568793585.83485
1568793585.85048
1568793585.8661
1568793585.88173
1568793585.89735
1568793585.91298
1568793585.9286
1568793585.94423
1568793585.95986
1568793585.97548
1568793585.99111
1568793586.00673
1568793586.02236
1568793586.03798
1568793586.05361
1568793586.06924
1568793586.08486
1568793586.10049
1568793586.11611
1568793586.13174
1568793586.14736
1568793586.16299
1568793586.17862
1568793586.19424
1568793586.20987
1568793586.22549
1568793586.24112
1568793586.25674
1568793586.27237
1568793586.288
1568793586.30362
1568793586.31925
1568793586.33487
1568793586.3505
1568793586.36612
1568793586.38175
1568793586.39738
1568793586.413
1568793586.42863
1568793586.44425
1568793586.45988
1568793586.4755
1568793586.49113
1568793586.50676
1568793586.52238
1568793586.53801
1568793586.55363
1568793586.56926
1568793586.58488
1568793586.60051
1568793586.61614
1568793586.63176
1568793586.64739
1568793586.66301
1568793586.67864
1568793586.69426
1568793586.70989
1568793586.72552
1568793586.74114
1568793586.75677
1568793586.77239
1568793586.78802
1568793586.80364
1568793586.81927
1568793586.8349
1568793586.85052
1568793586.86615
1568793586.88177
1568793586.8974
1568793586.91302
1568793586.92865
1568793586.94428
1568793586.9599
1568793586.97553
1568793586.99115
1568793587.00678
1568793587.0224
1568793587.03803
1568793587.05366
1568793587.06928
1568793587.08491
1568793587.10053
1568793587.11616
1568793587.13178
1568793587.14741
1568793587.16304
1568793587.17866
1568793587.19429
1568793587.20991
1568793587.22554
1568793587.24116
1568793587.25679
1568793587.27242
1568793587.28804
1568793587.30367
1568793587.31929
1568793587.33492
1568793587.35054
1568793587.36617
1568793587.3818
1568793587.39742
1568793587.41305
1568793587.42867
1568793587.4443
1568793587.45992
1568793587.47555
1568793587.49118
1568793587.5068
1568793587.52243
1568793587.53805
1568793587.55368
1568793587.5693
1568793587.58493
1568793587.60056
1568793587.61618
1568793587.63181
1568793587.64743
1568793587.66306
1568793587.67868
1568793587.69431
1568793587.70994
1568793587.72556
1568793587.74119
1568793587.75681
1568793587.77244
1568793587.78806
1568793587.80369
1568793587.81932
1568793587.83494
1568793587.85057
1568793587.86619
1568793587.88182
1568793587.89744
1568793587.91307
1568793587.9287
1568793587.94432
1568793587.95995
1568793587.97557
1568793587.9912
1568793588.00682
1568793588.02245
1568793588.03808
1568793588.0537
1568793588.06933
1568793588.08495
1568793588.10058
1568793588.1162
1568793588.13183
1568793588.14746
1568793588.16308
1568793588.17871
1568793588.19433
1568793588.20996
1568793588.22559
1568793588.24121
1568793588.25684
1568793588.27246
1568793588.28809
1568793588.30371
1568793588.31934
1568793588.33497
1568793588.35059
1568793588.36622
1568793588.38184
1568793588.39747
1568793588.41309
1568793588.42872
1568793588.44435
1568793588.45997
1568793588.4756
1568793588.49122
1568793588.50685
1568793588.52247
1568793588.5381
1568793588.55373
1568793588.56935
1568793588.58498
1568793588.6006
1568793588.61623
1568793588.63185
1568793588.64748
1568793588.66311
1568793588.67873
1568793588.69436
1568793588.70998
1568793588.72561
1568793588.74123
1568793588.75686
1568793588.77249
1568793588.78811
1568793588.80374
1568793588.81936
1568793588.83499
1568793588.85061
1568793588.86624
1568793588.88187
1568793588.89749
1568793588.91312
1568793588.92874
1568793588.94437
1568793588.95999
1568793588.97562
1568793588.99125
1568793589.00687
1568793589.0225
1568793589.03812
1568793589.05375
1568793589.06937
1568793589.085
1568793589.10063
1568793589.11625
1568793589.13188
1568793589.1475
1568793589.16313
1568793589.17875
1568793589.19438
1568793589.21001
1568793589.22563
1568793589.24126
1568793589.25688
1568793589.27251
1568793589.28813
1568793589.30376
1568793589.31939
1568793589.33501
1568793589.35064
1568793589.36626
1568793589.38189
1568793589.39751
1568793589.41314
1568793589.42877
1568793589.44439
1568793589.46002
1568793589.47564
1568793589.49127
1568793589.50689
1568793589.52252
1568793589.53815
1568793589.55377
1568793589.5694
1568793589.58502
1568793589.60065
1568793589.61627
1568793589.6319
1568793589.64753
1568793589.66315
1568793589.67878
1568793589.6944
1568793589.71003
1568793589.72565
1568793589.74128
1568793589.75691
1568793589.77253
1568793589.78816
1568793589.80378
1568793589.81941
1568793589.83503
1568793589.85066
1568793589.86629
1568793589.88191
1568793589.89754
1568793589.91316
1568793589.92879
1568793589.94441
1568793589.96004
1568793589.97567
1568793589.99129
1568793590.00692
1568793590.02254
1568793590.03817
1568793590.05379
1568793590.06942
1568793590.08505
1568793590.10067
1568793590.1163
1568793590.13192
1568793590.14755
1568793590.16317
1568793590.1788
1568793590.19443
1568793590.21005
1568793590.22568
1568793590.2413
1568793590.25693
1568793590.27255
1568793590.28818
1568793590.30381
1568793590.31943
1568793590.33506
1568793590.35068
1568793590.36631
1568793590.38194
1568793590.39756
1568793590.41319
1568793590.42881
1568793590.44444
1568793590.46006
1568793590.47569
1568793590.49132
1568793590.50694
1568793590.52257
1568793590.53819
1568793590.55382
1568793590.56944
1568793590.58507
1568793590.6007
1568793590.61632
1568793590.63195
1568793590.64757
1568793590.6632
1568793590.67882
1568793590.69445
1568793590.71008
1568793590.7257
1568793590.74133
1568793590.75695
1568793590.77258
1568793590.7882
1568793590.80383
1568793590.81946
1568793590.83508
1568793590.85071
1568793590.86633
1568793590.88196
1568793590.89758
1568793590.91321
1568793590.92884
1568793590.94446
1568793590.96009
1568793590.97571
1568793590.99134
1568793591.00696
1568793591.02259
1568793591.03822
1568793591.05384
1568793591.06947
1568793591.08509
1568793591.10072
1568793591.11634
1568793591.13197
1568793591.1476
1568793591.16322
1568793591.17885
1568793591.19447
1568793591.2101
1568793591.22572
1568793591.24135
1568793591.25698
1568793591.2726
1568793591.28823
1568793591.30385
1568793591.31948
1568793591.3351
1568793591.35073
1568793591.36636
1568793591.38198
1568793591.39761
1568793591.41323
1568793591.42886
1568793591.44448
1568793591.46011
1568793591.47574
1568793591.49136
1568793591.50699
1568793591.52261
1568793591.53824
1568793591.55386
1568793591.56949
1568793591.58512
1568793591.60074
1568793591.61637
1568793591.63199
1568793591.64762
1568793591.66324
1568793591.67887
1568793591.6945
1568793591.71012
1568793591.72575
1568793591.74137
1568793591.757
1568793591.77262
1568793591.78825
1568793591.80388
1568793591.8195
1568793591.83513
1568793591.85075
1568793591.86638
1568793591.882
1568793591.89763
1568793591.91326
1568793591.92888
1568793591.94451
1568793591.96013
1568793591.97576
1568793591.99138
1568793592.00701
1568793592.02264
1568793592.03826
1568793592.05389
1568793592.06951
1568793592.08514
1568793592.10076
1568793592.11639
1568793592.13202
1568793592.14764
1568793592.16327
1568793592.17889
1568793592.19452
1568793592.21014
1568793592.22577
1568793592.2414
1568793592.25702
1568793592.27265
1568793592.28827
1568793592.3039
1568793592.31952
1568793592.33515
1568793592.35078
1568793592.3664
1568793592.38203
1568793592.39765
1568793592.41328
1568793592.4289
1568793592.44453
1568793592.46016
1568793592.47578
1568793592.49141
1568793592.50703
1568793592.52266
1568793592.53828
1568793592.55391
1568793592.56954
1568793592.58516
1568793592.60079
1568793592.61641
1568793592.63204
1568793592.64767
1568793592.66329
1568793592.67892
1568793592.69454
1568793592.71017
1568793592.72579
1568793592.74142
1568793592.75705
1568793592.77267
1568793592.7883
1568793592.80392
1568793592.81955
1568793592.83517
1568793592.8508
1568793592.86643
1568793592.88205
1568793592.89768
1568793592.9133
1568793592.92893
1568793592.94455
1568793592.96018
1568793592.97581
1568793592.99143
1568793593.00706
1568793593.02268
1568793593.03831
1568793593.05393
1568793593.06956
1568793593.08519
1568793593.10081
1568793593.11644
1568793593.13206
1568793593.14769
1568793593.16331
1568793593.17894
1568793593.19457
1568793593.21019
1568793593.22582
1568793593.24144
1568793593.25707
1568793593.27269
1568793593.28832
1568793593.30395
1568793593.31957
1568793593.3352
1568793593.35082
1568793593.36645
1568793593.38207
1568793593.3977
1568793593.41333
1568793593.42895
1568793593.44458
1568793593.4602
1568793593.47583
1568793593.49145
1568793593.50708
1568793593.52271
1568793593.53833
1568793593.55396
1568793593.56958
1568793593.58521
1568793593.60083
1568793593.61646
1568793593.63209
1568793593.64771
1568793593.66334
1568793593.67896
1568793593.69459
1568793593.71021
1568793593.72584
1568793593.74147
1568793593.75709
1568793593.77272
1568793593.78834
1568793593.80397
1568793593.81959
1568793593.83522
1568793593.85085
1568793593.86647
1568793593.8821
1568793593.89772
1568793593.91335
1568793593.92897
1568793593.9446
1568793593.96023
1568793593.97585
1568793593.99148
1568793594.0071
1568793594.02273
1568793594.03835
1568793594.05398
1568793594.06961
1568793594.08523
1568793594.10086
1568793594.11648
1568793594.13211
1568793594.14773
1568793594.16336
1568793594.17899
1568793594.19461
1568793594.21024
1568793594.22586
1568793594.24149
1568793594.25711
1568793594.27274
1568793594.28837
1568793594.30399
1568793594.31962
1568793594.33524
1568793594.35087
1568793594.36649
1568793594.38212
1568793594.39775
1568793594.41337
1568793594.429
1568793594.44462
1568793594.46025
1568793594.47587
1568793594.4915
1568793594.50713
1568793594.52275
1568793594.53838
1568793594.554
1568793594.56963
1568793594.58525
1568793594.60088
1568793594.61651
1568793594.63213
1568793594.64776
1568793594.66338
1568793594.67901
1568793594.69463
1568793594.71026
1568793594.72589
1568793594.74151
1568793594.75714
1568793594.77276
1568793594.78839
1568793594.80401
1568793594.81964
1568793594.83527
1568793594.85089
1568793594.86652
1568793594.88214
1568793594.89777
1568793594.91339
1568793594.92902
1568793594.94465
1568793594.96027
1568793594.9759
1568793594.99152
1568793595.00715
1568793595.02277
1568793595.0384
1568793595.05403
1568793595.06965
1568793595.08528
1568793595.1009
1568793595.11653
1568793595.13215
1568793595.14778
1568793595.16341
1568793595.17903
1568793595.19466
1568793595.21028
1568793595.22591
1568793595.24153
1568793595.25716
1568793595.27279
1568793595.28841
1568793595.30404
1568793595.31966
1568793595.33529
1568793595.35092
1568793595.36654
1568793595.38217
1568793595.39779
1568793595.41342
1568793595.42904
1568793595.44467
1568793595.4603
1568793595.47592
1568793595.49155
1568793595.50717
1568793595.5228
1568793595.53842
1568793595.55405
1568793595.56968
1568793595.5853
1568793595.60093
1568793595.61655
1568793595.63218
1568793595.6478
1568793595.66343
1568793595.67906
1568793595.69468
1568793595.71031
1568793595.72593
1568793595.74156
1568793595.75718
1568793595.77281
1568793595.78844
1568793595.80406
1568793595.81969
1568793595.83531
1568793595.85094
1568793595.86656
1568793595.88219
1568793595.89782
1568793595.91344
1568793595.92907
1568793595.94469
1568793595.96032
1568793595.97594
1568793595.99157
1568793596.0072
1568793596.02282
1568793596.03845
1568793596.05407
1568793596.0697
1568793596.08532
1568793596.10095
1568793596.11658
1568793596.1322
1568793596.14783
1568793596.16345
1568793596.17908
1568793596.1947
1568793596.21033
1568793596.22596
1568793596.24158
1568793596.25721
1568793596.27283
1568793596.28846
1568793596.30408
1568793596.31971
1568793596.33534
1568793596.35096
1568793596.36659
1568793596.38221
1568793596.39784
1568793596.41346
1568793596.42909
1568793596.44472
1568793596.46034
1568793596.47597
1568793596.49159
1568793596.50722
1568793596.52284
1568793596.53847
1568793596.5541
1568793596.56972
1568793596.58535
1568793596.60097
1568793596.6166
1568793596.63222
1568793596.64785
1568793596.66348
1568793596.6791
1568793596.69473
1568793596.71035
1568793596.72598
1568793596.7416
1568793596.75723
1568793596.77286
1568793596.78848
1568793596.80411
1568793596.81973
1568793596.83536
1568793596.85098
1568793596.86661
1568793596.88224
1568793596.89786
1568793596.91349
1568793596.92911
1568793596.94474
1568793596.96036
1568793596.97599
1568793596.99162
1568793597.00724
1568793597.02287
1568793597.03849
1568793597.05412
1568793597.06974
1568793597.08537
1568793597.101
1568793597.11662
1568793597.13225
1568793597.14787
1568793597.1635
1568793597.17912
1568793597.19475
1568793597.21038
1568793597.226
1568793597.24163
1568793597.25725
1568793597.27288
1568793597.2885
1568793597.30413
1568793597.31976
1568793597.33538
1568793597.35101
1568793597.36663
1568793597.38226
1568793597.39788
1568793597.41351
1568793597.42914
1568793597.44476
1568793597.46039
1568793597.47601
1568793597.49164
1568793597.50727
1568793597.52289
1568793597.53852
1568793597.55414
1568793597.56977
1568793597.58539
1568793597.60102
1568793597.61665
1568793597.63227
1568793597.6479
1568793597.66352
1568793597.67915
1568793597.69477
1568793597.7104
1568793597.72603
1568793597.74165
1568793597.75728
1568793597.7729
1568793597.78853
1568793597.80415
1568793597.81978
1568793597.83541
1568793597.85103
1568793597.86666
1568793597.88228
1568793597.89791
1568793597.91353
1568793597.92916
1568793597.94479
1568793597.96041
1568793597.97604
1568793597.99166
1568793598.00729
1568793598.02291
1568793598.03854
1568793598.05417
1568793598.06979
1568793598.08542
1568793598.10104
1568793598.11667
1568793598.13229
1568793598.14792
1568793598.16355
1568793598.17917
1568793598.1948
1568793598.21042
1568793598.22605
1568793598.24167
1568793598.2573
1568793598.27293
1568793598.28855
1568793598.30418
1568793598.3198
1568793598.33543
1568793598.35105
1568793598.36668
1568793598.38231
1568793598.39793
1568793598.41356
1568793598.42918
1568793598.44481
1568793598.46043
1568793598.47606
1568793598.49169
1568793598.50731
1568793598.52294
1568793598.53856
1568793598.55419
1568793598.56981
1568793598.58544
1568793598.60107
1568793598.61669
1568793598.63232
1568793598.64794
1568793598.66357
1568793598.67919
1568793598.69482
1568793598.71045
1568793598.72607
1568793598.7417
1568793598.75732
1568793598.77295
1568793598.78857
1568793598.8042
1568793598.81983
1568793598.83545
1568793598.85108
1568793598.8667
1568793598.88233
1568793598.89795
1568793598.91358
1568793598.92921
1568793598.94483
1568793598.96046
1568793598.97608
1568793598.99171
1568793599.00733
1568793599.02296
1568793599.03859
1568793599.05421
1568793599.06984
1568793599.08546
1568793599.10109
1568793599.11671
1568793599.13234
1568793599.14797
1568793599.16359
1568793599.17922
1568793599.19484
1568793599.21047
1568793599.22609
1568793599.24172
1568793599.25735
1568793599.27297
1568793599.2886
1568793599.30422
1568793599.31985
1568793599.33547
1568793599.3511
1568793599.36673
1568793599.38235
1568793599.39798
1568793599.4136
1568793599.42923
1568793599.44485
1568793599.46048
1568793599.47611
1568793599.49173
1568793599.50736
1568793599.52298
1568793599.53861
1568793599.55423
1568793599.56986
1568793599.58549
1568793599.60111
1568793599.61674
1568793599.63236
1568793599.64799
1568793599.66361
1568793599.67924
1568793599.69487
1568793599.71049
1568793599.72612
1568793599.74174
1568793599.75737
1568793599.773
1568793599.78862
1568793599.80425
1568793599.81987
1568793599.8355
1568793599.85112
1568793599.86675
1568793599.88238
1568793599.898
1568793599.91363
1568793599.92925
1568793599.94488
1568793599.9605
1568793599.97613
1568793599.99176
1568793600.00738
1568793600.02301
1568793600.03863
1568793600.05426
1568793600.06988
1568793600.08551
1568793600.10114
1568793600.11676
1568793600.13239
1568793600.14801
1568793600.16364
1568793600.17926
1568793600.19489
1568793600.21052
1568793600.22614
1568793600.24177
1568793600.25739
1568793600.27302
1568793600.28864
1568793600.30427
1568793600.3199
1568793600.33552
1568793600.35115
1568793600.36677
1568793600.3824
1568793600.39802
1568793600.41365
1568793600.42928
1568793600.4449
1568793600.46053
1568793600.47615
1568793600.49178
1568793600.5074
1568793600.52303
1568793600.53866
1568793600.55428
1568793600.56991
1568793600.58553
1568793600.60116
1568793600.61678
1568793600.63241
1568793600.64804
1568793600.66366
1568793600.67929
1568793600.69491
1568793600.71054
1568793600.72616
1568793600.74179
1568793600.75742
1568793600.77304
1568793600.78867
1568793600.80429
1568793600.81992
1568793600.83554
1568793600.85117
1568793600.8668
1568793600.88242
1568793600.89805
1568793600.91367
1568793600.9293
1568793600.94492
1568793600.96055
1568793600.97618
1568793600.9918
1568793601.00743
1568793601.02305
1568793601.03868
1568793601.0543
1568793601.06993
1568793601.08556
1568793601.10118
1568793601.11681
1568793601.13243
1568793601.14806
1568793601.16368
1568793601.17931
1568793601.19494
1568793601.21056
1568793601.22619
1568793601.24181
1568793601.25744
1568793601.27306
1568793601.28869
1568793601.30432
1568793601.31994
1568793601.33557
1568793601.35119
1568793601.36682
1568793601.38244
1568793601.39807
1568793601.4137
1568793601.42932
1568793601.44495
1568793601.46057
1568793601.4762
1568793601.49182
1568793601.50745
1568793601.52308
1568793601.5387
1568793601.55433
1568793601.56995
1568793601.58558
1568793601.6012
1568793601.61683
1568793601.63246
1568793601.64808
1568793601.66371
1568793601.67933
1568793601.69496
1568793601.71058
1568793601.72621
1568793601.74184
1568793601.75746
1568793601.77309
1568793601.78871
1568793601.80434
1568793601.81996
1568793601.83559
1568793601.85122
1568793601.86684
1568793601.88247
1568793601.89809
1568793601.91372
1568793601.92934
1568793601.94497
1568793601.9606
1568793601.97622
1568793601.99185
1568793602.00747
1568793602.0231
1568793602.03872
1568793602.05435
1568793602.06998
1568793602.0856
1568793602.10123
1568793602.11685
1568793602.13248
1568793602.1481
1568793602.16373
1568793602.17936
1568793602.19498
1568793602.21061
1568793602.22623
1568793602.24186
1568793602.25748
1568793602.27311
1568793602.28874
1568793602.30436
1568793602.31999
1568793602.33561
1568793602.35124
1568793602.36687
1568793602.38249
1568793602.39812
1568793602.41374
1568793602.42937
1568793602.44499
1568793602.46062
1568793602.47625
1568793602.49187
1568793602.5075
1568793602.52312
1568793602.53875
1568793602.55437
1568793602.57
1568793602.58563
1568793602.60125
1568793602.61688
1568793602.6325
1568793602.64813
1568793602.66375
1568793602.67938
1568793602.69501
1568793602.71063
1568793602.72626
1568793602.74188
1568793602.75751
1568793602.77313
1568793602.78876
1568793602.80439
1568793602.82001
1568793602.83564
1568793602.85126
1568793602.86689
1568793602.88251
1568793602.89814
1568793602.91377
1568793602.92939
1568793602.94502
1568793602.96064
1568793602.97627
1568793602.99189
1568793603.00752
1568793603.02315
1568793603.03877
1568793603.0544
1568793603.07002
1568793603.08565
1568793603.10127
1568793603.1169
1568793603.13253
1568793603.14815
1568793603.16378
1568793603.1794
1568793603.19503
1568793603.21065
1568793603.22628
1568793603.24191
1568793603.25753
1568793603.27316
1568793603.28878
1568793603.30441
1568793603.32003
1568793603.33566
1568793603.35129
1568793603.36691
1568793603.38254
1568793603.39816
1568793603.41379
1568793603.42941
1568793603.44504
1568793603.46067
1568793603.47629
1568793603.49192
1568793603.50754
1568793603.52317
1568793603.53879
1568793603.55442
1568793603.57005
1568793603.58567
1568793603.6013
1568793603.61692
1568793603.63255
1568793603.64817
1568793603.6638
1568793603.67943
1568793603.69505
1568793603.71068
1568793603.7263
1568793603.74193
1568793603.75755
1568793603.77318
1568793603.78881
1568793603.80443
1568793603.82006
1568793603.83568
1568793603.85131
1568793603.86693
1568793603.88256
1568793603.89819
1568793603.91381
1568793603.92944
1568793603.94506
1568793603.96069
1568793603.97631
1568793603.99194
1568793604.00757
1568793604.02319
1568793604.03882
1568793604.05444
1568793604.07007
1568793604.08569
1568793604.10132
1568793604.11695
1568793604.13257
1568793604.1482
1568793604.16382
1568793604.17945
1568793604.19507
1568793604.2107
1568793604.22633
1568793604.24195
1568793604.25758
1568793604.2732
1568793604.28883
1568793604.30445
1568793604.32008
1568793604.33571
1568793604.35133
1568793604.36696
1568793604.38258
1568793604.39821
1568793604.41383
1568793604.42946
1568793604.44509
1568793604.46071
1568793604.47634
1568793604.49196
1568793604.50759
1568793604.52321
1568793604.53884
1568793604.55447
1568793604.57009
1568793604.58572
1568793604.60134
1568793604.61697
1568793604.6326
1568793604.64822
1568793604.66385
1568793604.67947
1568793604.6951
1568793604.71072
1568793604.72635
1568793604.74198
1568793604.7576
1568793604.77323
1568793604.78885
1568793604.80448
1568793604.8201
1568793604.83573
1568793604.85136
1568793604.86698
1568793604.88261
1568793604.89823
1568793604.91386
1568793604.92948
1568793604.94511
1568793604.96074
1568793604.97636
1568793604.99199
1568793605.00761
1568793605.02324
1568793605.03886
1568793605.05449
1568793605.07012
1568793605.08574
1568793605.10137
1568793605.11699
1568793605.13262
1568793605.14824
1568793605.16387
1568793605.1795
1568793605.19512
1568793605.21075
1568793605.22637
1568793605.242
1568793605.25762
1568793605.27325
1568793605.28888
1568793605.3045
1568793605.32013
1568793605.33575
1568793605.35138
1568793605.367
1568793605.38263
1568793605.39826
1568793605.41388
1568793605.42951
1568793605.44513
1568793605.46076
1568793605.47638
1568793605.49201
1568793605.50764
1568793605.52326
1568793605.53889
1568793605.55451
1568793605.57014
1568793605.58576
1568793605.60139
1568793605.61702
1568793605.63264
1568793605.64827
1568793605.66389
1568793605.67952
1568793605.69514
1568793605.71077
1568793605.7264
1568793605.74202
1568793605.75765
1568793605.77327
1568793605.7889
1568793605.80452
1568793605.82015
1568793605.83578
1568793605.8514
1568793605.86703
1568793605.88265
1568793605.89828
1568793605.9139
1568793605.92953
1568793605.94516
1568793605.96078
1568793605.97641
1568793605.99203
1568793606.00766
1568793606.02328
1568793606.03891
1568793606.05454
1568793606.07016
1568793606.08579
1568793606.10141
1568793606.11704
1568793606.13266
1568793606.14829
1568793606.16392
1568793606.17954
1568793606.19517
1568793606.21079
1568793606.22642
1568793606.24204
1568793606.25767
1568793606.2733
1568793606.28892
1568793606.30455
1568793606.32017
1568793606.3358
1568793606.35142
1568793606.36705
1568793606.38268
1568793606.3983
1568793606.41393
1568793606.42955
1568793606.44518
1568793606.4608
1568793606.47643
1568793606.49206
1568793606.50768
1568793606.52331
1568793606.53893
1568793606.55456
1568793606.57018
1568793606.58581
1568793606.60144
1568793606.61706
1568793606.63269
1568793606.64831
1568793606.66394
1568793606.67956
1568793606.69519
1568793606.71082
1568793606.72644
1568793606.74207
1568793606.75769
1568793606.77332
1568793606.78894
1568793606.80457
1568793606.8202
1568793606.83582
1568793606.85145
1568793606.86707
1568793606.8827
1568793606.89832
1568793606.91395
1568793606.92958
1568793606.9452
1568793606.96083
1568793606.97645
1568793606.99208
1568793607.0077
1568793607.02333
1568793607.03896
1568793607.05458
1568793607.07021
1568793607.08583
1568793607.10146
1568793607.11708
1568793607.13271
1568793607.14834
1568793607.16396
1568793607.17959
1568793607.19521
1568793607.21084
1568793607.22647
1568793607.24209
1568793607.25772
1568793607.27334
1568793607.28897
1568793607.30459
1568793607.32022
1568793607.33585
1568793607.35147
1568793607.3671
1568793607.38272
1568793607.39835
1568793607.41397
1568793607.4296
1568793607.44523
1568793607.46085
1568793607.47648
1568793607.4921
1568793607.50773
1568793607.52335
1568793607.53898
1568793607.55461
1568793607.57023
1568793607.58586
1568793607.60148
1568793607.61711
1568793607.63273
1568793607.64836
1568793607.66399
1568793607.67961
1568793607.69524
1568793607.71086
1568793607.72649
1568793607.74211
1568793607.75774
1568793607.77337
1568793607.78899
1568793607.80462
1568793607.82024
1568793607.83587
1568793607.85149
1568793607.86712
1568793607.88275
1568793607.89837
1568793607.914
1568793607.92962
1568793607.94525
1568793607.96087
1568793607.9765
1568793607.99213
1568793608.00775
1568793608.02338
1568793608.039
1568793608.05463
1568793608.07025
1568793608.08588
1568793608.10151
1568793608.11713
1568793608.13276
1568793608.14838
1568793608.16401
1568793608.17963
1568793608.19526
1568793608.21089
1568793608.22651
1568793608.24214
1568793608.25776
1568793608.27339
1568793608.28901
1568793608.30464
1568793608.32027
1568793608.33589
1568793608.35152
1568793608.36714
1568793608.38277
1568793608.39839
1568793608.41402
1568793608.42965
1568793608.44527
1568793608.4609
1568793608.47652
1568793608.49215
1568793608.50777
1568793608.5234
1568793608.53903
1568793608.55465
1568793608.57028
1568793608.5859
1568793608.60153
1568793608.61715
1568793608.63278
1568793608.64841
1568793608.66403
1568793608.67966
1568793608.69528
1568793608.71091
1568793608.72653
1568793608.74216
1568793608.75779
1568793608.77341
1568793608.78904
1568793608.80466
1568793608.82029
1568793608.83591
1568793608.85154
1568793608.86717
1568793608.88279
1568793608.89842
1568793608.91404
1568793608.92967
1568793608.94529
1568793608.96092
1568793608.97655
1568793608.99217
1568793609.0078
1568793609.02342
1568793609.03905
1568793609.05467
1568793609.0703
1568793609.08593
1568793609.10155
1568793609.11718
1568793609.1328
1568793609.14843
1568793609.16405
1568793609.17968
1568793609.19531
1568793609.21093
1568793609.22656
1568793609.24218
1568793609.25781
1568793609.27343
1568793609.28906
1568793609.30469
1568793609.32031
1568793609.33594
1568793609.35156
1568793609.36719
1568793609.38281
1568793609.39844
1568793609.41407
1568793609.42969
1568793609.44532
1568793609.46094
1568793609.47657
1568793609.4922
1568793609.50782
1568793609.52345
1568793609.53907
1568793609.5547
1568793609.57032
1568793609.58595
1568793609.60158
1568793609.6172
1568793609.63283
1568793609.64845
1568793609.66408
1568793609.6797
1568793609.69533
1568793609.71096
1568793609.72658
1568793609.74221
1568793609.75783
1568793609.77346
1568793609.78908
1568793609.80471
1568793609.82034
1568793609.83596
1568793609.85159
1568793609.86721
1568793609.88284
1568793609.89846
1568793609.91409
1568793609.92972
1568793609.94534
1568793609.96097
1568793609.97659
1568793609.99222
1568793610.00784
1568793610.02347
1568793610.0391
1568793610.05472
1568793610.07035
1568793610.08597
1568793610.1016
1568793610.11722
1568793610.13285
1568793610.14848
1568793610.1641
1568793610.17973
1568793610.19535
1568793610.21098
1568793610.2266
1568793610.24223
1568793610.25786
1568793610.27348
1568793610.28911
1568793610.30473
1568793610.32036
1568793610.33598
1568793610.35161
1568793610.36724
1568793610.38286
1568793610.39849
1568793610.41411
1568793610.42974
1568793610.44536
1568793610.46099
1568793610.47662
1568793610.49224
1568793610.50787
1568793610.52349
1568793610.53912
1568793610.55474
1568793610.57037
1568793610.586
1568793610.60162
1568793610.61725
1568793610.63287
1568793610.6485
1568793610.66412
1568793610.67975
1568793610.69538
1568793610.711
1568793610.72663
1568793610.74225
1568793610.75788
1568793610.7735
1568793610.78913
1568793610.80476
1568793610.82038
1568793610.83601
1568793610.85163
1568793610.86726
1568793610.88288
1568793610.89851
1568793610.91414
1568793610.92976
1568793610.94539
1568793610.96101
1568793610.97664
1568793610.99226
1568793611.00789
1568793611.02352
1568793611.03914
1568793611.05477
1568793611.07039
1568793611.08602
1568793611.10164
1568793611.11727
1568793611.1329
1568793611.14852
1568793611.16415
1568793611.17977
1568793611.1954
1568793611.21102
1568793611.22665
1568793611.24228
1568793611.2579
1568793611.27353
1568793611.28915
1568793611.30478
1568793611.3204
1568793611.33603
1568793611.35166
1568793611.36728
1568793611.38291
1568793611.39853
1568793611.41416
1568793611.42978
1568793611.44541
1568793611.46104
1568793611.47666
1568793611.49229
1568793611.50791
1568793611.52354
1568793611.53916
1568793611.55479
1568793611.57042
1568793611.58604
1568793611.60167
1568793611.61729
1568793611.63292
1568793611.64855
1568793611.66417
1568793611.6798
1568793611.69542
1568793611.71105
1568793611.72667
1568793611.7423
1568793611.75793
1568793611.77355
1568793611.78918
1568793611.8048
1568793611.82043
1568793611.83605
1568793611.85168
1568793611.86731
1568793611.88293
1568793611.89856
1568793611.91418
1568793611.92981
1568793611.94543
1568793611.96106
1568793611.97669
1568793611.99231
1568793612.00794
1568793612.02356
1568793612.03919
1568793612.05481
1568793612.07044
1568793612.08607
1568793612.10169
1568793612.11732
1568793612.13294
1568793612.14857
1568793612.16419
1568793612.17982
1568793612.19545
1568793612.21107
1568793612.2267
1568793612.24232
1568793612.25795
1568793612.27357
1568793612.2892
1568793612.30483
1568793612.32045
1568793612.33608
1568793612.3517
1568793612.36733
1568793612.38295
1568793612.39858
1568793612.41421
1568793612.42983
1568793612.44546
1568793612.46108
1568793612.47671
1568793612.49233
1568793612.50796
1568793612.52359
1568793612.53921
1568793612.55484
1568793612.57046
1568793612.58609
1568793612.60171
1568793612.61734
1568793612.63297
1568793612.64859
1568793612.66422
1568793612.67984
1568793612.69547
1568793612.71109
1568793612.72672
1568793612.74235
1568793612.75797
1568793612.7736
1568793612.78922
1568793612.80485
1568793612.82047
1568793612.8361
1568793612.85173
1568793612.86735
1568793612.88298
1568793612.8986
1568793612.91423
1568793612.92985
1568793612.94548
1568793612.96111
1568793612.97673
1568793612.99236
1568793613.00798
1568793613.02361
1568793613.03923
1568793613.05486
1568793613.07049
1568793613.08611
1568793613.10174
1568793613.11736
1568793613.13299
1568793613.14861
1568793613.16424
1568793613.17987
1568793613.19549
1568793613.21112
1568793613.22674
1568793613.24237
1568793613.25799
1568793613.27362
1568793613.28925
1568793613.30487
1568793613.3205
1568793613.33612
1568793613.35175
1568793613.36737
1568793613.383
1568793613.39863
1568793613.41425
1568793613.42988
1568793613.4455
1568793613.46113
1568793613.47675
1568793613.49238
1568793613.50801
1568793613.52363
1568793613.53926
1568793613.55488
1568793613.57051
1568793613.58613
1568793613.60176
1568793613.61739
1568793613.63301
1568793613.64864
1568793613.66426
1568793613.67989
1568793613.69551
1568793613.71114
1568793613.72677
1568793613.74239
1568793613.75802
1568793613.77364
1568793613.78927
1568793613.80489
1568793613.82052
1568793613.83615
1568793613.85177
1568793613.8674
1568793613.88302
1568793613.89865
1568793613.91427
1568793613.9299
1568793613.94553
1568793613.96115
1568793613.97678
1568793613.9924
1568793614.00803
1568793614.02365
1568793614.03928
1568793614.05491
1568793614.07053
1568793614.08616
1568793614.10178
1568793614.11741
1568793614.13303
1568793614.14866
1568793614.16429
1568793614.17991
1568793614.19554
1568793614.21116
1568793614.22679
1568793614.24241
1568793614.25804
1568793614.27367
1568793614.28929
1568793614.30492
1568793614.32054
1568793614.33617
1568793614.3518
1568793614.36742
1568793614.38305
1568793614.39867
1568793614.4143
1568793614.42992
1568793614.44555
1568793614.46118
1568793614.4768
1568793614.49243
1568793614.50805
