1569660783.09668
1569660783.1123
1569660783.12793
1569660783.14355
1569660783.15918
1569660783.17481
1569660783.19043
1569660783.20606
1569660783.22168
1569660783.23731
1569660783.25293
1569660783.26856
1569660783.28419
1569660783.29981
1569660783.31544
1569660783.33106
1569660783.34669
1569660783.36231
1569660783.37794
1569660783.39357
1569660783.40919
1569660783.42482
1569660783.44044
1569660783.45607
1569660783.47169
1569660783.48732
1569660783.50295
1569660783.51857
1569660783.5342
1569660783.54982
1569660783.56545
1569660783.58107
1569660783.5967
1569660783.61233
1569660783.62795
1569660783.64358
1569660783.6592
1569660783.67483
1569660783.69045
1569660783.70608
1569660783.72171
1569660783.73733
1569660783.75296
1569660783.76858
1569660783.78421
1569660783.79983
1569660783.81546
1569660783.83109
1569660783.84671
1569660783.86234
1569660783.87796
1569660783.89359
1569660783.90921
1569660783.92484
1569660783.94047
1569660783.95609
1569660783.97172
1569660783.98734
1569660784.00297
1569660784.01859
1569660784.03422
1569660784.04985
1569660784.06547
1569660784.0811
1569660784.09672
1569660784.11235
1569660784.12797
1569660784.1436
1569660784.15923
1569660784.17485
1569660784.19048
1569660784.2061
1569660784.22173
1569660784.23735
1569660784.25298
1569660784.26861
1569660784.28423
1569660784.29986
1569660784.31548
1569660784.33111
1569660784.34674
1569660784.36236
1569660784.37799
1569660784.39361
1569660784.40924
1569660784.42486
1569660784.44049
1569660784.45612
1569660784.47174
1569660784.48737
1569660784.50299
1569660784.51862
1569660784.53424
1569660784.54987
1569660784.5655
1569660784.58112
1569660784.59675
1569660784.61237
1569660784.628
1569660784.64362
1569660784.65925
1569660784.67488
1569660784.6905
1569660784.70613
1569660784.72175
1569660784.73738
1569660784.753
1569660784.76863
1569660784.78426
1569660784.79988
1569660784.81551
1569660784.83113
1569660784.84676
1569660784.86238
1569660784.87801
1569660784.89364
1569660784.90926
1569660784.92489
1569660784.94051
1569660784.95614
1569660784.97176
1569660784.98739
1569660785.00302
1569660785.01864
1569660785.03427
1569660785.04989
1569660785.06552
1569660785.08114
1569660785.09677
1569660785.1124
1569660785.12802
1569660785.14365
1569660785.15927
1569660785.1749
1569660785.19052
1569660785.20615
1569660785.22178
1569660785.2374
1569660785.25303
1569660785.26865
1569660785.28428
1569660785.2999
1569660785.31553
1569660785.33116
1569660785.34678
1569660785.36241
1569660785.37803
1569660785.39366
1569660785.40928
1569660785.42491
1569660785.44054
1569660785.45616
1569660785.47179
1569660785.48741
1569660785.50304
1569660785.51866
1569660785.53429
1569660785.54992
1569660785.56554
1569660785.58117
1569660785.59679
1569660785.61242
1569660785.62804
1569660785.64367
1569660785.6593
1569660785.67492
1569660785.69055
1569660785.70617
1569660785.7218
1569660785.73742
1569660785.75305
1569660785.76868
1569660785.7843
1569660785.79993
1569660785.81555
1569660785.83118
1569660785.8468
1569660785.86243
1569660785.87806
1569660785.89368
1569660785.90931
1569660785.92493
1569660785.94056
1569660785.95618
1569660785.97181
1569660785.98744
1569660786.00306
1569660786.01869
1569660786.03431
1569660786.04994
1569660786.06556
1569660786.08119
1569660786.09682
1569660786.11244
1569660786.12807
1569660786.14369
1569660786.15932
1569660786.17494
1569660786.19057
1569660786.2062
1569660786.22182
1569660786.23745
1569660786.25307
1569660786.2687
1569660786.28432
1569660786.29995
1569660786.31558
1569660786.3312
1569660786.34683
1569660786.36245
1569660786.37808
1569660786.3937
1569660786.40933
1569660786.42496
1569660786.44058
1569660786.45621
1569660786.47183
1569660786.48746
1569660786.50308
1569660786.51871
1569660786.53434
1569660786.54996
1569660786.56559
1569660786.58121
1569660786.59684
1569660786.61246
1569660786.62809
1569660786.64372
1569660786.65934
1569660786.67497
1569660786.69059
1569660786.70622
1569660786.72184
1569660786.73747
1569660786.7531
1569660786.76872
1569660786.78435
1569660786.79997
1569660786.8156
1569660786.83123
1569660786.84685
1569660786.86248
1569660786.8781
1569660786.89373
1569660786.90935
1569660786.92498
1569660786.94061
1569660786.95623
1569660786.97186
1569660786.98748
1569660787.00311
1569660787.01873
1569660787.03436
1569660787.04999
1569660787.06561
1569660787.08124
1569660787.09686
1569660787.11249
1569660787.12811
1569660787.14374
1569660787.15937
1569660787.17499
1569660787.19062
1569660787.20624
1569660787.22187
1569660787.23749
1569660787.25312
1569660787.26875
1569660787.28437
1569660787.3
1569660787.31562
1569660787.33125
1569660787.34687
1569660787.3625
1569660787.37813
1569660787.39375
1569660787.40938
1569660787.425
1569660787.44063
1569660787.45625
1569660787.47188
1569660787.48751
1569660787.50313
1569660787.51876
1569660787.53438
1569660787.55001
1569660787.56563
1569660787.58126
1569660787.59689
1569660787.61251
1569660787.62814
1569660787.64376
1569660787.65939
1569660787.67501
1569660787.69064
1569660787.70627
1569660787.72189
1569660787.73752
1569660787.75314
1569660787.76877
1569660787.78439
1569660787.80002
1569660787.81565
1569660787.83127
1569660787.8469
1569660787.86252
1569660787.87815
1569660787.89377
1569660787.9094
1569660787.92503
1569660787.94065
1569660787.95628
1569660787.9719
1569660787.98753
1569660788.00315
1569660788.01878
1569660788.03441
1569660788.05003
1569660788.06566
1569660788.08128
1569660788.09691
1569660788.11253
1569660788.12816
1569660788.14379
1569660788.15941
1569660788.17504
1569660788.19066
1569660788.20629
1569660788.22191
1569660788.23754
1569660788.25317
1569660788.26879
1569660788.28442
1569660788.30004
1569660788.31567
1569660788.33129
1569660788.34692
1569660788.36255
1569660788.37817
1569660788.3938
1569660788.40942
1569660788.42505
1569660788.44067
1569660788.4563
1569660788.47193
1569660788.48755
1569660788.50318
1569660788.5188
1569660788.53443
1569660788.55005
1569660788.56568
1569660788.58131
1569660788.59693
1569660788.61256
1569660788.62818
1569660788.64381
1569660788.65943
1569660788.67506
1569660788.69069
1569660788.70631
1569660788.72194
1569660788.73756
1569660788.75319
1569660788.76881
1569660788.78444
1569660788.80007
1569660788.81569
1569660788.83132
1569660788.84694
1569660788.86257
1569660788.87819
1569660788.89382
1569660788.90945
1569660788.92507
1569660788.9407
1569660788.95632
1569660788.97195
1569660788.98758
1569660789.0032
1569660789.01883
1569660789.03445
1569660789.05008
1569660789.0657
1569660789.08133
1569660789.09696
1569660789.11258
1569660789.12821
1569660789.14383
1569660789.15946
1569660789.17508
1569660789.19071
1569660789.20634
1569660789.22196
1569660789.23759
1569660789.25321
1569660789.26884
1569660789.28446
1569660789.30009
1569660789.31572
1569660789.33134
1569660789.34697
1569660789.36259
1569660789.37822
1569660789.39384
1569660789.40947
1569660789.4251
1569660789.44072
1569660789.45635
1569660789.47197
1569660789.4876
1569660789.50322
1569660789.51885
1569660789.53448
1569660789.5501
1569660789.56573
1569660789.58135
1569660789.59698
1569660789.6126
1569660789.62823
1569660789.64386
1569660789.65948
1569660789.67511
1569660789.69073
1569660789.70636
1569660789.72198
1569660789.73761
1569660789.75324
1569660789.76886
1569660789.78449
1569660789.80011
1569660789.81574
1569660789.83136
1569660789.84699
1569660789.86262
1569660789.87824
1569660789.89387
1569660789.90949
1569660789.92512
1569660789.94074
1569660789.95637
1569660789.972
1569660789.98762
1569660790.00325
1569660790.01887
1569660790.0345
1569660790.05012
1569660790.06575
1569660790.08138
1569660790.097
1569660790.11263
1569660790.12825
1569660790.14388
1569660790.1595
1569660790.17513
1569660790.19076
1569660790.20638
1569660790.22201
1569660790.23763
1569660790.25326
1569660790.26888
1569660790.28451
1569660790.30014
1569660790.31576
1569660790.33139
1569660790.34701
1569660790.36264
1569660790.37826
1569660790.39389
1569660790.40952
1569660790.42514
1569660790.44077
1569660790.45639
1569660790.47202
1569660790.48764
1569660790.50327
1569660790.5189
1569660790.53452
1569660790.55015
1569660790.56577
1569660790.5814
1569660790.59702
1569660790.61265
1569660790.62828
1569660790.6439
1569660790.65953
1569660790.67515
1569660790.69078
1569660790.7064
1569660790.72203
1569660790.73766
1569660790.75328
1569660790.76891
1569660790.78453
1569660790.80016
1569660790.81578
1569660790.83141
1569660790.84704
1569660790.86266
1569660790.87829
1569660790.89391
1569660790.90954
1569660790.92516
1569660790.94079
1569660790.95642
1569660790.97204
1569660790.98767
1569660791.00329
1569660791.01892
1569660791.03454
1569660791.05017
1569660791.0658
1569660791.08142
1569660791.09705
1569660791.11267
1569660791.1283
1569660791.14392
1569660791.15955
1569660791.17518
1569660791.1908
1569660791.20643
1569660791.22205
1569660791.23768
1569660791.2533
1569660791.26893
1569660791.28456
1569660791.30018
1569660791.31581
1569660791.33143
1569660791.34706
1569660791.36268
1569660791.37831
1569660791.39394
1569660791.40956
1569660791.42519
1569660791.44081
1569660791.45644
1569660791.47206
1569660791.48769
1569660791.50332
1569660791.51894
1569660791.53457
1569660791.55019
1569660791.56582
1569660791.58144
1569660791.59707
1569660791.6127
1569660791.62832
1569660791.64395
1569660791.65957
1569660791.6752
1569660791.69083
1569660791.70645
1569660791.72208
1569660791.7377
1569660791.75333
1569660791.76895
1569660791.78458
1569660791.80021
1569660791.81583
1569660791.83146
1569660791.84708
1569660791.86271
1569660791.87833
1569660791.89396
1569660791.90959
1569660791.92521
1569660791.94084
1569660791.95646
1569660791.97209
1569660791.98771
1569660792.00334
1569660792.01897
1569660792.03459
1569660792.05022
1569660792.06584
1569660792.08147
1569660792.09709
1569660792.11272
1569660792.12835
1569660792.14397
1569660792.1596
1569660792.17522
1569660792.19085
1569660792.20647
1569660792.2221
1569660792.23773
1569660792.25335
1569660792.26898
1569660792.2846
1569660792.30023
1569660792.31585
1569660792.33148
1569660792.34711
1569660792.36273
1569660792.37836
1569660792.39398
1569660792.40961
1569660792.42523
1569660792.44086
1569660792.45649
1569660792.47211
1569660792.48774
1569660792.50336
1569660792.51899
1569660792.53461
1569660792.55024
1569660792.56587
1569660792.58149
1569660792.59712
1569660792.61274
1569660792.62837
1569660792.64399
1569660792.65962
1569660792.67525
1569660792.69087
1569660792.7065
1569660792.72212
1569660792.73775
1569660792.75337
1569660792.769
1569660792.78463
1569660792.80025
1569660792.81588
1569660792.8315
1569660792.84713
1569660792.86275
1569660792.87838
1569660792.89401
1569660792.90963
1569660792.92526
1569660792.94088
1569660792.95651
1569660792.97213
1569660792.98776
1569660793.00339
1569660793.01901
1569660793.03464
1569660793.05026
1569660793.06589
1569660793.08151
1569660793.09714
1569660793.11277
1569660793.12839
1569660793.14402
1569660793.15964
1569660793.17527
1569660793.19089
1569660793.20652
1569660793.22215
1569660793.23777
1569660793.2534
1569660793.26902
1569660793.28465
1569660793.30027
1569660793.3159
1569660793.33153
1569660793.34715
1569660793.36278
1569660793.3784
1569660793.39403
1569660793.40965
1569660793.42528
1569660793.44091
1569660793.45653
1569660793.47216
1569660793.48778
1569660793.50341
1569660793.51903
1569660793.53466
1569660793.55029
1569660793.56591
1569660793.58154
1569660793.59716
1569660793.61279
1569660793.62841
1569660793.64404
1569660793.65967
1569660793.67529
1569660793.69092
1569660793.70654
1569660793.72217
1569660793.73779
1569660793.75342
1569660793.76905
1569660793.78467
1569660793.8003
1569660793.81592
1569660793.83155
1569660793.84718
1569660793.8628
1569660793.87843
1569660793.89405
1569660793.90968
1569660793.9253
1569660793.94093
1569660793.95656
1569660793.97218
1569660793.98781
1569660794.00343
1569660794.01906
1569660794.03468
1569660794.05031
1569660794.06594
1569660794.08156
1569660794.09719
1569660794.11281
1569660794.12844
1569660794.14406
1569660794.15969
1569660794.17532
1569660794.19094
1569660794.20657
1569660794.22219
1569660794.23782
1569660794.25344
1569660794.26907
1569660794.2847
1569660794.30032
1569660794.31595
1569660794.33157
1569660794.3472
1569660794.36282
1569660794.37845
1569660794.39408
1569660794.4097
1569660794.42533
1569660794.44095
1569660794.45658
1569660794.4722
1569660794.48783
1569660794.50346
1569660794.51908
1569660794.53471
1569660794.55033
1569660794.56596
1569660794.58158
1569660794.59721
1569660794.61284
1569660794.62846
1569660794.64409
1569660794.65971
1569660794.67534
1569660794.69096
1569660794.70659
1569660794.72222
1569660794.73784
1569660794.75347
1569660794.76909
1569660794.78472
1569660794.80034
1569660794.81597
1569660794.8316
1569660794.84722
1569660794.86285
1569660794.87847
1569660794.8941
1569660794.90972
1569660794.92535
1569660794.94098
1569660794.9566
1569660794.97223
1569660794.98785
1569660795.00348
1569660795.0191
1569660795.03473
1569660795.05036
1569660795.06598
1569660795.08161
1569660795.09723
1569660795.11286
1569660795.12848
1569660795.14411
1569660795.15974
1569660795.17536
1569660795.19099
1569660795.20661
1569660795.22224
1569660795.23786
1569660795.25349
1569660795.26912
1569660795.28474
1569660795.30037
1569660795.31599
1569660795.33162
1569660795.34724
1569660795.36287
1569660795.3785
1569660795.39412
1569660795.40975
1569660795.42537
1569660795.441
1569660795.45662
1569660795.47225
1569660795.48788
1569660795.5035
1569660795.51913
1569660795.53475
1569660795.55038
1569660795.566
1569660795.58163
1569660795.59726
1569660795.61288
1569660795.62851
1569660795.64413
1569660795.65976
1569660795.67538
1569660795.69101
1569660795.70664
1569660795.72226
1569660795.73789
1569660795.75351
1569660795.76914
1569660795.78476
1569660795.80039
1569660795.81602
1569660795.83164
1569660795.84727
1569660795.86289
1569660795.87852
1569660795.89414
1569660795.90977
1569660795.9254
1569660795.94102
1569660795.95665
1569660795.97227
1569660795.9879
1569660796.00352
1569660796.01915
1569660796.03478
1569660796.0504
1569660796.06603
1569660796.08165
1569660796.09728
1569660796.11291
1569660796.12853
1569660796.14416
1569660796.15978
1569660796.17541
1569660796.19103
1569660796.20666
1569660796.22229
1569660796.23791
1569660796.25354
1569660796.26916
1569660796.28479
1569660796.30041
1569660796.31604
1569660796.33167
1569660796.34729
1569660796.36292
1569660796.37854
1569660796.39417
1569660796.40979
1569660796.42542
1569660796.44105
1569660796.45667
1569660796.4723
1569660796.48792
1569660796.50355
1569660796.51917
1569660796.5348
1569660796.55043
1569660796.56605
1569660796.58168
1569660796.5973
1569660796.61293
1569660796.62855
1569660796.64418
1569660796.65981
1569660796.67543
1569660796.69106
1569660796.70668
1569660796.72231
1569660796.73793
1569660796.75356
1569660796.76919
1569660796.78481
1569660796.80044
1569660796.81606
1569660796.83169
1569660796.84731
1569660796.86294
1569660796.87857
1569660796.89419
1569660796.90982
1569660796.92544
1569660796.94107
1569660796.95669
1569660796.97232
1569660796.98795
1569660797.00357
1569660797.0192
1569660797.03482
1569660797.05045
1569660797.06607
1569660797.0817
1569660797.09733
1569660797.11295
1569660797.12858
1569660797.1442
1569660797.15983
1569660797.17545
1569660797.19108
1569660797.20671
1569660797.22233
1569660797.23796
1569660797.25358
1569660797.26921
1569660797.28483
1569660797.30046
1569660797.31609
1569660797.33171
1569660797.34734
1569660797.36296
1569660797.37859
1569660797.39421
1569660797.40984
1569660797.42547
1569660797.44109
1569660797.45672
1569660797.47234
1569660797.48797
1569660797.50359
1569660797.51922
1569660797.53485
1569660797.55047
1569660797.5661
1569660797.58172
1569660797.59735
1569660797.61297
1569660797.6286
1569660797.64423
1569660797.65985
1569660797.67548
1569660797.6911
1569660797.70673
1569660797.72235
1569660797.73798
1569660797.75361
1569660797.76923
1569660797.78486
1569660797.80048
1569660797.81611
1569660797.83173
1569660797.84736
1569660797.86299
1569660797.87861
1569660797.89424
1569660797.90986
1569660797.92549
1569660797.94111
1569660797.95674
1569660797.97237
1569660797.98799
1569660798.00362
1569660798.01924
1569660798.03487
1569660798.05049
1569660798.06612
1569660798.08175
1569660798.09737
1569660798.113
1569660798.12862
1569660798.14425
1569660798.15987
1569660798.1755
1569660798.19113
1569660798.20675
1569660798.22238
1569660798.238
1569660798.25363
1569660798.26925
1569660798.28488
1569660798.30051
1569660798.31613
1569660798.33176
1569660798.34738
1569660798.36301
1569660798.37863
1569660798.39426
1569660798.40989
1569660798.42551
1569660798.44114
1569660798.45676
1569660798.47239
1569660798.48801
1569660798.50364
1569660798.51927
1569660798.53489
1569660798.55052
1569660798.56614
1569660798.58177
1569660798.59739
1569660798.61302
1569660798.62865
1569660798.64427
1569660798.6599
1569660798.67552
1569660798.69115
1569660798.70678
1569660798.7224
1569660798.73803
1569660798.75365
1569660798.76928
1569660798.7849
1569660798.80053
1569660798.81616
1569660798.83178
1569660798.84741
1569660798.86303
1569660798.87866
1569660798.89428
1569660798.90991
1569660798.92554
1569660798.94116
1569660798.95679
1569660798.97241
1569660798.98804
1569660799.00366
1569660799.01929
1569660799.03492
1569660799.05054
1569660799.06617
1569660799.08179
1569660799.09742
1569660799.11304
1569660799.12867
1569660799.1443
1569660799.15992
1569660799.17555
1569660799.19117
1569660799.2068
1569660799.22242
1569660799.23805
1569660799.25368
1569660799.2693
1569660799.28493
1569660799.30055
1569660799.31618
1569660799.3318
1569660799.34743
1569660799.36306
1569660799.37868
1569660799.39431
1569660799.40993
1569660799.42556
1569660799.44118
1569660799.45681
1569660799.47244
1569660799.48806
1569660799.50369
1569660799.51931
1569660799.53494
1569660799.55056
1569660799.56619
1569660799.58182
1569660799.59744
1569660799.61307
1569660799.62869
1569660799.64432
1569660799.65994
1569660799.67557
1569660799.6912
1569660799.70682
1569660799.72245
1569660799.73807
1569660799.7537
1569660799.76932
1569660799.78495
1569660799.80058
1569660799.8162
1569660799.83183
1569660799.84745
1569660799.86308
1569660799.8787
1569660799.89433
1569660799.90996
1569660799.92558
1569660799.94121
1569660799.95683
1569660799.97246
1569660799.98808
1569660800.00371
1569660800.01934
1569660800.03496
1569660800.05059
1569660800.06621
1569660800.08184
1569660800.09746
1569660800.11309
1569660800.12872
1569660800.14434
1569660800.15997
1569660800.17559
1569660800.19122
1569660800.20684
1569660800.22247
1569660800.2381
1569660800.25372
1569660800.26935
1569660800.28497
1569660800.3006
1569660800.31622
1569660800.33185
1569660800.34748
1569660800.3631
1569660800.37873
1569660800.39435
1569660800.40998
1569660800.4256
1569660800.44123
1569660800.45686
1569660800.47248
1569660800.48811
1569660800.50373
1569660800.51936
1569660800.53498
1569660800.55061
1569660800.56624
1569660800.58186
1569660800.59749
1569660800.61311
1569660800.62874
1569660800.64436
1569660800.65999
1569660800.67562
1569660800.69124
1569660800.70687
1569660800.72249
1569660800.73812
1569660800.75374
1569660800.76937
1569660800.785
1569660800.80062
1569660800.81625
1569660800.83187
1569660800.8475
1569660800.86312
1569660800.87875
1569660800.89438
1569660800.91
1569660800.92563
1569660800.94125
1569660800.95688
1569660800.97251
1569660800.98813
1569660801.00376
1569660801.01938
1569660801.03501
1569660801.05063
1569660801.06626
1569660801.08189
1569660801.09751
1569660801.11314
1569660801.12876
1569660801.14439
1569660801.16001
1569660801.17564
1569660801.19127
1569660801.20689
1569660801.22252
1569660801.23814
1569660801.25377
1569660801.26939
1569660801.28502
1569660801.30065
1569660801.31627
1569660801.3319
1569660801.34752
1569660801.36315
1569660801.37877
1569660801.3944
1569660801.41003
1569660801.42565
1569660801.44128
1569660801.4569
1569660801.47253
1569660801.48815
1569660801.50378
1569660801.51941
1569660801.53503
1569660801.55066
1569660801.56628
1569660801.58191
1569660801.59753
1569660801.61316
1569660801.62879
1569660801.64441
1569660801.66004
1569660801.67566
1569660801.69129
1569660801.70691
1569660801.72254
1569660801.73817
1569660801.75379
1569660801.76942
1569660801.78504
1569660801.80067
1569660801.81629
1569660801.83192
1569660801.84755
1569660801.86317
1569660801.8788
1569660801.89442
1569660801.91005
1569660801.92567
1569660801.9413
1569660801.95693
1569660801.97255
1569660801.98818
1569660802.0038
1569660802.01943
1569660802.03505
1569660802.05068
1569660802.06631
1569660802.08193
1569660802.09756
1569660802.11318
1569660802.12881
1569660802.14443
1569660802.16006
1569660802.17569
1569660802.19131
1569660802.20694
1569660802.22256
1569660802.23819
1569660802.25381
1569660802.26944
1569660802.28507
1569660802.30069
1569660802.31632
1569660802.33194
1569660802.34757
1569660802.36319
1569660802.37882
1569660802.39445
1569660802.41007
1569660802.4257
1569660802.44132
1569660802.45695
1569660802.47257
1569660802.4882
1569660802.50383
1569660802.51945
1569660802.53508
1569660802.5507
1569660802.56633
1569660802.58195
1569660802.59758
1569660802.61321
1569660802.62883
1569660802.64446
1569660802.66008
1569660802.67571
1569660802.69133
1569660802.70696
1569660802.72259
1569660802.73821
1569660802.75384
1569660802.76946
1569660802.78509
1569660802.80071
1569660802.81634
1569660802.83197
1569660802.84759
1569660802.86322
1569660802.87884
1569660802.89447
1569660802.91009
1569660802.92572
1569660802.94135
1569660802.95697
1569660802.9726
1569660802.98822
1569660803.00385
1569660803.01947
1569660803.0351
1569660803.05073
1569660803.06635
1569660803.08198
1569660803.0976
1569660803.11323
1569660803.12885
1569660803.14448
1569660803.16011
1569660803.17573
1569660803.19136
1569660803.20698
1569660803.22261
1569660803.23824
1569660803.25386
1569660803.26949
1569660803.28511
1569660803.30074
1569660803.31636
1569660803.33199
1569660803.34762
1569660803.36324
1569660803.37887
1569660803.39449
1569660803.41012
1569660803.42574
1569660803.44137
1569660803.457
1569660803.47262
1569660803.48825
1569660803.50387
1569660803.5195
1569660803.53512
1569660803.55075
1569660803.56638
1569660803.582
1569660803.59763
1569660803.61325
1569660803.62888
1569660803.6445
1569660803.66013
1569660803.67576
1569660803.69138
1569660803.70701
1569660803.72263
1569660803.73826
1569660803.75388
1569660803.76951
1569660803.78514
1569660803.80076
1569660803.81639
1569660803.83201
1569660803.84764
1569660803.86326
1569660803.87889
1569660803.89452
1569660803.91014
1569660803.92577
1569660803.94139
1569660803.95702
1569660803.97264
1569660803.98827
1569660804.0039
1569660804.01952
1569660804.03515
1569660804.05077
1569660804.0664
1569660804.08202
1569660804.09765
1569660804.11328
1569660804.1289
1569660804.14453
1569660804.16015
1569660804.17578
1569660804.1914
1569660804.20703
1569660804.22266
1569660804.23828
1569660804.25391
1569660804.26953
1569660804.28516
1569660804.30078
1569660804.31641
1569660804.33204
1569660804.34766
1569660804.36329
1569660804.37891
1569660804.39454
1569660804.41016
1569660804.42579
1569660804.44142
1569660804.45704
1569660804.47267
1569660804.48829
1569660804.50392
1569660804.51954
1569660804.53517
1569660804.5508
1569660804.56642
1569660804.58205
1569660804.59767
1569660804.6133
1569660804.62892
1569660804.64455
1569660804.66018
1569660804.6758
1569660804.69143
1569660804.70705
1569660804.72268
1569660804.7383
1569660804.75393
1569660804.76956
1569660804.78518
1569660804.80081
1569660804.81643
1569660804.83206
1569660804.84768
1569660804.86331
1569660804.87894
1569660804.89456
1569660804.91019
1569660804.92581
1569660804.94144
1569660804.95706
1569660804.97269
1569660804.98832
1569660805.00394
1569660805.01957
1569660805.03519
1569660805.05082
1569660805.06644
1569660805.08207
1569660805.0977
1569660805.11332
1569660805.12895
1569660805.14457
1569660805.1602
1569660805.17582
1569660805.19145
1569660805.20708
1569660805.2227
1569660805.23833
1569660805.25395
1569660805.26958
1569660805.2852
1569660805.30083
1569660805.31646
1569660805.33208
1569660805.34771
1569660805.36333
1569660805.37896
1569660805.39458
1569660805.41021
1569660805.42584
1569660805.44146
1569660805.45709
1569660805.47271
1569660805.48834
1569660805.50396
1569660805.51959
1569660805.53522
1569660805.55084
1569660805.56647
1569660805.58209
1569660805.59772
1569660805.61334
1569660805.62897
1569660805.6446
1569660805.66022
1569660805.67585
1569660805.69147
1569660805.7071
1569660805.72272
1569660805.73835
1569660805.75398
1569660805.7696
1569660805.78523
1569660805.80085
1569660805.81648
1569660805.83211
1569660805.84773
1569660805.86336
1569660805.87898
1569660805.89461
1569660805.91023
1569660805.92586
1569660805.94149
1569660805.95711
1569660805.97274
1569660805.98836
1569660806.00399
1569660806.01961
1569660806.03524
1569660806.05087
1569660806.06649
1569660806.08212
1569660806.09774
1569660806.11337
1569660806.12899
1569660806.14462
1569660806.16025
1569660806.17587
1569660806.1915
1569660806.20712
1569660806.22275
1569660806.23837
1569660806.254
1569660806.26963
1569660806.28525
1569660806.30088
1569660806.3165
1569660806.33213
1569660806.34775
1569660806.36338
1569660806.37901
1569660806.39463
1569660806.41026
1569660806.42588
1569660806.44151
1569660806.45713
1569660806.47276
1569660806.48839
1569660806.50401
1569660806.51964
1569660806.53526
1569660806.55089
1569660806.56651
1569660806.58214
1569660806.59777
1569660806.61339
1569660806.62902
1569660806.64464
1569660806.66027
1569660806.67589
1569660806.69152
1569660806.70715
1569660806.72277
1569660806.7384
1569660806.75402
1569660806.76965
1569660806.78527
1569660806.8009
1569660806.81653
1569660806.83215
1569660806.84778
1569660806.8634
1569660806.87903
1569660806.89465
1569660806.91028
1569660806.92591
1569660806.94153
1569660806.95716
1569660806.97278
1569660806.98841
1569660807.00403
1569660807.01966
1569660807.03529
1569660807.05091
1569660807.06654
1569660807.08216
1569660807.09779
1569660807.11341
1569660807.12904
1569660807.14467
1569660807.16029
1569660807.17592
1569660807.19154
1569660807.20717
1569660807.22279
1569660807.23842
1569660807.25405
1569660807.26967
1569660807.2853
1569660807.30092
1569660807.31655
1569660807.33217
1569660807.3478
1569660807.36343
1569660807.37905
1569660807.39468
1569660807.4103
1569660807.42593
1569660807.44155
1569660807.45718
1569660807.47281
1569660807.48843
1569660807.50406
1569660807.51968
1569660807.53531
1569660807.55093
1569660807.56656
1569660807.58219
1569660807.59781
1569660807.61344
1569660807.62906
1569660807.64469
1569660807.66031
1569660807.67594
1569660807.69157
1569660807.70719
1569660807.72282
1569660807.73844
1569660807.75407
1569660807.76969
1569660807.78532
1569660807.80095
1569660807.81657
1569660807.8322
1569660807.84782
1569660807.86345
1569660807.87907
1569660807.8947
1569660807.91033
1569660807.92595
1569660807.94158
1569660807.9572
1569660807.97283
1569660807.98845
1569660808.00408
1569660808.01971
1569660808.03533
1569660808.05096
1569660808.06658
1569660808.08221
1569660808.09784
1569660808.11346
1569660808.12909
1569660808.14471
1569660808.16034
1569660808.17596
1569660808.19159
1569660808.20722
1569660808.22284
1569660808.23847
1569660808.25409
1569660808.26972
1569660808.28534
1569660808.30097
1569660808.3166
1569660808.33222
1569660808.34785
1569660808.36347
1569660808.3791
1569660808.39472
1569660808.41035
1569660808.42598
1569660808.4416
1569660808.45723
1569660808.47285
1569660808.48848
1569660808.5041
1569660808.51973
1569660808.53536
1569660808.55098
1569660808.56661
1569660808.58223
1569660808.59786
1569660808.61348
1569660808.62911
1569660808.64474
1569660808.66036
1569660808.67599
1569660808.69161
1569660808.70724
1569660808.72286
1569660808.73849
1569660808.75412
1569660808.76974
1569660808.78537
1569660808.80099
1569660808.81662
1569660808.83224
1569660808.84787
1569660808.8635
1569660808.87912
1569660808.89475
1569660808.91037
1569660808.926
1569660808.94162
1569660808.95725
1569660808.97288
1569660808.9885
1569660809.00413
1569660809.01975
1569660809.03538
1569660809.051
1569660809.06663
1569660809.08226
1569660809.09788
1569660809.11351
1569660809.12913
1569660809.14476
1569660809.16038
1569660809.17601
1569660809.19164
1569660809.20726
1569660809.22289
1569660809.23851
1569660809.25414
1569660809.26976
1569660809.28539
1569660809.30102
1569660809.31664
1569660809.33227
1569660809.34789
1569660809.36352
1569660809.37914
1569660809.39477
1569660809.4104
1569660809.42602
1569660809.44165
1569660809.45727
1569660809.4729
1569660809.48852
1569660809.50415
1569660809.51978
1569660809.5354
1569660809.55103
1569660809.56665
1569660809.58228
1569660809.5979
1569660809.61353
1569660809.62916
1569660809.64478
1569660809.66041
1569660809.67603
1569660809.69166
1569660809.70728
1569660809.72291
1569660809.73854
1569660809.75416
1569660809.76979
1569660809.78541
1569660809.80104
1569660809.81666
1569660809.83229
1569660809.84792
1569660809.86354
1569660809.87917
1569660809.89479
1569660809.91042
1569660809.92604
1569660809.94167
1569660809.9573
1569660809.97292
1569660809.98855
1569660810.00417
1569660810.0198
1569660810.03542
1569660810.05105
1569660810.06668
1569660810.0823
1569660810.09793
1569660810.11355
1569660810.12918
1569660810.1448
1569660810.16043
1569660810.17606
1569660810.19168
1569660810.20731
1569660810.22293
1569660810.23856
1569660810.25418
1569660810.26981
1569660810.28544
1569660810.30106
1569660810.31669
1569660810.33231
1569660810.34794
1569660810.36356
1569660810.37919
1569660810.39482
1569660810.41044
1569660810.42607
1569660810.44169
1569660810.45732
1569660810.47294
1569660810.48857
1569660810.5042
1569660810.51982
1569660810.53545
1569660810.55107
1569660810.5667
1569660810.58232
1569660810.59795
1569660810.61358
1569660810.6292
1569660810.64483
1569660810.66045
1569660810.67608
1569660810.69171
1569660810.70733
1569660810.72296
1569660810.73858
1569660810.75421
1569660810.76983
1569660810.78546
1569660810.80109
1569660810.81671
1569660810.83234
1569660810.84796
1569660810.86359
1569660810.87921
1569660810.89484
1569660810.91047
1569660810.92609
1569660810.94172
1569660810.95734
1569660810.97297
1569660810.98859
1569660811.00422
1569660811.01985
1569660811.03547
1569660811.0511
1569660811.06672
1569660811.08235
1569660811.09797
1569660811.1136
1569660811.12923
1569660811.14485
1569660811.16048
1569660811.1761
1569660811.19173
1569660811.20735
1569660811.22298
1569660811.23861
1569660811.25423
1569660811.26986
1569660811.28548
1569660811.30111
1569660811.31673
1569660811.33236
1569660811.34799
1569660811.36361
1569660811.37924
1569660811.39486
1569660811.41049
1569660811.42611
1569660811.44174
1569660811.45737
1569660811.47299
1569660811.48862
1569660811.50424
1569660811.51987
1569660811.53549
1569660811.55112
1569660811.56675
1569660811.58237
1569660811.598
1569660811.61362
1569660811.62925
1569660811.64487
1569660811.6605
1569660811.67613
1569660811.69175
1569660811.70738
1569660811.723
1569660811.73863
1569660811.75425
1569660811.76988
1569660811.78551
1569660811.80113
1569660811.81676
1569660811.83238
1569660811.84801
1569660811.86363
1569660811.87926
1569660811.89489
1569660811.91051
1569660811.92614
1569660811.94176
1569660811.95739
1569660811.97301
1569660811.98864
1569660812.00427
1569660812.01989
1569660812.03552
1569660812.05114
1569660812.06677
1569660812.08239
1569660812.09802
1569660812.11365
1569660812.12927
1569660812.1449
1569660812.16052
1569660812.17615
1569660812.19177
1569660812.2074
1569660812.22303
1569660812.23865
1569660812.25428
1569660812.2699
1569660812.28553
1569660812.30115
1569660812.31678
1569660812.33241
1569660812.34803
1569660812.36366
1569660812.37928
1569660812.39491
1569660812.41053
1569660812.42616
1569660812.44179
1569660812.45741
1569660812.47304
1569660812.48866
1569660812.50429
1569660812.51991
1569660812.53554
1569660812.55117
1569660812.56679
1569660812.58242
1569660812.59804
1569660812.61367
1569660812.62929
1569660812.64492
1569660812.66055
1569660812.67617
1569660812.6918
1569660812.70742
1569660812.72305
1569660812.73867
1569660812.7543
1569660812.76993
1569660812.78555
1569660812.80118
1569660812.8168
1569660812.83243
1569660812.84805
1569660812.86368
1569660812.87931
1569660812.89493
1569660812.91056
1569660812.92618
1569660812.94181
1569660812.95744
1569660812.97306
1569660812.98869
1569660813.00431
1569660813.01994
1569660813.03556
1569660813.05119
1569660813.06682
1569660813.08244
1569660813.09807
1569660813.11369
1569660813.12932
1569660813.14494
1569660813.16057
1569660813.1762
1569660813.19182
1569660813.20745
1569660813.22307
1569660813.2387
1569660813.25432
1569660813.26995
1569660813.28558
1569660813.3012
1569660813.31683
1569660813.33245
1569660813.34808
1569660813.3637
1569660813.37933
1569660813.39496
1569660813.41058
1569660813.42621
1569660813.44183
1569660813.45746
1569660813.47308
1569660813.48871
1569660813.50434
1569660813.51996
1569660813.53559
1569660813.55121
1569660813.56684
1569660813.58246
1569660813.59809
1569660813.61372
1569660813.62934
1569660813.64497
1569660813.66059
1569660813.67622
1569660813.69184
1569660813.70747
1569660813.7231
1569660813.73872
1569660813.75435
1569660813.76997
1569660813.7856
1569660813.80122
1569660813.81685
1569660813.83248
1569660813.8481
1569660813.86373
1569660813.87935
1569660813.89498
1569660813.9106
1569660813.92623
1569660813.94186
1569660813.95748
1569660813.97311
1569660813.98873
1569660814.00436
1569660814.01998
1569660814.03561
1569660814.05124
1569660814.06686
1569660814.08249
1569660814.09811
1569660814.11374
1569660814.12936
1569660814.14499
1569660814.16062
1569660814.17624
1569660814.19187
1569660814.20749
1569660814.22312
1569660814.23874
1569660814.25437
1569660814.27
1569660814.28562
1569660814.30125
1569660814.31687
1569660814.3325
1569660814.34812
1569660814.36375
1569660814.37938
1569660814.395
1569660814.41063
1569660814.42625
1569660814.44188
1569660814.4575
1569660814.47313
1569660814.48876
1569660814.50438
1569660814.52001
1569660814.53563
1569660814.55126
1569660814.56688
1569660814.58251
1569660814.59814
1569660814.61376
1569660814.62939
1569660814.64501
1569660814.66064
1569660814.67626
1569660814.69189
1569660814.70752
1569660814.72314
1569660814.73877
1569660814.75439
1569660814.77002
1569660814.78564
1569660814.80127
1569660814.8169
1569660814.83252
1569660814.84815
1569660814.86377
1569660814.8794
1569660814.89502
1569660814.91065
1569660814.92628
1569660814.9419
1569660814.95753
1569660814.97315
1569660814.98878
1569660815.0044
1569660815.02003
1569660815.03566
1569660815.05128
1569660815.06691
1569660815.08253
1569660815.09816
1569660815.11379
1569660815.12941
1569660815.14504
1569660815.16066
1569660815.17629
1569660815.19191
1569660815.20754
1569660815.22317
1569660815.23879
1569660815.25442
1569660815.27004
1569660815.28567
1569660815.30129
1569660815.31692
1569660815.33255
1569660815.34817
1569660815.3638
1569660815.37942
1569660815.39505
1569660815.41067
1569660815.4263
1569660815.44193
1569660815.45755
1569660815.47318
1569660815.4888
1569660815.50443
1569660815.52005
1569660815.53568
1569660815.55131
1569660815.56693
1569660815.58256
1569660815.59818
1569660815.61381
1569660815.62943
1569660815.64506
1569660815.66069
1569660815.67631
1569660815.69194
1569660815.70756
1569660815.72319
1569660815.73881
1569660815.75444
1569660815.77007
1569660815.78569
1569660815.80132
1569660815.81694
1569660815.83257
1569660815.84819
1569660815.86382
1569660815.87945
1569660815.89507
1569660815.9107
1569660815.92632
1569660815.94195
1569660815.95757
1569660815.9732
1569660815.98883
1569660816.00445
1569660816.02008
1569660816.0357
1569660816.05133
1569660816.06695
1569660816.08258
1569660816.09821
1569660816.11383
1569660816.12946
1569660816.14508
1569660816.16071
1569660816.17633
1569660816.19196
1569660816.20759
1569660816.22321
1569660816.23884
1569660816.25446
1569660816.27009
1569660816.28571
1569660816.30134
1569660816.31697
1569660816.33259
1569660816.34822
1569660816.36384
1569660816.37947
1569660816.39509
1569660816.41072
1569660816.42635
1569660816.44197
1569660816.4576
1569660816.47322
1569660816.48885
1569660816.50447
1569660816.5201
1569660816.53573
1569660816.55135
1569660816.56698
1569660816.5826
1569660816.59823
1569660816.61385
1569660816.62948
1569660816.64511
1569660816.66073
1569660816.67636
1569660816.69198
1569660816.70761
1569660816.72323
1569660816.73886
1569660816.75449
1569660816.77011
1569660816.78574
1569660816.80136
1569660816.81699
1569660816.83261
1569660816.84824
1569660816.86387
1569660816.87949
1569660816.89512
1569660816.91074
1569660816.92637
1569660816.94199
1569660816.95762
1569660816.97325
1569660816.98887
1569660817.0045
1569660817.02012
1569660817.03575
1569660817.05137
1569660817.067
1569660817.08263
1569660817.09825
1569660817.11388
1569660817.1295
1569660817.14513
1569660817.16075
1569660817.17638
1569660817.19201
1569660817.20763
1569660817.22326
1569660817.23888
1569660817.25451
1569660817.27013
1569660817.28576
1569660817.30139
1569660817.31701
1569660817.33264
1569660817.34826
1569660817.36389
1569660817.37951
1569660817.39514
1569660817.41077
1569660817.42639
1569660817.44202
1569660817.45764
1569660817.47327
1569660817.48889
1569660817.50452
1569660817.52015
1569660817.53577
1569660817.5514
1569660817.56702
1569660817.58265
1569660817.59827
1569660817.6139
1569660817.62953
1569660817.64515
1569660817.66078
1569660817.6764
1569660817.69203
1569660817.70765
1569660817.72328
1569660817.73891
1569660817.75453
1569660817.77016
1569660817.78578
1569660817.80141
1569660817.81704
1569660817.83266
1569660817.84829
1569660817.86391
1569660817.87954
1569660817.89516
1569660817.91079
1569660817.92642
1569660817.94204
1569660817.95767
1569660817.97329
1569660817.98892
1569660818.00454
1569660818.02017
1569660818.0358
1569660818.05142
1569660818.06705
1569660818.08267
1569660818.0983
1569660818.11392
1569660818.12955
1569660818.14518
1569660818.1608
1569660818.17643
1569660818.19205
1569660818.20768
1569660818.2233
1569660818.23893
1569660818.25456
1569660818.27018
1569660818.28581
1569660818.30143
1569660818.31706
1569660818.33268
1569660818.34831
1569660818.36394
1569660818.37956
1569660818.39519
1569660818.41081
1569660818.42644
1569660818.44206
1569660818.45769
1569660818.47332
1569660818.48894
1569660818.50457
1569660818.52019
1569660818.53582
1569660818.55144
1569660818.56707
1569660818.5827
1569660818.59832
1569660818.61395
1569660818.62957
1569660818.6452
1569660818.66082
1569660818.67645
1569660818.69208
1569660818.7077
1569660818.72333
1569660818.73895
1569660818.75458
1569660818.7702
1569660818.78583
1569660818.80146
1569660818.81708
1569660818.83271
1569660818.84833
1569660818.86396
1569660818.87958
1569660818.89521
1569660818.91084
1569660818.92646
1569660818.94209
1569660818.95771
1569660818.97334
1569660818.98896
1569660819.00459
1569660819.02022
1569660819.03584
1569660819.05147
1569660819.06709
1569660819.08272
1569660819.09834
1569660819.11397
1569660819.1296
1569660819.14522
1569660819.16085
1569660819.17647
1569660819.1921
1569660819.20772
1569660819.22335
1569660819.23898
1569660819.2546
1569660819.27023
1569660819.28585
1569660819.30148
1569660819.3171
1569660819.33273
1569660819.34836
1569660819.36398
1569660819.37961
1569660819.39523
1569660819.41086
1569660819.42648
1569660819.44211
1569660819.45774
1569660819.47336
1569660819.48899
1569660819.50461
1569660819.52024
1569660819.53586
1569660819.55149
1569660819.56712
1569660819.58274
1569660819.59837
1569660819.61399
1569660819.62962
1569660819.64524
1569660819.66087
1569660819.6765
1569660819.69212
1569660819.70775
1569660819.72337
1569660819.739
1569660819.75462
1569660819.77025
1569660819.78588
1569660819.8015
1569660819.81713
1569660819.83275
1569660819.84838
1569660819.864
1569660819.87963
1569660819.89526
1569660819.91088
1569660819.92651
1569660819.94213
1569660819.95776
1569660819.97339
1569660819.98901
1569660820.00464
1569660820.02026
1569660820.03589
1569660820.05151
1569660820.06714
1569660820.08277
1569660820.09839
1569660820.11402
1569660820.12964
1569660820.14527
1569660820.16089
1569660820.17652
1569660820.19215
1569660820.20777
1569660820.2234
1569660820.23902
1569660820.25465
1569660820.27027
1569660820.2859
1569660820.30153
1569660820.31715
1569660820.33278
1569660820.3484
1569660820.36403
1569660820.37965
1569660820.39528
1569660820.41091
1569660820.42653
1569660820.44216
1569660820.45778
1569660820.47341
1569660820.48903
1569660820.50466
1569660820.52029
1569660820.53591
1569660820.55154
1569660820.56716
1569660820.58279
1569660820.59841
1569660820.61404
1569660820.62967
1569660820.64529
1569660820.66092
1569660820.67654
1569660820.69217
1569660820.70779
1569660820.72342
1569660820.73905
1569660820.75467
1569660820.7703
1569660820.78592
1569660820.80155
1569660820.81717
1569660820.8328
1569660820.84843
1569660820.86405
1569660820.87968
1569660820.8953
1569660820.91093
1569660820.92655
1569660820.94218
1569660820.95781
1569660820.97343
1569660820.98906
1569660821.00468
1569660821.02031
1569660821.03593
1569660821.05156
1569660821.06719
1569660821.08281
1569660821.09844
1569660821.11406
1569660821.12969
1569660821.14531
1569660821.16094
1569660821.17657
1569660821.19219
1569660821.20782
1569660821.22344
1569660821.23907
1569660821.25469
1569660821.27032
1569660821.28595
1569660821.30157
1569660821.3172
1569660821.33282
1569660821.34845
1569660821.36407
1569660821.3797
1569660821.39533
1569660821.41095
1569660821.42658
1569660821.4422
1569660821.45783
1569660821.47345
1569660821.48908
1569660821.50471
1569660821.52033
1569660821.53596
1569660821.55158
1569660821.56721
1569660821.58283
1569660821.59846
1569660821.61409
1569660821.62971
1569660821.64534
1569660821.66096
1569660821.67659
1569660821.69221
1569660821.70784
1569660821.72347
1569660821.73909
1569660821.75472
1569660821.77034
1569660821.78597
1569660821.80159
1569660821.81722
1569660821.83285
1569660821.84847
1569660821.8641
1569660821.87972
1569660821.89535
1569660821.91097
1569660821.9266
1569660821.94223
1569660821.95785
1569660821.97348
1569660821.9891
1569660822.00473
1569660822.02035
1569660822.03598
1569660822.05161
1569660822.06723
1569660822.08286
1569660822.09848
1569660822.11411
1569660822.12973
1569660822.14536
1569660822.16099
1569660822.17661
1569660822.19224
1569660822.20786
1569660822.22349
1569660822.23912
1569660822.25474
1569660822.27037
1569660822.28599
1569660822.30162
1569660822.31724
1569660822.33287
1569660822.3485
1569660822.36412
1569660822.37975
1569660822.39537
1569660822.411
1569660822.42662
1569660822.44225
1569660822.45788
1569660822.4735
1569660822.48913
1569660822.50475
1569660822.52038
1569660822.536
1569660822.55163
1569660822.56726
1569660822.58288
1569660822.59851
1569660822.61413
1569660822.62976
1569660822.64538
1569660822.66101
1569660822.67664
1569660822.69226
1569660822.70789
1569660822.72351
1569660822.73914
1569660822.75476
1569660822.77039
1569660822.78602
1569660822.80164
1569660822.81727
1569660822.83289
1569660822.84852
1569660822.86414
1569660822.87977
1569660822.8954
1569660822.91102
1569660822.92665
1569660822.94227
1569660822.9579
1569660822.97352
1569660822.98915
1569660823.00478
1569660823.0204
1569660823.03603
1569660823.05165
1569660823.06728
1569660823.0829
1569660823.09853
1569660823.11416
1569660823.12978
1569660823.14541
1569660823.16103
1569660823.17666
1569660823.19228
1569660823.20791
1569660823.22354
1569660823.23916
1569660823.25479
1569660823.27041
1569660823.28604
1569660823.30166
1569660823.31729
1569660823.33292
1569660823.34854
1569660823.36417
1569660823.37979
1569660823.39542
1569660823.41104
1569660823.42667
1569660823.4423
1569660823.45792
1569660823.47355
1569660823.48917
1569660823.5048
1569660823.52042
1569660823.53605
1569660823.55168
1569660823.5673
1569660823.58293
1569660823.59855
1569660823.61418
1569660823.6298
1569660823.64543
1569660823.66106
1569660823.67668
1569660823.69231
1569660823.70793
1569660823.72356
1569660823.73918
1569660823.75481
1569660823.77044
1569660823.78606
1569660823.80169
1569660823.81731
1569660823.83294
1569660823.84856
1569660823.86419
1569660823.87982
1569660823.89544
1569660823.91107
1569660823.92669
1569660823.94232
1569660823.95794
1569660823.97357
1569660823.9892
1569660824.00482
1569660824.02045
1569660824.03607
1569660824.0517
1569660824.06732
1569660824.08295
1569660824.09858
1569660824.1142
1569660824.12983
1569660824.14545
1569660824.16108
1569660824.1767
1569660824.19233
1569660824.20796
1569660824.22358
1569660824.23921
1569660824.25483
1569660824.27046
1569660824.28608
1569660824.30171
1569660824.31734
1569660824.33296
1569660824.34859
1569660824.36421
1569660824.37984
1569660824.39546
1569660824.41109
1569660824.42672
1569660824.44234
1569660824.45797
1569660824.47359
1569660824.48922
1569660824.50484
1569660824.52047
1569660824.5361
1569660824.55172
1569660824.56735
1569660824.58297
1569660824.5986
1569660824.61422
1569660824.62985
1569660824.64548
1569660824.6611
1569660824.67673
1569660824.69235
1569660824.70798
1569660824.7236
1569660824.73923
1569660824.75486
1569660824.77048
1569660824.78611
1569660824.80173
1569660824.81736
1569660824.83299
1569660824.84861
1569660824.86424
1569660824.87986
1569660824.89549
1569660824.91111
1569660824.92674
1569660824.94237
1569660824.95799
1569660824.97362
1569660824.98924
1569660825.00487
1569660825.02049
1569660825.03612
1569660825.05175
1569660825.06737
1569660825.083
1569660825.09862
1569660825.11425
1569660825.12987
1569660825.1455
1569660825.16113
1569660825.17675
1569660825.19238
1569660825.208
1569660825.22363
1569660825.23925
1569660825.25488
1569660825.27051
1569660825.28613
1569660825.30176
1569660825.31738
1569660825.33301
1569660825.34863
1569660825.36426
1569660825.37989
1569660825.39551
1569660825.41114
1569660825.42676
1569660825.44239
1569660825.45801
1569660825.47364
1569660825.48927
1569660825.50489
1569660825.52052
1569660825.53614
1569660825.55177
1569660825.56739
1569660825.58302
1569660825.59865
1569660825.61427
1569660825.6299
1569660825.64552
1569660825.66115
1569660825.67677
1569660825.6924
1569660825.70803
1569660825.72365
1569660825.73928
1569660825.7549
1569660825.77053
1569660825.78615
1569660825.80178
1569660825.81741
1569660825.83303
1569660825.84866
1569660825.86428
1569660825.87991
1569660825.89553
1569660825.91116
1569660825.92679
1569660825.94241
1569660825.95804
1569660825.97366
1569660825.98929
1569660826.00491
1569660826.02054
1569660826.03617
1569660826.05179
1569660826.06742
1569660826.08304
1569660826.09867
1569660826.11429
1569660826.12992
1569660826.14555
1569660826.16117
1569660826.1768
1569660826.19242
1569660826.20805
1569660826.22367
1569660826.2393
1569660826.25493
1569660826.27055
1569660826.28618
1569660826.3018
1569660826.31743
1569660826.33305
1569660826.34868
1569660826.36431
1569660826.37993
1569660826.39556
1569660826.41118
1569660826.42681
1569660826.44243
1569660826.45806
1569660826.47369
1569660826.48931
1569660826.50494
1569660826.52056
1569660826.53619
1569660826.55181
1569660826.56744
1569660826.58307
1569660826.59869
1569660826.61432
1569660826.62994
1569660826.64557
1569660826.66119
1569660826.67682
1569660826.69245
1569660826.70807
1569660826.7237
1569660826.73932
1569660826.75495
1569660826.77057
1569660826.7862
1569660826.80183
1569660826.81745
1569660826.83308
1569660826.8487
1569660826.86433
1569660826.87995
1569660826.89558
1569660826.91121
1569660826.92683
1569660826.94246
1569660826.95808
1569660826.97371
1569660826.98933
1569660827.00496
1569660827.02059
1569660827.03621
1569660827.05184
1569660827.06746
1569660827.08309
1569660827.09872
1569660827.11434
1569660827.12997
1569660827.14559
1569660827.16122
1569660827.17684
1569660827.19247
1569660827.2081
1569660827.22372
1569660827.23935
1569660827.25497
1569660827.2706
1569660827.28622
1569660827.30185
1569660827.31748
1569660827.3331
1569660827.34873
1569660827.36435
1569660827.37998
1569660827.3956
1569660827.41123
1569660827.42686
1569660827.44248
1569660827.45811
1569660827.47373
1569660827.48936
1569660827.50498
1569660827.52061
1569660827.53624
1569660827.55186
1569660827.56749
1569660827.58311
1569660827.59874
1569660827.61436
1569660827.62999
1569660827.64562
1569660827.66124
1569660827.67687
1569660827.69249
1569660827.70812
1569660827.72374
1569660827.73937
1569660827.755
1569660827.77062
1569660827.78625
1569660827.80187
1569660827.8175
1569660827.83312
1569660827.84875
1569660827.86438
1569660827.88
1569660827.89563
1569660827.91125
1569660827.92688
1569660827.9425
1569660827.95813
1569660827.97376
1569660827.98938
1569660828.00501
1569660828.02063
1569660828.03626
1569660828.05188
1569660828.06751
1569660828.08314
1569660828.09876
1569660828.11439
1569660828.13001
1569660828.14564
1569660828.16126
1569660828.17689
1569660828.19252
1569660828.20814
1569660828.22377
1569660828.23939
1569660828.25502
1569660828.27064
1569660828.28627
1569660828.3019
1569660828.31752
1569660828.33315
1569660828.34877
1569660828.3644
1569660828.38002
1569660828.39565
1569660828.41128
1569660828.4269
1569660828.44253
1569660828.45815
1569660828.47378
1569660828.4894
1569660828.50503
1569660828.52066
1569660828.53628
1569660828.55191
1569660828.56753
1569660828.58316
1569660828.59878
1569660828.61441
1569660828.63004
1569660828.64566
1569660828.66129
1569660828.67691
1569660828.69254
1569660828.70816
1569660828.72379
1569660828.73942
1569660828.75504
1569660828.77067
1569660828.78629
1569660828.80192
1569660828.81754
1569660828.83317
1569660828.8488
1569660828.86442
1569660828.88005
1569660828.89567
1569660828.9113
1569660828.92692
1569660828.94255
1569660828.95818
1569660828.9738
1569660828.98943
1569660829.00505
1569660829.02068
1569660829.0363
1569660829.05193
1569660829.06756
1569660829.08318
1569660829.09881
1569660829.11443
1569660829.13006
1569660829.14568
1569660829.16131
1569660829.17694
1569660829.19256
1569660829.20819
1569660829.22381
1569660829.23944
1569660829.25506
1569660829.27069
1569660829.28632
1569660829.30194
1569660829.31757
1569660829.33319
1569660829.34882
1569660829.36444
1569660829.38007
1569660829.3957
1569660829.41132
1569660829.42695
1569660829.44257
1569660829.4582
1569660829.47382
1569660829.48945
1569660829.50508
1569660829.5207
1569660829.53633
1569660829.55195
1569660829.56758
1569660829.5832
1569660829.59883
1569660829.61446
1569660829.63008
1569660829.64571
1569660829.66133
1569660829.67696
1569660829.69259
1569660829.70821
1569660829.72384
1569660829.73946
1569660829.75509
1569660829.77071
1569660829.78634
1569660829.80197
1569660829.81759
1569660829.83322
1569660829.84884
1569660829.86447
1569660829.88009
1569660829.89572
1569660829.91135
1569660829.92697
1569660829.9426
1569660829.95822
1569660829.97385
1569660829.98947
1569660830.0051
1569660830.02073
1569660830.03635
1569660830.05198
1569660830.0676
1569660830.08323
1569660830.09885
1569660830.11448
1569660830.13011
1569660830.14573
1569660830.16136
1569660830.17698
1569660830.19261
1569660830.20823
1569660830.22386
1569660830.23949
1569660830.25511
1569660830.27074
1569660830.28636
1569660830.30199
1569660830.31761
1569660830.33324
1569660830.34887
1569660830.36449
1569660830.38012
1569660830.39574
1569660830.41137
1569660830.42699
1569660830.44262
1569660830.45825
1569660830.47387
1569660830.4895
1569660830.50512
1569660830.52075
1569660830.53637
1569660830.552
1569660830.56763
1569660830.58325
1569660830.59888
1569660830.6145
1569660830.63013
1569660830.64575
1569660830.66138
1569660830.67701
1569660830.69263
1569660830.70826
1569660830.72388
1569660830.73951
1569660830.75513
1569660830.77076
1569660830.78639
1569660830.80201
1569660830.81764
1569660830.83326
1569660830.84889
1569660830.86451
1569660830.88014
1569660830.89577
1569660830.91139
1569660830.92702
1569660830.94264
1569660830.95827
1569660830.97389
1569660830.98952
1569660831.00515
1569660831.02077
1569660831.0364
1569660831.05202
1569660831.06765
1569660831.08327
1569660831.0989
1569660831.11453
1569660831.13015
1569660831.14578
1569660831.1614
1569660831.17703
1569660831.19265
1569660831.20828
1569660831.22391
1569660831.23953
1569660831.25516
1569660831.27078
1569660831.28641
1569660831.30203
1569660831.31766
1569660831.33329
1569660831.34891
1569660831.36454
1569660831.38016
1569660831.39579
1569660831.41141
1569660831.42704
1569660831.44267
1569660831.45829
1569660831.47392
1569660831.48954
1569660831.50517
1569660831.52079
1569660831.53642
1569660831.55205
1569660831.56767
1569660831.5833
1569660831.59892
1569660831.61455
1569660831.63017
1569660831.6458
1569660831.66143
1569660831.67705
1569660831.69268
1569660831.7083
1569660831.72393
1569660831.73955
1569660831.75518
1569660831.77081
1569660831.78643
1569660831.80206
1569660831.81768
1569660831.83331
1569660831.84893
1569660831.86456
1569660831.88019
1569660831.89581
1569660831.91144
1569660831.92706
1569660831.94269
1569660831.95832
1569660831.97394
1569660831.98957
1569660832.00519
1569660832.02082
1569660832.03644
1569660832.05207
1569660832.0677
1569660832.08332
1569660832.09895
1569660832.11457
1569660832.1302
1569660832.14582
1569660832.16145
1569660832.17708
1569660832.1927
1569660832.20833
1569660832.22395
1569660832.23958
1569660832.2552
1569660832.27083
1569660832.28646
1569660832.30208
1569660832.31771
1569660832.33333
1569660832.34896
1569660832.36458
1569660832.38021
1569660832.39584
1569660832.41146
1569660832.42709
1569660832.44271
1569660832.45834
1569660832.47396
1569660832.48959
1569660832.50522
1569660832.52084
1569660832.53647
1569660832.55209
1569660832.56772
1569660832.58334
1569660832.59897
1569660832.6146
1569660832.63022
1569660832.64585
1569660832.66147
1569660832.6771
1569660832.69272
1569660832.70835
1569660832.72398
1569660832.7396
1569660832.75523
1569660832.77085
1569660832.78648
1569660832.8021
1569660832.81773
1569660832.83336
1569660832.84898
1569660832.86461
1569660832.88023
1569660832.89586
1569660832.91148
1569660832.92711
1569660832.94274
1569660832.95836
1569660832.97399
1569660832.98961
1569660833.00524
1569660833.02086
1569660833.03649
1569660833.05212
1569660833.06774
1569660833.08337
1569660833.09899
1569660833.11462
1569660833.13024
1569660833.14587
1569660833.1615
1569660833.17712
1569660833.19275
1569660833.20837
1569660833.224
1569660833.23962
1569660833.25525
1569660833.27088
1569660833.2865
1569660833.30213
1569660833.31775
1569660833.33338
1569660833.349
1569660833.36463
1569660833.38026
1569660833.39588
1569660833.41151
1569660833.42713
1569660833.44276
1569660833.45838
1569660833.47401
1569660833.48964
1569660833.50526
1569660833.52089
1569660833.53651
1569660833.55214
1569660833.56776
1569660833.58339
1569660833.59902
1569660833.61464
1569660833.63027
1569660833.64589
1569660833.66152
1569660833.67714
1569660833.69277
1569660833.7084
1569660833.72402
1569660833.73965
1569660833.75527
1569660833.7709
1569660833.78652
1569660833.80215
1569660833.81778
1569660833.8334
1569660833.84903
1569660833.86465
1569660833.88028
1569660833.8959
1569660833.91153
1569660833.92716
1569660833.94278
1569660833.95841
1569660833.97403
1569660833.98966
1569660834.00528
1569660834.02091
1569660834.03654
1569660834.05216
1569660834.06779
1569660834.08341
1569660834.09904
1569660834.11466
1569660834.13029
1569660834.14592
1569660834.16154
1569660834.17717
1569660834.19279
1569660834.20842
1569660834.22405
1569660834.23967
1569660834.2553
1569660834.27092
1569660834.28655
1569660834.30217
1569660834.3178
1569660834.33343
1569660834.34905
1569660834.36468
1569660834.3803
1569660834.39593
1569660834.41155
1569660834.42718
1569660834.44281
1569660834.45843
1569660834.47406
1569660834.48968
1569660834.50531
1569660834.52093
1569660834.53656
1569660834.55219
1569660834.56781
1569660834.58344
1569660834.59906
1569660834.61469
1569660834.63031
1569660834.64594
1569660834.66157
1569660834.67719
1569660834.69282
1569660834.70844
1569660834.72407
1569660834.73969
1569660834.75532
1569660834.77095
1569660834.78657
1569660834.8022
1569660834.81782
1569660834.83345
1569660834.84907
1569660834.8647
1569660834.88033
1569660834.89595
1569660834.91158
1569660834.9272
1569660834.94283
1569660834.95845
1569660834.97408
1569660834.98971
1569660835.00533
1569660835.02096
1569660835.03658
1569660835.05221
1569660835.06783
1569660835.08346
1569660835.09909
1569660835.11471
1569660835.13034
1569660835.14596
1569660835.16159
1569660835.17721
1569660835.19284
1569660835.20847
1569660835.22409
1569660835.23972
1569660835.25534
1569660835.27097
1569660835.28659
1569660835.30222
1569660835.31785
1569660835.33347
1569660835.3491
1569660835.36472
1569660835.38035
1569660835.39597
1569660835.4116
1569660835.42723
1569660835.44285
1569660835.45848
1569660835.4741
1569660835.48973
1569660835.50535
1569660835.52098
1569660835.53661
1569660835.55223
1569660835.56786
1569660835.58348
1569660835.59911
1569660835.61473
1569660835.63036
1569660835.64599
1569660835.66161
1569660835.67724
1569660835.69286
1569660835.70849
1569660835.72411
1569660835.73974
1569660835.75537
1569660835.77099
1569660835.78662
1569660835.80224
1569660835.81787
1569660835.83349
1569660835.84912
1569660835.86475
1569660835.88037
1569660835.896
1569660835.91162
1569660835.92725
1569660835.94287
1569660835.9585
1569660835.97413
1569660835.98975
1569660836.00538
1569660836.021
1569660836.03663
1569660836.05225
1569660836.06788
1569660836.08351
1569660836.09913
1569660836.11476
1569660836.13038
1569660836.14601
1569660836.16163
1569660836.17726
1569660836.19289
1569660836.20851
1569660836.22414
1569660836.23976
1569660836.25539
1569660836.27101
1569660836.28664
1569660836.30227
1569660836.31789
1569660836.33352
1569660836.34914
1569660836.36477
1569660836.38039
1569660836.39602
1569660836.41165
1569660836.42727
1569660836.4429
1569660836.45852
1569660836.47415
1569660836.48977
1569660836.5054
1569660836.52103
1569660836.53665
1569660836.55228
1569660836.5679
1569660836.58353
1569660836.59915
1569660836.61478
1569660836.63041
1569660836.64603
1569660836.66166
1569660836.67728
1569660836.69291
1569660836.70853
1569660836.72416
1569660836.73979
1569660836.75541
1569660836.77104
1569660836.78666
1569660836.80229
1569660836.81792
1569660836.83354
1569660836.84917
1569660836.86479
1569660836.88042
1569660836.89604
1569660836.91167
1569660836.9273
1569660836.94292
1569660836.95855
1569660836.97417
1569660836.9898
1569660837.00542
1569660837.02105
1569660837.03668
1569660837.0523
1569660837.06793
1569660837.08355
1569660837.09918
1569660837.1148
1569660837.13043
1569660837.14606
1569660837.16168
1569660837.17731
1569660837.19293
1569660837.20856
1569660837.22418
1569660837.23981
1569660837.25544
1569660837.27106
1569660837.28669
1569660837.30231
1569660837.31794
1569660837.33356
1569660837.34919
1569660837.36482
1569660837.38044
1569660837.39607
1569660837.41169
1569660837.42732
1569660837.44294
1569660837.45857
1569660837.4742
1569660837.48982
1569660837.50545
1569660837.52107
1569660837.5367
1569660837.55232
1569660837.56795
1569660837.58358
1569660837.5992
1569660837.61483
1569660837.63045
1569660837.64608
1569660837.6617
1569660837.67733
1569660837.69296
1569660837.70858
1569660837.72421
1569660837.73983
1569660837.75546
1569660837.77108
1569660837.78671
1569660837.80234
1569660837.81796
1569660837.83359
1569660837.84921
1569660837.86484
1569660837.88046
1569660837.89609
1569660837.91172
1569660837.92734
1569660837.94297
1569660837.95859
1569660837.97422
1569660837.98984
1569660838.00547
1569660838.0211
1569660838.03672
1569660838.05235
1569660838.06797
1569660838.0836
1569660838.09922
1569660838.11485
1569660838.13048
1569660838.1461
1569660838.16173
1569660838.17735
1569660838.19298
1569660838.2086
1569660838.22423
1569660838.23986
1569660838.25548
1569660838.27111
1569660838.28673
1569660838.30236
1569660838.31798
1569660838.33361
1569660838.34924
1569660838.36486
1569660838.38049
1569660838.39611
1569660838.41174
1569660838.42736
1569660838.44299
1569660838.45862
1569660838.47424
1569660838.48987
1569660838.50549
1569660838.52112
1569660838.53674
1569660838.55237
1569660838.568
1569660838.58362
1569660838.59925
1569660838.61487
1569660838.6305
1569660838.64612
1569660838.66175
1569660838.67738
1569660838.693
1569660838.70863
1569660838.72425
1569660838.73988
1569660838.7555
1569660838.77113
1569660838.78676
1569660838.80238
1569660838.81801
1569660838.83363
1569660838.84926
1569660838.86488
1569660838.88051
1569660838.89614
1569660838.91176
1569660838.92739
1569660838.94301
1569660838.95864
1569660838.97426
1569660838.98989
1569660839.00552
1569660839.02114
1569660839.03677
1569660839.05239
1569660839.06802
1569660839.08365
1569660839.09927
1569660839.1149
1569660839.13052
1569660839.14615
1569660839.16177
1569660839.1774
1569660839.19303
1569660839.20865
1569660839.22428
1569660839.2399
1569660839.25553
1569660839.27115
1569660839.28678
1569660839.30241
1569660839.31803
1569660839.33366
1569660839.34928
1569660839.36491
1569660839.38053
1569660839.39616
1569660839.41179
1569660839.42741
1569660839.44304
1569660839.45866
1569660839.47429
1569660839.48991
1569660839.50554
1569660839.52117
1569660839.53679
1569660839.55242
1569660839.56804
1569660839.58367
1569660839.59929
1569660839.61492
1569660839.63055
1569660839.64617
1569660839.6618
1569660839.67742
1569660839.69305
1569660839.70867
1569660839.7243
1569660839.73993
1569660839.75555
1569660839.77118
1569660839.7868
1569660839.80243
1569660839.81805
1569660839.83368
1569660839.84931
1569660839.86493
1569660839.88056
1569660839.89618
1569660839.91181
1569660839.92743
1569660839.94306
1569660839.95869
1569660839.97431
1569660839.98994
1569660840.00556
1569660840.02119
1569660840.03681
1569660840.05244
1569660840.06807
1569660840.08369
1569660840.09932
1569660840.11494
1569660840.13057
1569660840.14619
1569660840.16182
1569660840.17745
1569660840.19307
1569660840.2087
1569660840.22432
1569660840.23995
1569660840.25557
1569660840.2712
1569660840.28683
1569660840.30245
1569660840.31808
1569660840.3337
1569660840.34933
1569660840.36495
1569660840.38058
1569660840.39621
1569660840.41183
1569660840.42746
1569660840.44308
1569660840.45871
1569660840.47433
1569660840.48996
1569660840.50559
1569660840.52121
1569660840.53684
1569660840.55246
1569660840.56809
1569660840.58371
1569660840.59934
1569660840.61497
1569660840.63059
1569660840.64622
1569660840.66184
1569660840.67747
1569660840.69309
1569660840.70872
1569660840.72435
1569660840.73997
1569660840.7556
1569660840.77122
1569660840.78685
1569660840.80247
1569660840.8181
1569660840.83373
1569660840.84935
1569660840.86498
1569660840.8806
1569660840.89623
1569660840.91185
1569660840.92748
1569660840.94311
1569660840.95873
1569660840.97436
1569660840.98998
1569660841.00561
1569660841.02123
1569660841.03686
1569660841.05249
1569660841.06811
1569660841.08374
1569660841.09936
1569660841.11499
1569660841.13061
1569660841.14624
1569660841.16187
1569660841.17749
1569660841.19312
1569660841.20874
1569660841.22437
1569660841.24
1569660841.25562
1569660841.27125
1569660841.28687
1569660841.3025
1569660841.31812
1569660841.33375
1569660841.34938
1569660841.365
1569660841.38063
1569660841.39625
1569660841.41188
1569660841.4275
1569660841.44313
1569660841.45876
1569660841.47438
1569660841.49001
1569660841.50563
1569660841.52126
1569660841.53688
1569660841.55251
1569660841.56814
1569660841.58376
1569660841.59939
1569660841.61501
1569660841.63064
1569660841.64626
1569660841.66189
1569660841.67752
1569660841.69314
1569660841.70877
1569660841.72439
1569660841.74002
1569660841.75564
1569660841.77127
1569660841.7869
1569660841.80252
1569660841.81815
1569660841.83377
1569660841.8494
1569660841.86502
1569660841.88065
1569660841.89628
1569660841.9119
1569660841.92753
1569660841.94315
1569660841.95878
1569660841.9744
1569660841.99003
1569660842.00566
1569660842.02128
1569660842.03691
1569660842.05253
1569660842.06816
1569660842.08378
1569660842.09941
1569660842.11504
1569660842.13066
1569660842.14629
1569660842.16191
1569660842.17754
1569660842.19316
1569660842.20879
1569660842.22442
1569660842.24004
1569660842.25567
1569660842.27129
1569660842.28692
1569660842.30254
1569660842.31817
1569660842.3338
1569660842.34942
1569660842.36505
1569660842.38067
1569660842.3963
1569660842.41192
1569660842.42755
1569660842.44318
1569660842.4588
1569660842.47443
1569660842.49005
1569660842.50568
1569660842.5213
1569660842.53693
1569660842.55256
1569660842.56818
1569660842.58381
1569660842.59943
1569660842.61506
1569660842.63068
1569660842.64631
1569660842.66194
1569660842.67756
1569660842.69319
1569660842.70881
1569660842.72444
1569660842.74006
1569660842.75569
1569660842.77132
1569660842.78694
1569660842.80257
1569660842.81819
1569660842.83382
1569660842.84944
1569660842.86507
1569660842.8807
1569660842.89632
1569660842.91195
1569660842.92757
1569660842.9432
1569660842.95882
1569660842.97445
1569660842.99008
1569660843.0057
1569660843.02133
1569660843.03695
1569660843.05258
1569660843.0682
1569660843.08383
1569660843.09946
1569660843.11508
1569660843.13071
1569660843.14633
1569660843.16196
1569660843.17758
1569660843.19321
1569660843.20884
1569660843.22446
1569660843.24009
1569660843.25571
1569660843.27134
1569660843.28696
1569660843.30259
1569660843.31822
1569660843.33384
1569660843.34947
1569660843.36509
1569660843.38072
1569660843.39634
1569660843.41197
1569660843.4276
1569660843.44322
1569660843.45885
1569660843.47447
1569660843.4901
1569660843.50572
1569660843.52135
1569660843.53698
1569660843.5526
1569660843.56823
1569660843.58385
1569660843.59948
1569660843.6151
1569660843.63073
1569660843.64636
1569660843.66198
1569660843.67761
1569660843.69323
1569660843.70886
1569660843.72448
1569660843.74011
1569660843.75574
1569660843.77136
1569660843.78699
1569660843.80261
1569660843.81824
1569660843.83386
1569660843.84949
1569660843.86512
1569660843.88074
1569660843.89637
1569660843.91199
1569660843.92762
1569660843.94325
1569660843.95887
1569660843.9745
1569660843.99012
1569660844.00575
1569660844.02137
1569660844.037
1569660844.05263
1569660844.06825
1569660844.08388
1569660844.0995
1569660844.11513
1569660844.13075
1569660844.14638
1569660844.16201
1569660844.17763
1569660844.19326
1569660844.20888
1569660844.22451
1569660844.24013
1569660844.25576
1569660844.27139
1569660844.28701
1569660844.30264
1569660844.31826
1569660844.33389
1569660844.34951
1569660844.36514
1569660844.38077
1569660844.39639
1569660844.41202
1569660844.42764
1569660844.44327
1569660844.45889
1569660844.47452
1569660844.49015
1569660844.50577
1569660844.5214
1569660844.53702
1569660844.55265
1569660844.56827
1569660844.5839
1569660844.59953
1569660844.61515
1569660844.63078
1569660844.6464
1569660844.66203
1569660844.67765
1569660844.69328
1569660844.70891
1569660844.72453
1569660844.74016
1569660844.75578
1569660844.77141
1569660844.78703
1569660844.80266
1569660844.81829
1569660844.83391
1569660844.84954
1569660844.86516
1569660844.88079
1569660844.89641
1569660844.91204
1569660844.92767
1569660844.94329
1569660844.95892
1569660844.97454
1569660844.99017
1569660845.00579
1569660845.02142
1569660845.03705
1569660845.05267
1569660845.0683
1569660845.08392
1569660845.09955
1569660845.11517
1569660845.1308
1569660845.14643
1569660845.16205
1569660845.17768
1569660845.1933
1569660845.20893
1569660845.22455
1569660845.24018
1569660845.25581
1569660845.27143
1569660845.28706
1569660845.30268
1569660845.31831
1569660845.33393
1569660845.34956
1569660845.36519
1569660845.38081
1569660845.39644
1569660845.41206
1569660845.42769
1569660845.44331
1569660845.45894
1569660845.47457
1569660845.49019
1569660845.50582
1569660845.52144
1569660845.53707
1569660845.55269
1569660845.56832
1569660845.58395
1569660845.59957
1569660845.6152
1569660845.63082
1569660845.64645
1569660845.66207
1569660845.6777
1569660845.69333
1569660845.70895
1569660845.72458
1569660845.7402
1569660845.75583
1569660845.77145
1569660845.78708
1569660845.80271
1569660845.81833
1569660845.83396
1569660845.84958
1569660845.86521
1569660845.88083
1569660845.89646
1569660845.91209
1569660845.92771
1569660845.94334
1569660845.95896
1569660845.97459
1569660845.99021
1569660846.00584
1569660846.02147
1569660846.03709
1569660846.05272
1569660846.06834
1569660846.08397
1569660846.0996
1569660846.11522
1569660846.13085
1569660846.14647
1569660846.1621
1569660846.17772
1569660846.19335
1569660846.20898
1569660846.2246
1569660846.24023
1569660846.25585
1569660846.27148
1569660846.2871
1569660846.30273
1569660846.31836
1569660846.33398
1569660846.34961
1569660846.36523
1569660846.38086
1569660846.39648
1569660846.41211
1569660846.42774
1569660846.44336
1569660846.45899
1569660846.47461
1569660846.49024
1569660846.50586
1569660846.52149
1569660846.53712
1569660846.55274
1569660846.56837
1569660846.58399
1569660846.59962
1569660846.61524
1569660846.63087
1569660846.6465
1569660846.66212
1569660846.67775
1569660846.69337
1569660846.709
1569660846.72462
1569660846.74025
1569660846.75588
1569660846.7715
1569660846.78713
1569660846.80275
1569660846.81838
1569660846.834
1569660846.84963
1569660846.86526
1569660846.88088
1569660846.89651
1569660846.91213
1569660846.92776
1569660846.94338
1569660846.95901
1569660846.97464
1569660846.99026
1569660847.00589
1569660847.02151
1569660847.03714
1569660847.05276
1569660847.06839
1569660847.08402
1569660847.09964
1569660847.11527
1569660847.13089
1569660847.14652
1569660847.16214
1569660847.17777
1569660847.1934
1569660847.20902
1569660847.22465
1569660847.24027
1569660847.2559
1569660847.27152
1569660847.28715
1569660847.30278
1569660847.3184
1569660847.33403
1569660847.34965
1569660847.36528
1569660847.3809
1569660847.39653
1569660847.41216
1569660847.42778
1569660847.44341
1569660847.45903
1569660847.47466
1569660847.49028
1569660847.50591
1569660847.52154
1569660847.53716
1569660847.55279
1569660847.56841
1569660847.58404
1569660847.59966
1569660847.61529
1569660847.63092
1569660847.64654
1569660847.66217
1569660847.67779
1569660847.69342
1569660847.70904
1569660847.72467
1569660847.7403
1569660847.75592
1569660847.77155
1569660847.78717
1569660847.8028
1569660847.81842
1569660847.83405
1569660847.84968
1569660847.8653
1569660847.88093
1569660847.89655
1569660847.91218
1569660847.9278
1569660847.94343
1569660847.95906
1569660847.97468
1569660847.99031
1569660848.00593
1569660848.02156
1569660848.03718
1569660848.05281
1569660848.06844
1569660848.08406
1569660848.09969
1569660848.11531
1569660848.13094
1569660848.14656
1569660848.16219
1569660848.17782
1569660848.19344
1569660848.20907
1569660848.22469
1569660848.24032
1569660848.25594
1569660848.27157
1569660848.2872
1569660848.30282
1569660848.31845
1569660848.33407
1569660848.3497
1569660848.36532
1569660848.38095
1569660848.39658
1569660848.4122
1569660848.42783
1569660848.44345
1569660848.45908
1569660848.4747
1569660848.49033
1569660848.50596
1569660848.52158
1569660848.53721
1569660848.55283
1569660848.56846
1569660848.58408
1569660848.59971
1569660848.61534
1569660848.63096
1569660848.64659
1569660848.66221
1569660848.67784
1569660848.69346
1569660848.70909
1569660848.72472
1569660848.74034
1569660848.75597
1569660848.77159
1569660848.78722
1569660848.80285
1569660848.81847
1569660848.8341
1569660848.84972
1569660848.86535
1569660848.88097
1569660848.8966
1569660848.91223
1569660848.92785
1569660848.94348
1569660848.9591
1569660848.97473
1569660848.99035
1569660849.00598
1569660849.02161
1569660849.03723
1569660849.05286
1569660849.06848
1569660849.08411
1569660849.09973
1569660849.11536
1569660849.13099
1569660849.14661
1569660849.16224
1569660849.17786
1569660849.19349
1569660849.20911
1569660849.22474
1569660849.24037
1569660849.25599
1569660849.27162
1569660849.28724
1569660849.30287
1569660849.31849
1569660849.33412
1569660849.34975
1569660849.36537
1569660849.381
1569660849.39662
1569660849.41225
1569660849.42787
1569660849.4435
1569660849.45913
1569660849.47475
1569660849.49038
1569660849.506
1569660849.52163
1569660849.53725
1569660849.55288
1569660849.56851
1569660849.58413
1569660849.59976
1569660849.61538
1569660849.63101
1569660849.64663
1569660849.66226
1569660849.67789
1569660849.69351
1569660849.70914
1569660849.72476
1569660849.74039
1569660849.75601
1569660849.77164
1569660849.78727
1569660849.80289
1569660849.81852
1569660849.83414
1569660849.84977
1569660849.86539
1569660849.88102
1569660849.89665
1569660849.91227
1569660849.9279
1569660849.94352
1569660849.95915
1569660849.97477
1569660849.9904
1569660850.00603
1569660850.02165
1569660850.03728
1569660850.0529
1569660850.06853
1569660850.08415
1569660850.09978
1569660850.11541
1569660850.13103
1569660850.14666
1569660850.16228
1569660850.17791
1569660850.19353
1569660850.20916
1569660850.22479
1569660850.24041
1569660850.25604
1569660850.27166
1569660850.28729
1569660850.30291
1569660850.31854
1569660850.33417
1569660850.34979
1569660850.36542
1569660850.38104
1569660850.39667
1569660850.41229
1569660850.42792
1569660850.44355
1569660850.45917
1569660850.4748
1569660850.49042
1569660850.50605
1569660850.52167
1569660850.5373
1569660850.55293
1569660850.56855
1569660850.58418
1569660850.5998
1569660850.61543
1569660850.63105
1569660850.64668
1569660850.66231
1569660850.67793
1569660850.69356
1569660850.70918
1569660850.72481
1569660850.74043
1569660850.75606
1569660850.77169
1569660850.78731
1569660850.80294
1569660850.81856
1569660850.83419
1569660850.84981
1569660850.86544
1569660850.88107
1569660850.89669
1569660850.91232
1569660850.92794
1569660850.94357
1569660850.9592
1569660850.97482
1569660850.99045
1569660851.00607
1569660851.0217
1569660851.03732
1569660851.05295
1569660851.06858
1569660851.0842
1569660851.09983
1569660851.11545
1569660851.13108
1569660851.1467
1569660851.16233
1569660851.17796
1569660851.19358
1569660851.20921
1569660851.22483
1569660851.24046
1569660851.25608
1569660851.27171
1569660851.28734
1569660851.30296
1569660851.31859
1569660851.33421
1569660851.34984
1569660851.36546
1569660851.38109
1569660851.39672
1569660851.41234
1569660851.42797
1569660851.44359
1569660851.45922
1569660851.47484
1569660851.49047
1569660851.5061
1569660851.52172
1569660851.53735
1569660851.55297
1569660851.5686
1569660851.58422
1569660851.59985
1569660851.61548
1569660851.6311
1569660851.64673
1569660851.66235
1569660851.67798
1569660851.6936
1569660851.70923
1569660851.72486
1569660851.74048
1569660851.75611
1569660851.77173
1569660851.78736
1569660851.80298
1569660851.81861
1569660851.83424
1569660851.84986
1569660851.86549
1569660851.88111
1569660851.89674
1569660851.91236
1569660851.92799
1569660851.94362
1569660851.95924
1569660851.97487
1569660851.99049
1569660852.00612
1569660852.02174
1569660852.03737
1569660852.053
1569660852.06862
1569660852.08425
1569660852.09987
1569660852.1155
1569660852.13112
1569660852.14675
1569660852.16238
1569660852.178
1569660852.19363
1569660852.20925
1569660852.22488
1569660852.2405
1569660852.25613
1569660852.27176
1569660852.28738
1569660852.30301
1569660852.31863
1569660852.33426
1569660852.34988
1569660852.36551
1569660852.38114
1569660852.39676
1569660852.41239
1569660852.42801
1569660852.44364
1569660852.45926
1569660852.47489
1569660852.49052
1569660852.50614
1569660852.52177
1569660852.53739
1569660852.55302
1569660852.56864
1569660852.58427
1569660852.5999
1569660852.61552
1569660852.63115
1569660852.64677
1569660852.6624
1569660852.67802
1569660852.69365
1569660852.70928
1569660852.7249
1569660852.74053
1569660852.75615
1569660852.77178
1569660852.7874
1569660852.80303
1569660852.81866
1569660852.83428
1569660852.84991
1569660852.86553
1569660852.88116
1569660852.89678
1569660852.91241
1569660852.92804
1569660852.94366
1569660852.95929
1569660852.97491
1569660852.99054
1569660853.00616
1569660853.02179
1569660853.03742
1569660853.05304
1569660853.06867
1569660853.08429
1569660853.09992
1569660853.11554
1569660853.13117
1569660853.1468
1569660853.16242
1569660853.17805
1569660853.19367
1569660853.2093
1569660853.22493
1569660853.24055
1569660853.25618
1569660853.2718
1569660853.28743
1569660853.30305
1569660853.31868
1569660853.33431
1569660853.34993
1569660853.36556
1569660853.38118
1569660853.39681
1569660853.41243
1569660853.42806
1569660853.44369
1569660853.45931
1569660853.47494
1569660853.49056
1569660853.50619
1569660853.52181
1569660853.53744
1569660853.55307
1569660853.56869
1569660853.58432
1569660853.59994
1569660853.61557
1569660853.63119
1569660853.64682
1569660853.66245
1569660853.67807
1569660853.6937
1569660853.70932
1569660853.72495
1569660853.74057
1569660853.7562
1569660853.77183
1569660853.78745
1569660853.80308
1569660853.8187
1569660853.83433
1569660853.84995
1569660853.86558
1569660853.88121
1569660853.89683
1569660853.91246
1569660853.92808
1569660853.94371
1569660853.95933
1569660853.97496
1569660853.99059
1569660854.00621
1569660854.02184
1569660854.03746
1569660854.05309
1569660854.06871
1569660854.08434
1569660854.09997
1569660854.11559
1569660854.13122
1569660854.14684
1569660854.16247
1569660854.17809
1569660854.19372
1569660854.20935
1569660854.22497
1569660854.2406
1569660854.25622
1569660854.27185
1569660854.28747
1569660854.3031
1569660854.31873
1569660854.33435
1569660854.34998
1569660854.3656
1569660854.38123
1569660854.39685
1569660854.41248
1569660854.42811
1569660854.44373
1569660854.45936
1569660854.47498
1569660854.49061
1569660854.50623
1569660854.52186
1569660854.53749
1569660854.55311
1569660854.56874
1569660854.58436
1569660854.59999
1569660854.61561
1569660854.63124
1569660854.64687
1569660854.66249
1569660854.67812
1569660854.69374
1569660854.70937
1569660854.72499
1569660854.74062
1569660854.75625
1569660854.77187
1569660854.7875
1569660854.80312
1569660854.81875
1569660854.83437
1569660854.85
1569660854.86563
1569660854.88125
1569660854.89688
1569660854.9125
1569660854.92813
1569660854.94375
1569660854.95938
1569660854.97501
1569660854.99063
1569660855.00626
1569660855.02188
1569660855.03751
1569660855.05313
1569660855.06876
1569660855.08439
1569660855.10001
1569660855.11564
1569660855.13126
1569660855.14689
1569660855.16251
1569660855.17814
1569660855.19377
1569660855.20939
1569660855.22502
1569660855.24064
1569660855.25627
1569660855.27189
1569660855.28752
1569660855.30315
1569660855.31877
1569660855.3344
1569660855.35002
1569660855.36565
1569660855.38127
1569660855.3969
1569660855.41253
1569660855.42815
1569660855.44378
1569660855.4594
1569660855.47503
1569660855.49065
1569660855.50628
1569660855.52191
1569660855.53753
1569660855.55316
1569660855.56878
1569660855.58441
1569660855.60003
1569660855.61566
1569660855.63129
1569660855.64691
1569660855.66254
1569660855.67816
1569660855.69379
1569660855.70941
1569660855.72504
1569660855.74067
1569660855.75629
1569660855.77192
1569660855.78754
1569660855.80317
1569660855.8188
1569660855.83442
1569660855.85005
1569660855.86567
1569660855.8813
1569660855.89692
1569660855.91255
1569660855.92818
1569660855.9438
1569660855.95943
1569660855.97505
1569660855.99068
1569660856.0063
1569660856.02193
1569660856.03756
1569660856.05318
1569660856.06881
1569660856.08443
1569660856.10006
1569660856.11568
1569660856.13131
1569660856.14694
1569660856.16256
1569660856.17819
1569660856.19381
1569660856.20944
1569660856.22506
1569660856.24069
1569660856.25632
1569660856.27194
1569660856.28757
1569660856.30319
1569660856.31882
1569660856.33444
1569660856.35007
1569660856.3657
1569660856.38132
1569660856.39695
1569660856.41257
1569660856.4282
1569660856.44382
1569660856.45945
1569660856.47508
1569660856.4907
1569660856.50633
1569660856.52195
1569660856.53758
1569660856.5532
1569660856.56883
1569660856.58446
1569660856.60008
1569660856.61571
1569660856.63133
1569660856.64696
1569660856.66258
1569660856.67821
1569660856.69384
1569660856.70946
1569660856.72509
1569660856.74071
1569660856.75634
1569660856.77196
1569660856.78759
1569660856.80322
1569660856.81884
1569660856.83447
1569660856.85009
1569660856.86572
1569660856.88134
1569660856.89697
1569660856.9126
1569660856.92822
1569660856.94385
1569660856.95947
1569660856.9751
1569660856.99072
1569660857.00635
1569660857.02198
1569660857.0376
1569660857.05323
1569660857.06885
1569660857.08448
1569660857.1001
1569660857.11573
1569660857.13136
1569660857.14698
1569660857.16261
1569660857.17823
1569660857.19386
1569660857.20948
1569660857.22511
1569660857.24074
1569660857.25636
1569660857.27199
1569660857.28761
1569660857.30324
1569660857.31886
1569660857.33449
1569660857.35012
1569660857.36574
1569660857.38137
1569660857.39699
1569660857.41262
1569660857.42824
1569660857.44387
1569660857.4595
1569660857.47512
1569660857.49075
1569660857.50637
1569660857.522
1569660857.53762
1569660857.55325
1569660857.56888
1569660857.5845
1569660857.60013
1569660857.61575
1569660857.63138
1569660857.647
1569660857.66263
1569660857.67826
1569660857.69388
1569660857.70951
1569660857.72513
1569660857.74076
1569660857.75638
1569660857.77201
1569660857.78764
1569660857.80326
1569660857.81889
1569660857.83451
1569660857.85014
1569660857.86576
1569660857.88139
1569660857.89702
1569660857.91264
1569660857.92827
1569660857.94389
1569660857.95952
1569660857.97514
1569660857.99077
1569660858.0064
1569660858.02202
1569660858.03765
1569660858.05327
1569660858.0689
1569660858.08453
1569660858.10015
1569660858.11578
1569660858.1314
1569660858.14703
1569660858.16265
1569660858.17828
1569660858.19391
1569660858.20953
1569660858.22516
1569660858.24078
1569660858.25641
1569660858.27203
1569660858.28766
1569660858.30329
1569660858.31891
1569660858.33454
1569660858.35016
1569660858.36579
1569660858.38141
1569660858.39704
1569660858.41267
1569660858.42829
1569660858.44392
1569660858.45954
1569660858.47517
1569660858.49079
1569660858.50642
1569660858.52205
1569660858.53767
1569660858.5533
1569660858.56892
1569660858.58455
1569660858.60017
1569660858.6158
1569660858.63143
1569660858.64705
1569660858.66268
1569660858.6783
1569660858.69393
1569660858.70955
1569660858.72518
1569660858.74081
1569660858.75643
1569660858.77206
1569660858.78768
1569660858.80331
1569660858.81893
1569660858.83456
1569660858.85019
1569660858.86581
1569660858.88144
1569660858.89706
1569660858.91269
1569660858.92831
1569660858.94394
1569660858.95957
1569660858.97519
1569660858.99082
1569660859.00644
1569660859.02207
1569660859.03769
1569660859.05332
1569660859.06895
1569660859.08457
1569660859.1002
1569660859.11582
1569660859.13145
1569660859.14707
1569660859.1627
1569660859.17833
1569660859.19395
1569660859.20958
1569660859.2252
1569660859.24083
1569660859.25645
1569660859.27208
1569660859.28771
1569660859.30333
1569660859.31896
1569660859.33458
1569660859.35021
1569660859.36583
1569660859.38146
1569660859.39709
1569660859.41271
1569660859.42834
1569660859.44396
1569660859.45959
1569660859.47521
1569660859.49084
1569660859.50647
1569660859.52209
1569660859.53772
1569660859.55334
1569660859.56897
1569660859.58459
1569660859.60022
1569660859.61585
1569660859.63147
1569660859.6471
1569660859.66272
1569660859.67835
1569660859.69397
1569660859.7096
1569660859.72523
1569660859.74085
1569660859.75648
1569660859.7721
1569660859.78773
1569660859.80335
1569660859.81898
1569660859.83461
1569660859.85023
1569660859.86586
1569660859.88148
1569660859.89711
1569660859.91273
1569660859.92836
1569660859.94399
1569660859.95961
1569660859.97524
1569660859.99086
1569660860.00649
1569660860.02211
1569660860.03774
1569660860.05337
1569660860.06899
1569660860.08462
1569660860.10024
1569660860.11587
1569660860.13149
1569660860.14712
1569660860.16275
1569660860.17837
1569660860.194
1569660860.20962
1569660860.22525
1569660860.24088
1569660860.2565
1569660860.27213
1569660860.28775
1569660860.30338
1569660860.319
1569660860.33463
1569660860.35026
1569660860.36588
1569660860.38151
1569660860.39713
1569660860.41276
1569660860.42838
1569660860.44401
1569660860.45964
1569660860.47526
1569660860.49089
1569660860.50651
1569660860.52214
1569660860.53776
1569660860.55339
1569660860.56902
1569660860.58464
1569660860.60027
1569660860.61589
1569660860.63152
1569660860.64714
1569660860.66277
1569660860.6784
1569660860.69402
1569660860.70965
1569660860.72527
1569660860.7409
1569660860.75652
1569660860.77215
1569660860.78778
1569660860.8034
1569660860.81903
1569660860.83465
1569660860.85028
1569660860.8659
1569660860.88153
1569660860.89716
1569660860.91278
1569660860.92841
1569660860.94403
1569660860.95966
1569660860.97528
1569660860.99091
1569660861.00654
1569660861.02216
1569660861.03779
1569660861.05341
1569660861.06904
1569660861.08466
1569660861.10029
1569660861.11592
1569660861.13154
1569660861.14717
1569660861.16279
1569660861.17842
1569660861.19404
1569660861.20967
1569660861.2253
1569660861.24092
1569660861.25655
1569660861.27217
1569660861.2878
1569660861.30342
1569660861.31905
1569660861.33468
1569660861.3503
1569660861.36593
1569660861.38155
1569660861.39718
1569660861.4128
1569660861.42843
1569660861.44406
1569660861.45968
1569660861.47531
1569660861.49093
1569660861.50656
1569660861.52218
1569660861.53781
1569660861.55344
1569660861.56906
1569660861.58469
1569660861.60031
1569660861.61594
1569660861.63156
1569660861.64719
1569660861.66282
1569660861.67844
1569660861.69407
1569660861.70969
1569660861.72532
1569660861.74094
1569660861.75657
1569660861.7722
1569660861.78782
1569660861.80345
1569660861.81907
1569660861.8347
1569660861.85032
1569660861.86595
1569660861.88158
1569660861.8972
1569660861.91283
1569660861.92845
1569660861.94408
1569660861.9597
1569660861.97533
1569660861.99096
1569660862.00658
1569660862.02221
1569660862.03783
1569660862.05346
1569660862.06908
1569660862.08471
1569660862.10034
1569660862.11596
1569660862.13159
1569660862.14721
1569660862.16284
1569660862.17846
1569660862.19409
1569660862.20972
1569660862.22534
1569660862.24097
1569660862.25659
1569660862.27222
1569660862.28784
1569660862.30347
1569660862.3191
1569660862.33472
1569660862.35035
1569660862.36597
1569660862.3816
1569660862.39722
1569660862.41285
1569660862.42848
1569660862.4441
1569660862.45973
1569660862.47535
1569660862.49098
1569660862.5066
1569660862.52223
1569660862.53786
1569660862.55348
1569660862.56911
1569660862.58473
1569660862.60036
1569660862.61598
1569660862.63161
1569660862.64724
1569660862.66286
1569660862.67849
1569660862.69411
1569660862.70974
1569660862.72536
1569660862.74099
1569660862.75662
1569660862.77224
1569660862.78787
1569660862.80349
1569660862.81912
1569660862.83474
1569660862.85037
1569660862.866
1569660862.88162
1569660862.89725
1569660862.91287
1569660862.9285
1569660862.94413
1569660862.95975
1569660862.97538
1569660862.991
1569660863.00663
1569660863.02225
1569660863.03788
1569660863.05351
1569660863.06913
1569660863.08476
1569660863.10038
1569660863.11601
1569660863.13163
1569660863.14726
1569660863.16289
1569660863.17851
1569660863.19414
1569660863.20976
1569660863.22539
1569660863.24101
1569660863.25664
1569660863.27227
1569660863.28789
1569660863.30352
1569660863.31914
1569660863.33477
1569660863.35039
1569660863.36602
1569660863.38165
1569660863.39727
1569660863.4129
1569660863.42852
1569660863.44415
1569660863.45977
1569660863.4754
1569660863.49103
1569660863.50665
1569660863.52228
1569660863.5379
1569660863.55353
1569660863.56915
1569660863.58478
1569660863.60041
1569660863.61603
1569660863.63166
1569660863.64728
1569660863.66291
1569660863.67853
1569660863.69416
1569660863.70979
1569660863.72541
1569660863.74104
1569660863.75666
1569660863.77229
1569660863.78791
1569660863.80354
1569660863.81917
1569660863.83479
1569660863.85042
1569660863.86604
1569660863.88167
1569660863.89729
1569660863.91292
1569660863.92855
1569660863.94417
1569660863.9598
1569660863.97542
1569660863.99105
1569660864.00667
1569660864.0223
1569660864.03793
1569660864.05355
1569660864.06918
1569660864.0848
1569660864.10043
1569660864.11605
1569660864.13168
1569660864.14731
1569660864.16293
1569660864.17856
1569660864.19418
1569660864.20981
1569660864.22543
1569660864.24106
1569660864.25669
1569660864.27231
1569660864.28794
1569660864.30356
1569660864.31919
1569660864.33481
1569660864.35044
1569660864.36607
1569660864.38169
1569660864.39732
1569660864.41294
1569660864.42857
1569660864.44419
1569660864.45982
1569660864.47545
1569660864.49107
1569660864.5067
1569660864.52232
1569660864.53795
1569660864.55357
1569660864.5692
1569660864.58483
1569660864.60045
1569660864.61608
1569660864.6317
1569660864.64733
1569660864.66295
1569660864.67858
1569660864.69421
1569660864.70983
1569660864.72546
1569660864.74108
1569660864.75671
1569660864.77233
1569660864.78796
1569660864.80359
1569660864.81921
1569660864.83484
1569660864.85046
1569660864.86609
1569660864.88171
1569660864.89734
1569660864.91297
1569660864.92859
1569660864.94422
1569660864.95984
1569660864.97547
1569660864.99109
1569660865.00672
1569660865.02235
1569660865.03797
1569660865.0536
1569660865.06922
1569660865.08485
1569660865.10047
1569660865.1161
1569660865.13173
1569660865.14735
1569660865.16298
1569660865.1786
1569660865.19423
1569660865.20986
1569660865.22548
1569660865.24111
1569660865.25673
1569660865.27236
1569660865.28798
1569660865.30361
1569660865.31924
1569660865.33486
1569660865.35049
1569660865.36611
1569660865.38174
1569660865.39736
1569660865.41299
1569660865.42862
1569660865.44424
1569660865.45987
1569660865.47549
1569660865.49112
1569660865.50674
1569660865.52237
1569660865.538
1569660865.55362
1569660865.56925
1569660865.58487
1569660865.6005
1569660865.61612
1569660865.63175
1569660865.64738
1569660865.663
1569660865.67863
1569660865.69425
1569660865.70988
1569660865.7255
1569660865.74113
1569660865.75676
1569660865.77238
1569660865.78801
1569660865.80363
1569660865.81926
1569660865.83488
1569660865.85051
1569660865.86614
1569660865.88176
1569660865.89739
1569660865.91301
1569660865.92864
1569660865.94426
1569660865.95989
1569660865.97552
1569660865.99114
1569660866.00677
1569660866.02239
1569660866.03802
1569660866.05364
1569660866.06927
1569660866.0849
1569660866.10052
1569660866.11615
1569660866.13177
1569660866.1474
1569660866.16302
1569660866.17865
1569660866.19428
1569660866.2099
1569660866.22553
1569660866.24115
1569660866.25678
1569660866.2724
1569660866.28803
1569660866.30366
1569660866.31928
1569660866.33491
1569660866.35053
1569660866.36616
1569660866.38178
1569660866.39741
1569660866.41304
1569660866.42866
1569660866.44429
1569660866.45991
1569660866.47554
1569660866.49116
1569660866.50679
1569660866.52242
1569660866.53804
1569660866.55367
1569660866.56929
1569660866.58492
1569660866.60054
1569660866.61617
1569660866.6318
1569660866.64742
1569660866.66305
1569660866.67867
1569660866.6943
1569660866.70992
1569660866.72555
1569660866.74118
1569660866.7568
1569660866.77243
1569660866.78805
1569660866.80368
1569660866.8193
1569660866.83493
1569660866.85056
1569660866.86618
1569660866.88181
1569660866.89743
1569660866.91306
1569660866.92868
1569660866.94431
1569660866.95994
1569660866.97556
1569660866.99119
1569660867.00681
1569660867.02244
1569660867.03806
1569660867.05369
1569660867.06932
1569660867.08494
1569660867.10057
1569660867.11619
1569660867.13182
1569660867.14744
1569660867.16307
1569660867.1787
1569660867.19432
1569660867.20995
1569660867.22557
1569660867.2412
1569660867.25682
1569660867.27245
1569660867.28808
1569660867.3037
1569660867.31933
1569660867.33495
1569660867.35058
1569660867.3662
1569660867.38183
1569660867.39746
1569660867.41308
1569660867.42871
1569660867.44433
1569660867.45996
1569660867.47558
1569660867.49121
1569660867.50684
1569660867.52246
1569660867.53809
1569660867.55371
1569660867.56934
1569660867.58496
1569660867.60059
1569660867.61622
1569660867.63184
1569660867.64747
1569660867.66309
1569660867.67872
1569660867.69435
1569660867.70997
1569660867.7256
1569660867.74122
1569660867.75685
1569660867.77247
1569660867.7881
1569660867.80373
1569660867.81935
1569660867.83498
1569660867.8506
1569660867.86623
1569660867.88185
1569660867.89748
1569660867.91311
1569660867.92873
1569660867.94436
1569660867.95998
1569660867.97561
1569660867.99123
1569660868.00686
1569660868.02249
1569660868.03811
1569660868.05374
1569660868.06936
1569660868.08499
1569660868.10061
1569660868.11624
1569660868.13187
1569660868.14749
1569660868.16312
1569660868.17874
1569660868.19437
1569660868.20999
1569660868.22562
1569660868.24125
1569660868.25687
1569660868.2725
1569660868.28812
1569660868.30375
1569660868.31937
1569660868.335
1569660868.35063
1569660868.36625
1569660868.38188
1569660868.3975
1569660868.41313
1569660868.42875
1569660868.44438
1569660868.46001
1569660868.47563
1569660868.49126
1569660868.50688
1569660868.52251
1569660868.53813
1569660868.55376
1569660868.56939
1569660868.58501
1569660868.60064
1569660868.61626
1569660868.63189
1569660868.64751
1569660868.66314
1569660868.67877
1569660868.69439
1569660868.71002
1569660868.72564
1569660868.74127
1569660868.75689
1569660868.77252
1569660868.78815
1569660868.80377
1569660868.8194
1569660868.83502
1569660868.85065
1569660868.86627
1569660868.8819
1569660868.89753
1569660868.91315
1569660868.92878
1569660868.9444
1569660868.96003
1569660868.97565
1569660868.99128
1569660869.00691
1569660869.02253
1569660869.03816
1569660869.05378
1569660869.06941
1569660869.08503
1569660869.10066
1569660869.11629
1569660869.13191
1569660869.14754
1569660869.16316
1569660869.17879
1569660869.19441
1569660869.21004
1569660869.22567
1569660869.24129
1569660869.25692
1569660869.27254
1569660869.28817
1569660869.30379
1569660869.31942
1569660869.33505
1569660869.35067
1569660869.3663
1569660869.38192
1569660869.39755
1569660869.41317
1569660869.4288
1569660869.44443
1569660869.46005
1569660869.47568
1569660869.4913
1569660869.50693
1569660869.52255
1569660869.53818
1569660869.55381
1569660869.56943
1569660869.58506
1569660869.60068
1569660869.61631
1569660869.63193
1569660869.64756
1569660869.66319
1569660869.67881
1569660869.69444
1569660869.71006
1569660869.72569
1569660869.74131
1569660869.75694
1569660869.77257
1569660869.78819
1569660869.80382
1569660869.81944
1569660869.83507
1569660869.85069
1569660869.86632
1569660869.88195
1569660869.89757
1569660869.9132
1569660869.92882
1569660869.94445
1569660869.96007
1569660869.9757
1569660869.99133
1569660870.00695
1569660870.02258
1569660870.0382
1569660870.05383
1569660870.06946
1569660870.08508
1569660870.10071
1569660870.11633
1569660870.13196
1569660870.14758
1569660870.16321
1569660870.17884
1569660870.19446
1569660870.21009
1569660870.22571
1569660870.24134
1569660870.25696
1569660870.27259
1569660870.28822
1569660870.30384
1569660870.31947
1569660870.33509
1569660870.35072
1569660870.36634
1569660870.38197
1569660870.3976
1569660870.41322
1569660870.42885
1569660870.44447
1569660870.4601
1569660870.47572
1569660870.49135
1569660870.50698
1569660870.5226
1569660870.53823
1569660870.55385
1569660870.56948
1569660870.5851
1569660870.60073
1569660870.61636
1569660870.63198
1569660870.64761
1569660870.66323
1569660870.67886
1569660870.69448
1569660870.71011
1569660870.72574
1569660870.74136
1569660870.75699
1569660870.77261
1569660870.78824
1569660870.80386
1569660870.81949
1569660870.83512
1569660870.85074
1569660870.86637
1569660870.88199
1569660870.89762
1569660870.91324
1569660870.92887
1569660870.9445
1569660870.96012
1569660870.97575
1569660870.99137
1569660871.007
1569660871.02262
1569660871.03825
1569660871.05388
1569660871.0695
1569660871.08513
1569660871.10075
1569660871.11638
1569660871.132
1569660871.14763
1569660871.16326
1569660871.17888
1569660871.19451
1569660871.21013
1569660871.22576
1569660871.24138
1569660871.25701
1569660871.27264
1569660871.28826
1569660871.30389
1569660871.31951
1569660871.33514
1569660871.35076
1569660871.36639
1569660871.38202
1569660871.39764
1569660871.41327
1569660871.42889
1569660871.44452
1569660871.46014
1569660871.47577
1569660871.4914
1569660871.50702
1569660871.52265
1569660871.53827
1569660871.5539
1569660871.56952
1569660871.58515
1569660871.60078
1569660871.6164
1569660871.63203
1569660871.64765
1569660871.66328
1569660871.6789
1569660871.69453
1569660871.71016
1569660871.72578
1569660871.74141
1569660871.75703
1569660871.77266
1569660871.78828
1569660871.80391
1569660871.81954
1569660871.83516
1569660871.85079
1569660871.86641
1569660871.88204
1569660871.89766
1569660871.91329
1569660871.92892
1569660871.94454
1569660871.96017
1569660871.97579
1569660871.99142
1569660872.00704
1569660872.02267
1569660872.0383
1569660872.05392
1569660872.06955
1569660872.08517
1569660872.1008
1569660872.11642
1569660872.13205
1569660872.14768
1569660872.1633
1569660872.17893
1569660872.19455
1569660872.21018
1569660872.22581
1569660872.24143
1569660872.25706
1569660872.27268
1569660872.28831
1569660872.30393
1569660872.31956
1569660872.33519
1569660872.35081
1569660872.36644
1569660872.38206
1569660872.39769
1569660872.41331
1569660872.42894
1569660872.44457
1569660872.46019
1569660872.47582
1569660872.49144
1569660872.50707
1569660872.52269
1569660872.53832
1569660872.55395
1569660872.56957
1569660872.5852
1569660872.60082
1569660872.61645
1569660872.63207
1569660872.6477
1569660872.66333
1569660872.67895
1569660872.69458
1569660872.7102
1569660872.72583
1569660872.74145
1569660872.75708
1569660872.77271
1569660872.78833
1569660872.80396
1569660872.81958
1569660872.83521
1569660872.85083
1569660872.86646
1569660872.88209
1569660872.89771
1569660872.91334
1569660872.92896
1569660872.94459
1569660872.96021
1569660872.97584
1569660872.99147
1569660873.00709
1569660873.02272
1569660873.03834
1569660873.05397
1569660873.06959
1569660873.08522
1569660873.10085
1569660873.11647
1569660873.1321
1569660873.14772
1569660873.16335
1569660873.17897
1569660873.1946
1569660873.21023
1569660873.22585
1569660873.24148
1569660873.2571
1569660873.27273
1569660873.28835
1569660873.30398
1569660873.31961
1569660873.33523
1569660873.35086
1569660873.36648
1569660873.38211
1569660873.39773
1569660873.41336
1569660873.42899
1569660873.44461
1569660873.46024
1569660873.47586
1569660873.49149
1569660873.50711
1569660873.52274
1569660873.53837
1569660873.55399
1569660873.56962
1569660873.58524
1569660873.60087
1569660873.61649
1569660873.63212
1569660873.64775
1569660873.66337
1569660873.679
1569660873.69462
1569660873.71025
1569660873.72587
1569660873.7415
1569660873.75713
1569660873.77275
1569660873.78838
1569660873.804
1569660873.81963
1569660873.83525
1569660873.85088
1569660873.86651
1569660873.88213
1569660873.89776
1569660873.91338
1569660873.92901
1569660873.94463
1569660873.96026
1569660873.97589
1569660873.99151
1569660874.00714
1569660874.02276
1569660874.03839
1569660874.05401
1569660874.06964
1569660874.08527
1569660874.10089
1569660874.11652
1569660874.13214
1569660874.14777
1569660874.16339
1569660874.17902
1569660874.19465
1569660874.21027
1569660874.2259
1569660874.24152
1569660874.25715
1569660874.27277
1569660874.2884
1569660874.30403
1569660874.31965
1569660874.33528
1569660874.3509
1569660874.36653
1569660874.38215
1569660874.39778
1569660874.41341
1569660874.42903
1569660874.44466
1569660874.46028
1569660874.47591
1569660874.49153
1569660874.50716
1569660874.52279
1569660874.53841
1569660874.55404
1569660874.56966
1569660874.58529
1569660874.60091
1569660874.61654
1569660874.63217
1569660874.64779
1569660874.66342
1569660874.67904
1569660874.69467
1569660874.71029
1569660874.72592
1569660874.74155
1569660874.75717
1569660874.7728
1569660874.78842
1569660874.80405
1569660874.81967
1569660874.8353
1569660874.85093
1569660874.86655
1569660874.88218
1569660874.8978
1569660874.91343
1569660874.92906
1569660874.94468
1569660874.96031
1569660874.97593
1569660874.99156
1569660875.00718
1569660875.02281
1569660875.03844
1569660875.05406
1569660875.06969
1569660875.08531
1569660875.10094
1569660875.11656
1569660875.13219
1569660875.14782
1569660875.16344
1569660875.17907
1569660875.19469
1569660875.21032
1569660875.22594
1569660875.24157
1569660875.2572
1569660875.27282
1569660875.28845
1569660875.30407
1569660875.3197
1569660875.33532
1569660875.35095
1569660875.36658
1569660875.3822
1569660875.39783
1569660875.41345
1569660875.42908
1569660875.4447
1569660875.46033
1569660875.47596
1569660875.49158
1569660875.50721
1569660875.52283
1569660875.53846
1569660875.55408
1569660875.56971
1569660875.58534
1569660875.60096
1569660875.61659
1569660875.63221
1569660875.64784
1569660875.66346
1569660875.67909
1569660875.69472
1569660875.71034
1569660875.72597
1569660875.74159
1569660875.75722
1569660875.77284
1569660875.78847
1569660875.8041
1569660875.81972
1569660875.83535
1569660875.85097
1569660875.8666
1569660875.88222
1569660875.89785
1569660875.91348
1569660875.9291
1569660875.94473
1569660875.96035
1569660875.97598
1569660875.9916
1569660876.00723
1569660876.02286
1569660876.03848
1569660876.05411
1569660876.06973
1569660876.08536
1569660876.10098
1569660876.11661
1569660876.13224
1569660876.14786
1569660876.16349
1569660876.17911
1569660876.19474
1569660876.21036
1569660876.22599
1569660876.24162
1569660876.25724
1569660876.27287
1569660876.28849
1569660876.30412
1569660876.31974
1569660876.33537
1569660876.351
1569660876.36662
1569660876.38225
1569660876.39787
1569660876.4135
1569660876.42912
1569660876.44475
1569660876.46038
1569660876.476
1569660876.49163
1569660876.50725
1569660876.52288
1569660876.5385
1569660876.55413
1569660876.56976
1569660876.58538
1569660876.60101
1569660876.61663
1569660876.63226
1569660876.64788
1569660876.66351
1569660876.67914
1569660876.69476
1569660876.71039
1569660876.72601
1569660876.74164
1569660876.75726
1569660876.77289
1569660876.78852
1569660876.80414
1569660876.81977
1569660876.83539
1569660876.85102
1569660876.86664
1569660876.88227
1569660876.8979
1569660876.91352
1569660876.92915
1569660876.94477
1569660876.9604
1569660876.97602
1569660876.99165
1569660877.00728
1569660877.0229
1569660877.03853
1569660877.05415
1569660877.06978
1569660877.08541
1569660877.10103
1569660877.11666
1569660877.13228
1569660877.14791
1569660877.16353
1569660877.17916
1569660877.19479
1569660877.21041
1569660877.22604
1569660877.24166
1569660877.25729
1569660877.27291
1569660877.28854
1569660877.30417
1569660877.31979
1569660877.33542
1569660877.35104
1569660877.36667
1569660877.38229
1569660877.39792
1569660877.41355
1569660877.42917
1569660877.4448
1569660877.46042
1569660877.47605
1569660877.49167
1569660877.5073
1569660877.52293
1569660877.53855
1569660877.55418
1569660877.5698
1569660877.58543
1569660877.60105
1569660877.61668
1569660877.63231
1569660877.64793
1569660877.66356
1569660877.67918
1569660877.69481
1569660877.71043
1569660877.72606
1569660877.74169
1569660877.75731
1569660877.77294
1569660877.78856
1569660877.80419
1569660877.81981
1569660877.83544
1569660877.85107
1569660877.86669
1569660877.88232
1569660877.89794
1569660877.91357
1569660877.92919
1569660877.94482
1569660877.96045
1569660877.97607
1569660877.9917
1569660878.00732
1569660878.02295
1569660878.03857
1569660878.0542
1569660878.06983
1569660878.08545
1569660878.10108
1569660878.1167
1569660878.13233
1569660878.14795
1569660878.16358
1569660878.17921
1569660878.19483
1569660878.21046
1569660878.22608
1569660878.24171
1569660878.25733
1569660878.27296
1569660878.28859
1569660878.30421
1569660878.31984
1569660878.33546
1569660878.35109
1569660878.36671
1569660878.38234
1569660878.39797
1569660878.41359
1569660878.42922
1569660878.44484
1569660878.46047
1569660878.47609
1569660878.49172
1569660878.50735
1569660878.52297
1569660878.5386
1569660878.55422
1569660878.56985
1569660878.58547
1569660878.6011
1569660878.61673
1569660878.63235
1569660878.64798
1569660878.6636
1569660878.67923
1569660878.69485
1569660878.71048
1569660878.72611
1569660878.74173
1569660878.75736
1569660878.77298
1569660878.78861
1569660878.80423
1569660878.81986
1569660878.83549
1569660878.85111
1569660878.86674
1569660878.88236
1569660878.89799
1569660878.91361
1569660878.92924
1569660878.94487
1569660878.96049
1569660878.97612
1569660878.99174
1569660879.00737
1569660879.02299
1569660879.03862
1569660879.05425
1569660879.06987
1569660879.0855
1569660879.10112
1569660879.11675
1569660879.13237
1569660879.148
1569660879.16363
1569660879.17925
1569660879.19488
1569660879.2105
1569660879.22613
1569660879.24175
1569660879.25738
1569660879.27301
1569660879.28863
1569660879.30426
1569660879.31988
1569660879.33551
1569660879.35114
1569660879.36676
1569660879.38239
1569660879.39801
1569660879.41364
1569660879.42926
1569660879.44489
1569660879.46052
1569660879.47614
1569660879.49177
1569660879.50739
1569660879.52302
1569660879.53864
1569660879.55427
1569660879.5699
1569660879.58552
1569660879.60115
1569660879.61677
1569660879.6324
1569660879.64802
1569660879.66365
1569660879.67928
1569660879.6949
1569660879.71053
1569660879.72615
1569660879.74178
1569660879.7574
1569660879.77303
1569660879.78866
1569660879.80428
1569660879.81991
1569660879.83553
1569660879.85116
1569660879.86678
1569660879.88241
1569660879.89804
1569660879.91366
1569660879.92929
1569660879.94491
1569660879.96054
1569660879.97616
1569660879.99179
1569660880.00742
1569660880.02304
1569660880.03867
1569660880.05429
1569660880.06992
1569660880.08554
1569660880.10117
1569660880.1168
1569660880.13242
1569660880.14805
1569660880.16367
1569660880.1793
1569660880.19492
1569660880.21055
1569660880.22618
1569660880.2418
1569660880.25743
1569660880.27305
1569660880.28868
1569660880.3043
1569660880.31993
1569660880.33556
1569660880.35118
1569660880.36681
1569660880.38243
1569660880.39806
1569660880.41368
1569660880.42931
1569660880.44494
1569660880.46056
1569660880.47619
1569660880.49181
1569660880.50744
1569660880.52306
1569660880.53869
1569660880.55432
1569660880.56994
1569660880.58557
1569660880.60119
1569660880.61682
1569660880.63244
1569660880.64807
1569660880.6637
1569660880.67932
1569660880.69495
1569660880.71057
1569660880.7262
1569660880.74182
1569660880.75745
1569660880.77308
1569660880.7887
1569660880.80433
1569660880.81995
1569660880.83558
1569660880.8512
1569660880.86683
1569660880.88246
1569660880.89808
1569660880.91371
1569660880.92933
1569660880.94496
1569660880.96058
1569660880.97621
1569660880.99184
1569660881.00746
1569660881.02309
1569660881.03871
1569660881.05434
1569660881.06996
1569660881.08559
1569660881.10122
1569660881.11684
1569660881.13247
1569660881.14809
1569660881.16372
1569660881.17934
1569660881.19497
1569660881.2106
1569660881.22622
1569660881.24185
1569660881.25747
1569660881.2731
1569660881.28872
1569660881.30435
1569660881.31998
1569660881.3356
1569660881.35123
1569660881.36685
1569660881.38248
1569660881.3981
1569660881.41373
1569660881.42936
1569660881.44498
1569660881.46061
1569660881.47623
1569660881.49186
1569660881.50748
1569660881.52311
1569660881.53874
1569660881.55436
1569660881.56999
1569660881.58561
1569660881.60124
1569660881.61686
1569660881.63249
1569660881.64812
1569660881.66374
1569660881.67937
1569660881.69499
1569660881.71062
1569660881.72624
1569660881.74187
1569660881.7575
1569660881.77312
1569660881.78875
1569660881.80437
1569660881.82
1569660881.83562
1569660881.85125
1569660881.86688
1569660881.8825
1569660881.89813
1569660881.91375
1569660881.92938
1569660881.94501
1569660881.96063
1569660881.97626
1569660881.99188
1569660882.00751
1569660882.02313
1569660882.03876
1569660882.05439
1569660882.07001
1569660882.08564
1569660882.10126
1569660882.11689
1569660882.13251
1569660882.14814
1569660882.16377
1569660882.17939
1569660882.19502
1569660882.21064
1569660882.22627
1569660882.24189
1569660882.25752
1569660882.27315
1569660882.28877
1569660882.3044
1569660882.32002
1569660882.33565
1569660882.35127
1569660882.3669
1569660882.38253
1569660882.39815
1569660882.41378
1569660882.4294
1569660882.44503
1569660882.46065
1569660882.47628
1569660882.49191
1569660882.50753
1569660882.52316
1569660882.53878
1569660882.55441
1569660882.57003
1569660882.58566
1569660882.60129
1569660882.61691
1569660882.63254
1569660882.64816
1569660882.66379
1569660882.67941
1569660882.69504
1569660882.71067
1569660882.72629
1569660882.74192
1569660882.75754
1569660882.77317
1569660882.78879
1569660882.80442
1569660882.82005
1569660882.83567
1569660882.8513
1569660882.86692
1569660882.88255
1569660882.89817
1569660882.9138
1569660882.92943
1569660882.94505
1569660882.96068
1569660882.9763
1569660882.99193
1569660883.00755
1569660883.02318
1569660883.03881
1569660883.05443
1569660883.07006
1569660883.08568
1569660883.10131
1569660883.11693
1569660883.13256
1569660883.14819
1569660883.16381
1569660883.17944
1569660883.19506
1569660883.21069
1569660883.22631
1569660883.24194
1569660883.25757
1569660883.27319
1569660883.28882
1569660883.30444
1569660883.32007
1569660883.33569
1569660883.35132
1569660883.36695
1569660883.38257
1569660883.3982
1569660883.41382
1569660883.42945
1569660883.44507
1569660883.4607
1569660883.47633
1569660883.49195
1569660883.50758
1569660883.5232
1569660883.53883
1569660883.55445
1569660883.57008
1569660883.58571
1569660883.60133
1569660883.61696
1569660883.63258
1569660883.64821
1569660883.66383
1569660883.67946
1569660883.69509
1569660883.71071
1569660883.72634
1569660883.74196
1569660883.75759
1569660883.77321
1569660883.78884
1569660883.80447
1569660883.82009
1569660883.83572
1569660883.85134
1569660883.86697
1569660883.88259
1569660883.89822
1569660883.91385
1569660883.92947
1569660883.9451
1569660883.96072
1569660883.97635
1569660883.99197
1569660884.0076
1569660884.02323
1569660884.03885
1569660884.05448
1569660884.0701
1569660884.08573
1569660884.10135
1569660884.11698
1569660884.13261
1569660884.14823
1569660884.16386
1569660884.17948
1569660884.19511
1569660884.21074
1569660884.22636
1569660884.24199
1569660884.25761
1569660884.27324
1569660884.28886
1569660884.30449
1569660884.32012
1569660884.33574
1569660884.35137
1569660884.36699
1569660884.38262
1569660884.39824
1569660884.41387
1569660884.4295
1569660884.44512
1569660884.46075
1569660884.47637
1569660884.492
1569660884.50762
1569660884.52325
1569660884.53888
1569660884.5545
1569660884.57013
1569660884.58575
1569660884.60138
1569660884.617
1569660884.63263
1569660884.64826
1569660884.66388
1569660884.67951
1569660884.69513
1569660884.71076
1569660884.72638
1569660884.74201
1569660884.75764
1569660884.77326
1569660884.78889
1569660884.80451
1569660884.82014
1569660884.83576
1569660884.85139
1569660884.86702
1569660884.88264
1569660884.89827
1569660884.91389
1569660884.92952
1569660884.94514
1569660884.96077
1569660884.9764
1569660884.99202
1569660885.00765
1569660885.02327
1569660885.0389
1569660885.05452
1569660885.07015
1569660885.08578
1569660885.1014
1569660885.11703
1569660885.13265
1569660885.14828
1569660885.1639
1569660885.17953
1569660885.19516
1569660885.21078
1569660885.22641
1569660885.24203
1569660885.25766
1569660885.27328
1569660885.28891
1569660885.30454
1569660885.32016
1569660885.33579
1569660885.35141
1569660885.36704
1569660885.38266
1569660885.39829
1569660885.41392
1569660885.42954
1569660885.44517
1569660885.46079
1569660885.47642
1569660885.49204
1569660885.50767
1569660885.5233
1569660885.53892
1569660885.55455
1569660885.57017
1569660885.5858
1569660885.60142
1569660885.61705
1569660885.63268
1569660885.6483
1569660885.66393
1569660885.67955
1569660885.69518
1569660885.7108
1569660885.72643
1569660885.74206
1569660885.75768
1569660885.77331
1569660885.78893
1569660885.80456
1569660885.82018
1569660885.83581
1569660885.85144
1569660885.86706
1569660885.88269
1569660885.89831
1569660885.91394
1569660885.92956
1569660885.94519
1569660885.96082
1569660885.97644
1569660885.99207
1569660886.00769
1569660886.02332
1569660886.03894
1569660886.05457
1569660886.0702
1569660886.08582
1569660886.10145
1569660886.11707
1569660886.1327
1569660886.14832
1569660886.16395
1569660886.17958
1569660886.1952
1569660886.21083
1569660886.22645
1569660886.24208
1569660886.2577
1569660886.27333
1569660886.28896
1569660886.30458
1569660886.32021
1569660886.33583
1569660886.35146
1569660886.36708
1569660886.38271
1569660886.39834
1569660886.41396
1569660886.42959
1569660886.44521
1569660886.46084
1569660886.47646
1569660886.49209
1569660886.50772
1569660886.52334
1569660886.53897
1569660886.55459
1569660886.57022
1569660886.58584
1569660886.60147
1569660886.6171
1569660886.63272
1569660886.64835
1569660886.66397
1569660886.6796
1569660886.69523
1569660886.71085
1569660886.72648
1569660886.7421
1569660886.75773
1569660886.77335
1569660886.78898
1569660886.80461
1569660886.82023
1569660886.83586
1569660886.85148
1569660886.86711
1569660886.88273
1569660886.89836
1569660886.91399
1569660886.92961
1569660886.94524
1569660886.96086
1569660886.97649
1569660886.99211
1569660887.00774
1569660887.02337
1569660887.03899
1569660887.05462
1569660887.07024
1569660887.08587
1569660887.10149
1569660887.11712
1569660887.13275
1569660887.14837
1569660887.164
1569660887.17962
1569660887.19525
1569660887.21087
1569660887.2265
1569660887.24213
1569660887.25775
1569660887.27338
1569660887.289
1569660887.30463
1569660887.32025
1569660887.33588
1569660887.35151
1569660887.36713
1569660887.38276
1569660887.39838
1569660887.41401
1569660887.42963
1569660887.44526
1569660887.46089
1569660887.47651
1569660887.49214
1569660887.50776
1569660887.52339
1569660887.53901
1569660887.55464
1569660887.57027
1569660887.58589
1569660887.60152
1569660887.61714
1569660887.63277
1569660887.64839
1569660887.66402
1569660887.67965
1569660887.69527
1569660887.7109
1569660887.72652
1569660887.74215
1569660887.75777
1569660887.7734
1569660887.78903
1569660887.80465
1569660887.82028
1569660887.8359
1569660887.85153
1569660887.86715
1569660887.88278
1569660887.89841
1569660887.91403
1569660887.92966
1569660887.94528
1569660887.96091
1569660887.97653
1569660887.99216
1569660888.00779
1569660888.02341
1569660888.03904
1569660888.05466
1569660888.07029
1569660888.08591
1569660888.10154
1569660888.11717
1569660888.13279
1569660888.14842
1569660888.16404
1569660888.17967
1569660888.19529
1569660888.21092
1569660888.22655
1569660888.24217
1569660888.2578
1569660888.27342
1569660888.28905
1569660888.30467
1569660888.3203
1569660888.33593
1569660888.35155
1569660888.36718
1569660888.3828
1569660888.39843
1569660888.41405
1569660888.42968
1569660888.44531
1569660888.46093
1569660888.47656
1569660888.49218
1569660888.50781
1569660888.52343
1569660888.53906
1569660888.55469
1569660888.57031
1569660888.58594
1569660888.60156
1569660888.61719
1569660888.63281
1569660888.64844
1569660888.66407
1569660888.67969
1569660888.69532
1569660888.71094
1569660888.72657
1569660888.74219
1569660888.75782
1569660888.77345
1569660888.78907
1569660888.8047
1569660888.82032
1569660888.83595
1569660888.85157
1569660888.8672
1569660888.88283
1569660888.89845
1569660888.91408
1569660888.9297
1569660888.94533
1569660888.96095
1569660888.97658
1569660888.99221
1569660889.00783
1569660889.02346
1569660889.03908
1569660889.05471
1569660889.07034
1569660889.08596
1569660889.10159
1569660889.11721
1569660889.13284
1569660889.14846
1569660889.16409
1569660889.17972
1569660889.19534
1569660889.21097
1569660889.22659
1569660889.24222
1569660889.25784
1569660889.27347
1569660889.2891
1569660889.30472
1569660889.32035
1569660889.33597
1569660889.3516
1569660889.36722
1569660889.38285
1569660889.39848
1569660889.4141
1569660889.42973
1569660889.44535
1569660889.46098
1569660889.4766
1569660889.49223
1569660889.50786
1569660889.52348
1569660889.53911
1569660889.55473
1569660889.57036
1569660889.58598
1569660889.60161
1569660889.61724
1569660889.63286
1569660889.64849
1569660889.66411
1569660889.67974
1569660889.69536
1569660889.71099
1569660889.72662
1569660889.74224
1569660889.75787
1569660889.77349
1569660889.78912
1569660889.80474
1569660889.82037
1569660889.836
1569660889.85162
1569660889.86725
1569660889.88287
1569660889.8985
1569660889.91412
1569660889.92975
1569660889.94538
1569660889.961
1569660889.97663
1569660889.99225
1569660890.00788
1569660890.0235
1569660890.03913
1569660890.05476
1569660890.07038
1569660890.08601
1569660890.10163
1569660890.11726
1569660890.13288
1569660890.14851
1569660890.16414
1569660890.17976
1569660890.19539
1569660890.21101
1569660890.22664
1569660890.24226
1569660890.25789
1569660890.27352
1569660890.28914
1569660890.30477
1569660890.32039
1569660890.33602
1569660890.35164
1569660890.36727
1569660890.3829
1569660890.39852
1569660890.41415
1569660890.42977
1569660890.4454
1569660890.46102
1569660890.47665
1569660890.49228
1569660890.5079
1569660890.52353
1569660890.53915
1569660890.55478
1569660890.5704
1569660890.58603
1569660890.60166
1569660890.61728
1569660890.63291
1569660890.64853
1569660890.66416
1569660890.67978
1569660890.69541
1569660890.71104
1569660890.72666
1569660890.74229
1569660890.75791
1569660890.77354
1569660890.78916
1569660890.80479
1569660890.82042
1569660890.83604
1569660890.85167
1569660890.86729
1569660890.88292
1569660890.89854
1569660890.91417
1569660890.9298
1569660890.94542
1569660890.96105
1569660890.97667
1569660890.9923
1569660891.00792
1569660891.02355
1569660891.03918
1569660891.0548
1569660891.07043
1569660891.08605
1569660891.10168
1569660891.1173
1569660891.13293
1569660891.14856
1569660891.16418
1569660891.17981
1569660891.19543
1569660891.21106
1569660891.22669
1569660891.24231
1569660891.25794
1569660891.27356
1569660891.28919
1569660891.30481
1569660891.32044
1569660891.33607
1569660891.35169
1569660891.36732
1569660891.38294
1569660891.39857
1569660891.41419
1569660891.42982
1569660891.44545
1569660891.46107
1569660891.4767
1569660891.49232
1569660891.50795
1569660891.52357
1569660891.5392
1569660891.55483
1569660891.57045
1569660891.58608
1569660891.6017
1569660891.61733
1569660891.63295
1569660891.64858
1569660891.66421
1569660891.67983
1569660891.69546
1569660891.71108
1569660891.72671
1569660891.74233
1569660891.75796
1569660891.77359
1569660891.78921
1569660891.80484
1569660891.82046
1569660891.83609
1569660891.85171
1569660891.86734
1569660891.88297
1569660891.89859
1569660891.91422
1569660891.92984
1569660891.94547
1569660891.96109
1569660891.97672
1569660891.99235
1569660892.00797
1569660892.0236
1569660892.03922
1569660892.05485
1569660892.07047
1569660892.0861
1569660892.10173
1569660892.11735
1569660892.13298
1569660892.1486
1569660892.16423
1569660892.17985
1569660892.19548
1569660892.21111
1569660892.22673
1569660892.24236
1569660892.25798
1569660892.27361
1569660892.28923
1569660892.30486
1569660892.32049
1569660892.33611
1569660892.35174
1569660892.36736
1569660892.38299
1569660892.39861
1569660892.41424
1569660892.42987
1569660892.44549
1569660892.46112
1569660892.47674
1569660892.49237
1569660892.50799
1569660892.52362
1569660892.53925
1569660892.55487
1569660892.5705
1569660892.58612
1569660892.60175
1569660892.61737
1569660892.633
1569660892.64863
1569660892.66425
1569660892.67988
1569660892.6955
1569660892.71113
1569660892.72675
1569660892.74238
1569660892.75801
1569660892.77363
1569660892.78926
1569660892.80488
1569660892.82051
1569660892.83613
1569660892.85176
1569660892.86739
1569660892.88301
1569660892.89864
1569660892.91426
1569660892.92989
1569660892.94551
1569660892.96114
1569660892.97677
1569660892.99239
1569660893.00802
1569660893.02364
1569660893.03927
1569660893.05489
1569660893.07052
1569660893.08615
1569660893.10177
1569660893.1174
1569660893.13302
1569660893.14865
1569660893.16427
1569660893.1799
1569660893.19553
1569660893.21115
1569660893.22678
1569660893.2424
1569660893.25803
1569660893.27365
1569660893.28928
1569660893.30491
1569660893.32053
1569660893.33616
1569660893.35178
1569660893.36741
1569660893.38303
1569660893.39866
1569660893.41429
1569660893.42991
1569660893.44554
1569660893.46116
1569660893.47679
1569660893.49241
1569660893.50804
1569660893.52367
1569660893.53929
1569660893.55492
1569660893.57054
1569660893.58617
1569660893.60179
1569660893.61742
1569660893.63305
1569660893.64867
1569660893.6643
1569660893.67992
1569660893.69555
1569660893.71117
1569660893.7268
1569660893.74243
1569660893.75805
1569660893.77368
1569660893.7893
1569660893.80493
1569660893.82055
1569660893.83618
1569660893.85181
1569660893.86743
1569660893.88306
1569660893.89868
1569660893.91431
1569660893.92994
1569660893.94556
1569660893.96119
1569660893.97681
1569660893.99244
1569660894.00806
1569660894.02369
1569660894.03932
1569660894.05494
1569660894.07057
1569660894.08619
1569660894.10182
