-18.46175
-16.38229
-13.88629
-11.16449
-8.370354
-5.604118
-2.903839
-0.2972946
2.194992
4.527512
6.622437
8.3769
9.715164
10.61231
11.13084
11.34492
11.29388
10.98686
10.41705
9.701424
9.087708
8.917709
9.457245
10.71431
12.35536
13.79294
14.45088
14.02669
12.63902
10.73979
8.85675
7.321365
6.165329
5.238403
4.400848
3.680969
3.339203
3.67067
4.822845
6.672134
8.906631
11.14703
13.11813
14.7327
15.98586
16.84221
17.18997
16.90657
15.97711
14.59845
13.05453
11.62567
10.41516
9.305023
8.076706
6.553085
4.750473
2.934402
1.460342
0.6029816
0.3678894
0.4864044
0.4915924
-0.04249573
-1.301804
-3.195831
-5.403259
-7.599182
-9.52121
-11.06856
-12.20935
-12.85637
-12.79855
-11.78717
-9.738068
-6.829788
-3.479355
-0.1787262
2.715576
5.130463
7.203033
9.150269
11.05241
12.76297
13.97253
14.41649
13.99289
12.87741
11.39156
9.922089
8.747498
7.988174
7.621948
7.525528
7.532135
7.437119
7.077316
6.365067
5.337555
4.075485
2.678696
1.148209
-0.6113739
-2.720673
-5.199966
-7.859329
-10.30574
-12.09027
-12.88707
-12.65274
-11.58311
-9.95755
-8.009109
-5.806854
-3.344833
-0.5842285
2.35051
5.195404
7.582962
9.217972
9.944565
9.852341
9.208328
8.297256
7.326965
6.30484
5.14711
3.761337
2.168686
0.5140533
-1.023773
-2.30928
-3.343521
-4.291824
-5.374084
-6.750214
-8.457809
-10.39635
-12.43343
-14.48317
-16.52495
-18.60475
-20.71489
-22.68163
-24.12677
-24.49294
-23.19525
-19.80678
-14.23647
-6.805176
1.825455
10.85333
19.51074
27.23311
33.68498
38.74333
42.3904
44.6405
45.55566
45.25969
43.95305
41.9171
39.38673
36.51309
33.30106
29.6826
25.62836
21.24039
16.76791
12.53012
8.798126
5.62413
2.933762
0.5611572
-1.595596
-3.521057
-5.111359
-6.275208
-6.940292
-7.08046
-6.653122
-5.553513
-3.663803
-0.9532776
2.506973
6.445663
10.45776
14.11285
17.04448
19.00243
19.92993
19.97154
19.40009
18.58093
17.82204
17.28346
16.88498
16.44432
15.78313
14.85484
13.80147
12.85007
12.18324
11.78384
11.48236
11.01007
10.20367
9.074341
7.816635
6.653809
5.68248
4.802505
3.723999
2.137238
-0.03765869
-2.582565
-4.963623
-6.594719
-7.089264
-6.421104
-4.904213
-3.043976
-1.272736
0.1994629
1.377876
2.343521
3.147354
3.765198
4.097321
4.094986
3.80751
3.321732
2.709557
1.979774
1.111481
0.1201706
-0.8651772
-1.715267
-2.353043
-2.876377
-3.457466
-4.22551
-5.200451
-6.20768
-7.078606
-7.786274
-8.504301
-9.500765
-10.95916
-12.84211
-14.86985
-16.62951
-17.74883
-17.97977
-17.24377
-15.60437
-13.23864
-10.44409
-7.589151
-5.029254
-3.00871
-1.673045
-0.9933949
-0.8796043
-1.238621
-1.976604
-2.987627
-4.157059
-5.338846
-6.424925
-7.391037
-8.281281
-9.166889
-10.14134
-11.21911
-12.38119
-13.62619
-14.97015
-16.43453
-18.02042
-19.66706
-21.30139
-22.93473
-24.6156
-26.44262
-28.44617
-30.43999
-32.06245
-32.85284
-32.45753
-30.78234
-28.06607
-24.67352
-21.02066
-17.42597
-14.04086
-10.93068
-8.170021
-5.830276
-3.992775
-2.706841
-1.909607
-1.47348
-1.234543
-1.025902
-0.7395325
-0.3430557
0.1139679
0.5061798
0.6730194
0.475441
-0.1629257
-1.239807
-2.583771
-3.974609
-5.202675
-6.11734
-6.733154
-7.204048
-7.757393
-8.579399
-9.70668
-10.91927
-11.86697
-12.17319
-11.54729
-9.96814
-7.643211
-4.893005
-2.038647
0.758461
3.461823
6.031368
8.366951
10.23061
11.39725
11.70986
11.22335
10.16993
8.863075
7.555069
6.385136
5.381714
4.514095
3.776997
3.163261
2.708969
2.410172
2.188103
1.944027
1.522442
0.7743797
-0.428875
-2.161732
-4.386913
-6.937244
-9.530022
-11.76584
-13.16488
-13.27416
-11.77011
-8.70068
-4.445011
0.3250389
4.843773
8.588688
11.28637
12.98904
13.87461
14.13007
13.81761
12.99785
11.70853
10.04676
8.207249
6.369568
4.748241
3.483624
2.617123
2.062969
1.650814
1.17001
0.469696
-0.4110222
-1.368359
-2.248951
-3.021393
-3.767235
-4.723091
-6.098034
-7.960335
-10.2079
-12.46681
-14.23811
-15.01233
-14.41733
-12.39667
-9.175106
-5.251999
-1.152401
2.683035
6.049564
8.883242
11.19785
12.96322
14.09587
14.53491
14.26572
13.38027
11.99397
10.26257
8.331858
6.39588
4.736383
3.589771
3.103453
3.191231
3.542574
3.665968
3.173574
1.864573
-0.1400928
-2.469553
-4.724773
-6.685688
-8.338749
-9.838415
-11.29963
-12.64021
-13.50434
-13.47293
-12.25894
-9.900763
-6.760254
-3.336643
-0.02338028
2.999302
5.724741
8.110672
9.98455
11.10567
11.26295
10.50504
9.154062
7.586918
6.137974
4.878977
3.722523
2.534645
1.298119
0.1480331
-0.743227
-1.276281
-1.541632
-1.778103
-2.291958
-3.371292
-5.110882
-7.444567
-10.12928
-12.85094
-15.21699
-16.86623
-17.47943
-16.76201
-14.57801
-10.96142
-6.159664
-0.6362019
5.065695
10.44419
15.2049
19.31829
22.97077
26.33759
29.51475
32.35155
34.502
35.60917
35.45531
34.06032
31.69319
28.82548
25.91117
23.26228
20.94021
18.73293
16.3476
13.51872
10.2249
6.656075
3.168467
0.03881836
-2.613684
-4.888102
-7.06403
-9.440542
-12.24705
-15.61626
-19.54342
-23.89336
-28.41901
-32.72369
-36.29683
-38.70878
-39.69404
-39.33761
-37.99188
-36.1004
-34.09534
-32.23882
-30.57883
-29.11784
-27.82885
-26.71608
-25.78686
-24.98745
-24.14126
-23.03134
-21.47115
-19.39511
-16.96863
-14.47959
-12.27624
-10.6236
-9.633415
-9.173525
-8.974157
-8.728361
-8.16424
-7.21102
-5.900116
-4.367783
-2.757814
-1.172385
0.4143286
2.16212
4.337663
7.189656
10.79293
15.04326
19.58937
23.95615
27.7597
30.79377
33.11155
34.91909
36.42873
37.72179
38.77613
39.4768
39.78603
39.72846
39.338
38.59775
37.41504
35.72229
33.51319
30.92719
28.1782
25.45132
22.83868
20.31418
17.8429
15.40637
13.00775
10.5902
7.998842
5.01457
1.513661
-2.380603
-6.285278
-9.632767
-11.91281
-12.8246
-12.39666
-10.8693
-8.600957
-5.905403
-3.062577
-0.3492899
1.973489
3.590858
4.310916
4.102887
3.201351
1.967031
0.8140469
0.04814911
-0.2032623
-0.07948112
0.1406059
0.1872768
-0.09527016
-0.6346283
-1.275101
-1.878387
-2.453377
-3.145973
-4.150787
-5.560516
-7.284561
-9.094872
-10.67348
-11.81211
-12.41777
-12.45002
-11.89882
-10.74997
-9.04298
-6.921822
-4.665443
-2.600067
-1.027431
-0.1006966
0.1436005
-0.266777
-1.207668
-2.518646
-3.930641
-5.111019
-5.723705
-5.599659
-4.793457
-3.547504
-2.178543
-0.8834534
0.2728195
1.317001
2.264248
3.005535
3.3773
3.262699
2.724731
1.962547
1.230194
0.6335602
0.05652618
-0.6982727
-1.708076
-2.787727
-3.495064
-3.331039
-2.009232
0.3837051
3.400093
6.513725
9.327362
11.7276
13.78263
15.56795
16.99306
17.7687
17.60914
16.42828
14.47194
12.23236
10.24026
8.821587
7.950233
7.304588
6.506973
5.336449
3.816307
2.130119
0.4689255
-1.140617
-2.752441
-4.434166
-6.134979
-7.702278
-8.952026
-9.83358
-10.43924
-10.90392
-11.27398
-11.39291
-10.99781
-9.839333
-7.886711
-5.334122
-2.542839
0.0663147
2.186234
3.610168
4.272186
4.218987
3.642029
2.818604
2.016922
1.409317
1.001556
0.665802
0.2530518
-0.2987213
-0.9999084
-1.807495
-2.702209
-3.691666
-4.726059
-5.704514
-6.486847
-7.043381
-7.465515
-8.005844
-8.876602
-10.11101
-11.44307
-12.42293
-12.6384
-11.87985
-10.20799
-7.836121
-5.004715
-1.960724
1.068344
3.862793
6.149384
7.704056
8.354538
8.098206
7.08316
5.60202
4.03273
2.722824
1.86409
1.399384
1.046356
0.4014587
-0.8351746
-2.673981
-4.835114
-6.867462
-8.34494
-9.124084
-9.337982
-9.29921
-9.346268
-9.696014
-10.37927
-11.25671
-12.13246
-12.78136
-13.03444
-12.82083
-12.0699
-10.74136
-8.832825
-6.395798
-3.59697
-0.7432251
1.797653
3.715393
4.882614
5.3815
5.419281
5.233932
4.937531
4.523071
3.937912
3.173615
2.261902
1.317734
0.458252
-0.2464752
-0.7571106
-1.120773
-1.401505
-1.70369
-2.140945
-2.850937
-3.930389
-5.406204
-7.232651
-9.236908
-11.1588
-12.68518
-13.54372
-13.56464
-12.74057
-11.23505
-9.284348
-7.089752
-4.746613
-2.252151
0.4194641
3.150375
5.649689
7.539474
8.510956
8.502457
7.725449
6.573471
5.467865
4.643326
4.100037
3.65921
3.109131
2.300812
1.25206
0.08198547
-1.078369
-2.175781
-3.170654
-4.045273
-4.733627
-5.192673
-5.474487
-5.744781
-6.245361
-7.191162
-8.599091
-10.25204
-11.74765
-12.64381
-12.66617
-11.77954
-10.13907
-7.962906
-5.407074
-2.590317
0.3568115
3.227142
5.749619
7.596741
8.609238
8.80304
8.410828
7.736191
7.030579
6.380447
5.715103
4.936569
3.962189
2.824387
1.663345
0.6040955
-0.2913055
-1.001266
-1.634888
-2.281601
-2.980148
-3.71344
-4.408707
-5.015884
-5.57016
-6.215805
-7.101028
-8.309998
-9.757553
-11.1505
-12.06894
-12.10625
-11.06541
-9.020096
-6.243713
-3.099686
0.09872437
3.108826
5.83107
8.155136
9.991821
11.21144
11.69324
11.46521
10.67093
9.515152
8.230118
7.036743
6.063293
5.443298
5.185547
5.205948
5.285446
5.155563
4.582687
3.520126
2.174072
0.8302307
-0.2471008
-0.9848938
-1.523438
-2.141083
-3.065384
-4.37059
-5.939545
-7.527069
-8.901749
-9.89064
-10.38644
-10.31725
-9.633301
-8.308243
-6.338593
-3.807175
-0.8995209
2.095825
4.839417
7.015167
8.480209
9.225113
9.403503
9.168686
8.583893
7.65834
6.388718
4.955872
3.672836
2.888199
2.776535
3.225021
3.851913
4.164337
3.859619
2.899261
1.502777
0.008911133
-1.303589
-2.276566
-2.893127
-3.229584
-3.499985
-3.948441
-4.84407
-6.286377
-8.120331
-9.936432
-11.17641
-11.36121
-10.24191
-7.957932
-4.816803
-1.259277
2.358276
5.749298
8.720627
11.10536
12.7493
13.60101
13.61072
12.89865
11.61009
10.00607
8.339676
6.800705
5.456787
4.247314
3.065338
1.833511
0.611969
-0.4060211
-0.9924316
-0.9806824
-0.4316559
0.3925629
1.026871
1.037354
0.1385193
-1.670303
-4.154816
-6.903366
-9.453049
-11.42245
-12.54718
-12.7215
-11.95934
-10.41336
-8.296936
-5.89949
-3.538116
-1.479904
0.06208801
1.074081
1.665344
1.977448
2.113831
2.040527
1.63504
0.789856
-0.466568
-1.942047
-3.296021
-4.211273
-4.501022
-4.142258
-3.345627
-2.409561
-1.612549
-1.097733
-0.9246826
-1.123413
-1.765915
-2.961563
-4.76683
-7.092148
-9.636368
-11.98442
-13.65979
-14.33592
-13.90039
-12.51854
-10.48701
-8.116943
-5.649841
-3.20871
-0.8652954
1.251587
2.993988
4.226563
4.868378
4.946831
4.57254
3.882126
3.023727
2.077011
1.044777
-0.07852936
-1.268845
-2.465324
-3.530289
-4.340996
-4.817856
-5.009537
-5.042236
-5.048042
-5.105461
-5.205452
-5.330742
-5.595528
-6.210579
-7.397194
-9.187828
-11.26801
-12.96273
-13.51064
-12.40557
-9.664978
-5.870239
-1.894127
1.478966
3.830162
5.250381
6.141335
6.923141
7.783386
8.599945
9.051682
8.843544
7.934311
6.573303
5.234161
4.351364
4.088058
4.267273
4.519608
4.477737
4.028229
3.314163
2.585899
1.992722
1.483624
0.786026
-0.3300552
-1.939972
-3.876213
-5.838165
-7.501488
-8.676964
-9.203674
-8.956429
-7.827278
-5.710999
-2.717945
0.8354836
4.498436
7.825848
10.50267
12.39004
13.46177
13.64715
12.9172
11.24024
8.762484
5.850708
2.992386
0.5409374
-1.375444
-2.930962
-4.48525
-6.336409
-8.602264
-11.18448
-13.85493
-16.4689
-19.01519
-21.6405
-24.5324
-27.78488
-31.25121
-34.58093
-37.25114
-38.74384
-38.75217
-37.28494
-34.66239
-31.47528
-28.35135
-25.73537
-23.79881
-22.35022
-20.88889
-18.80914
-15.58963
-11.0001
-5.271511
0.9132042
6.63076
10.91272
13.05552
12.81098
10.29908
5.92646
0.1763763
-6.528183
-13.79259
-21.23378
-28.40792
-34.90746
-40.44524
-44.98247
-48.63527
-51.5099
-53.57956
-54.57259
-54.11383
-51.91438
-47.96504
-42.58078
-36.31023
-29.67328
-23.02104
-16.533
-10.31538
-4.508362
0.5631256
4.559845
7.307709
8.9142
9.829895
10.69666
12.0414
14.14211
16.89444
19.879
22.56454
24.52036
25.53848
25.67676
25.22665
24.50439
23.73758
22.91299
21.71796
19.69727
16.5112
12.13678
7.063904
2.21286
-1.367554
-2.897614
-2.156342
0.4573364
4.177002
8.191589
11.86401
14.91824
17.29916
19.02878
20.14844
20.69678
20.73047
20.45932
20.15805
20.08502
20.36533
20.85373
21.18066
20.84528
19.41122
16.67166
12.80173
8.293213
3.766296
-0.2318115
-3.473053
-6.101868
-8.487
-10.96124
-13.61145
-16.1225
-17.85608
-18.10138
-16.3266
-12.35309
-6.397095
1.043396
9.264404
17.44409
24.65167
29.96973
32.65088
32.4151
29.60962
25.22101
20.60645
17.11279
15.62543
16.33331
18.71381
21.7439
24.29156
25.49127
25.05347
23.30768
21.00024
18.9303
17.57495
16.88617
16.40253
15.6236
14.39655
13.09515
12.51953
13.53235
16.57196
21.44873
27.38232
33.29559
38.27277
41.94073
44.42474
46.22028
47.80786
49.3194
50.50793
50.83313
49.73767
46.95685
42.57104
36.97382
30.71667
24.34955
18.26935
12.77771
8.110046
4.440552
1.875244
0.3334961
-0.5206299
-1.2854
-2.664124
-5.378418
-9.808655
-15.89417
-23.11121
-30.54401
-37.16577
-42.00513
-44.29712
-43.61469
-39.92316
-33.53363
-25.12512
-15.62921
-6.007996
2.842773
10.27643
15.92426
19.64276
21.53143
21.85321
20.97241
19.29944
17.28619
15.30658
13.68768
12.62476
12.15509
12.1499
12.36298
12.42407
11.99146
10.91522
9.224304
7.147522
4.906738
2.566223
-0.004943848
-3.076538
-6.841248
-11.1991
-15.68585
-19.60144
-22.20587
-22.96075
-21.66248
-18.41486
-13.55994
-7.60199
-1.058167
5.539612
11.71179
17.08508
21.41382
24.56512
26.50873
27.2381
26.84955
25.54395
23.66187
21.62976
19.88812
18.6413
17.82159
17.14221
16.20453
14.729
12.67651
10.24432
7.690857
5.228149
2.885071
0.4926147
-2.118164
-5.093872
-8.45166
-12.03705
-15.53491
-18.50623
-20.43518
-20.85626
-19.49567
-16.33856
-11.72845
-6.237732
-0.4996948
4.970337
9.924683
14.28552
18.05499
21.13544
23.29938
24.29779
24.01935
22.56598
20.23895
17.479
14.74207
12.34644
10.47162
9.151367
8.312317
7.817017
7.455505
6.925842
5.958313
4.424011
2.365662
-0.01184082
-2.444153
-4.779114
-7.008423
-9.262085
-11.71997
-14.47931
-17.50488
-20.61816
-23.46716
-25.56616
-26.39709
-25.51788
-22.6925
-17.99811
-11.90881
-5.157227
1.472168
7.354797
12.13239
15.68243
18.02936
19.19629
19.22473
18.18494
16.23621
13.6615
10.8009
7.981323
5.441467
3.331787
1.682861
0.4771729
-0.3128662
-0.7927246
-1.055054
-1.267578
-1.640442
-2.384338
-3.643433
-5.521423
-8.045166
-11.16278
-14.73395
-18.43481
-21.77155
-24.16425
-25.11938
-24.40564
-22.14105
-18.70697
-14.53857
-9.966675
-5.114441
-0.01751709
5.186707
10.1394
14.29327
17.11261
18.27832
17.80609
16.02222
13.46826
10.73126
8.279541
6.434814
5.282227
4.654602
4.245667
3.671082
2.6297
1.014954
-1.063538
-3.368103
-5.599243
-7.641724
-9.534851
-11.42767
-13.51459
-15.84613
-18.31476
-20.64795
-22.46094
-23.32159
-22.85248
-20.7995
-17.11523
-12.0116
-5.941223
0.5046997
6.750366
12.38062
17.22949
21.28705
24.59991
27.19434
29.00189
29.90399
29.81464
28.71014
26.65173
23.80469
20.40723
16.73126
13.12982
9.816895
6.920441
4.328186
1.789337
-0.9484253
-3.989441
-7.179657
-10.20566
-12.69162
-14.41727
-15.31387
-15.49634
-15.22617
-14.84204
-14.79135
-15.56061
-17.54074
-20.76187
-24.83478
-28.82932
-31.57376
-32.05283
-29.78244
-25.02112
-18.64401
-11.80182
-5.389221
0.1166992
4.728363
8.650726
11.99936
14.65826
16.32199
16.78354
16.09546
14.66019
13.02081
11.63016
10.61533
9.783081
8.840485
7.629303
6.24585
4.997101
4.137329
3.705292
3.49231
3.145447
2.344482
0.9693909
-0.885437
-3.001617
-5.141357
-7.144653
-8.929657
-10.47736
-11.75467
-12.72467
-13.28641
-13.3201
-12.70819
-11.36432
-9.165771
-5.996155
-1.743927
3.674255
10.18567
17.48264
24.94067
31.69986
36.88699
39.90936
40.65161
39.4939
37.08533
34.07462
30.84915
27.49493
23.94519
20.21277
16.5025
13.16861
10.55533
8.821686
7.832977
7.295441
6.86615
6.329285
5.542816
4.412903
2.762177
0.378479
-2.889709
-7.067596
-11.9093
-17.05637
-22.05289
-26.50073
-30.13086
-32.76187
-34.25983
-34.56259
-33.6543
-31.60065
-28.55762
-24.72107
-20.3223
-15.61508
-10.8569
-6.322632
-2.269135
1.112335
3.711975
5.538452
6.630676
7.068573
6.951569
6.464783
5.862671
5.440887
5.424164
5.837494
6.46875
6.991638
7.105316
6.693817
5.92453
5.087219
4.448517
4.088196
3.821106
3.295898
2.191254
0.3613281
-2.113525
-4.983032
-7.978333
-10.86365
-13.41226
-15.3772
-16.42285
-16.16727
-14.32806
-10.87961
-6.196991
-0.9657593
4.024445
8.147232
11.18486
13.30609
14.93593
16.45634
18.01698
19.40764
20.25658
20.21964
19.2052
17.41711
15.20705
12.88821
10.57166
8.191391
5.56781
2.638458
-0.5015259
-3.624863
-6.507828
-9.062607
-11.35338
-13.54019
-15.71265
-17.8687
-19.96895
-21.99469
-24.06868
-26.26813
-28.55685
-30.60605
-31.83643
-31.64474
-29.67947
-26.04587
-21.28441
-16.11673
-11.08472
-6.444748
-2.076309
2.168488
6.277267
9.991852
12.90401
14.68707
15.24362
14.83829
13.85381
12.70915
11.66823
10.78743
9.983368
9.109177
8.084167
6.93425
5.81337
4.880402
4.212265
3.708038
3.050613
1.886337
-0.008865356
-2.59758
-5.605408
-8.686569
-11.6216
-14.40692
-17.1705
-19.93656
-22.40726
-23.98827
-24.00982
-22.11097
-18.43997
-13.52937
-8.086411
-2.643173
2.465599
7.078613
11.01901
14.00475
15.75616
16.16611
15.43954
14.01678
12.40511
10.91113
9.585762
8.302872
6.919983
5.488136
4.159904
3.108109
2.332047
1.679756
0.9043121
-0.1778107
-1.570473
-3.17765
-4.885445
-6.682343
-8.720398
-11.21174
-14.19736
-17.46779
-20.48839
-22.529
-23.0118
-21.65887
-18.59945
-14.28672
-9.283966
-4.100998
0.8150711
5.096336
8.405235
10.42756
11.04225
10.38573
8.826839
6.844524
4.83828
3.034149
1.484661
0.196125
-0.8658409
-1.741581
-2.576511
-3.646587
-5.220135
-7.385651
-9.939606
-12.41055
-14.30383
-15.42169
-15.9041
-16.25309
-17.02207
-18.55229
-20.83999
-23.56438
-26.26974
-28.42191
-29.60122
-29.39558
-27.54015
-23.93855
-18.73698
-12.37667
-5.50016
1.177979
7.039612
11.6684
14.89309
16.71479
17.26342
16.78681
15.59536
14.0246
12.42313
11.04239
10.01694
9.330963
8.846104
8.345158
7.645035
6.625103
5.303612
3.795712
2.288994
0.9441872
-0.176075
-1.110558
-2.043209
-3.14484
-4.621067
-6.612309
-9.176907
-12.22095
-15.42371
-18.23034
-19.96772
-20.03209
-18.12711
-14.42632
-9.525578
-4.260532
0.5527649
4.406857
7.179775
9.029949
10.26046
11.11529
11.66584
11.7691
11.20205
9.825626
7.74324
5.38628
3.31916
2.075829
1.845928
2.405361
3.161888
3.449291
2.811863
1.171619
-1.159706
-3.697041
-6.034397
-8.030212
-9.873325
-11.89625
-14.40686
-17.47904
-20.92334
-24.29153
-27.04017
-28.65804
-28.76481
-27.16383
-23.83473
-18.96083
-12.97687
-6.559921
-0.4668007
4.619286
8.334675
10.67295
11.89562
12.4187
12.56215
12.51898
12.33934
12.04776
11.64609
11.13846
10.49815
9.633255
8.465904
6.941269
5.136635
3.219727
1.445488
-0.00769043
-1.061623
-1.779762
-2.38945
-3.177795
-4.451241
-6.438858
-9.222145
-12.63468
-16.30338
-19.64531
-21.98949
-22.74928
-21.60622
-18.5992
-14.1272
-8.839684
-3.42514
1.540649
5.678932
8.808029
10.89659
11.98717
12.15958
11.52975
10.24317
8.450401
6.329697
4.064613
1.911491
0.1333694
-1.004173
-1.397232
-1.140739
-0.5553589
-0.01560974
0.2189865
0.07857513
-0.2870865
-0.6993408
-1.033905
-1.370506
-1.88237
-2.806793
-4.298477
-6.345016
-8.71521
-10.99771
-12.68962
-13.28929
-12.4155
-9.918396
-5.959991
-0.9552307
4.499207
9.820313
14.55376
18.41495
21.29626
23.21454
24.20013
24.30559
23.57333
22.11136
20.06963
17.73303
15.38503
13.29216
11.60204
10.23167
8.989014
7.632935
6.063095
4.305283
2.542267
0.9447327
-0.4364929
-1.697388
-3.092804
-4.893066
-7.309006
-10.37509
-13.95758
-17.72647
-21.19073
-23.78281
-24.95654
-24.35583
-21.89587
-17.85806
-12.79337
-7.34903
-2.112
2.516312
6.376022
9.458008
11.76137
13.27982
13.88367
13.44966
11.98967
9.749084
7.185181
4.826462
3.05571
1.954361
1.312302
0.7669373
0.009750366
-1.007721
-2.142548
-3.194168
-4.106003
-5.005386
-6.099274
-7.53746
-9.35791
-11.44664
-13.68402
-15.9451
-18.12135
-20.01474
-21.29602
-21.47858
-20.0269
-16.59322
-11.10963
-3.949615
4.157074
12.30928
19.70026
25.78915
30.39024
33.62312
35.69652
36.76146
36.82799
35.87807
34.01495
31.59547
29.11919
27.04268
25.54369
24.4558
23.38751
21.98906
20.13394
17.98279
15.77281
13.68446
11.65933
9.485794
6.919785
3.846573
0.2861786
-3.631424
-7.755386
-11.95839
-16.03894
-19.6543
-22.32304
-23.53572
-22.90932
-20.38312
-16.25978
-11.10439
-5.54567
-0.0693512
5.016876
9.608032
13.65131
17.099
19.82651
21.72238
22.7831
23.1662
23.14415
23.02467
22.96129
22.93861
22.7804
22.28526
21.26138
19.62782
17.3831
14.60983
11.45341
8.134964
4.922089
2.104141
-0.1140289
-1.653763
-2.606583
-3.209015
-3.792145
-4.64888
-5.869553
-7.258972
-8.353928
-8.568405
-7.469803
-5.048248
-1.74884
1.683304
4.450455
6.05307
6.340103
5.480728
3.741531
1.361694
-1.518143
-4.749207
-8.099945
-11.21887
-13.77255
-15.59177
-16.77103
-17.66692
-18.73402
-20.28745
-22.39909
-24.7473
-26.75978
-27.88106
-27.82256
-26.71068
-25.1035
-23.71216
-23.13852
-23.6499
-25.0831
-26.96671
-28.70995
-29.80392
-29.94008
-28.99077
-26.91034
-23.66216
-19.25679
-13.82915
-7.741272
-1.588745
3.945587
8.310501
11.2314
12.75562
13.12651
12.59731
11.35776
9.567429
7.445282
5.381836
3.853592
3.254395
3.739838
5.128479
6.965607
8.772186
10.19789
11.15428
11.79016
12.27971
12.70898
13.01721
13.00453
12.44791
11.30385
9.765533
8.308243
7.533615
7.952927
9.776947
12.86456
16.74055
20.76825
24.39326
27.23067
29.09177
29.96083
29.90874
29.01192
27.40816
25.30035
22.95055
20.65747
18.61639
16.86615
15.27847
13.61388
11.65085
9.278221
6.562187
3.769463
1.265205
-0.659584
-1.88163
-2.542427
-3.03299
-3.78199
-5.088112
-6.909325
-8.862823
-10.34014
-10.74001
-9.658394
-7.001183
-3.010323
1.883911
7.113503
12.07391
16.19167
18.96599
20.07273
19.42228
17.26534
14.06568
10.42392
6.82827
3.584328
0.7802353
-1.625061
-3.722446
-5.552307
-7.154903
-8.590786
-9.980331
-11.53093
-13.47592
-15.9082
-18.78888
-21.89537
-24.85797
-27.28392
-28.84096
-29.30859
-28.63295
-26.85137
-24.04853
-20.35494
-15.96575
-11.17528
-6.421669
-2.158819
1.241188
3.619867
5.039856
5.690243
5.762571
5.337953
4.479799
3.259699
1.842052
0.4490566
-0.7490664
-1.682088
-2.425557
-3.137849
-3.977718
-4.969311
-6.135401
-7.453765
-8.946489
-10.76016
-13.08221
-16.00873
-19.45043
-23.01799
-26.08392
-27.97029
-28.1859
-26.58513
-23.38969
-19.11824
-14.2933
-9.29152
-4.345563
0.394628
4.688182
8.149738
10.39338
11.16707
10.519
8.854165
6.777696
4.877786
3.519973
2.691742
2.126552
1.436034
0.3190746
-1.26909
-3.18112
-5.177567
-7.050243
-8.720254
-10.26946
-11.83949
-13.60958
-15.7449
-18.375
-21.57314
-25.22825
-29.0587
-32.49044
-34.8932
-35.69427
-34.59261
-31.64835
-27.22121
-21.83532
-16.00717
-10.13558
-4.435125
0.9879532
6.10251
10.86484
15.17292
18.86895
21.7087
23.47179
24.0307
23.4372
21.99618
20.18385
18.51346
17.37587
16.91961
16.99545
17.28453
17.40284
17.07642
16.16764
14.65674
12.63975
10.2227
7.57584
4.895924
2.385498
0.1872215
-1.609394
-3.085709
-4.44733
-5.920265
-7.71619
-9.908131
-12.44992
-15.21361
-18.09188
-21.01179
-23.92676
-26.73781
-29.1538
-30.74875
-31.03893
-29.64603
-26.50499
-21.91666
-16.45177
-10.74546
-5.308941
-0.3516426
4.129292
8.260635
12.10072
15.55733
18.41466
20.43464
21.50935
21.67394
21.11396
20.05119
18.72793
17.37091
16.19134
15.40141
15.14548
15.45603
16.13283
16.81647
17.05243
16.50073
15.02293
12.67085
9.644623
6.134537
2.281425
-1.790611
-5.932144
-9.939323
-13.56811
-16.69297
-19.33306
-21.63696
-23.83235
-26.14199
-28.73074
-31.68122
-34.97709
-38.43132
-41.62103
-43.94489
-44.69308
-43.29382
-39.51572
-33.54059
-25.85148
-17.09636
-7.871208
1.37558
10.33479
18.82426
26.70321
33.91637
40.42211
46.16574
51.04504
54.9291
57.71164
59.44187
60.31693
60.5691
60.43952
59.99477
59.19361
57.95284
56.25242
54.17486
51.85609
49.44189
46.97903
44.47275
41.90545
39.28931
36.64732
33.97496
31.20931
28.2059
24.84309
21.04675
16.91619
12.63345
8.44001
4.534904
0.9451752
-2.456825
-5.93251
-9.713089
-13.81908
-17.94341
-21.56915
-24.22256
-25.73505
-26.3262
-26.38306
-26.18536
-25.65741
-24.40895
-22.02949
-18.46796
-14.19967
-10.08176
-6.947781
-5.159752
-4.533401
-4.500999
-4.507633
-4.330875
-4.077179
-3.987892
-4.180759
-4.509249
-4.629208
-4.248892
-3.297514
-1.97674
-0.6607265
0.2848349
0.6640491
0.4610348
-0.2322168
-1.319584
-2.768811
-4.566522
-6.670928
-8.977407
-11.30791
-13.50761
-15.51319
-17.35836
-19.09535
-20.69815
-21.94841
-22.47469
-21.9073
-20.04689
-16.96601
-13.01362
-8.629786
-4.198338
0.1159592
4.323874
8.442404
12.38243
15.84149
18.38246
19.62056
19.41677
17.99817
15.91576
13.78503
12.06093
10.86011
9.937527
8.941608
7.611828
5.942696
4.126389
2.461517
1.097595
-0.02431107
-1.142105
-2.525902
-4.3312
-6.498932
-8.733917
-10.66345
-11.98153
-12.61347
-12.7757
-12.8833
-13.4864
-14.99409
-17.50639
-20.74951
-24.16238
-27.06483
-28.88695
-29.31026
-28.26062
-25.88745
-22.48362
-18.39323
-13.9311
-9.353493
-4.901566
-0.7814178
2.817406
5.779686
8.120071
10.00483
11.64676
13.23705
14.81213
16.23038
17.24031
17.62376
17.35141
16.63413
15.85982
15.44128
15.64536
16.48077
17.73623
19.05148
20.03732
20.39872
19.99181
18.80091
16.92099
14.52261
11.7729
8.894257
6.08493
3.443588
0.9148865
-1.679756
-4.586555
-7.96579
-11.7715
-15.7683
-19.5449
-22.64598
-24.66308
-25.32487
-24.49852
-22.22456
-18.74284
-14.43863
-9.845688
-5.476456
-1.797882
0.9495239
2.72226
3.688766
4.101395
4.220734
4.223816
4.147034
4.000107
3.765961
3.44252
3.079575
2.746338
2.51326
2.433701
2.563873
2.921677
3.488876
4.147934
4.684814
4.817474
4.326324
3.199646
1.674561
0.1662445
-0.953125
-1.519669
-1.645782
-1.67601
-1.969391
-2.808975
-4.284409
-6.356766
-8.922485
-11.82574
-14.84413
-17.65401
-19.79568
-20.74181
-20.1463
-17.95139
-14.48347
-10.37909
-6.311646
-2.748734
0.1946259
2.684982
5.016342
7.342545
9.582687
11.45157
12.66342
13.09111
12.83774
12.17758
11.40652
10.71831
10.13509
9.584656
8.992661
8.303329
7.517426
6.647491
5.660782
4.553635
3.305954
1.903397
0.3564148
-1.343399
-3.195053
-5.176926
-7.263016
-9.443237
-11.66344
-13.89212
-16.08247
-18.19096
-20.20505
-22.18242
-24.15919
-26.13376
-27.94365
-29.22504
-29.48607
-28.27718
-25.40096
-21.02678
-15.65099
-9.910675
-4.35495
0.6858826
5.098175
8.880814
12.03766
14.5134
16.20261
17.02504
16.9697
16.14458
14.75983
13.13103
11.58939
10.42154
9.764572
9.520172
9.467758
9.316711
8.906174
8.204056
7.351364
6.456192
5.535522
4.467209
3.060165
1.224289
-0.9706268
-3.291489
-5.517059
-7.520248
-9.40271
-11.41089
-13.83873
-16.82333
-20.2334
-23.65509
-26.3954
-27.76747
-27.27515
-24.84193
-20.83699
-15.97125
-10.98776
-6.437195
-2.566833
0.6848602
3.47374
5.866318
7.785736
9.064011
9.56485
9.295792
8.45018
7.293442
6.1017
5.081253
4.311554
3.814865
3.578461
3.571518
3.724686
3.922958
4.006653
3.847382
3.316284
2.359421
0.9803925
-0.7965698
-2.909302
-5.276413
-7.772476
-10.24043
-12.52127
-14.53462
-16.29054
-17.85812
-19.23442
-20.24976
-20.51527
-19.53096
-16.93956
-12.72296
-7.327621
-1.546158
3.750015
7.90947
10.67719
12.22032
12.94048
13.2148
13.27904
13.20367
12.94839
12.51372
11.981
11.49118
11.1348
10.89743
10.60966
10.08485
9.237991
8.11058
6.892258
5.805405
4.915939
4.166214
3.406906
2.459122
1.231949
-0.2734985
-2.04512
-4.063766
-6.32988
-8.849991
-11.56473
-14.30533
-16.81793
-18.78381
-19.86496
-19.82109
-18.52644
-16.02684
-12.54448
-8.340637
-3.712738
1.027374
5.560562
9.487488
12.36742
13.92438
14.15646
13.3904
12.20197
11.13387
10.47348
10.20609
10.10857
9.930176
9.605774
9.207153
8.836029
8.519089
8.136169
7.562454
6.743301
5.730011
4.612152
3.422668
2.139389
0.6747284
-1.004395
-2.90065
-5.031113
-7.42305
-10.13533
-13.2056
-16.52328
-19.8559
-22.81305
-24.93834
-25.8696
-25.39679
-23.54085
-20.45123
-16.45006
-11.85339
-6.952637
-1.994003
2.807114
7.158401
10.75102
13.24939
14.44299
14.36293
13.28879
11.68781
10.03929
8.712814
7.825363
7.311768
7.012985
6.756317
6.441376
6.035995
5.487381
4.718735
3.670639
2.244064
0.4408722
-1.696747
-4.077057
-6.574936
-9.017899
-11.26338
-13.26566
-15.03831
-16.74095
-18.56781
-20.66405
-23.02458
-25.45557
-27.59773
-29.0195
-29.32916
-28.27707
-25.82475
-22.12378
-17.50163
-12.36604
-7.147217
-2.275711
1.897842
5.134277
7.315262
8.490631
8.881088
8.819458
8.618469
8.492615
8.447876
8.32431
7.96344
7.322647
6.532074
5.798782
5.267868
4.86525
4.374268
3.556122
2.331337
0.837822
-0.6621246
-1.910622
-2.847885
-3.637772
-4.602203
-6.066788
-8.163872
-10.80869
-13.72437
-16.5548
-19.00918
-20.93164
-22.23521
-22.78547
-22.3458
-20.62683
-17.46117
-12.93468
-7.469376
-1.724991
3.660858
8.291977
12.10989
15.28004
18.00666
20.32561
22.12632
23.21426
23.48738
22.98683
21.9226
20.57352
19.15844
17.84204
16.68306
15.68122
14.71528
13.61119
12.18412
10.35728
8.17009
5.850773
3.723972
2.046841
0.9183502
0.1882629
-0.4106369
-1.190554
-2.339537
-3.951101
-6.016556
-8.523483
-11.45844
-14.70172
-17.97032
-20.73362
-22.38981
-22.42626
-20.62745
-17.18999
-12.61181
-7.513174
-2.404237
2.421246
6.831784
10.76135
14.14809
16.93867
19.10463
20.70798
21.83782
22.60619
23.03334
23.03037
22.50013
21.37508
19.76223
17.87125
15.988
14.33945
13.02729
11.97798
10.99121
9.79937
8.1134
5.790213
2.853865
-0.4627171
-3.805019
-6.827198
-9.290625
-11.21428
-12.79596
-14.38169
-16.32887
-18.86884
-21.97819
-25.34645
-28.41823
-30.52188
-31.11586
-29.97008
-27.23516
-23.38664
-18.96412
-14.4024
-9.908585
-5.571468
-1.438713
2.341324
5.522182
7.896698
9.380424
10.1083
10.38226
10.51803
10.6806
10.891
11.05038
11.01762
10.75422
10.30888
9.824066
9.406624
9.101349
8.839333
8.472374
7.844246
6.817215
5.361916
3.490265
1.28569
-1.062531
-3.366982
-5.439819
-7.209419
-8.778984
-10.42724
-12.4463
-15.038
-18.12705
-21.35874
-24.20779
-26.04719
-26.37208
-24.90675
-21.65149
-16.88965
-11.17444
-5.137222
0.7016602
5.987839
10.62488
14.65497
18.14722
21.09401
23.44963
25.14958
26.1449
26.47438
26.20409
25.43755
24.30824
23.00867
21.78577
20.88361
20.41304
20.255
20.07886
19.47704
18.1875
16.21323
13.81647
11.35742
9.067215
6.926544
4.720078
2.135635
-0.984787
-4.498611
-8.023193
-11.17741
-13.76469
-15.93079
-18.03589
-20.38812
-22.96227
-25.28596
-26.5847
-26.08014
-23.3515
-18.47462
-11.93311
-4.405701
3.472229
11.25632
18.6181
25.2446
30.7683
34.80307
37.03854
37.36678
36.02437
33.53432
30.60652
27.9183
25.91583
24.68375
24.0639
23.76439
23.54192
23.32764
23.19649
23.24475
23.45872
23.68156
23.64644
23.10252
21.95215
20.27332
18.24092
16.03268
13.71136
11.24997
8.59848
5.761871
2.764114
-0.3471832
-3.586517
-7.010529
-10.62019
-14.26967
-17.54836
-19.9279
-20.91101
-20.28145
-18.19322
-15.08789
-11.50209
-7.811142
-4.19931
-0.6889954
2.677277
5.751465
8.316986
10.21593
11.44479
12.23788
12.99081
14.03671
15.57492
17.53998
19.61194
21.39232
22.51582
22.80202
22.25723
21.1003
19.56776
17.8947
16.19864
14.47699
12.66039
10.67775
8.514999
6.237427
3.942062
1.682076
-0.5213013
-2.739632
-5.108879
-7.783249
-10.95109
-14.73611
-19.12703
-23.88046
-28.43755
-32.0527
-33.99459
-33.91491
-32.00633
-29.09005
-26.29501
-24.63383
-24.61316
-26.04114
-28.20258
-30.14268
-31.08189
-30.58732
-28.62749
-25.43396
-21.35835
-16.78455
-12.11695
-7.812286
-4.336792
-2.086227
-1.209213
-1.558762
-2.679565
-3.986832
-4.965302
-5.329086
-5.073982
-4.398834
-3.572014
-2.804237
-2.18615
-1.730057
-1.438118
-1.347473
-1.494255
-1.829605
-2.100632
-1.907043
-0.7796478
1.657349
5.470764
10.39616
15.88978
21.35242
26.30921
30.49006
33.82106
36.29777
37.91045
38.61292
38.43902
37.52066
36.10516
34.48343
32.83472
31.13413
29.2076
26.79393
23.72138
20.0289
15.93366
11.7682
7.835503
4.330833
1.2897
-1.347538
-3.725536
-5.991413
-8.286507
-10.7382
-13.4572
-16.51562
-19.875
-23.38528
-26.76786
-29.66129
-31.7128
-32.64352
-32.30278
-30.66889
-27.82826
-23.95518
-19.27989
-14.09041
-8.758959
-3.674225
0.8419189
4.551977
7.368727
9.266075
10.26273
10.42392
9.871556
8.825525
7.607054
6.564196
5.934632
5.799637
6.030797
6.388083
6.57821
6.384133
5.693271
4.479237
2.817326
0.8025479
-1.414817
-3.668554
-5.827497
-7.805165
-9.605516
-11.33793
-13.20593
-15.41731
-18.14928
-21.36613
-24.76829
-27.80868
-29.82726
-30.24639
-28.78105
-25.50968
-20.80997
-15.17914
-9.086983
-2.909191
3.060547
8.539511
13.2255
16.89057
19.46672
21.09637
22.036
22.5582
22.76875
22.61349
21.99667
20.87457
19.42953
17.988
16.83853
16.08818
15.61264
15.13876
14.43029
13.44279
12.28666
11.11796
9.952778
8.686653
7.100861
5.079628
2.676315
0.1811562
-2.040237
-3.746101
-4.997517
-6.155094
-7.75222
-10.2612
-13.8521
-18.31353
-23.04534
-27.24292
-30.13685
-31.21996
-30.41055
-28.05551
-24.76887
-21.21862
-17.86846
-14.82799
-11.95831
-9.055382
-6.04985
-3.163109
-0.8129044
0.5583191
0.7518311
-0.07402039
-1.425255
-2.735992
-3.592583
-3.886543
-3.789742
-3.522964
-3.20417
-2.764809
-2.069527
-1.060295
0.1103973
1.112099
1.584061
1.342331
0.5142212
-0.5579529
-1.486755
-2.067032
-2.391983
-2.771988
-3.567589
-5.012848
-7.132668
-9.744209
-12.59737
-15.46457
-18.16476
-20.49387
-22.19758
-22.9399
-22.41898
-20.48711
-17.2087
-12.88242
-7.915024
-2.680984
2.534035
7.537132
12.25459
16.58343
20.46447
23.81597
26.54294
28.5172
29.59068
29.61101
28.56866
26.73965
24.61678
22.80656
21.70631
21.38744
21.53062
21.62787
21.21725
20.11578
18.41578
16.36984
14.20116
12.01486
9.815964
7.641632
5.559868
3.645523
1.873589
0.1132736
-1.825592
-4.109947
-6.77906
-9.813805
-13.13331
-16.74241
-20.65436
-24.77238
-28.8107
-32.26042
-34.50745
-35.05592
-33.69747
-30.57359
-26.17692
-21.11185
-15.97401
-11.15102
-6.777374
-2.741272
1.130333
4.934753
8.589935
11.77612
14.12565
15.38891
15.55296
14.895
13.88139
12.99554
12.57431
12.70208
13.28464
14.09733
14.88404
15.44806
15.6657
15.51594
14.99132
14.11282
12.86401
11.24745
9.280907
7.056053
4.739822
2.539063
0.6151581
-0.9805984
-2.332497
-3.600754
-4.978607
-6.597
-8.486633
-10.60464
-12.85638
-15.09256
-17.10495
-18.57446
-19.13647
-18.487
-16.49278
-13.26579
-9.148514
-4.659485
-0.2557983
3.79071
7.37146
10.52328
13.22394
15.40652
16.96028
17.80382
17.97115
17.5961
16.88138
15.97485
14.95049
13.78456
12.4863
11.13048
9.850754
8.823975
8.166382
7.810196
7.505524
6.952972
5.88385
4.221725
2.089218
-0.2412872
-2.451248
-4.289963
-5.678497
-6.692398
-7.495941
-8.370789
-9.543976
-11.18991
-13.40634
-16.13277
-19.17261
-22.21194
-24.83627
-26.56444
-26.96033
-25.7348
-22.88049
-18.70129
-13.71841
-8.552399
-3.7285
0.4558411
3.988174
6.986099
9.541656
11.59106
12.88448
13.16414
12.36282
10.75642
8.900009
7.446793
6.796051
6.945892
7.529724
8.048737
8.138931
7.743546
7.043396
6.236206
5.350754
4.194351
2.55336
0.3693237
-2.111893
-4.498322
-6.434952
-7.806778
-8.787613
-9.722733
-10.93869
-12.61482
-14.76114
-17.35005
-20.30118
-23.464
-26.49362
-28.7803
-29.5816
-28.29527
-24.8036
-19.52116
-13.30951
-7.095184
-1.57579
2.965073
6.56134
9.416656
11.68007
13.39011
14.50813
15.02388
15.02548
14.64467
14.03645
13.27339
12.39749
11.35129
10.08914
8.57901
6.852097
5.008667
3.196838
1.597397
0.3330688
-0.5701904
-1.262299
-2.018753
-3.184128
-5.002487
-7.506088
-10.40118
-13.17828
-15.23807
-16.10971
-15.64838
-14.11263
-12.12857
-10.51051
-10.02835
-11.12007
-13.72974
-17.30191
-20.92903
-23.60477
-24.535
-23.31351
-19.91772
-14.64618
-7.961807
-0.4295807
7.278397
14.39653
20.13904
23.84216
25.18683
24.34505
22.01422
19.19244
16.9324
16.02483
16.76184
18.8708
21.59439
23.91159
24.86774
23.88272
20.94595
16.67278
12.0625
8.226517
5.973587
5.51268
6.393799
7.696045
8.392136
7.784439
5.736679
2.63443
-0.8622131
-4.162308
-6.953522
-9.267929
-11.33281
-13.41188
-15.64969
-18.0264
-20.37703
-22.45169
-23.95929
-24.58441
-24.07083
-22.28394
-19.32504
-15.47211
-11.10916
-6.56839
-2.045685
2.410797
6.7659
10.90729
14.55124
17.3465
19.05682
19.68552
19.53922
19.10727
18.79266
18.7305
18.74231
18.4534
17.58148
16.15118
14.47165
12.98044
11.9718
11.42221
10.9917
10.19254
8.556183
5.840698
2.067993
-2.48642
-7.344025
-11.90088
-15.62021
-18.14157
-19.39377
-19.6232
-19.29718
-18.90204
-18.75775
-18.89929
-19.10077
-19.06866
-18.58691
-17.63217
-16.32346
-14.83517
-13.27658
-11.57101
-9.466461
-6.675232
-3.121796
0.8911743
4.691345
7.411407
8.381256
7.367188
4.693268
1.084564
-2.625916
-5.732544
-7.764343
-8.454559
-7.723572
-5.597992
-2.331207
1.506714
5.038208
7.27536
7.463257
5.402496
1.588684
-2.933807
-7.009766
-9.800537
-11.16983
-11.57428
-11.78824
-12.39105
-13.5448
-14.98914
-16.29022
-17.1405
-17.51291
-17.55234
-17.3064
-16.59717
-15.0448
-12.33704
-8.489166
-3.949707
0.5621643
4.384094
7.208588
9.211365
10.87067
12.68964
14.82199
16.9935
18.58258
18.95773
17.85599
15.55164
12.72266
10.17862
8.405304
7.458954
6.99588
6.564056
5.808502
4.644592
3.128723
1.299286
-0.8569336
-3.396423
-6.279968
-9.295654
-12.14178
-14.54764
-16.42508
-17.84177
-19.04779
-20.29962
-21.84549
-23.92029
-26.7254
-30.35623
-34.63388
-38.9574
-42.3909
-43.99182
-43.04608
-39.48297
-33.80365
-26.86023
-19.54536
-12.42392
-5.722183
0.5886078
6.488342
11.86697
16.43465
19.91516
22.25557
23.61453
24.35394
24.7971
25.12227
25.27925
25.18974
24.84691
24.38048
24.11748
24.3183
25.11755
26.35837
27.70493
28.74095
29.16737
28.90082
28.05913
26.97652
25.95087
25.24739
24.85509
24.53796
23.84848
22.26825
19.41632
15.23489
10.08768
4.652328
-0.2226715
-3.826523
-5.768921
-6.074463
-5.125885
-3.45697
-1.519928
0.5007019
2.615891
4.975204
7.659393
10.52277
13.27579
15.4911
16.87257
17.32045
16.98375
16.08743
14.82124
13.22041
11.21323
8.795609
6.120804
3.502029
1.267029
-0.4029694
-1.625275
-2.749039
-4.180893
-6.151596
-8.634689
-11.34366
-13.91199
-16.10564
-17.89583
-19.47809
-21.07408
-22.8078
-24.60696
-26.21944
-27.33681
-27.63971
-26.87123
-24.87262
-21.58405
-17.07097
-11.60539
-5.687088
0.03826904
4.885498
8.41423
10.52716
11.50809
11.81277
11.83514
11.70557
11.31494
10.41913
8.905975
6.906525
4.766998
2.91272
1.589691
0.7805786
0.2067261
-0.4598999
-1.403748
-2.61499
-3.961761
-5.353485
-6.859161
-8.617767
-10.7735
-13.33194
-16.19052
-19.25992
-22.54883
-26.09149
-29.76544
-33.1673
-35.58925
-36.26607
-34.72459
-31.01895
-25.70374
-19.62465
-13.56818
-8.028366
-3.198227
0.8489532
4.030624
6.194138
7.223175
7.155487
6.243881
4.910889
3.528397
2.328598
1.360748
0.5504303
-0.1813507
-0.8421478
-1.383896
-1.764862
-2.018387
-2.306015
-2.78006
-3.546738
-4.594299
-5.888916
-7.414307
-9.301819
-11.76826
-14.94354
-18.73024
-22.65024
-25.94705
-27.81294
-27.74046
-25.68315
-22.02354
-17.3855
-12.33322
-7.221481
-2.184402
2.683456
7.188766
11.05112
13.96259
15.79396
16.6496
16.81421
16.58481
16.13863
15.49234
14.5605
13.31108
11.77699
10.08301
8.396576
6.874969
5.581894
4.536575
3.697144
2.950623
2.165253
1.149612
-0.3158264
-2.46524
-5.423309
-9.154007
-13.34827
-17.40569
-20.59104
-22.24549
-21.98846
-19.81467
-16.09282
-11.33041
-6.017448
-0.4845047
5.085281
10.54296
15.61479
19.90123
22.95294
24.45528
24.38907
23.06702
21.00158
18.71536
16.57876
14.79679
13.423
12.45664
11.82279
11.34995
10.73806
9.610817
7.680344
4.913353
1.599152
-1.793175
-4.877605
-7.564743
-10.118
-12.95977
-16.35254
-20.19443
-24.01518
-27.10558
-28.82942
-28.758
-26.75338
-22.90109
-17.40849
-10.59675
-2.87175
5.267941
13.26353
20.56281
26.73789
31.49726
34.62861
36.06041
35.81785
34.14883
31.50812
28.50607
25.75233
23.62197
22.16125
21.01055
19.70837
17.84491
15.32081
12.30867
9.150059
6.148555
3.434122
0.9647295
-1.456854
-3.982624
-6.726047
-9.763189
-13.17073
-16.99883
-21.143
-25.29722
-28.86782
-31.14762
-31.51787
-29.7316
-25.96466
-20.73412
-14.6522
-8.17977
-1.563082
5.079418
11.58098
17.56907
22.4735
25.71812
27.07011
26.70529
25.2568
23.4642
21.92825
20.90989
20.31145
19.87815
19.37045
18.70687
17.84992
16.78741
15.3977
13.52002
11.10675
8.275814
5.327168
2.556927
0.124382
-2.068623
-4.31881
-7.000427
-10.42091
-14.67611
-19.58531
-24.68788
-29.23925
-32.36131
-33.27617
-31.53666
-27.18943
-20.79233
-13.22006
-5.375061
2.076767
8.800735
14.7229
19.8327
24.07034
27.29905
29.36863
30.25297
30.0548
29.03757
27.52644
25.87263
24.38434
23.27469
22.67357
22.5353
22.64878
22.71752
22.39977
21.44847
19.77589
17.44722
14.6804
11.71436
8.756596
5.862713
2.980667
-0.1098633
-3.645355
-7.757813
-12.39125
-17.20185
-21.68298
-25.23915
-27.34521
-27.66656
-26.14648
-22.97227
-18.56588
-13.42464
-8.013889
-2.68322
2.323353
6.860275
10.81274
13.99638
16.26973
17.54073
17.78547
17.12252
15.73367
13.85138
11.77679
9.810001
8.200624
7.065151
6.386356
5.929241
5.458113
4.78583
3.897385
2.886715
1.848433
0.8086586
-0.3545589
-1.789164
-3.642782
-5.959324
-8.684322
-11.62952
-14.54961
-17.12779
-18.99363
-19.78014
-19.24134
-17.29949
-14.07598
-9.891466
-5.144428
-0.2465405
4.425974
8.5825
11.97767
14.41277
15.73007
15.8833
14.97109
13.24885
11.19124
9.295312
7.987746
7.442294
7.532891
7.854358
7.924905
7.322152
5.820302
3.514105
0.7179346
-2.120836
-4.583815
-6.388337
-7.459788
-7.895972
-7.955737
-7.99828
-8.419269
-9.590591
-11.75339
-14.86191
-18.5605
-22.19331
-24.89535
-25.86885
-24.66975
-21.32819
-16.3505
-10.50959
-4.574093
0.8600464
5.458313
9.098181
11.76137
13.48242
14.41442
14.74595
14.70535
14.47338
14.06404
13.36988
12.26727
10.6953
8.740435
6.634174
4.599976
2.784439
1.199131
-0.2599831
-1.687878
-3.096497
-4.530014
-6.060463
-7.801117
-9.91571
-12.44209
-15.24483
-18.09727
-20.78511
-23.26447
-25.62513
-27.9617
-30.1783
-31.87498
-32.43204
-31.22937
-27.99981
-22.94612
-16.69657
-10.02348
-3.541885
2.497486
8.078701
13.28176
18.03362
22.0242
24.83432
26.12361
25.86999
24.42116
22.40125
20.46704
19.10617
18.4761
18.43873
18.70492
18.98418
19.06661
18.82294
18.13581
16.91166
15.07536
12.69873
9.993748
7.250237
4.66082
2.217537
-0.3323402
-3.31739
-6.910049
-10.96779
-14.98772
-18.3184
-20.30239
-20.57618
-19.03819
-15.87966
-11.47249
-6.239189
-0.6939087
4.701328
9.530342
13.51284
16.51479
18.58071
19.82232
20.40948
20.50341
20.234
19.71178
18.99155
18.07233
16.90254
15.41716
13.57526
11.4016
9.010284
6.562279
4.239037
2.174255
0.4330521
-1.044907
-2.420631
-3.904121
-5.66024
-7.73262
-10.06327
-12.54626
-15.1295
-17.85721
-20.79257
-23.97937
-27.35934
-30.73505
-33.81379
-36.29707
-37.8994
-38.41812
-37.64467
-35.43265
-31.74086
-26.71969
-20.69348
-14.16434
-7.664536
-1.60334
3.752846
8.267647
11.84443
14.40715
15.88345
16.32541
15.93781
15.04966
14.07021
13.29575
12.89252
12.77606
12.7667
12.70708
12.56889
12.42343
12.35461
12.38749
12.3583
12.03737
11.19541
9.770866
7.92392
5.926186
4.057831
2.458839
1.14328
-0.05476379
-1.289688
-2.633263
-4.024811
-5.269882
-6.132965
-6.434837
-6.100426
-5.101006
-3.489037
-1.292587
1.47039
4.728836
8.331963
12.00383
15.45798
18.45755
20.93727
22.88166
24.34319
25.29362
25.61929
25.20837
24.05425
22.32253
20.22469
17.97432
15.63741
13.26654
10.97485
8.977661
7.548981
6.816116
6.600021
6.453629
5.828476
4.322205
1.903564
-1.110855
-4.255875
-7.153473
-9.670532
-11.94801
-14.22191
-16.62883
-19.15634
-21.61101
-23.75975
-25.44125
-26.52504
-26.88864
-26.33951
-24.64168
-21.60684
-17.3343
-12.21812
-6.863708
-1.868774
2.38736
5.83255
8.552338
10.57771
11.76097
11.83875
10.70045
8.591553
6.107269
3.97287
2.694351
2.330246
2.477722
2.527878
1.954559
0.6163177
-1.246063
-3.231461
-4.96701
-6.305557
-7.329407
-8.15921
-8.841934
-9.287247
-9.397751
-9.202805
-8.955765
-9.072174
-9.925308
-11.6727
-14.132
-16.80908
-19.04051
-20.22195
-19.90886
-17.88794
-14.25311
-9.362961
-3.834335
1.589615
6.242523
9.670837
11.76187
12.67279
12.74048
12.31233
11.63609
10.83719
9.934692
8.900772
7.709198
6.390335
5.05545
3.87294
3.014206
2.633057
2.805679
3.509552
4.587341
5.740768
6.56044
6.626648
5.653412
3.61557
0.7796326
-2.383667
-5.423065
-8.020599
-10.10233
-11.78769
-13.20215
-14.41306
-15.36578
-16.04099
-16.4111
-16.51422
-16.22958
-15.34647
-13.59192
-10.75497
-6.927368
-2.493042
1.937164
5.770874
8.592651
10.28033
10.92792
10.71475
9.841339
8.493805
6.863159
5.175903
3.665985
2.451721
1.49884
0.677887
-0.1775208
-1.132843
-2.18988
-3.306824
-4.446594
-5.610992
-6.802185
-7.940613
-8.865601
-9.436737
-9.60733
-9.603271
-9.775085
-10.4964
-11.95627
-14.04315
-16.40659
-18.58524
-20.19678
-20.93158
-20.58563
-19.06403
-16.39749
-12.83676
-8.828674
-4.916046
-1.574677
0.8807068
2.488068
3.482849
4.182068
4.790131
5.284637
5.519348
5.294617
4.50531
3.213684
1.673828
0.2321167
-0.8108215
-1.33075
-1.470001
-1.54184
-1.840881
-2.493896
-3.407166
-4.336212
-5.094757
-5.707397
-6.375122
-7.373962
-8.811279
-10.54639
-12.27661
-13.73083
-14.81445
-15.69473
-16.60782
-17.61179
-18.51495
-18.82935
-18.01862
-15.7236
-11.98401
-7.226135
-2.171021
2.45108
6.143921
8.741974
10.37863
11.34848
11.8978
12.11136
11.98059
11.45926
10.65808
9.851807
9.37326
9.439941
10.0123
10.81038
11.44406
11.59972
11.15549
10.16954
8.793564
7.205139
5.55632
3.99321
2.610764
1.425446
0.3356018
-0.9044952
-2.56105
-4.860977
-7.899521
-11.54987
-15.46686
-19.15222
-22.01404
-23.47931
-23.16223
-20.95914
-17.11305
-12.1604
-6.804428
-1.710617
2.621078
5.931824
8.169998
9.400146
9.791595
9.566513
9.007431
8.381744
7.915634
7.668381
7.581085
7.523193
7.385757
7.149734
6.844437
6.501282
6.125397
5.62886
4.919556
3.913513
2.561569
0.8563538
-1.172623
-3.505875
-6.114532
-8.938232
-11.86836
-14.81689
-17.76764
-20.73944
-23.71265
-26.49709
-28.63907
-29.5049
-28.45532
-25.21623
-20.01665
-13.59084
-6.945465
-1.026367
3.580978
6.694168
8.477188
9.284286
9.554504
9.792969
10.62906
12.6796
16.36758
21.61629
27.74593
33.6049
37.91747
39.70563
38.5856
34.80159
28.98409
21.84438
14.00754
5.902618
-2.135971
-9.738083
-16.48364
-22.02858
-26.23752
-29.38208
-32.02744
-34.81725
-38.1684
-41.99377
-45.67461
-48.28999
-48.98082
-47.28588
-43.33053
-37.73101
-31.33637
-24.96814
-19.17917
-14.23764
-10.21081
-7.154243
-5.176315
-4.48214
-5.209518
-7.259636
-10.22674
-13.45905
-16.25872
-18.13892
-18.97251
-18.92871
-18.4309
-17.91757
-17.73983
-18.10662
-19.04821
-20.41559
-21.96735
-23.44288
-24.6514
-25.59603
-26.49902
-27.75206
-29.82825
-33.06971
-37.45546
-42.48241
-47.17631
-50.29544
-50.7154
-47.85012
-41.88129
-33.74922
-24.76024
-16.10487
-8.508484
-2.105194
3.290215
7.888466
11.70207
14.61257
16.43024
17.13522
16.87411
15.87259
14.39154
12.70399
11.02536
9.571228
8.494736
7.809158
7.38649
7.045532
6.643356
6.176437
5.752075
5.419861
5.03627
4.259308
2.669342
0.01425171
-3.606171
-7.725189
-11.65799
-14.6731
-16.18774
-15.79047
-13.31146
-8.792633
-2.538147
4.945496
12.96957
20.87289
28.07574
34.18991
39.03226
42.49051
44.50061
45.08118
44.32523
42.4975
40.01636
37.37637
34.99155
33.10272
31.68015
30.49396
29.25388
27.71652
25.77179
23.46439
20.90128
18.20685
15.42627
12.56577
9.637787
6.701141
3.760498
0.7415466
-2.584076
-6.50116
-11.11914
-16.17102
-20.89429
-24.16571
-24.86212
-22.25354
-16.28802
-7.671753
2.348328
12.40601
21.41888
28.82428
34.58118
38.95807
42.23328
44.51538
45.7265
45.742
44.63092
42.69177
40.39447
38.21002
36.39362
34.93268
33.62274
32.26154
30.76801
29.28479
28.02203
27.15247
26.62006
26.11115
25.15564
23.32544
20.47052
16.80743
12.82837
9.047852
5.749634
2.850708
0.006896973
-3.219727
-7.072327
-11.51984
-16.27692
-20.89447
-24.87732
-27.70764
-28.83447
-27.76813
-24.18567
-18.10193
-10.00122
-0.7450562
8.649841
17.28503
24.61487
30.56012
35.33624
39.23419
42.38745
44.66852
45.81189
45.63629
44.21381
41.9339
39.32758
36.81659
34.5661
32.49359
30.43365
28.30389
26.21954
24.37451
22.90076
21.70685
20.52673
19.1095
17.32233
15.20105
12.86371
10.37067
7.684265
4.769653
1.647217
-1.500977
-4.391174
-6.82428
-8.779236
-10.43536
-12.04926
-13.87177
-16.06329
-18.73077
-21.91327
-25.47803
-29.08563
-32.05182
-33.50256
-32.63623
-29.07715
-23.06281
-15.4303
-7.264404
0.46875
7.153564
12.58612
16.82147
20.0
22.20172
23.48187
23.88904
23.56287
22.72919
21.61273
20.40656
19.1712
17.88885
16.49408
14.97363
13.39801
11.90948
10.68152
9.831421
9.368042
9.1521
8.934448
8.457031
7.526489
6.072083
4.161194
1.955078
-0.3479614
-2.547546
-4.547729
-6.368591
-8.121094
-9.867554
-11.66498
-13.53046
-15.48254
-17.65179
-20.20581
-23.26282
-26.71851
-30.15094
-32.81555
-33.90588
-32.81268
-29.36694
-23.89813
-17.08636
-9.691284
-2.390137
4.333618
10.20361
15.03625
18.74091
21.31177
22.81213
23.36993
23.12946
22.24475
20.85962
19.17084
17.43665
15.91187
14.80981
14.14874
13.81189
13.59125
13.29364
12.83826
12.23004
11.49811
10.63989
9.645386
8.453308
7.056152
5.515747
3.921326
2.350708
0.8255615
-0.722229
-2.352783
-4.078125
-5.869873
-7.641876
-9.286285
-10.75876
-12.09213
-13.4263
-14.99146
-17.04501
-19.6944
-22.85168
-26.11182
-28.82193
-30.26462
-29.83603
-27.27466
-22.74213
-16.78839
-10.17889
-3.696716
2.081177
6.875305
10.70966
13.80682
16.38257
18.52975
20.19754
21.25165
21.56711
21.18628
20.29764
19.19794
18.16461
17.37857
16.85117
16.52496
16.31461
16.14627
15.98837
15.83386
15.62366
15.27298
14.59589
13.35693
11.36755
8.602356
5.292542
1.899536
-1.11084
-3.456299
-5.156952
-6.494507
-7.83847
-9.485046
-11.48572
-13.68158
-15.78809
-17.60147
-19.10898
-20.48944
-22.0578
-24.04657
-26.47595
-29.03387
-31.11038
-31.95197
-30.95941
-27.94342
-23.15805
-17.22571
-10.81674
-4.404755
1.775574
7.653961
13.11261
17.85495
21.48691
23.69073
24.40662
23.94998
22.85846
21.67847
20.77145
20.21857
19.90338
19.63046
19.30353
18.88892
18.41498
17.83374
17.04456
15.91956
14.38614
12.52396
10.52307
8.635895
7.072449
5.927612
5.16098
4.656219
4.252472
3.811218
3.252136
2.538666
1.673615
0.6519775
-0.5427551
-1.886566
-3.343262
-4.894501
-6.531158
-8.305237
-10.26694
-12.35301
-14.30191
-15.68021
-15.89874
-14.47653
-11.24184
-6.371994
-0.3783417
6.079895
12.42987
18.2917
23.43701
27.72668
31.02026
33.11824
33.95387
33.57211
32.21515
30.21512
27.84642
25.2715
22.57552
19.86362
17.31927
15.2347
13.77936
12.91962
12.37181
11.65405
10.41304
8.533951
6.156105
3.529839
0.8592529
-1.902184
-4.901337
-8.258553
-11.9751
-15.84541
-19.63072
-23.1507
-26.37733
-29.33242
-32.05354
-34.49461
-36.61183
-38.4648
-40.19488
-42.07315
-44.26444
-46.68119
-48.88939
-50.26974
-50.19545
-48.32937
-44.77132
-39.97244
-34.57072
-29.14986
-24.0663
-19.46451
-15.37579
-11.84531
-8.966669
-6.91612
-5.782183
-5.559114
-6.046511
-6.924515
-7.885945
-8.719143
-9.346152
-9.785421
-10.12085
-10.35603
-10.45587
-10.2585
-9.60608
-8.453754
-6.879943
-5.211069
-3.903519
-3.427109
-4.047102
-5.755787
-8.241201
-11.02235
-13.6101
-15.67233
-17.10339
-18.00332
-18.62154
-19.25606
-20.15748
-21.45576
-23.10189
-24.87344
-26.39412
-27.25197
-27.07098
-25.57213
-22.59907
-18.18545
-12.5752
-6.276045
0.01836586
5.646395
10.14637
13.46515
15.89699
17.86116
19.64438
21.22167
22.27771
22.42528
21.52331
19.76905
17.68434
15.86784
14.71345
14.26
14.24527
14.29543
14.15333
13.83969
13.47507
13.17382
12.8557
12.24063
11.01683
8.996469
6.275249
3.166283
0.09657669
-2.618561
-4.810287
-6.514978
-7.881813
-9.064104
-10.24657
-11.57705
-13.17364
-15.04062
-17.01853
-18.73778
-19.70755
-19.44069
-17.5694
-14.0341
-9.064209
-3.197306
2.893953
8.53438
13.26386
16.89912
19.48136
21.22635
22.28783
22.75461
22.65098
21.99658
20.92658
19.69048
18.52621
17.53915
16.68576
15.78016
14.69057
13.4226
12.11049
10.99221
10.23488
9.862785
9.753616
9.710072
9.512718
9.030628
8.140839
6.784462
4.975883
2.754555
0.2628021
-2.362579
-4.961281
-7.442127
-9.746315
-11.88803
-13.92478
-15.93508
-17.98681
-20.06456
-22.00076
-23.46893
-24.09072
-23.51512
-21.65634
-18.72327
-15.15987
-11.50081
-8.103485
-5.099098
-2.436882
-0.04611206
2.022095
3.568748
4.347305
4.238701
3.301811
1.862968
0.3147736
-0.9677811
-1.745682
-1.982574
-1.783798
-1.392441
-1.097412
-1.178566
-1.758934
-2.810158
-4.08197
-5.270126
-6.136543
-6.66539
-7.061768
-7.66954
-8.846825
-10.79451
-13.55158
-16.85896
-20.25546
-23.12598
-24.80679
-24.78368
-22.83344
-19.1504
-14.29004
-9.017143
-4.033882
0.2032776
3.558517
6.117653
8.061584
9.512703
10.48032
10.90703
10.74482
10.02171
8.866432
7.508873
6.207176
5.150063
4.379478
3.773872
3.106079
2.154465
0.8484268
-0.7327271
-2.388184
-3.905029
-5.194893
-6.329323
-7.52121
-8.965149
-10.78238
-12.97649
-15.47505
-18.21098
-21.08619
-23.90148
-26.27357
-27.67712
-27.56312
-25.62668
-21.95219
-17.00723
-11.44529
-5.876671
-0.6632538
4.041809
8.173805
11.58598
14.0544
15.36376
15.48006
14.63848
13.25343
11.76083
10.45587
9.472328
8.776764
8.281258
7.902779
7.542385
7.083328
6.401466
5.426693
4.168861
2.773808
1.393421
0.1234741
-1.07164
-2.329903
-3.874687
-5.897709
-8.448795
-11.42563
-14.54172
-17.3852
-19.47729
-20.30627
-19.49106
-16.84799
-12.56868
-7.145947
-1.350258
4.053469
8.473852
11.65757
13.68852
14.83877
15.41263
15.61895
15.57171
15.31872
14.9178
14.43636
13.94568
13.4354
12.77755
11.83422
10.48121
8.770393
6.906149
5.202552
3.929772
3.149336
2.698283
2.250206
1.500032
0.2627306
-1.47424
-3.632946
-6.160257
-9.052227
-12.3323
-15.88508
-19.42129
-22.43647
-24.4
-24.91813
-23.87249
-21.37047
-17.67567
-13.12065
-8.023122
-2.709596
2.530946
7.413939
11.69999
15.21392
17.83115
19.51659
20.27299
20.17466
19.35649
18.0361
16.48088
14.94208
13.60583
12.54022
11.72186
11.0776
10.57296
10.20551
9.941473
9.711988
9.320692
8.547888
7.24614
5.454027
3.408978
1.445856
-0.201952
-1.529953
-2.760368
-4.24649
-6.30019
-9.066669
-12.49041
-16.33496
-20.21591
-23.65121
-26.11505
-27.08729
-26.18196
-23.25156
-18.43674
-12.17753
-5.106136
2.045078
8.587711
14.0148
18.07698
20.79376
22.36726
23.05816
23.04937
22.4463
21.31542
19.7569
17.98144
16.26757
14.87117
13.93377
13.45184
13.24416
13.09393
12.82539
12.33776
11.61479
10.69825
9.624592
8.37001
6.870029
5.016014
2.744678
0.1244011
-2.650547
-5.282848
-7.491737
-9.161964
-10.42029
-11.63504
-13.25858
-15.62383
-18.74742
-22.26497
-25.48288
-27.61013
-27.94194
-26.08541
-22.08158
-16.38101
-9.702549
-2.828316
3.559807
9.049122
13.44224
16.71389
18.93424
20.18669
20.55175
20.14779
19.19067
17.94631
16.69121
15.59079
14.6678
13.87278
13.13567
12.46756
11.96148
11.6926
11.59515
11.46326
10.9973
9.970856
8.374014
6.394733
4.336664
2.424309
0.6836548
-1.057432
-2.997997
-5.249079
-7.787853
-10.47857
-13.25476
-16.12688
-19.11751
-22.08938
-24.65923
-26.22838
-26.19366
-24.23082
-20.38574
-15.05273
-8.792368
-2.203135
4.172136
9.877289
14.53812
17.85324
19.70267
20.19204
19.59961
18.33101
16.80191
15.37101
14.28019
13.62069
13.30885
13.07816
12.62236
11.70978
10.32941
8.735199
7.29687
6.283056
5.689903
5.231499
4.468204
3.086837
1.033044
-1.494787
-4.13793
-6.582965
-8.693996
-10.50528
-12.1876
-13.9774
-16.10791
-18.71082
-21.79274
-25.15885
-28.38904
-30.84097
-31.83849
-30.853
-27.72769
-22.75892
-16.5963
-10.01962
-3.699388
1.940143
6.749582
10.72863
13.90628
16.24295
17.71773
18.38911
18.44322
18.1715
17.81532
17.50201
17.16762
16.65908
15.86988
14.83637
13.71381
12.70448
11.95841
11.4547
11.02408
10.44435
9.498215
8.089145
6.223799
4.02986
1.669424
-0.6377621
-2.719974
-4.521211
-6.169657
-7.963794
-10.25098
-13.27826
-17.02531
-21.12692
-24.91576
-27.64338
-28.70261
-27.79163
-24.97117
-20.57174
-15.09108
-9.035664
-2.8979
2.901367
8.006514
12.16025
15.27763
17.3799
18.65573
19.29521
19.47162
19.27941
18.76485
17.9678
17.00719
16.02917
15.10976
14.25372
13.36357
12.33094
11.13426
9.830868
8.516792
7.271999
6.08432
4.819298
3.322094
1.474274
-0.7585068
-3.292488
-5.959076
-8.593727
-11.03338
-13.21627
-15.17935
-17.02261
-18.90935
-21.04407
-23.58647
-26.60651
-29.95426
-33.21835
-35.74318
-36.79599
-35.77026
-32.4784
-27.22551
-20.7168
-13.86205
-7.419083
-1.820087
2.827782
6.64114
9.775047
12.29406
14.15023
15.30994
15.77197
15.63148
15.08694
14.3543
13.62058
13.03024
12.63082
12.46184
12.54407
12.87152
13.39296
14.0145
14.58409
14.90332
14.77377
13.9946
12.47616
10.2926
7.643593
4.853729
2.239323
0.004196167
-1.794964
-3.255241
-4.557705
-5.880119
-7.375061
-9.178413
-11.38264
-13.96949
-16.76039
-19.27631
-20.8418
-20.78017
-18.68203
-14.66056
-9.288433
-3.402908
2.246365
7.200897
11.35847
14.82502
17.6276
19.62981
20.5817
20.29487
18.83516
16.52121
13.77724
11.05432
8.644028
6.715363
5.366119
4.668335
4.648514
5.224281
6.144173
7.033333
7.505943
7.304352
6.380539
4.872787
2.991287
0.9199219
-1.215446
-3.324234
-5.299522
-7.054085
-8.491173
-9.626129
-10.54499
-11.41251
-12.41919
-13.68555
-15.273
-17.1517
-19.21539
-21.26122
-22.97614
-23.95497
-23.76797
-22.11524
-18.9199
-14.40414
-9.027832
-3.355881
2.055275
6.7771
10.52884
13.2114
14.88039
15.73882
16.08465
16.16923
16.14176
16.01134
15.69604
15.16965
14.50065
13.81995
13.2415
12.76514
12.27942
11.67323
10.93483
10.17975
9.549294
9.060875
8.518768
7.556114
5.882988
3.457512
0.6030045
-2.198921
-4.516579
-6.192421
-7.378014
-8.395325
-9.550362
-10.98721
-12.73093
-14.74318
-17.01347
-19.50388
-21.99306
-24.04657
-25.09073
-24.64375
-22.53149
-19.04435
-14.7803
-10.3873
-6.293961
-2.596802
0.8396683
4.178787
7.396935
10.31451
12.6169
14.07497
14.65982
14.51627
13.91125
13.14056
12.49191
12.13887
12.19189
12.5912
13.14624
13.58586
13.64813
13.16638
12.11652
10.55594
8.564133
6.200745
3.496231
0.5636749
-2.368149
-4.996704
-7.038544
-8.393875
-9.234955
-9.913208
-10.82239
-12.26651
-14.31538
-16.82541
-19.57092
-22.23601
-24.56525
-26.31459
-27.22388
-27.01883
-25.48235
-22.50653
-18.19087
-12.93941
-7.294388
-1.845337
2.956879
6.895721
9.952805
12.21466
13.78366
14.71779
15.01021
14.74747
14.09924
13.30867
12.63344
12.19075
11.93172
11.71417
11.36864
10.81233
10.07845
9.256638
8.395599
7.485062
6.432419
5.154449
3.636139
1.951675
0.2146606
-1.456009
-3.052475
-4.653397
-6.287354
-7.929626
-9.467468
-10.76297
-11.80569
-12.76044
-13.93193
-15.65028
-18.11827
-21.19701
-24.47571
-27.30904
-29.022
-29.16432
-27.58249
-24.49684
-20.36368
-15.73611
-11.09128
-6.742035
-2.859177
0.5055542
3.299911
5.476303
7.02298
7.998123
8.551178
8.884323
9.131699
9.300232
9.311218
9.051361
8.489243
7.743088
7.026352
6.540146
6.379303
6.48999
6.670334
6.731079
6.480927
5.833908
4.796753
3.446365
1.89975
0.2826691
-1.266708
-2.650192
-3.833862
-4.85257
-5.818695
-6.874313
-8.151978
-9.773285
-11.74904
-13.87138
-15.74652
-16.8159
-16.56288
-14.73094
-11.42393
-7.071899
-2.287415
2.430603
6.791229
10.70824
14.2148
17.27068
19.71101
21.33456
21.98357
21.68063
20.62714
19.17329
17.69868
16.52551
15.83244
15.56148
15.42819
15.07813
14.24883
12.86208
11.08968
9.244919
7.646774
6.442215
5.540039
4.681931
3.536896
1.881775
-0.3280487
-2.942749
-5.707382
-8.311264
-10.56
-12.39552
-13.93512
-15.4742
-17.33122
-19.70839
-22.55075
-25.52864
-28.05969
-29.50166
-29.33336
-27.27559
-23.42343
-18.1969
-12.1823
-5.976089
-0.09002686
5.128555
9.46431
12.76476
14.97546
16.09845
16.2827
15.79367
14.94209
13.98697
13.07333
12.24411
11.49321
10.85014
10.38496
10.15846
10.10507
10.03236
9.693756
8.953171
7.856628
6.612823
5.442993
4.414505
3.401276
2.18309
0.5905304
-1.311462
-3.297531
-5.097961
-6.532516
-7.623032
-8.564194
-9.627869
-11.03024
-12.87662
-15.07597
-17.38596
-19.41837
-20.77747
-21.1478
-20.37831
-18.51648
-15.75818
-12.38885
-8.706329
-4.956055
-1.278488
2.263672
5.673065
8.937805
12.00877
14.70757
16.79222
18.00089
18.18684
17.44244
16.07703
14.53438
13.25258
12.51697
12.36304
12.65918
13.164
13.6378
13.92125
13.96838
13.80583
13.4677
12.92899
12.12979
11.00807
9.548294
7.799454
5.858551
3.81012
1.664063
-0.6287689
-3.141388
-5.863358
-8.695755
-11.43005
-13.88004
-15.94295
-17.70453
-19.42477
-21.41194
-23.87881
-26.78712
-29.78032
-32.24635
-33.4653
-32.84114
-30.17943
-25.70592
-20.02431
-13.86823
-7.906158
-2.567429
1.973526
5.694016
8.645065
10.87286
12.43694
13.40932
13.85011
13.80365
13.30971
12.44669
11.37341
10.36069
9.681656
9.502388
9.772179
10.19723
10.41054
10.1609
9.436615
8.374527
7.164948
5.829239
4.270126
2.305435
-0.1111603
-2.826492
-5.495926
-7.718353
-9.305084
-10.28469
-10.97636
-11.79337
-13.12202
-15.15587
-17.83821
-20.86578
-23.79235
-26.13275
-27.43947
-27.41904
-25.93463
-23.02487
-18.88963
-13.80975
-8.176514
-2.439117
2.947136
7.646973
11.45465
14.29358
16.16504
17.06295
17.00645
16.06485
14.46393
12.52388
10.71909
9.411339
8.742279
8.640747
8.833031
9.027641
9.063309
9.037041
9.102066
9.419991
9.965302
10.48479
10.64748
10.16592
8.953995
7.171112
5.138695
3.133621
1.26046
-0.5541611
-2.508438
-4.691536
-7.047424
-9.398766
-11.56505
-13.49079
-15.29356
-17.13779
-19.01788
-20.67657
-21.58362
-21.22166
-19.28145
-15.82272
-11.26978
-6.155937
-0.96035
4.019081
8.585762
12.62238
15.94508
18.33872
19.69199
20.01375
19.50646
18.4771
17.26082
16.10837
15.21895
14.68748
14.53262
14.678
14.88952
14.8634
14.32767
13.13393
11.34456
9.252472
7.223408
5.552246
4.325623
3.359398
2.315926
0.9060936
-1.005089
-3.331871
-5.8634
-8.401291
-10.8344
-13.15454
-15.42028
-17.66488
-19.87286
-22.03439
-24.11469
-26.05295
-27.73611
-28.917
-29.25117
-28.41578
-26.18397
-22.55136
-17.77469
-12.28896
-6.60297
-1.25198
3.403854
7.139679
9.868801
11.60899
12.44529
12.49751
11.97517
11.16537
10.34043
9.772781
9.595329
9.79372
10.20116
10.54426
10.57595
10.15619
9.28511
8.073549
6.738646
5.480455
4.438213
3.679792
3.101526
2.560135
1.905752
1.043375
-0.07436371
-1.405384
-2.931051
-4.653379
-6.568653
-8.736191
-11.14083
-13.72429
-16.30488
-18.64235
-20.37244
-21.08369
-20.40577
-18.07437
-14.08508
-8.717553
-2.551954
3.745481
9.550598
14.48203
18.40175
21.34301
23.40811
24.63013
25.05488
24.73067
23.82263
22.61304
21.38469
20.32086
19.47516
18.80388
18.20728
17.6714
17.196
16.79884
16.45915
16.04556
15.37638
14.29324
12.78494
10.9319
8.947385
7.019463
5.229628
3.550839
1.854272
0.01314259
-2.043783
-4.284276
-6.666302
-9.097494
-11.54626
-14.03536
-16.63565
-19.41517
-22.33155
-25.17765
-27.55836
-28.97529
-28.98837
-27.37658
-24.20823
-19.8073
-14.6182
-9.080821
-3.538875
1.725164
6.40236
10.19809
12.88693
14.46453
15.22092
15.59838
16.02869
16.71594
17.52285
18.11264
18.16725
17.57568
16.49438
15.25097
14.13215
13.27725
12.6599
12.20345
11.83439
11.5614
11.36708
11.13884
10.67933
9.788055
8.331661
6.305796
3.840623
1.094148
-1.747258
-4.546278
-7.201941
-9.626408
-11.84072
-13.95753
-16.17564
-18.66544
-21.45534
-24.35718
-26.97743
-28.84339
-29.50798
-28.7342
-26.55735
-23.23671
-19.18105
-14.81733
-10.44842
-6.22543
-2.176815
1.746402
5.493497
8.900133
11.75722
13.87904
15.22665
15.96083
16.33632
16.56163
16.75234
16.90077
16.95241
16.9259
16.88918
16.94193
17.12762
17.39424
17.56502
17.42562
16.80493
15.64325
14.01851
11.99836
9.660779
7.014715
4.026731
0.7008963
-2.87666
-6.548328
-10.10135
-13.33701
-16.16133
-18.57267
-20.71997
-22.81943
-25.06915
-27.56019
-30.23951
-32.82988
-34.85571
-35.78049
-35.08384
-32.47802
-28.02715
-22.13177
-15.46182
-8.770861
-2.712502
2.330132
6.259101
9.234585
11.49008
13.17998
14.41351
15.1553
15.38789
15.18235
14.6848
14.05118
13.4509
12.9765
12.63503
12.43046
12.36811
12.47345
12.79071
13.34472
14.14845
15.17345
16.31053
17.33468
17.99119
18.05314
17.42905
16.20747
14.60394
12.84225
11.0249
9.107832
6.935827
4.423871
1.60769
-1.344554
-4.234815
-7.024016
-9.772031
-12.6025
-15.51552
-18.30009
-20.52492
-21.73227
-21.62466
-20.1568
-17.58712
-14.31805
-10.75228
-7.134979
-3.600941
-0.2135658
2.898737
5.511272
7.380644
8.332672
8.379133
7.709045
6.694839
5.71542
5.015331
4.698957
4.656729
4.721905
4.728376
4.581272
4.222315
3.657757
2.901318
1.976549
0.9829102
0.01534081
-0.8824654
-1.793407
-2.866156
-4.242388
-5.911617
-7.653631
-9.164377
-10.16424
-10.58688
-10.60082
-10.54759
-10.80554
-11.69053
-13.34045
-15.72807
-18.62879
-21.57457
-23.96694
-25.16231
-24.68798
-22.47509
-18.83514
-14.31808
-9.481138
-4.718
-0.179285
4.038326
7.865633
11.16518
13.75204
15.52195
16.5107
16.84525
16.73359
16.41722
16.06316
15.78764
15.62584
15.55431
15.48857
15.39204
15.24524
15.10493
15.08498
15.22436
15.48218
15.68755
15.57062
14.89397
13.53971
11.53574
9.073803
6.424328
3.819046
1.465496
-0.5304985
-2.184916
-3.579491
-4.884516
-6.318382
-8.052244
-10.16547
-12.56795
-14.90512
-16.6262
-17.12677
-15.95581
-13.0324
-8.711985
-3.661983
1.394674
5.858717
9.477385
12.28744
14.47609
16.20899
17.51748
18.30888
18.5166
18.19827
17.49704
16.65572
15.84728
15.13218
14.45259
13.65464
12.58718
11.20127
9.555279
7.800079
6.176914
4.842087
3.881546
3.255375
2.797829
2.27356
1.501976
0.4094086
-0.9756737
-2.523113
-4.102406
-5.626213
-7.077309
-8.503365
-9.971878
-11.56008
-13.3312
-15.35248
-17.65514
-20.24084
-23.01589
-25.68519
-27.77281
-28.66747
-27.8579
-25.12592
-20.66007
-15.05691
-9.127968
-3.644386
0.9154282
4.455215
7.176727
9.37603
11.20103
12.59991
13.38551
13.38741
12.59805
11.25642
9.768639
8.539856
7.827904
7.66687
7.854134
8.093025
8.123634
7.849411
7.355247
6.829521
6.424522
6.148804
5.884743
5.439529
4.655853
3.549187
2.261139
0.967247
-0.2052078
-1.348419
-2.651894
-4.299034
-6.322182
-8.529182
-10.62362
-12.33734
-13.6388
-14.73622
-15.99233
-17.6572
-19.64896
-21.55737
-22.73447
-22.57811
-20.7482
-17.29467
-12.63763
-7.388275
-2.134766
2.651703
6.625748
9.605797
11.49414
12.31165
12.18838
11.37789
10.2079
9.013443
8.059219
7.438919
7.128525
6.991058
6.890762
6.738686
6.530128
6.294937
6.061348
5.84742
5.627853
5.383446
5.065308
4.620407
3.957878
2.995384
1.720078
0.175293
-1.477295
-3.055275
-4.427742
-5.630028
-6.785202
-8.050224
-9.512589
-11.1475
-12.91496
-14.78451
-16.78878
-18.93568
-21.12788
-23.11564
-24.51904
-24.97144
-24.21999
-22.16502
-18.88529
-14.55873
-9.458778
-3.939064
1.522552
6.469498
10.49376
13.40686
15.21244
16.11845
16.36639
16.12818
15.48746
14.45551
13.09008
11.57744
10.20854
9.269722
8.956032
9.237152
9.865822
10.48495
10.75822
10.57981
10.04228
9.330147
8.573074
7.757904
6.755859
5.423752
3.667923
1.489128
-1.047821
-3.858452
-6.881538
-10.04924
-13.25864
-16.3859
-19.34057
-22.12624
-24.88998
-27.83495
-31.16183
-34.85615
-38.71854
-42.30727
-45.07717
-46.49146
-46.15096
-43.94254
-40.06219
-35.00167
-29.32867
-23.58791
-18.16986
-13.27297
-9.002502
-5.408897
-2.538521
-0.4138718
1.018402
1.954384
2.641533
3.294258
4.047844
4.907639
5.815445
6.700706
7.516617
8.207695
8.708275
8.914215
8.737679
8.175453
7.263329
6.139137
4.894638
3.560715
2.111794
0.5478554
-1.102829
-2.741257
-4.202126
-5.404091
-6.348774
-7.234459
-8.375782
-10.06755
-12.44036
-15.364
-18.43621
-21.15954
-23.11319
-24.04588
-23.88356
-22.6591
-20.35532
-16.91064
-12.35084
-6.893927
-1.062115
4.468738
9.163376
12.79759
15.48404
17.57636
19.36111
20.90961
22.12928
22.81184
22.85122
22.35937
21.58483
20.80297
20.19231
19.7386
19.32084
18.83246
18.2057
17.46685
16.71164
16.01286
15.38728
14.74556
13.92562
12.75851
11.16587
9.160412
6.836197
4.319305
1.723488
-0.8269882
-3.254181
-5.593155
-7.976563
-10.59411
-13.5616
-16.71724
-19.57733
-21.41758
-21.54531
-19.60793
-15.79224
-10.73684
-5.286896
-0.1240234
4.446678
8.458679
12.04794
15.29536
18.07015
20.12129
21.26044
21.48393
20.99577
20.12067
19.15685
18.25876
17.45716
16.69555
15.89361
15.06062
14.23284
13.52502
13.03367
12.775
12.68707
12.5699
12.17745
11.27824
9.755341
7.675758
5.269058
2.842148
0.6523132
-1.183578
-2.744949
-4.198776
-5.780533
-7.665359
-9.956055
-12.6665
-15.74013
-19.00055
-22.10884
-24.58072
-25.83733
-25.43735
-23.23909
-19.47414
-14.65546
-9.390335
-4.196915
0.6304626
4.964661
8.79744
12.12286
14.84962
16.91066
18.23819
18.84636
18.83319
18.3532
17.56818
16.60507
15.55577
14.44691
13.32391
12.2252
11.26822
10.58386
10.2473
10.20811
10.25816
10.13318
9.601196
8.565277
7.021179
5.095871
2.914688
0.6077118
-1.718735
-3.943939
-5.965622
-7.71843
-9.222214
-10.65378
-12.24942
-14.25546
-16.85635
-19.99579
-23.40997
-26.63535
-29.12762
-30.37531
-30.04276
-27.99388
-24.34396
-19.38106
-13.50406
-7.199661
-0.9681549
4.721313
9.496719
13.15385
15.69911
17.28194
18.15002
18.56747
18.67506
18.55554
18.28049
17.92218
17.60965
17.4935
17.60345
17.84105
17.98958
17.80656
17.13191
16.00795
14.62547
13.21693
11.9666
10.88081
9.804245
8.520599
6.834412
4.729813
2.314072
-0.1847534
-2.557281
-4.665833
-6.543167
-8.313858
-10.12715
-12.11772
-14.25543
-16.45576
-18.5338
-20.24432
-21.31805
-21.48798
-20.51814
-18.31197
-14.98523
-10.83002
-6.295364
-1.833923
2.266876
5.959854
9.388489
12.71324
15.95821
18.84354
20.92679
21.7906
21.30927
19.72189
17.55966
15.44923
13.84297
12.93925
12.63751
12.73703
13.02272
13.36589
13.69751
13.92604
13.9649
13.72185
13.14235
12.20805
10.93478
9.329865
7.452637
5.37793
3.197891
1.027481
-1.043976
-2.992706
-4.802261
-6.467087
-7.977081
-9.403564
-10.9171
-12.76688
-15.16216
-18.06972
-21.14284
-23.72498
-25.14868
-24.93872
-23.04868
-19.77794
-15.67317
-11.23869
-6.813049
-2.599014
1.316696
4.772827
7.53862
9.372864
10.18068
10.0981
9.479202
8.754425
8.229736
8.04274
8.137848
8.37204
8.682068
9.098953
9.720825
10.57115
11.57336
12.53661
13.26213
13.62402
13.62796
13.33778
12.78638
11.93027
10.62791
8.782135
6.389145
3.649887
0.8803101
-1.544556
-3.324158
-4.351395
-4.735153
-4.80162
-5.038116
-5.898239
-7.655411
-10.30272
-13.52725
-16.7308
-19.2296
-20.44225
-19.9931
-17.8951
-14.42378
-10.04509
-5.21492
-0.3270111
4.345047
8.625687
12.36494
15.4747
17.90672
19.68932
20.94745
21.80867
22.38361
22.71521
22.79198
22.63629
22.36963
22.21083
22.34331
22.85144
23.61197
24.40042
25.00316
25.36774
25.61705
25.98888
26.6523
27.54883
28.4447
28.93549
28.74135
27.76561
26.16165
24.19269
22.1111
19.98584
17.70408
15.05399
11.8059
7.876495
3.322975
-1.662971
-6.868385
-12.12762
-17.28879
-22.19646
-26.63872
-30.29624
-32.81128
-33.88954
-33.37947
-31.38933
-28.26653
-24.55952
-20.82829
-17.5322
-14.87354
-12.80577
-11.08714
-9.503185
-7.921562
-6.42033
-5.161461
-4.257671
-3.712288
-3.384434
-3.113297
-2.80518
-2.461636
-2.153233
-1.923214
-1.766829
-1.643017
-1.488066
-1.272785
-1.056437
-0.9379616
-1.013334
-1.407146
-2.169918
-3.252106
-4.494688
-5.641006
-6.478815
-6.933748
-7.151885
-7.409333
-8.015805
-9.142504
-10.75368
-12.60121
-14.34808
-15.59313
-16.01065
-15.37666
-13.60021
-10.80565
-7.302952
-3.580641
-0.186697
2.419285
4.007872
4.629545
4.532215
4.043928
3.371836
2.594248
1.665783
0.4997215
-0.8730812
-2.283566
-3.439491
-4.115562
-4.223709
-3.915287
-3.481617
-3.200409
-3.21994
-3.516598
-3.98642
-4.566078
-5.3167
-6.34584
-7.742733
-9.425919
-11.17051
-12.73497
-14.02346
-15.13245
-16.28553
-17.61443
-18.99815
-20.01318
-20.12359
-18.92769
-16.40707
-12.9043
-8.99226
-5.221794
-1.906677
0.8727264
3.199974
5.127869
6.606838
7.460819
7.524963
6.736279
5.247532
3.395081
1.589592
0.1875496
-0.6715469
-1.022938
-1.01783
-0.8119545
-0.4963722
-0.103508
0.2981529
0.5706139
0.4919701
-0.1664162
-1.525974
-3.501495
-5.872868
-8.314053
-10.57283
-12.55771
-14.32081
-15.98117
-17.56418
-18.95588
-19.89172
-20.08886
-19.28218
-17.35597
-14.3568
-10.50324
-6.084988
-1.4268
3.155624
7.388416
10.9883
13.75378
15.52913
16.30584
16.25132
15.67574
14.95178
14.40921
14.20537
14.28163
14.43466
14.39015
14.01572
13.36069
12.62622
12.05415
11.77769
11.74643
11.74815
11.49537
10.71899
9.267342
7.160835
4.541676
1.662956
-1.15834
-3.640583
-5.630573
-7.130737
-8.343781
-9.614037
-11.24324
-13.3596
-15.7748
-17.97633
-19.32083
-19.25772
-17.5377
-14.28642
-9.959049
-5.156372
-0.4504242
3.729004
7.161575
9.791473
11.67411
12.89609
13.56125
13.76019
13.63484
13.30524
12.87949
12.4042
11.82923
11.10065
10.20822
9.289047
8.592575
8.344589
8.570114
9.085129
9.553619
9.639511
9.24427
8.536095
7.803093
7.290565
7.006714
6.718315
6.112335
4.984573
3.328506
1.307549
-0.8493042
-3.033455
-5.270683
-7.704277
-10.44708
-13.48074
-16.6272
-19.62379
-22.15511
-24.01645
-25.06432
-25.16288
-24.17545
-22.02213
-18.7847
-14.80262
-10.58247
-6.63192
-3.278336
-0.5689163
1.685188
3.709335
5.567154
7.148338
8.227943
8.676018
8.614594
8.333466
8.125992
8.125313
8.266373
8.338295
8.232925
7.95285
7.677849
7.612122
7.80204
8.071754
8.061348
7.42112
6.000359
3.985901
1.776352
-0.1473846
-1.506462
-2.301743
-2.770844
-3.265511
-4.056389
-5.229836
-6.708672
-8.343338
-9.979988
-11.50299
-12.8247
-13.81667
-14.41118
-14.67909
-14.87383
-15.34763
-16.40123
-18.06374
-19.98062
-21.5468
-22.08566
-21.1821
-18.84573
-15.46017
-11.63499
-7.914436
-4.61702
-1.740967
0.895256
3.509293
6.096878
8.444901
10.17519
10.94327
10.67748
9.656158
8.384018
7.391914
6.99942
7.156952
7.577072
7.920113
7.976509
7.802979
7.64048
7.716064
8.078781
8.549698
8.784081
8.50074
7.604988
6.219727
4.636086
3.129196
1.846489
0.7809525
-0.1728134
-1.119484
-2.09465
-3.084953
-4.045799
-4.958481
-5.881073
-6.924667
-8.206757
-9.818497
-11.78469
-14.01198
-16.32268
-18.41059
-19.92536
-20.51471
-19.96047
-18.17898
-15.25458
-11.42675
-7.009689
-2.369682
2.132973
6.162292
9.466164
11.91419
13.49571
14.29964
14.45012
14.04246
13.15682
11.90879
10.43211
8.951553
7.694511
6.816757
6.356667
6.209145
6.17868
6.078575
5.878662
5.640404
5.477959
5.477585
5.579147
5.644657
5.511795
5.059303
4.246372
3.092487
1.601833
-0.2096786
-2.323689
-4.661507
-7.075493
-9.38842
-11.44498
-13.20636
-14.76304
-16.28039
-17.92204
-19.7543
-21.68865
-23.42869
-24.53932
-24.53422
-23.0859
-20.17449
-16.06009
-11.22799
-6.198578
-1.405251
2.883411
6.48946
9.264252
11.12356
12.05408
12.21848
11.91384
11.44973
11.01754
10.65488
10.26736
9.75108
9.128986
8.527916
8.132278
8.059116
8.296074
8.717445
9.14513
9.393517
9.325207
8.893806
8.119722
7.050978
5.729321
4.151638
2.310789
0.2102928
-2.046213
-4.313641
-6.467245
-8.479252
-10.4416
-12.47725
-14.68229
-17.0209
-19.37344
-21.56991
-23.38044
-24.5535
-24.80467
-23.86305
-21.52785
-17.85746
-13.15489
-7.945979
-2.791575
1.909035
5.923856
9.19619
11.73609
13.5659
14.72865
15.30784
15.42774
15.20262
14.72866
14.05188
13.23793
12.40175
11.69661
11.26411
11.11374
11.1335
11.08306
10.77265
10.08936
9.099017
7.981167
6.87196
5.830997
4.751291
3.439114
1.686628
-0.5342541
-3.081057
-5.595591
-7.696066
-9.168892
-10.07199
-10.74812
-11.65528
-13.1904
-15.48884
-18.4292
-21.73345
-25.04333
-27.98125
-30.10905
-30.97062
-30.14692
-27.439
-22.97202
-17.2122
-10.81763
-4.4398
1.389675
6.372829
10.33675
13.2023
14.96298
15.69081
15.57363
14.90315
13.99302
13.0773
12.29262
11.67805
11.15627
10.63274
10.00202
9.200394
8.249496
7.30983
6.594101
6.262657
6.338654
6.622856
6.791512
6.533913
5.693001
4.313507
2.581779
0.7109909
-1.156242
-2.971878
-4.715157
-6.332748
-7.779243
-9.096161
-10.47344
-12.23055
-14.67085
-17.85826
-21.48814
-24.91702
-27.34977
-28.11526
-26.93572
-23.88396
-19.35525
-13.9063
-8.080025
-2.343765
2.964935
7.652802
11.66771
15.02786
17.78831
19.974
21.56079
22.56882
23.00667
22.97424
22.63153
22.17413
21.76765
21.52899
21.47151
21.49773
21.47307
21.21722
20.54268
19.36137
17.66974
15.58827
13.32007
11.03253
8.779724
6.55751
4.234253
1.705215
-1.03418
-3.933121
-6.862808
-9.678207
-12.30618
-14.77872
-17.18942
-19.65208
-22.24922
-24.98317
-27.81233
-30.54143
-32.78255
-34.00175
-33.57666
-31.0558
-26.36319
-19.89807
-12.39047
-4.710709
2.452545
8.775879
14.19165
18.81796
22.70284
25.77971
27.95796
29.23427
29.72926
29.67882
29.27313
28.55977
27.52502
26.17453
24.63258
23.12766
21.8889
20.9657
20.21124
19.39655
18.33922
17.05983
15.70421
14.4265
13.20088
11.77382
9.843719
7.218384
3.984329
0.4376068
-3.022491
-6.125885
-8.802216
-11.14357
-13.32996
-15.51381
-17.7905
-20.18306
-22.65868
-25.11145
-27.37114
-29.1519
-30.08664
-29.76044
-27.81796
-24.1011
-18.75676
-12.26375
-5.360123
1.118835
6.557159
10.68019
13.58052
15.58218
16.995
18.00272
18.63759
18.89093
18.80099
18.52307
18.22856
17.96593
17.68089
17.25653
16.61346
15.8119
15.00253
14.30823
13.74129
13.19762
12.46901
11.40596
9.970581
8.222656
6.262787
4.178406
1.972916
-0.3929138
-2.906372
-5.495255
-7.975296
-10.17865
-12.01457
-13.53554
-14.90956
-16.39627
-18.25146
-20.62515
-23.5027
-26.6069
-29.45152
-31.39378
-31.80003
-30.24602
-26.72177
-21.62054
-15.65126
-9.530762
-3.775818
1.421875
6.078735
10.26361
13.96294
16.98587
19.12843
20.25899
20.43724
19.89091
18.96881
17.99716
17.22311
16.75092
16.52533
16.43703
16.31599
16.04773
15.58621
14.98083
14.34895
13.7856
13.31938
12.83217
12.14159
11.03571
9.378265
7.143616
4.433044
1.46434
-1.533371
-4.309494
-6.722931
-8.71524
-10.37863
-11.94904
-13.67407
-15.74062
-18.1454
-20.68257
-22.9565
-24.55067
-25.10576
-24.43851
-22.4948
-19.364
-15.25739
-10.43318
-5.238022
0.02461243
5.113602
9.852493
14.11142
17.73157
20.51144
22.24611
22.8848
22.57726
21.71245
20.74358
20.02803
19.67815
19.55576
19.41383
19.03918
18.34778
17.37923
16.20906
14.8654
13.32452
11.57019
9.660355
7.744354
5.955368
4.312653
2.669556
0.8068848
-1.462494
-4.184769
-7.184708
-10.19664
-12.9416
-15.24551
-17.09238
-18.5939
-19.96744
-21.46199
-23.29762
-25.54001
-28.03409
-30.36375
-31.94138
-32.12671
-30.43114
-26.66721
-21.03209
-14.08115
-6.570221
0.6890869
7.02272
12.04219
15.69223
18.19254
19.92104
21.22774
22.32549
23.25406
23.94104
24.31335
24.34924
24.05203
23.4726
22.67725
21.76733
20.84531
20.00854
19.24733
18.43867
17.38475
15.95831
14.12788
12.03683
9.901703
7.893738
6.04509
4.193298
2.119049
-0.3379669
-3.14679
-6.098541
-8.898407
-11.30798
-13.29546
-15.02254
-16.82068
-18.9873
-21.6794
-24.76086
-27.83539
-30.38252
-31.89609
-32.05986
-30.7493
-28.04688
-24.08472
-19.05084
-13.21387
-6.914536
-0.5877686
5.291321
10.27901
14.13043
16.8018
18.47946
19.43971
19.92148
20.07248
19.9267
19.49982
18.8381
18.09891
17.51134
17.24998
17.33865
17.62296
17.82727
17.66042
16.97752
15.79587
14.28337
12.66833
11.09074
9.61879
8.210663
6.803802
5.275101
3.502197
1.409637
-1.020432
-3.7108
-6.529327
-9.329071
-12.03348
-14.64859
-17.25331
-19.93782
-22.69891
-25.42136
-27.83327
-29.51692
-29.97855
-28.80911
-25.85747
-21.32056
-15.7356
-9.784439
-4.075974
1.002899
5.315216
8.853821
11.62555
13.61991
14.85347
15.47402
15.70228
15.73396
15.70074
15.61085
15.4537
15.28676
15.23608
15.41228
15.82677
16.34264
16.7439
16.9078
16.8166
16.51181
15.97695
15.14572
13.85282
11.99653
9.626526
6.897919
4.040199
1.218048
-1.521484
-4.201912
-6.871262
-9.596275
-12.42886
-15.41975
-18.58305
-21.80985
-24.85936
-27.34475
-28.83941
-29.04226
-27.83743
-25.36888
-21.92553
-17.83395
-13.39561
-8.858475
-4.478539
-0.515892
2.742851
5.097847
6.424782
6.775505
6.290623
5.229778
3.846622
2.36916
1.019329
-0.05260086
-0.7367821
-1.052086
-1.074944
-0.944519
-0.7814217
-0.7143173
-0.8287048
-1.195057
-1.85247
-2.763985
-3.846115
-4.988617
-6.147964
-7.399349
-8.881191
-10.69337
-12.84941
-15.26021
-17.80126
-20.32032
-22.61924
-24.42587
-25.36414
-25.02461
-23.14763
-19.77754
-15.28202
-10.23801
-5.200768
-0.518856
3.675533
7.386429
10.5785
13.08534
14.68398
15.21343
14.70739
13.35926
11.51468
9.524708
7.733574
6.388405
5.597042
5.332397
5.424183
5.626053
5.678799
5.388859
4.656673
3.500813
2.006386
0.2716522
-1.624577
-3.629078
-5.621494
-7.446171
-8.922852
-10.00948
-10.885
-11.95261
-13.68742
-16.29675
-19.52119
-22.5353
-24.27529
-23.86625
-21.03375
-16.29559
-10.64924
-5.179283
-0.5786858
3.006756
5.89217
8.480247
11.02662
13.48357
15.55867
16.95749
17.52132
17.33963
16.69202
15.93703
15.34695
15.00793
14.79634
14.44366
13.70785
12.4743
10.86892
9.148495
7.609222
6.440704
5.583553
4.798756
3.780247
2.32653
0.3841972
-1.918644
-4.388031
-6.867004
-9.34074
-11.89178
-14.6694
-17.7862
-21.17793
-24.60787
-27.61361
-29.62347
-30.14223
-28.8755
-25.85774
-21.4199
-16.05364
-10.26144
-4.430035
1.207184
6.475529
11.2107
15.21325
18.30428
20.42962
21.6937
22.32787
22.61135
22.75385
22.79805
22.68505
22.32071
21.65326
20.70393
19.53213
18.21192
16.78039
15.29506
13.81646
12.45806
11.34365
10.50935
9.840466
9.087158
7.958202
6.26128
3.965183
1.206169
-1.763165
-4.706497
-7.422184
-9.781776
-11.74021
-13.32653
-14.67281
-15.98027
-17.49846
-19.35411
-21.48243
-23.54118
-24.98027
-25.21857
-23.85994
-20.88585
-16.61007
-11.58917
-6.363441
-1.334915
3.337845
7.64653
11.58657
15.05
17.80667
19.64053
20.45318
20.36366
19.66117
18.72396
17.86736
17.3239
17.18942
17.42272
17.88455
18.3098
18.42992
17.99645
16.90085
15.23846
13.29279
11.44879
9.996922
9.038858
8.411076
7.817789
6.9515
5.648882
3.907685
1.831317
-0.4470291
-2.855406
-5.315717
-7.717517
-9.879893
-11.58523
-12.75006
-13.5231
-14.33141
-15.7039
-18.0305
-21.28834
-25.01138
-28.3838
-30.52061
-30.76279
-28.85435
-24.99051
-19.65698
-13.5068
-7.185645
-1.262486
3.833222
7.873767
10.84048
12.92259
14.42098
15.59832
16.59556
17.38612
17.89243
18.03318
17.8423
17.44776
17.00531
16.62333
16.31667
16.06438
15.79852
15.49517
15.15672
14.80819
14.42631
13.95014
13.28579
12.31987
10.95674
9.15987
6.965637
4.515434
2.019936
-0.2845421
-2.251835
-3.830753
-5.081638
-6.083492
-6.927094
-7.74218
-8.67152
-9.940315
-11.77029
-14.2999
-17.45435
-20.9366
-24.26541
-26.9234
-28.53426
-28.92265
-28.10915
-26.17101
-23.20874
-19.30593
-14.65692
-9.597412
-4.58725
-0.1031647
3.522591
6.129272
7.707237
8.308701
7.982956
6.843887
5.134514
3.271248
1.691956
0.7467194
0.5123672
0.8367157
1.433113
2.096657
2.742584
3.397079
4.037521
4.533569
4.686676
4.392372
3.735756
2.928703
2.188477
1.548393
0.8494263
-0.147438
-1.601044
-3.470413
-5.559135
-7.593422
-9.395737
-10.90624
-12.14533
-13.14719
-13.91818
-14.4967
-15.02768
-15.78252
-17.07803
-19.11422
-21.80392
-24.76714
-27.36029
-28.8672
-28.75481
-26.79805
-23.17964
-18.4071
-13.15607
-8.025124
-3.417603
0.5699081
4.036697
7.153748
10.01474
12.5816
14.70975
16.27935
17.28956
17.8605
18.16673
18.3242
18.3564
18.22395
17.92872
17.54666
17.22408
17.04967
16.97676
16.81934
16.33421
15.3766
13.99058
12.32999
10.59529
8.916527
7.293282
5.642937
3.87178
1.907616
-0.2333908
-2.429092
-4.531258
-6.347954
-7.792572
-8.93692
-10.01348
-11.30547
-13.11283
-15.55372
-18.54736
-21.84801
-25.07324
-27.7809
-29.50359
-29.81187
-28.39769
-25.24989
-20.68464
-15.3086
-9.833809
-4.830803
-0.6249313
2.766144
5.510643
7.827538
9.839775
11.57979
12.93164
13.76773
14.06688
13.90472
13.46342
12.94275
12.48299
12.12472
11.85287
11.62495
11.44602
11.34789
11.28992
11.13862
10.70618
9.860558
8.607216
7.125633
5.651932
4.367615
3.286995
2.244896
1.015198
-0.5608826
-2.476196
-4.567955
-6.614937
-8.512756
-10.34526
-12.35702
-14.78255
-17.65976
-20.72605
-23.54753
-25.622
-26.53863
-26.0751
-24.17751
-20.94347
-16.5977
-11.50655
-6.134621
-0.9519348
3.701523
7.693825
11.08263
13.98933
16.45014
18.41068
19.76175
20.45085
20.56537
20.28912
19.75128
19.00964
18.02853
16.76961
15.29373
13.76855
12.39202
11.32986
10.65845
10.27293
9.957695
9.498062
8.717529
7.567833
6.113297
4.46035
2.762489
1.134071
-0.3646927
-1.785072
-3.259308
-4.966492
-7.00161
-9.333969
-11.82606
-14.28416
-16.63626
-18.94839
-21.39109
-24.07827
-26.8715
-29.30955
-30.75439
-30.59185
-28.54372
-24.76531
-19.78239
-14.19738
-8.505447
-2.990494
2.200768
6.886429
10.80403
13.71844
15.55106
16.45344
16.7606
16.76964
16.59271
16.15672
15.36105
14.29839
13.34998
13.00778
13.61829
15.09535
16.92327
18.43379
19.15819
19.01643
18.28528
17.31136
16.25487
15.04846
13.44694
11.31721
8.756607
6.091835
3.656624
1.712967
0.295639
-0.7278366
-1.571953
-2.467636
-3.596718
-5.107635
-7.113037
-9.692352
-12.81927
-16.30874
-19.71597
-22.38787
-23.63391
-22.95572
-20.30135
-16.13499
-11.25272
-6.515121
-2.521202
0.5415192
2.86998
4.808449
6.599686
8.251869
9.575806
10.36218
10.53091
10.18896
9.581825
9.005898
8.649635
8.545319
8.544144
8.447678
8.081276
7.389359
6.453384
5.430511
4.449074
3.578323
2.813011
2.035072
1.104286
-0.1744995
-1.977837
-4.412186
-7.40625
-10.6953
-13.83106
-16.3702
-18.08745
-19.103
-19.90942
-21.14355
-23.30124
-26.46162
-30.16348
-33.51854
-35.5246
-35.40015
-32.85367
-28.21616
-22.2275
-15.76475
-9.540733
-3.932243
0.9872665
5.273415
9.001411
12.16087
14.68253
16.54799
17.84133
18.69985
19.26012
19.59779
19.74504
19.72165
19.60813
19.47118
19.32684
19.07031
18.52879
17.56377
16.17117
14.53548
12.93549
11.60471
10.59084
9.770546
8.882004
7.674271
6.033638
3.991058
1.704964
-0.6427765
-2.933907
-5.156334
-7.340347
-9.571045
-11.89229
-14.32697
-16.85617
-19.39162
-21.7572
-23.64131
-24.68117
-24.49622
-22.84689
-19.7267
-15.36909
-10.22412
-4.746429
0.6394196
5.679543
10.26405
14.35263
17.89681
20.8051
22.94533
24.15292
24.37019
23.6293
22.16153
20.38665
18.7775
17.71322
17.32448
17.4118
17.50847
17.18061
16.15152
14.5042
12.55492
10.61153
8.810913
7.05381
5.135956
2.87484
0.2894821
-2.446609
-5.109711
-7.546936
-9.778214
-11.89616
-14.05605
-16.37729
-18.91966
-21.64452
-24.41451
-26.97452
-28.92961
-29.91968
-29.60962
-27.84167
-24.66901
-20.34245
-15.26463
-9.951675
-4.927551
-0.573349
2.863113
5.408096
7.217087
8.481674
9.350449
9.829651
9.836258
9.335007
8.423737
7.344727
6.387375
5.744858
5.42041
5.263031
5.040054
4.594421
3.877228
2.955048
1.921906
0.8045349
-0.4488068
-1.997955
-3.901566
-6.10672
-8.401199
-10.51759
-12.29182
-13.80687
-15.40475
-17.49614
-20.38831
-24.02592
-28.02759
-31.73793
-34.52898
-35.96408
-35.86894
-34.22453
-31.07492
-26.50356
-20.67242
-13.93829
-6.81044
0.1112747
6.382301
11.76657
16.30479
20.1795
23.56995
26.56239
29.1469
31.276
32.89943
33.9957
34.54372
34.51808
33.88692
32.6451
30.86243
28.72475
26.42702
24.1561
21.99157
19.94289
17.93945
15.93366
13.9157
11.94747
10.1133
8.453873
6.974945
5.590294
4.250465
2.898598
1.554771
0.2131042
-1.111595
-2.469337
-3.939316
-5.578262
-7.454903
-9.62513
-12.09751
-14.76038
-17.3171
-19.25203
-19.95013
-18.90025
-15.92624
-11.35918
-5.936111
-0.5697479
4.036133
7.586945
10.20259
12.22841
13.91672
15.3011
16.21727
16.45146
15.94104
14.82753
13.3792
11.89284
10.55879
9.440613
8.578674
7.942825
7.490326
7.103378
6.619827
5.911667
4.99353
4.010391
3.146835
2.486832
1.898102
1.102036
-0.1959229
-2.095428
-4.458099
-6.964905
-9.268143
-11.18839
-12.68391
-13.83507
-14.73209
-15.43372
-16.09453
-16.99036
-18.46567
-20.74933
-23.80078
-27.12044
-29.92528
-31.34755
-30.7644
-28.06578
-23.64993
-18.29465
-12.85808
-8.09259
-4.412415
-1.914917
-0.4226837
0.4174957
0.9749298
1.536072
2.265533
3.200317
4.283218
5.453415
6.622498
7.682755
8.486938
8.898026
8.855545
8.46286
7.967957
7.646088
7.612625
7.644623
7.233475
5.858948
3.307922
-0.07444763
-3.475571
-5.941727
-6.889359
-6.434601
-5.409454
-4.949753
-5.865387
-8.28894
-11.58881
-14.81062
-17.15437
-18.41359
-18.86397
-18.97197
-18.90047
-18.30275
-16.53471
-13.08058
-8.009354
-2.085327
3.512711
7.801559
10.41678
11.74858
12.63509
13.86061
15.73114
17.95934
19.87592
20.82965
20.51369
19.12457
17.16959
15.19594
13.59961
12.47701
11.72301
11.14735
10.59875
9.971085
9.212036
8.220306
6.910309
5.245041
3.295425
1.225632
-0.7441254
-2.441559
-3.853973
-5.10379
-6.418686
-8.068512
-10.2442
-12.98709
-16.06129
-18.98807
-21.11116
-21.8118
-20.67845
-17.67122
-13.15332
-7.746185
-2.15863
3.014038
7.420853
10.90846
13.46284
15.12849
15.97168
16.11079
15.75008
15.16147
14.657
14.50775
14.81686
15.46881
16.20396
16.64743
16.50037
15.63824
14.14676
12.27325
10.36472
8.681305
7.318436
6.223618
5.214828
4.059235
2.597458
0.7417145
-1.458267
-3.83049
-6.187744
-8.363861
-10.29741
-12.04442
-13.69849
-15.24579
-16.50883
-17.17833
-16.95152
-15.63435
-13.26125
-10.04364
-6.257034
-2.205765
1.868042
5.71077
9.024902
11.48293
12.84587
13.07085
12.36598
11.13487
9.860931
8.926605
8.512253
8.578812
8.890823
9.088272
8.832504
7.938629
6.477127
4.79097
3.320038
2.392319
2.03801
1.92804
1.544983
0.5020447
-1.281815
-3.513458
-5.765182
-7.703964
-9.292755
-10.78021
-12.49823
-14.59021
-16.86363
-18.85269
-20.04953
-20.11656
-19.02135
-16.94481
-14.13634
-10.79865
-7.054138
-3.046005
0.9838257
4.67337
7.705261
9.915222
11.34531
12.21146
12.69603
12.84372
12.5186
11.54784
9.956055
8.060638
6.344452
5.252792
4.875412
4.919281
4.850342
4.217178
2.904709
1.224625
-0.301651
-1.266083
-1.60614
-1.579147
-1.592041
-1.920074
-2.594131
-3.486191
-4.465363
-5.586716
-7.027664
-8.980682
-11.38641
-13.91585
-16.02739
-17.18021
-17.03038
-15.5143
-12.81996
-9.28949
-5.312836
-1.237686
2.633286
6.064407
8.896866
11.04257
12.45947
13.16139
13.18024
12.5802
11.51115
10.10922
8.557465
7.062653
5.751068
4.668579
3.811066
3.090179
2.414719
1.725159
1.006195
0.2378693
-0.5469818
-1.38356
-2.307709
-3.36441
-4.565582
-5.892273
-7.284668
-8.700439
-10.18005
-11.86157
-13.95905
-16.59351
-19.66925
-22.7605
-25.15967
-26.09326
-25.02472
-21.88968
-17.14502
-11.62683
-6.214478
-1.588806
1.8974
4.223022
5.521637
5.929108
5.586823
4.661102
3.389221
2.06842
0.9830322
0.2787476
-0.03359985
-0.08016968
-0.03451538
-0.03268433
-0.1507568
-0.3839111
-0.6589355
-0.8869019
-1.053284
-1.220001
-1.596771
-2.378174
-3.648636
-5.300491
-7.043823
-8.550995
-9.608078
-10.28638
-10.83371
-11.57021
-12.64943
-13.94127
-15.08615
-15.61765
-15.17854
-13.58536
-10.8922
-7.288391
-3.084869
1.373383
5.724258
9.587891
12.6449
14.64243
15.47043
15.22334
14.18414
12.7309
11.2572
10.02834
9.148682
8.580597
8.213943
7.925369
7.670502
7.458176
7.307999
7.157639
6.888916
6.355011
5.443573
4.148483
2.530273
0.6737671
-1.362686
-3.538422
-5.82132
-8.106094
-10.22914
-12.06584
-13.61263
-15.06485
-16.68285
-18.64227
-20.7836
-22.59218
-23.35306
-22.40501
-19.46407
-14.76874
-8.986572
-2.980652
2.470078
6.845062
9.920471
11.65747
12.13811
11.48399
9.918701
7.771255
5.494858
3.570679
2.361893
1.944946
2.062454
2.252396
2.100388
1.452042
0.4721985
-0.4894867
-1.141983
-1.430603
-1.537888
-1.783539
-2.395432
-3.3927
-4.625656
-5.862213
-6.977554
-7.992294
-9.038788
-10.28401
-11.82304
-13.67522
-15.77779
-17.9837
-20.02898
-21.54521
-22.06517
-21.19646
-18.72484
-14.69992
-9.469391
-3.603638
2.200989
7.36235
11.46069
14.33426
15.98204
16.57224
16.32327
15.46315
14.26971
13.03647
12.07129
11.54005
11.46428
11.65544
11.8187
11.66212
10.97011
9.700119
7.912491
5.74437
3.369354
1.020386
-1.039078
-2.57814
-3.547165
-4.184517
-4.935844
-6.297127
-8.589424
-11.79103
-15.49934
-19.06281
-21.83447
-23.35937
-23.42073
-21.96828
-19.11837
-15.06092
-10.04262
-4.394028
1.476578
7.109741
12.08685
16.0545
18.86401
20.51197
21.14722
20.96632
20.181
18.994
17.64063
16.36073
15.40682
14.9414
14.95441
15.28412
15.64384
15.7193
15.30264
14.37258
13.0441
11.48461
9.801659
7.992645
6.007538
3.777016
1.260071
-1.564232
-4.677666
-8.105202
-11.86877
-15.93966
-20.16765
-24.2058
-27.49552
-29.39164
-29.39162
-27.29847
-23.29844
-17.9566
-11.97172
-5.999168
-0.4468155
4.520275
8.918613
12.76662
15.98761
18.39529
19.81322
20.19114
19.69018
18.66614
17.51578
16.60232
16.11221
16.10108
16.50087
17.14418
17.81703
18.29074
18.39764
18.0699
17.36366
16.39383
15.26235
13.99298
12.51598
10.77466
8.786201
6.679573
4.697628
3.011234
1.674276
0.5506134
-0.6425724
-2.207369
-4.361307
-7.197865
-10.6716
-14.53984
-18.37741
-21.57324
-23.4345
-23.37882
-21.12076
-16.79649
-10.98956
-4.506689
1.861177
7.550335
12.2983
16.1234
19.12926
21.42037
23.04017
24.01017
24.43504
24.46121
24.28257
24.01062
23.67957
23.27974
22.85411
22.45559
22.1157
21.76434
21.19746
20.19455
18.6206
16.55463
14.21744
11.86101
9.584572
7.275375
4.727268
1.760441
-1.537006
-4.83606
-7.686363
-9.750267
-10.96072
-11.5524
-11.99073
-12.76294
-14.21947
-16.42247
-19.15698
-21.95816
-24.31441
-25.81071
-26.20366
-25.4393
-23.56334
-20.66315
-16.80561
-12.17554
-7.113007
-2.151764
2.094246
5.166893
6.953468
7.718536
7.943336
8.087273
8.294456
8.418869
8.163681
7.356812
6.136269
4.871376
3.974335
3.622002
3.73912
4.043831
4.225952
4.078682
3.505127
2.495346
1.072655
-0.6400909
-2.477425
-4.127678
-5.310181
-5.903763
-6.062859
-6.162613
-6.640472
-7.818825
-9.783699
-12.38733
-15.24157
-17.82764
-19.54566
-19.82365
-18.29664
-14.96046
-10.27209
-5.004715
-0.0402298
3.973473
6.817513
8.657616
9.905388
10.9081
11.7962
12.48872
12.79691
12.58423
11.87689
10.86379
9.797211
8.943008
8.435661
8.262703
8.312294
8.384483
8.229942
7.703995
6.753632
5.429596
3.85376
2.124565
0.2887115
-1.629486
-3.642097
-5.748077
-7.999016
-10.50636
-13.40503
-16.73037
-20.30242
-23.65762
-26.10146
-26.92589
-25.70639
-22.5004
-17.87803
-12.66922
-7.6688
-3.379333
0.1073608
2.933693
5.261307
7.119858
8.337341
8.698288
8.194817
7.087967
5.868797
5.068352
4.995148
5.611275
6.663155
7.822388
8.878471
9.782539
10.55631
11.1931
11.57881
11.54134
10.9085
9.610031
7.670967
5.249794
2.544838
-0.2217331
-2.82531
-5.13958
-7.227798
-9.31414
-11.68381
-14.54445
-17.76524
-20.84798
-23.14028
-23.96493
-22.94899
-20.10952
-15.76012
-10.42358
-4.699898
0.8519516
5.742241
9.543503
12.07897
13.47205
14.09769
14.51452
15.18998
16.31602
17.71719
18.97194
19.58278
19.27961
18.08085
16.27684
14.30236
12.49583
11.06361
10.02873
9.310326
8.751518
8.204071
7.495346
6.446686
4.962425
2.96994
0.5297928
-2.185593
-4.914543
-7.390434
-9.386223
-10.86333
-12.0079
-13.15879
-14.75932
-17.09228
-20.08234
-23.30516
-26.02801
-27.48746
-27.17205
-24.96118
-21.12864
-16.25649
-10.98197
-5.907234
-1.489723
2.038658
4.682671
6.615501
8.1866
9.748138
11.47993
13.36024
15.12817
16.43512
17.03799
16.90207
16.19586
15.30348
14.58867
14.24008
14.22624
14.27588
14.024
13.27353
12.03223
10.46716
8.78714
7.018738
4.967239
2.44281
-0.5974274
-3.886246
-6.886734
-9.090118
-10.28555
-10.67627
-10.80743
-11.29709
-12.50404
-14.4832
-16.99323
-19.61079
-21.90974
-23.47661
-24.00896
-23.36864
-21.55725
-18.73448
-15.1543
-11.08395
-6.744019
-2.361954
1.843536
5.66716
8.928589
11.55733
13.54179
14.91145
15.64713
15.69724
15.0002
13.66495
12.01147
10.49992
9.551315
9.309875
9.562683
9.880325
9.862274
9.368469
8.561142
7.795609
7.36702
7.32991
7.459473
7.432434
7.045639
6.317688
5.492325
4.814301
4.370712
3.965393
3.256531
1.925903
-0.1166077
-2.692047
-5.444412
-8.010391
-10.21303
-12.05672
-13.70618
-15.31889
-16.97792
-18.5488
-19.73956
-20.18633
-19.58272
-17.8163
-15.01111
-11.48973
-7.676926
-4.003983
-0.8097839
1.729248
3.591446
4.868301
5.690781
6.117859
6.104721
5.597961
4.610748
3.299316
1.946228
0.8556671
0.243576
0.117569
0.3201447
0.5832214
0.7187958
0.6241455
0.2936707
-0.2281952
-0.9012146
-1.627167
-2.268219
-2.677231
-2.790771
-2.683151
-2.584824
-2.810577
-3.590988
-5.014496
-6.920471
-9.01709
-10.98262
-12.55876
-13.66978
-14.43243
-15.08641
-15.85266
-16.89281
-18.23409
-19.74458
-21.23726
-22.46086
-23.15244
-23.03313
-21.92906
-19.7654
-16.7019
-13.06711
-9.275101
-5.680939
-2.47287
0.2794342
2.57283
4.337402
5.43512
5.691254
5.105789
3.931122
2.5811
1.572388
1.275696
1.832428
3.082916
4.698914
6.266754
7.470718
8.173294
8.380295
8.188248
7.665604
6.799194
5.515457
3.794609
1.743439
-0.4225464
-2.440712
-4.163521
-5.591789
-6.862877
-8.103172
-9.340324
-10.48582
-11.46734
-12.3639
-13.43401
-15.00446
-17.24772
-19.97501
-22.67345
-24.63136
-25.22984
-24.21055
-21.66536
-17.91411
-13.3726
-8.370506
-3.160393
1.986816
6.732391
10.66676
13.44196
14.91579
15.27372
14.94797
14.49785
14.38213
14.81343
15.70329
16.75234
17.62123
18.05259
17.94405
17.33569
16.39119
15.37043
14.61423
14.43464
14.96794
16.04645
17.21976
17.84518
17.34382
15.51703
12.59854
9.161129
5.86298
3.107162
0.9073219
-1.017672
-3.058073
-5.47879
-8.303604
-11.4014
-14.53983
-17.55034
-20.30112
-22.61712
-24.21393
-24.70095
-23.65952
-20.87522
-16.5016
-11.0666
-5.322683
0.03509998
4.54749
8.06659
10.63626
12.39187
13.42388
13.8706
13.94395
13.93038
14.10411
14.55649
15.17457
15.67378
15.84772
15.6264
15.11764
14.51105
13.90803
13.30118
12.63357
11.80563
10.75991
9.497553
7.995409
6.251118
4.278824
2.133949
-0.06482887
-2.200565
-4.243959
-6.234705
-8.22197
-10.24859
-12.31334
-14.38313
-16.48659
-18.706
-21.12991
-23.72362
-26.22525
-28.11879
-28.75415
-27.57582
-24.33147
-19.23545
-12.89477
-6.10244
0.3739662
6.026649
10.63748
14.12049
16.52127
17.87694
18.26991
17.88377
17.00819
16.00141
15.19054
14.76129
14.70359
14.90577
15.16282
15.28895
15.17429
14.81773
14.30399
13.77268
13.33421
12.97029
12.54115
11.81683
10.56448
8.67733
6.248703
3.554085
0.9253998
-1.409477
-3.441956
-5.406883
-7.679474
-10.60349
-14.25029
-18.43472
-22.68201
-26.39726
-28.99442
-30.00464
-29.13557
-26.3401
-21.83713
-16.07399
-9.725685
-3.505676
2.002869
6.4599
9.80188
12.17738
13.79877
14.82671
15.3627
15.43456
15.04726
14.25013
13.13012
11.80695
10.42524
9.144844
8.089462
7.296196
6.681816
6.052307
5.2202
4.01873
2.423386
0.5078583
-1.587509
-3.732246
-5.826324
-7.817612
-9.645081
-11.24203
-12.64066
-13.95667
-15.42499
-17.2634
-19.46877
-21.70659
-23.29883
-23.47481
-21.65236
-17.76195
-12.24657
-5.940613
0.2712708
5.69754
9.967316
13.05562
15.07399
16.21277
16.5528
16.15871
15.08752
13.48325
11.60277
9.788101
8.394882
7.590622
7.325607
7.285797
7.10405
6.478134
5.324265
3.814667
2.233002
0.8544312
-0.2666779
-1.234421
-2.314926
-3.780594
-5.854111
-8.663834
-12.18352
-16.23186
-20.38512
-23.99953
-26.23007
-26.30234
-23.77536
-18.80527
-12.17659
-5.009796
1.558914
6.830429
10.64758
13.30438
15.21834
16.63266
17.5368
17.74675
17.15508
15.86797
14.20067
12.54285
11.18213
10.21382
9.572769
9.075073
8.550171
7.887695
7.043961
6.048431
4.938904
3.727127
2.377228
0.7985992
-1.157394
-3.607498
-6.628815
-10.18883
-14.09004
-18.04268
-21.66228
-24.54263
-26.28743
-26.59467
-25.2374
-22.21536
-17.71603
-12.10709
-5.899414
0.3720856
6.232117
11.33923
15.47656
18.55258
20.5162
21.44687
21.49225
20.85944
19.85403
18.78812
17.90155
17.27673
16.85904
16.47296
15.93982
15.17603
14.21741
13.21765
12.34634
11.66516
11.04721
10.26324
9.083405
7.373901
5.16803
2.616089
-0.1077271
-2.897308
-5.685486
-8.351166
-10.66339
-12.31909
-13.0799
-12.90884
-12.02252
-10.77655
-9.465515
-8.098389
-6.424957
-4.109833
-1.003815
2.677277
6.415985
9.620087
11.92117
13.30316
14.04395
14.48065
14.76474
14.81659
14.42737
13.51422
12.22955
10.9545
10.09607
9.859741
10.10605
10.43942
10.43585
9.823364
8.656555
7.208832
5.798615
4.574799
3.482666
2.352692
1.014648
-0.5614929
-2.305267
-4.059418
-5.695221
-7.163116
-8.49057
-9.760529
-11.11789
-12.7691
-14.93561
-17.80276
-21.43616
-25.59299
-29.76245
-33.18491
-35.10388
-34.91901
-32.41641
-27.7471
-21.3786
-13.96741
-6.166779
1.478912
8.602203
14.94211
20.32913
24.62762
27.74173
29.66876
30.53473
30.59064
30.1554
29.58405
29.15109
29.01291
29.17087
29.46576
29.69553
29.67084
29.30383
28.58969
27.56033
26.29596
24.82483
23.16031
21.32703
19.39514
17.46005
15.64203
13.98718
12.47971
11.08325
9.754517
8.434967
7.069763
5.536591
3.674835
1.37204
-1.342285
-4.27478
-7.096497
-9.505219
-11.35583
-12.72244
-13.89963
-15.29279
-17.22681
-19.85147
-23.13971
-26.90002
-30.84085
-34.55188
-37.48102
-39.0069
-38.58063
-35.8963
-31.07825
-24.71057
-17.6951
-10.92657
-5.01236
-0.1038208
4.012482
7.645081
10.96521
13.88443
16.16855
17.62476
18.27524
18.36749
18.22498
18.10162
18.07126
18.09811
18.09628
18.03354
17.94373
17.84045
17.67764
17.3371
16.71698
15.78336
14.64758
13.4791
12.42044
11.51468
10.69925
9.843231
8.825439
7.600616
6.171555
4.616348
2.988831
1.313751
-0.4304962
-2.238937
-4.082245
-5.843033
-7.41124
-8.744843
-9.915207
-11.11258
-12.58858
-14.53062
-16.97342
-19.8195
-22.86566
-25.84749
-28.44412
-30.23299
-30.75737
-29.63219
-26.69679
-22.16931
-16.6051
-10.70763
-5.055206
0.02864075
4.554688
8.670258
12.50615
16.03763
19.09721
21.45934
22.95081
23.55582
23.3945
22.74081
21.8688
21.09369
20.59801
20.40808
20.38403
20.32309
20.05421
19.54431
18.92116
18.35056
17.95813
17.72552
17.45445
16.93764
16.0451
14.8074
13.41724
12.09441
10.95506
9.956253
8.969208
7.848145
6.544815
5.090118
3.550766
1.962036
0.3599701
-1.259155
-2.83548
-4.347183
-5.81282
-7.327499
-9.052444
-11.16304
-13.77092
-16.87196
-20.36113
-23.98306
-27.40729
-30.18767
-31.82906
-31.92989
-30.332
-27.1696
-22.8559
-17.92081
-12.80515
-7.828941
-3.187439
0.9259186
4.281357
6.628189
7.841537
8.050407
7.591057
6.959396
6.533501
6.49556
6.798073
7.259041
7.723518
8.109421
8.446739
8.749451
9.032089
9.262367
9.412224
9.507744
9.580978
9.662651
9.699677
9.547539
9.018478
7.987846
6.462837
4.627136
2.763382
1.122856
-0.1408119
-1.039886
-1.721432
-2.410732
-3.243778
-4.256535
-5.338505
-6.325062
-7.151321
-7.922085
-8.911919
-10.418
-12.64836
-15.56639
-18.89272
-22.2437
-25.20084
-27.40928
-28.63248
-28.70319
-27.50568
-24.96219
-21.16543
-16.3786
-11.06326
-5.744373
-0.8646641
3.312755
6.729648
9.416788
11.41011
12.68396
13.18877
12.93981
12.12774
11.07733
10.20097
9.812481
10.00689
10.682
11.59479
12.47696
13.11597
13.41205
13.34559
12.928
12.22574
11.34825
10.42306
9.57785
8.882917
8.311054
7.746351
7.053442
6.131321
4.971567
3.691738
2.459743
1.449688
0.7548256
0.3873672
0.2368355
0.09666824
-0.2777786
-1.11179
-2.516022
-4.396973
-6.504299
-8.520351
-10.26937
-11.80113
-13.34456
-15.11046
-17.09161
-18.95659
-20.17885
-20.20674
-18.67112
-15.58274
-11.23161
-6.167389
-1.023483
3.621605
7.362823
10.06572
11.87714
13.13274
14.1348
15.04463
15.76699
16.05217
15.66421
14.51642
12.73917
10.55648
8.225647
5.940086
3.872795
2.185364
0.9695282
0.2520676
-0.09783936
-0.3217621
-0.6854553
-1.338562
-2.271881
-3.31987
-4.303238
-5.146072
-5.891357
-6.709717
-7.715576
-8.94548
-10.3055
-11.65549
-12.90643
-14.05998
-15.15726
-16.17775
-17.00415
-17.49501
-17.63911
-17.62262
-17.80556
-18.56078
-20.01123
-21.9276
-23.76955
-24.85966
-24.6227
-22.75914
-19.33826
-14.72865
-9.522247
-4.360031
0.1944122
3.757553
6.215912
7.679474
8.33049
8.3246
7.725983
6.564514
4.966248
3.23259
1.751633
0.8814545
0.7430573
1.138931
1.695496
2.065994
2.100967
1.909256
1.749527
1.829681
2.140564
2.442825
2.355453
1.586426
0.03108215
-2.186035
-4.788361
-7.46347
-9.941238
-12.03149
-13.68764
-14.99467
-16.14168
-17.43655
-19.15063
-21.43674
-24.19446
-27.08165
-29.57315
-31.07971
-31.15356
-29.5701
-26.40918
-21.97906
-16.76146
-11.28685
-6.048721
-1.416046
2.407303
5.36203
7.485809
8.851212
9.528687
9.610626
9.197571
8.425537
7.473114
6.542236
5.882141
5.689041
6.060776
6.949402
8.10141
9.176025
9.808411
9.781815
9.088348
7.903458
6.473114
4.926086
3.240662
1.305756
-0.8823242
-3.199158
-5.36763
-7.123123
-8.356705
-9.214935
-10.01222
-11.12524
-12.8499
-15.26181
-18.21227
-21.36372
-24.3363
-26.75099
-28.32384
-28.8542
-28.18587
-26.24519
-22.99907
-18.56766
-13.28648
-7.718918
-2.50676
1.872589
5.296204
8.004608
10.37929
12.685
14.86282
16.58443
17.46129
17.32756
16.39926
15.14543
14.06087
13.45363
13.3233
13.44885
13.57224
13.54326
13.34872
13.03775
12.61713
12.013
11.07172
9.679626
7.802307
5.568634
3.227188
1.045715
-0.8027878
-2.313583
-3.594994
-4.810585
-6.060013
-7.376602
-8.716263
-10.11245
-11.69492
-13.67869
-16.26232
-19.41139
-22.87191
-26.14447
-28.58633
-29.6498
-29.01431
-26.66399
-22.89862
-18.19682
-13.06595
-7.922729
-3.006699
1.596008
5.788422
9.393227
12.16465
13.931
14.73956
14.92953
14.98556
15.29214
15.96452
16.80614
17.45042
17.64203
17.35899
16.80128
16.27074
15.93626
15.77073
15.60722
15.23773
14.5818
13.66663
12.55102
11.27976
9.813171
8.119289
6.194237
4.14579
2.156967
0.4346962
-0.9336243
-2.068245
-3.196598
-4.586647
-6.32613
-8.278763
-10.16801
-11.77605
-13.1084
-14.46833
-16.29692
-18.90229
-22.23969
-25.85171
-28.96097
-30.77488
-30.74752
-28.67138
-24.70206
-19.24642
-12.81059
-5.960146
0.7408543
6.826622
11.98051
16.07529
19.16591
21.42237
23.05871
24.25354
25.08816
25.56912
25.68018
25.38908
24.72336
23.77891
22.65794
21.49297
20.37881
19.35205
18.37639
17.39112
16.31929
15.1893
14.1459
13.3338
12.8271
12.5064
12.09746
11.27976
9.848996
7.781919
5.244727
2.508311
-0.2746922
-3.073596
-5.942492
-8.928871
-11.96222
-14.89248
-17.60658
-20.15092
-22.6905
-25.38544
-28.14432
-30.55164
-31.95947
-31.69447
-29.38138
-25.12336
-19.49724
-13.31569
-7.337443
-2.060196
2.381713
6.066569
9.199905
11.91393
14.24971
16.15996
17.59783
18.56851
19.09844
19.25257
19.02005
18.45642
17.63152
16.65839
15.70401
14.88723
14.24844
13.71934
13.1889
12.53434
11.70686
10.73052
9.638889
8.433056
7.048939
5.431326
3.594404
1.664499
-0.1792507
-1.766356
-3.02449
-4.029728
-4.935946
-5.960617
-7.261675
-8.937798
-11.01503
-13.46105
-16.11628
-18.69796
-20.76135
-21.75839
-21.24389
-19.00187
-15.19817
-10.30179
-4.973513
0.1774521
4.729588
8.485462
11.45624
13.77526
15.61941
17.16237
18.52478
19.71859
20.67659
21.27628
21.40314
21.05167
20.34456
19.48388
18.62228
17.82056
17.00612
16.07851
14.97158
13.73048
12.49349
11.36726
10.35595
9.304195
7.974432
6.167665
3.875017
1.258581
-1.390684
-3.765175
-5.719864
-7.287403
-8.628199
-9.920441
-11.30221
-12.84063
-14.62457
-16.74712
-19.25069
-22.1083
-25.11383
-27.88942
-29.94395
-30.81993
-30.19283
-27.93169
-24.17241
-19.23434
-13.64504
-7.972067
-2.724701
1.769249
5.382999
8.156763
10.21151
11.66134
12.56311
12.94826
12.87327
12.45546
11.87403
11.27527
10.77779
10.43435
10.25062
10.20655
10.23742
10.26162
10.12772
9.609524
8.516077
6.769684
4.481548
1.922991
-0.5099831
-2.477028
-3.834852
-4.667885
-5.290367
-6.115841
-7.561382
-9.858574
-13.0662
-16.91354
-20.8717
-24.23416
-26.28735
-26.51142
-24.71152
-21.06918
-16.06562
-10.36358
-4.587341
0.7493763
5.343653
9.138411
12.22704
14.80603
16.99764
18.83741
20.19325
20.91025
20.90972
20.3098
19.42216
18.59072
18.08227
17.93218
17.97122
17.87589
17.44613
16.68569
15.8128
15.18407
14.99032
15.15556
15.27125
14.81516
13.39335
10.96708
7.88129
4.641306
1.68457
-0.8622618
-3.20041
-5.663693
-8.52982
-11.84191
-15.44059
-18.99294
-22.14922
-24.50469
-25.70387
-25.40752
-23.41768
-19.80655
-14.92307
-9.34996
-3.726563
1.45617
5.949805
9.65159
12.54028
14.55977
15.64542
15.82441
15.29005
14.37416
13.43054
12.71579
12.2934
12.05406
11.84925
11.57471
11.22625
10.87456
10.57284
10.32744
10.09068
9.757713
9.186106
8.260319
6.898237
5.11537
3.04088
0.8516846
-1.299688
-3.312452
-5.179583
-6.950352
-8.700304
-10.51385
-12.54473
-14.93469
-17.74775
-20.78591
-23.48232
-25.05424
-24.78796
-22.38091
-18.14193
-12.8883
-7.602135
-3.039463
0.510582
3.172421
5.242317
6.914036
8.1805
8.863731
8.842316
8.158424
7.042667
5.825127
4.773418
3.981468
3.406708
2.986118
2.630241
2.348297
2.181839
2.152393
2.172409
2.068542
1.620998
0.6764183
-0.7805901
-2.647732
-4.739803
-6.838306
-8.760109
-10.42751
-11.9203
-13.42229
-15.19741
-17.37449
-19.83043
-22.0729
-23.41639
-23.22481
-21.17932
-17.50829
-12.8732
-8.122345
-3.930145
-0.5409088
2.227959
4.781212
7.418816
10.16862
12.7052
14.57783
15.43603
15.24423
14.28943
13.04182
11.91719
11.08844
10.51293
10.04657
9.619713
9.270729
9.10936
9.123314
9.045135
8.463409
7.014984
4.629044
1.627792
-1.404678
-3.931526
-5.746986
-7.035622
-8.291664
-10.0046
-12.42328
-15.46961
-18.78402
-21.86773
-24.22825
-25.43884
-25.17113
-23.26182
-19.76657
-14.99896
-9.516006
-3.961357
1.159225
5.575569
9.266739
12.33974
14.86764
16.79943
17.99874
18.36871
17.97311
17.0764
15.99531
14.98845
14.13865
13.38297
12.58612
11.63888
10.50977
9.272087
8.04892
6.942123
6.002464
5.207237
4.447166
3.594154
2.514038
1.10804
-0.6162643
-2.55011
-4.555862
-6.467751
-8.25383
-10.01389
-11.99008
-14.43208
-17.47797
-21.01761
-24.64771
-27.78499
-29.81547
-30.33435
-29.2402
-26.76561
-23.27406
-19.19267
-14.82495
-10.40231
-6.056572
-1.893089
1.966248
5.427979
8.401955
10.81544
12.57066
13.58295
13.82828
13.41036
12.59464
11.70062
11.03458
10.78249
10.96233
11.46792
12.11147
12.67133
12.90965
12.62497
11.67793
10.09628
8.073669
5.926056
4.022858
2.636086
1.848419
1.481071
1.261032
0.806572
-0.1605453
-1.815437
-4.205482
-7.196686
-10.51739
-13.78308
-16.65502
-18.9398
-20.71065
-22.28885
-24.04154
-26.20007
-28.625
-30.80202
-32.05479
-31.8031
-29.79815
-26.26846
-21.75554
-16.90978
-12.25876
-8.089691
-4.472328
-1.33316
1.437675
3.916763
6.096466
7.923218
9.339775
10.339
11.01984
11.52489
11.99834
12.51855
13.06179
13.49958
13.74181
13.79626
13.78268
13.84148
14.0481
14.34819
14.59866
14.67067
14.50759
14.1696
13.77736
13.41181
13.08711
12.74381
12.31014
11.73834
11.02774
10.16513
9.119232
7.827236
6.200459
4.221046
1.950794
-0.4788895
-2.905003
-5.255539
-7.609997
-10.14844
-13.00416
-16.09058
-18.95281
-20.91558
-21.30624
-19.74891
-16.34206
-11.59428
-6.18082
-0.7160416
4.430519
9.075809
13.11464
16.41512
18.83998
20.32063
20.92276
20.8771
20.45112
19.88478
19.33657
18.84947
18.42429
18.0371
17.66772
17.32079
17.02184
16.75597
16.47652
16.11541
15.5948
14.82461
13.77254
12.46566
10.9423
9.271523
7.481827
5.606522
3.671432
1.703506
-0.2536392
-2.169998
-4.019615
-5.821434
-7.629921
-9.516685
-11.52644
-13.6036
-15.65936
-17.60716
-19.45261
-21.31197
-23.29981
-25.4275
-27.45175
-28.88416
-29.12768
-27.75558
-24.71069
-20.38673
-15.42432
-10.46807
-5.922264
-1.877441
1.733879
4.981041
7.777397
9.902191
11.09236
11.22149
10.42051
9.055328
7.597397
6.442993
5.791611
5.5924
5.637947
5.686226
5.563721
5.241089
4.775436
4.270653
3.75869
3.205406
2.515213
1.586067
0.3925095
-1.051064
-2.667
-4.326622
-5.933525
-7.421425
-8.748878
-9.960487
-11.17432
-12.51537
-14.09584
-15.92412
-17.87447
-19.7655
-21.36525
-22.47179
-22.92613
-22.58986
-21.39153
-19.33266
-16.48528
-12.99168
-9.106285
-5.114189
-1.314323
2.071976
4.913773
7.184334
8.891319
10.08073
10.78261
10.99011
10.7782
10.28356
9.688538
9.215401
8.962379
8.856689
8.709724
8.285416
7.474236
6.383865
5.224594
4.182426
3.302696
2.417297
1.295219
-0.2281189
-2.136246
-4.229042
-6.248421
-8.010208
-9.494995
-10.82859
-12.23392
-13.90593
-15.99446
-18.5447
-21.49193
-24.64839
-27.68319
-30.10327
-31.32028
-30.80367
-28.3093
-23.96691
-18.33598
-12.19885
-6.314926
-1.205246
2.965813
6.286163
8.963547
11.10293
12.73929
13.81713
14.34618
14.41301
14.19553
13.85496
13.46602
13.03192
12.46149
11.71413
10.86138
10.11015
9.709602
9.822933
10.37513
11.01837
11.26927
10.71978
9.252819
7.068527
4.58725
2.247181
0.2482319
-1.484976
-3.214968
-5.207649
-7.578571
-10.29313
-13.22405
-16.30079
-19.49259
-22.83738
-26.27177
-29.61142
-32.45462
-34.25656
-34.46788
-32.71014
-28.9367
-23.45208
-16.92158
-10.10636
-3.688789
1.920526
6.646917
10.63448
14.05449
16.96273
19.24091
20.69032
21.22556
20.95745
20.21747
19.4481
18.98742
18.94089
19.15666
19.37715
19.35156
18.97868
18.32723
17.52476
16.68555
15.78418
14.69226
13.23678
11.35056
9.131237
6.828709
4.693481
2.846886
1.218788
-0.463913
-2.459934
-4.890472
-7.666992
-10.57556
-13.36853
-15.9706
-18.48973
-21.12862
-24.03151
-27.07724
-29.81729
-31.60316
-31.75957
-29.81373
-25.67713
-19.70045
-12.56428
-5.116226
1.880791
7.89904
12.68073
16.27407
18.90651
20.88596
22.49191
23.95421
25.39281
26.77849
27.958
28.65691
28.61985
27.70879
26.02206
23.90639
21.85314
20.29938
19.45094
19.21846
19.25897
19.16325
18.63301
17.54745
15.97243
14.03838
11.83447
9.41024
6.799835
4.065269
1.305603
-1.381386
-3.921455
-6.292694
-8.502754
-10.59235
-12.57349
-14.50401
-16.49694
-18.75267
-21.43854
-24.62264
-28.04136
-31.07722
-32.89081
-32.65766
-29.97803
-25.02968
-18.56293
-11.60301
-5.084518
0.5186768
5.240158
9.382095
13.27271
16.92959
20.07745
22.34294
23.46622
23.49325
22.77518
21.795
20.98264
20.55914
20.53461
20.76047
21.04861
21.20731
21.12016
20.70324
19.93961
18.88911
17.61792
16.18835
14.63826
13.0237
11.3265
9.572662
7.755287
5.846115
3.83783
1.708031
-0.5484085
-2.913719
-5.304901
-7.67234
-9.922958
-12.02809
-14.0623
-16.19646
-18.64323
-21.55398
-24.87539
-28.25948
-31.12855
-32.78609
-32.72263
-30.7578
-27.1239
-22.3353
-16.95936
-11.41805
-5.978554
-0.8058548
3.895691
7.823265
10.64905
12.21825
12.61118
12.17419
11.35854
10.52407
9.867165
9.389809
9.019798
8.678612
8.353554
8.024849
7.681808
7.345329
7.055824
6.901482
6.947411
7.140511
7.262825
6.98658
6.02301
4.283813
1.908249
-0.8147583
-3.576225
-6.15329
-8.504219
-10.66815
-12.72929
-14.78673
-16.95046
-19.34538
-22.03748
-24.89432
-27.50161
-29.21211
-29.32109
-27.35921
-23.27454
-17.48441
-10.73755
-3.835869
2.603416
8.247757
12.95305
16.65411
19.27016
20.71132
20.98555
20.2588
18.90144
17.32576
15.88882
14.76219
13.97636
13.4462
13.10167
12.88428
12.71237
12.51971
12.23485
11.82463
11.27078
10.60866
9.800064
8.766251
7.378632
5.515427
3.158508
0.3761597
-2.656769
-5.740387
-8.681244
-11.36432
-13.75764
-15.92401
-18.01839
-20.2364
-22.72638
-25.49582
-28.34193
-30.86954
-32.58556
-33.01315
-31.76544
-28.67046
-23.76408
-17.37302
-10.06366
-2.612305
4.203293
9.770523
13.80447
16.43547
18.04013
19.12828
20.05049
20.92693
21.67606
22.13188
22.15807
21.68625
20.77271
19.49397
17.99396
16.43275
14.99088
13.83109
13.00119
12.41508
11.83517
11.02943
9.795059
8.145065
6.224396
4.267014
2.499084
0.9723053
-0.3532257
-1.639542
-3.039536
-4.716675
-6.741714
-9.103851
-11.74704
-14.60408
-17.67676
-20.94386
-24.35007
-27.63725
-30.31148
-31.72304
-31.26192
-28.64305
-24.04378
-18.0994
-11.61725
-5.294556
0.4421082
5.484268
9.852722
13.55663
16.49408
18.55859
19.70906
20.07669
19.86179
19.27071
18.45496
17.48607
16.40938
15.31487
14.31679
13.50612
12.8643
12.28087
11.63184
10.83846
9.906311
8.9207
7.920944
6.910782
5.863403
4.773132
3.727158
2.842712
2.156265
1.54126
0.7127991
-0.6060486
-2.515488
-4.839417
-7.234955
-9.340424
-10.98486
-12.28767
-13.56546
-15.14246
-17.19328
-19.66998
-22.3125
-24.77965
-26.70505
-27.73564
-27.52097
-25.71539
-22.158
-16.92261
-10.41838
-3.32431
3.607468
9.778641
14.84229
18.72946
21.5468
23.40752
24.43088
24.69441
24.32469
23.53946
22.58073
21.7011
21.02463
20.56668
20.21513
19.80424
19.20581
18.36632
17.32838
16.17839
15.00249
13.80281
12.51797
11.06705
9.41069
7.605515
5.797012
4.165588
2.796936
1.650681
0.5578461
-0.7122955
-2.327057
-4.308914
-6.530853
-8.779251
-10.86394
-12.76274
-14.58975
-16.59796
-18.99623
-21.80255
-24.8075
-27.55016
-29.46049
-29.99837
-28.80688
-25.78104
-21.09137
-15.16025
-8.566528
-1.945099
4.118942
9.219849
13.15517
15.94507
17.7585
18.78781
19.21956
19.19632
18.84384
18.26434
17.58121
16.84099
16.07187
15.27567
14.44363
13.62062
12.88026
12.28314
11.8042
11.33969
10.70451
9.754196
8.459122
6.93129
5.35141
3.858887
2.454987
0.9949646
-0.6796417
-2.60672
-4.668243
-6.645782
-8.340408
-9.707718
-10.87306
-12.05116
-13.43709
-15.17487
-17.31569
-19.82791
-22.62057
-25.49046
-28.04449
-29.74367
-29.97043
-28.24121
-24.46634
-19.02541
-12.68393
-6.360138
-0.8692322
3.381195
6.414185
8.606064
10.4198
12.17523
13.89635
15.33659
16.20706
16.34988
15.90776
15.26541
14.90045
15.13393
16.00301
17.31389
18.71143
19.90681
20.72894
21.15051
21.19099
20.91811
20.40588
19.73402
18.99298
18.23337
17.42523
16.47743
15.28665
13.74323
11.82211
9.555885
7.008636
4.310425
1.606911
-0.9328613
-3.203033
-5.19268
-7.085495
-9.158508
-11.70232
-14.8291
-18.31761
-21.6641
-24.1624
-25.12812
-24.1758
-21.29424
-16.88348
-11.61529
-6.242393
-1.364296
2.642586
5.674057
7.807953
9.18119
9.912453
10.07321
9.704498
8.884445
7.779182
6.59433
5.550629
4.848701
4.544296
4.598999
4.848671
5.109428
5.239922
5.174477
4.87928
4.36499
3.609756
2.562645
1.270256
-0.1514511
-1.516823
-2.634594
-3.489491
-4.269875
-5.285637
-6.817799
-8.995464
-11.66332
-14.49928
-17.15423
-19.41802
-21.32193
-23.06053
-24.8367
-26.68783
-28.43694
-29.68892
-30.01112
-29.0845
-26.81544
-23.36388
-19.02877
-14.20488
-9.277699
-4.582249
-0.3754158
3.130573
5.830944
7.706661
8.82172
9.328785
9.357048
9.037106
8.511196
7.902149
7.304062
6.776329
6.364182
6.103992
6.063988
6.307789
6.865387
7.672211
8.526093
9.153244
9.228352
8.534008
7.033905
4.909637
2.463207
0.02569962
-2.127964
-3.845303
-5.0746
-5.837807
-6.244148
-6.463024
-6.729851
-7.331551
-8.538902
-10.47772
-12.98965
-15.55619
-17.4531
-18.00009
-16.82876
-14.01477
-10.02613
-5.499466
-1.004509
3.099174
6.656956
9.643158
12.08727
13.99485
15.36311
16.19526
16.51917
16.35815
15.77942
14.90146
13.92804
13.08904
12.52916
12.22044
11.925
11.3605
10.33378
8.856461
7.117277
5.392586
3.854712
2.550337
1.386459
0.2367363
-1.010109
-2.415586
-3.998884
-5.784863
-7.757816
-9.86377
-11.98311
-13.97345
-15.78965
-17.48828
-19.20698
-21.03937
-22.89868
-24.45564
-25.2534
-24.86459
-23.00383
-19.69024
-15.19867
-9.986235
-4.61499
0.4280338
4.750862
8.143724
10.53807
12.00125
12.68268
12.78969
12.52685
12.10514
11.65993
11.27892
10.94269
10.53739
9.957504
9.159718
8.230778
7.358276
6.701138
6.313004
6.082453
5.790695
5.227018
4.276052
2.916567
1.256707
-0.5640621
-2.414612
-4.194599
-5.857003
-7.425861
-8.975996
-10.65134
-12.61716
-14.94637
-17.55313
-20.12811
-22.18982
-23.17044
-22.63134
-20.41108
-16.64706
-11.77688
-6.349797
-0.9085865
4.133435
8.495218
12.0252
14.58774
16.13417
16.71414
16.52624
15.87585
15.06367
14.29795
13.61258
12.94852
12.23139
11.46471
10.7427
10.16941
9.823543
9.670462
9.616508
9.519742
9.227291
8.635106
7.634725
6.178282
4.242219
1.893255
-0.6703386
-3.191804
-5.413498
-7.191394
-8.601398
-9.909256
-11.47402
-13.61685
-16.44042
-19.78505
-23.21581
-26.18523
-28.15397
-28.75974
-27.85056
-25.46283
-21.77894
-17.07874
-11.71368
-6.077114
-0.605979
4.306696
8.363381
11.42455
13.51614
14.79115
15.45122
15.69285
15.67673
15.54099
15.42503
15.42555
15.58227
15.80701
15.88137
15.59962
14.90109
13.95884
13.1039
12.64512
12.66208
12.8911
12.91693
12.32809
11.0
9.12019
7.077376
5.206719
3.657958
2.325854
1.01335
-0.3987291
-1.910008
-3.400654
-4.762353
-6.033361
-7.38086
-9.035794
-11.1777
-13.80239
-16.72311
-19.64133
-22.26384
-24.39002
-25.93639
-26.82363
-26.90518
-25.96758
-23.77013
-20.23078
-15.56801
-10.32316
-5.212254
-0.9068129
2.271248
4.375254
5.771057
6.855664
7.868646
8.80398
9.518869
9.903727
10.028
10.14913
10.54262
11.3426
12.43865
13.50562
14.20519
14.34249
13.96924
13.3132
12.62989
12.06743
11.58112
11.00852
10.15014
8.912388
7.350272
5.628122
3.90726
2.309549
0.8843751
-0.3916106
-1.55369
-2.666987
-3.785959
-5.000785
-6.374167
-7.922351
-9.614312
-11.3606
-13.1439
-14.99038
-16.95898
-19.04247
-21.10648
-22.89005
-24.05198
-24.30936
-23.46893
-21.46791
-18.32229
-14.19625
-9.42049
-4.432584
0.2372141
4.227656
7.37167
9.821061
11.84684
13.68888
15.30976
16.44038
16.76371
16.09153
14.60071
12.72873
11.08433
10.15099
10.14606
10.90627
11.99484
12.91476
13.24387
12.81475
11.70213
10.15174
8.414219
6.676772
4.974142
3.320673
1.749249
0.3405085
-0.7713985
-1.571545
-2.192994
-2.858602
-3.829802
-5.219765
-6.984588
-8.981912
-11.06287
-13.09865
-15.02459
-16.71826
-17.96435
-18.51032
-18.08556
-16.52273
-13.78941
-10.06449
-5.660782
-1.013845
3.417408
7.259602
10.3397
12.7446
14.71413
16.51221
18.22723
19.75022
20.81003
21.17039
20.74601
19.63591
18.07357
16.26464
14.37409
12.50233
10.72401
9.096487
7.695669
6.510874
5.473265
4.479774
3.400089
2.203651
0.9180222
-0.4206486
-1.761045
-3.082483
-4.362362
-5.539856
-6.547344
-7.394852
-8.134815
-8.885799
-9.757439
-10.78583
-11.92677
-13.11207
-14.30512
-15.55267
-17.01243
-18.81247
-20.9657
-23.26664
-25.28607
-26.45593
-26.28138
-24.49278
-21.1405
-16.59323
-11.40209
-6.121056
-1.185017
3.197765
6.999584
10.29628
13.15059
15.5429
17.35797
18.41154
18.58006
17.87682
16.58178
15.13449
14.01549
13.50425
13.56781
13.89989
14.10915
13.97853
13.53997
13.07137
12.82336
12.84096
12.9197
12.7124
11.95356
10.58498
8.778778
6.80864
4.914227
3.1991
1.628056
0.1106224
-1.442875
-3.092644
-4.811493
-6.531784
-8.182354
-9.737347
-11.24708
-12.88232
-14.78579
-17.04095
-19.56367
-22.14133
-24.51817
-26.51875
-28.09437
-29.19196
-29.67567
-29.22858
-27.51548
-24.33346
-19.84447
-14.57849
-9.282509
-4.653702
-1.04377
1.617889
3.682823
5.542336
7.403488
9.195107
10.68452
11.67116
12.13863
12.26958
12.33784
12.54547
12.95541
13.49267
13.99993
14.3391
14.46903
14.42278
14.2938
14.13406
13.93656
13.63093
13.09536
12.19095
10.82171
8.994156
6.765846
4.336243
1.920555
-0.2699203
-2.105003
-3.568893
-4.745888
-5.762703
-6.752869
-7.840034
-9.08316
-10.52716
-12.21463
-14.16604
-16.37942
-18.75222
-21.04301
-22.91779
-24.03282
-24.06309
-22.82797
-20.3031
-16.62057
-12.04915
-7.002907
-1.974915
2.5476
6.194221
8.841988
10.63484
11.89094
12.98742
14.10187
15.16259
15.88738
16.03969
15.57583
14.74814
13.91975
13.33898
13.01003
12.67799
12.04665
11.03141
9.813347
8.737808
8.087967
7.874573
7.832466
7.573097
6.784676
5.404312
3.619453
1.74575
0.02905273
-1.416862
-2.680176
-3.956726
-5.455475
-7.327057
-9.589966
-12.16987
-14.9108
-17.6302
-20.09399
-22.00327
-22.99003
-22.71781
-21.01154
-17.92454
-13.78744
-9.08532
-4.306404
0.2152023
4.285278
7.823288
10.81474
13.21084
14.95724
16.05222
16.57608
16.67432
16.56408
16.43128
16.42126
16.60839
16.98267
17.44705
17.86364
18.10229
18.09521
17.89937
17.64293
17.45995
17.39096
17.28267
16.80856
15.55563
13.21608
9.783669
5.616692
1.326805
-2.461891
-5.421867
-7.643265
-9.525116
-11.50144
-13.84424
-16.48811
-19.1694
-21.65514
-23.87666
-25.92265
-27.88118
-29.6301
-30.82552
-31.04984
-30.02396
-27.73317
-24.513
-20.83648
-17.15043
-13.74595
-10.72044
-8.039795
-5.625961
-3.449486
-1.500885
0.1335373
1.374443
2.10527
2.27774
1.936104
1.219734
0.3690567
-0.3624268
-0.7714005
-0.8136597
-0.5577621
-0.1750336
0.1817093
0.4609375
0.6735535
0.8680573
0.9688034
0.8075562
0.1514969
-1.128632
-2.972183
-5.105247
-7.143143
-8.766029
-9.816093
-10.37307
-10.65648
-10.96236
-11.55712
-12.58759
-14.06393
-15.86418
-17.72878
-19.29368
-20.20152
-20.15121
-18.93999
-16.48887
-12.86898
-8.298248
-3.148956
2.05571
6.770042
10.52539
13.06657
14.45212
14.98824
15.11552
15.21922
15.46776
15.82256
16.07602
16.00922
15.54921
14.78285
13.91006
13.14488
12.59508
12.18159
11.74507
11.08786
10.09062
8.722839
7.023155
5.045158
2.890472
0.6523819
-1.555748
-3.585396
-5.323448
-6.731697
-7.939026
-9.199844
-10.87142
-13.25339
-16.39916
-20.06266
-23.6553
-26.43568
-27.75701
-27.25542
-25.02295
-21.4758
-17.23668
-12.85949
-8.66412
-4.758846
-1.10051
2.334476
5.524734
8.325302
10.57842
12.1968
13.20899
13.72618
13.87385
13.70804
13.22085
12.4214
11.33445
10.12016
9.014164
8.287773
8.039825
8.197758
8.479366
8.52235
8.057083
6.969141
5.357901
3.419127
1.370953
-0.609726
-2.422052
-4.027502
-5.475842
-6.846691
-8.262892
-9.863482
-11.77209
-14.04422
-16.58797
-19.08851
-21.05279
-21.88738
-21.04835
-18.28472
-13.76427
-8.057785
-1.980239
3.696205
8.510862
12.39273
15.57065
18.39707
21.04678
23.4896
25.4245
26.51761
26.51499
25.37
23.3074
20.75035
18.19178
16.05576
14.6145
13.85348
13.54327
13.3586
12.98059
12.25298
11.14184
9.745624
8.143248
6.41401
4.545778
2.508012
0.3079672
-1.982188
-4.253025
-6.433975
-8.486731
-10.47612
-12.4821
-14.59991
-16.88799
-19.35525
-22.01083
-24.80674
-27.67322
-30.41206
-32.6882
-34.03637
-33.99004
-32.19654
-28.63507
-23.62882
-17.7045
