9.53801
7.966278
6.363617
4.565903
2.446793
0.02194214
-2.534454
-4.937164
-6.932175
-8.384109
-9.366943
-10.14252
-11.01764
-12.2197
-13.83264
-15.75317
-17.79793
-19.75012
-21.36224
-22.31065
-22.24788
-20.88704
-18.14197
-14.27489
-9.805756
-5.365311
-1.419296
1.86792
4.633362
7.072906
9.275436
11.12071
12.37883
12.96797
13.02538
12.89026
12.9032
13.17633
13.54591
13.7388
13.59489
13.20302
12.86383
12.87022
13.31731
14.06526
14.7999
15.2637
15.41409
15.34264
15.16631
14.90471
14.40958
13.47131
12.00354
10.13077
8.13623
6.377396
5.025482
3.995987
3.0345
1.789902
0.05491638
-2.137192
-4.523666
-6.727081
-8.449402
-9.632736
-10.49287
-11.38414
-12.62265
-14.30951
-16.28503
-18.20044
-19.66675
-20.38484
-20.23994
-19.22487
-17.39996
-14.83324
-11.55659
-7.668686
-3.376373
0.9704895
4.956146
8.166153
10.34915
11.50346
11.80486
11.58189
11.16051
10.77016
10.53917
10.4996
10.64795
10.97504
11.49371
12.17569
12.97556
13.813
14.60135
15.2365
15.62187
15.66473
15.29109
14.47838
13.28073
11.88742
10.55579
9.533539
8.933044
8.627289
8.312119
7.619034
6.294647
4.291046
1.84169
-0.6997223
-2.974533
-4.746414
-5.98024
-6.769745
-7.285889
-7.707321
-8.19809
-8.927032
-10.02811
-11.56958
-13.47073
-15.51077
-17.33939
-18.59526
-18.9462
-18.19203
-16.29143
-13.38509
-9.739212
-5.695862
-1.617538
2.246765
5.720749
8.682739
11.01138
12.5233
13.07176
12.68401
11.61423
10.31659
9.320511
8.925613
9.104111
9.56897
9.919891
9.88504
9.500061
9.036453
8.834793
9.139923
9.924622
10.91605
11.71173
11.96744
11.50882
10.43459
9.033752
7.641174
6.470886
5.496185
4.567245
3.489548
2.203613
0.8016357
-0.5294037
-1.647202
-2.529755
-3.30336
-4.18634
-5.325897
-6.748428
-8.3806
-10.08282
-11.71706
-13.2242
-14.5834
-15.72293
-16.54398
-16.8476
-16.4166
-15.10483
-12.89723
-9.931137
-6.47937
-2.844421
0.7461243
4.124527
7.149261
9.649704
11.40495
12.23051
12.08199
11.14746
9.803406
8.535873
7.709534
7.469345
7.72551
8.210403
8.620651
8.73613
8.486633
7.977127
7.414825
7.022278
6.932068
7.149368
7.553207
7.982941
8.298584
8.441956
8.416
8.241989
7.885391
7.283615
6.384583
5.221024
3.907715
2.641815
1.582382
0.7931519
0.2443542
-0.2055817
-0.7572174
-1.608139
-2.876129
-4.553177
-6.511536
-8.559677
-10.5041
-12.22783
-13.70279
-14.94572
-15.94753
-16.53555
-16.43274
-15.35855
-13.14505
-9.89212
-5.907608
-1.630142
2.47197
6.015869
8.724213
10.4427
11.12573
10.89035
9.969452
8.760468
7.650146
6.974426
6.844803
7.12439
7.520615
7.707306
7.511353
6.914017
6.136429
5.446152
5.091736
5.195572
5.726776
6.526718
7.365128
8.024719
8.270172
8.022354
7.265121
6.104279
4.747742
3.397034
2.224197
1.276276
0.5017853
-0.2066498
-0.9279022
-1.693863
-2.49147
-3.319153
-4.226089
-5.294983
-6.60614
-8.131012
-9.732544
-11.23669
-12.51796
-13.57877
-14.48831
-15.31996
-16.00046
-16.3199
-15.97321
-14.74045
-12.60649
-9.764175
-6.546844
-3.269089
-0.1995239
2.511482
4.714851
6.266617
7.068466
7.113937
6.593803
5.840935
5.170273
4.790466
4.714561
4.809059
4.910553
4.944275
4.965149
5.101624
5.437836
5.90892
6.327957
6.509552
6.368546
5.979324
5.461838
4.897781
4.256523
3.461319
2.483635
1.390747
0.3791885
-0.3918228
-0.8838577
-1.245651
-1.725586
-2.551491
-3.780739
-5.291481
-6.830658
-8.187965
-9.290909
-10.18407
-11.00611
-11.88399
-12.82539
-13.76159
-14.57566
-15.07799
-15.0896
-14.44993
-13.05067
-10.90116
-8.160667
-5.118034
-2.136482
0.4414597
2.438934
3.844131
4.795212
5.477646
6.025978
6.488762
6.860008
7.130783
7.264565
7.223213
6.9748
6.479904
5.727863
4.767769
3.715885
2.770107
2.166573
2.129009
2.759476
3.926758
5.294247
6.411655
6.851479
6.435379
5.285519
3.79454
2.450443
1.620068
1.39357
1.565746
1.810333
1.793617
1.383408
0.594944
-0.4405899
-1.596081
-2.824322
-4.119835
-5.487999
-6.84668
-8.122295
-9.248333
-10.26725
-11.30988
-12.51595
-13.91414
-15.33531
-16.48854
-17.04073
-16.80124
-15.72877
-13.91182
-11.46701
-8.535135
-5.298246
-2.008812
1.00395
3.442814
5.138374
6.127613
6.585058
6.720499
6.683451
6.554316
6.360952
6.132576
5.929678
5.783688
5.727783
5.766991
5.928167
6.280237
6.872801
7.678717
8.523827
9.187593
9.452108
9.226798
8.556756
7.556051
6.345181
4.990431
3.583207
2.257142
1.247491
0.7185345
0.6696815
0.8726964
0.9645576
0.6214652
-0.3119488
-1.773259
-3.528989
-5.280981
-6.807687
-7.998145
-8.832776
-9.402849
-9.841923
-10.34668
-11.09828
-12.22512
-13.66188
-15.18156
-16.39882
-16.91818
-16.47331
-14.98941
-12.61637
-9.657856
-6.520657
-3.572624
-1.08936
0.835814
2.293689
3.460123
4.51681
5.522145
6.403282
7.001726
7.197252
7.026761
6.656281
6.280735
5.995337
5.765747
5.494049
5.076507
4.543902
3.992252
3.578471
3.409403
3.488802
3.744429
4.070557
4.385796
4.586884
4.592768
4.336319
3.790792
3.034113
2.20228
1.441135
0.8630352
0.4658146
0.1348839
-0.3414536
-1.14189
-2.370724
-3.938377
-5.594887
-7.015606
-8.007719
-8.596096
-9.034302
-9.674505
-10.773
-12.34372
-14.15429
-15.79648
-16.84767
-17.05209
-16.29443
-14.60497
-12.07811
-8.853319
-5.160904
-1.297146
2.398869
5.579653
7.982515
9.451344
9.991627
9.756248
9.001785
8.046822
7.167351
6.555134
6.245987
6.200783
6.317543
6.48452
6.577183
6.51273
6.227955
5.74168
5.156681
4.61998
4.280643
4.207516
4.336029
4.518276
4.574024
4.335224
3.746082
2.872303
1.846947
0.8431587
-0.04566574
-0.8659515
-1.782475
-2.979637
-4.554016
-6.398174
-8.219837
-9.683792
-10.55613
-10.87635
-10.93427
-11.1324
-11.80569
-13.06971
-14.76899
-16.53055
-17.92936
-18.56837
-18.20632
-16.75053
-14.29041
-11.08052
-7.455963
-3.802486
-0.4852905
2.237007
4.292473
5.712811
6.631641
7.201969
7.491711
7.545593
7.438492
7.340363
7.45248
7.913868
8.64677
9.360081
9.704433
9.427258
8.590759
7.529667
6.688805
6.355881
6.513123
6.852749
7.009621
6.761723
6.093067
5.215466
4.329567
3.565895
2.968845
2.496891
2.101242
1.722435
1.295433
0.7074509
-0.1205788
-1.283047
-2.799816
-4.624298
-6.645546
-8.730988
-10.7753
-12.6982
-14.47518
-16.12512
-17.70334
-19.2272
-20.56852
-21.41524
-21.34975
-20.00381
-17.24138
-13.27598
-8.601295
-3.881966
0.2496796
3.396698
5.421516
6.475998
6.856915
6.910034
6.92197
7.088902
7.453453
7.89925
8.247032
8.338776
8.137531
7.757622
7.451626
7.434044
7.809124
8.504704
9.262589
9.794346
9.907738
9.587463
8.958729
8.197353
7.370876
6.451382
5.364338
4.103943
2.775711
1.550983
0.5551376
-0.2018852
-0.8617058
-1.65926
-2.768259
-4.200193
-5.798897
-7.341934
-8.643551
-9.659863
-10.49493
-11.30806
-12.27423
-13.47077
-14.88076
-16.32318
-17.50288
-18.05165
-17.64628
-16.12529
-13.54446
-10.23429
-6.642286
-3.183908
-0.09502983
2.653263
5.214098
7.738304
10.16608
12.22392
13.53998
13.87103
13.29275
12.16367
11.01118
10.18921
9.775923
9.574892
9.329504
8.919275
8.491371
8.320322
8.536352
9.030277
9.402441
9.24671
8.362665
6.886742
5.171398
3.61244
2.429972
1.612242
1.065727
0.6551228
0.3209572
0.02224731
-0.3350201
-0.9117146
-1.843157
-3.130091
-4.592693
-5.915451
-6.793705
-7.120811
-7.025991
-6.898142
-7.153587
-8.085253
-9.729223
-11.80868
-13.84735
-15.3644
-15.98771
-15.57084
-14.21705
-12.13866
-9.59373
-6.804614
-3.942465
-1.164462
1.377751
3.536919
5.22695
6.41876
7.190289
7.630883
7.823647
7.822766
7.700297
7.54128
7.446012
7.483835
7.622803
7.775039
7.849351
7.788215
7.655488
7.601449
7.752645
8.142468
8.691235
9.238269
9.643804
9.827749
9.768147
9.495081
9.043028
8.420825
7.651755
6.745554
5.75389
4.741471
3.736509
2.697679
1.576169
0.2777405
-1.221891
-2.858842
-4.483526
-5.965604
-7.243571
-8.385555
-9.562014
-10.91176
-12.4906
-14.23883
-15.94888
-17.38579
-18.29565
-18.44848
-17.62119
-15.68681
-12.65703
-8.765603
-4.461705
-0.2626715
3.339136
6.037928
7.731085
8.515474
8.573476
8.112318
7.312211
6.368357
5.479081
4.844767
4.61248
4.828465
5.425631
6.223873
7.020669
7.657228
8.08541
8.337472
8.471472
8.524242
8.472388
8.237535
7.750807
6.989755
6.002178
4.856624
3.674228
2.603853
1.768131
1.236683
0.9833193
0.8938751
0.7671976
0.4406404
-0.2111998
-1.195971
-2.429139
-3.768359
-5.113186
-6.371796
-7.495299
-8.427696
-9.114371
-9.562038
-9.82131
-10.00157
-10.17592
-10.40909
-10.62732
-10.68928
-10.41548
-9.610474
-8.138251
-5.985382
-3.267431
-0.224968
2.815055
5.512665
7.599918
8.905608
9.416725
9.224863
8.477787
7.353083
6.055626
4.839685
4.00654
3.813955
4.374405
5.600239
7.146805
8.59185
9.601368
10.03163
10.00449
9.757038
9.504091
9.279057
8.982714
8.432989
7.512529
6.256031
4.801605
3.32844
1.964388
0.7595634
-0.3154812
-1.337933
-2.341885
-3.385799
-4.425272
-5.463758
-6.492468
-7.519583
-8.564926
-9.649902
-10.79482
-11.98939
-13.21867
-14.47197
-15.7746
-17.11931
-18.43356
-19.49155
-19.90938
-19.29934
-17.36899
-14.08732
-9.784912
-5.016289
-0.3901424
3.603594
6.729631
8.965797
10.43871
11.30839
11.70949
11.75499
11.55572
11.23719
10.89506
10.57534
10.30801
10.09143
9.89171
9.691296
9.482981
9.320404
9.284853
9.42622
9.739004
10.12181
10.33585
10.12911
9.326487
7.953207
6.245419
4.542967
3.119545
2.128178
1.518797
1.124063
0.7532501
0.2397289
-0.5643234
-1.749523
-3.275496
-4.983841
-6.549023
-7.638321
-8.087296
-7.995987
-7.719658
-7.68737
-8.201096
-9.300976
-10.85162
-12.62822
-14.44041
-16.16628
-17.60017
-18.42862
-18.30972
-16.98228
-14.43167
-10.93712
-7.019814
-3.183022
0.1686783
2.858299
4.903538
6.403149
7.505238
8.332497
8.986565
9.514843
9.924191
10.16147
10.24229
10.21385
10.13082
10.03945
9.908699
9.705498
9.390263
9.021919
8.713116
8.575169
8.615501
8.650566
8.454941
7.870659
6.929218
5.848511
4.884457
4.128605
3.459522
2.632362
1.471462
0.05731583
-1.29808
-2.238049
-2.576176
-2.444397
-2.210785
-2.308662
-2.992634
-4.254803
-5.851189
-7.516399
-9.079506
-10.50749
-11.90178
-13.34944
-14.91964
-16.54247
-18.09855
-19.42057
-20.34348
-20.76454
-20.55331
-19.63726
-17.96369
-15.52237
-12.36624
-8.67606
-4.726246
-0.8785133
2.483051
5.098728
6.855644
7.82954
8.262615
8.482063
8.768028
9.241203
9.832382
10.31283
10.41613
10.00162
9.157345
8.191986
7.545902
7.532326
8.17828
9.174988
9.972969
10.08271
9.285934
7.738003
5.898388
4.269257
3.18882
2.672592
2.469772
2.188335
1.535652
0.4137421
-1.061565
-2.679138
-4.284744
-5.804527
-7.311535
-8.860645
-10.46767
-12.05602
-13.47733
-14.63048
-15.48865
-16.09768
-16.48107
-16.59444
-16.24047
-15.2236
-13.41
-10.85896
-7.830219
-4.67054
-1.699894
0.9388161
3.235878
5.294464
7.139668
8.711197
9.8787
10.44689
10.36467
9.694874
8.699333
7.702656
7.034828
6.860344
7.15543
7.779709
8.498192
9.163712
9.726707
10.23606
10.7698
11.29902
11.64592
11.53758
10.75428
9.222923
7.174
4.99641
3.093685
1.714966
0.8579102
0.3199234
-0.1829567
-0.8437233
-1.774899
-2.956825
-4.367531
-5.995808
-7.786419
-9.659893
-11.44057
-13.00322
-14.28083
-15.35402
-16.34905
-17.33661
-18.24361
-18.79148
-18.62763
-17.453
-15.21746
-12.09601
-8.449432
-4.678669
-1.13131
1.980686
4.536327
6.465988
7.790211
8.539837
8.83794
8.814857
8.616581
8.32653
7.969807
7.57196
7.184772
6.942348
6.991562
7.420368
8.160183
9.002113
9.705204
10.07269
10.06981
9.808035
9.454456
9.13854
8.864868
8.498558
7.840931
6.748333
5.196589
3.352802
1.479584
-0.1695118
-1.492018
-2.541115
-3.482502
-4.507902
-5.659237
-6.839914
-7.868853
-8.649502
-9.272516
-10.02131
-11.2268
-13.02267
-15.2713
-17.52564
-19.22224
-19.90156
-19.38849
-17.80419
-15.4474
-12.6093
-9.440536
-6.008131
-2.372196
1.290895
4.690355
7.497377
9.497112
10.66911
11.13447
11.08216
10.63831
9.863968
8.786493
7.470459
6.077003
4.794359
3.829042
3.309469
3.300716
3.752445
4.582134
5.648228
6.748621
7.682644
8.236549
8.271128
7.721798
6.695898
5.405005
4.15456
3.211819
2.671165
2.467009
2.354828
2.028699
1.277166
0.09386253
-1.361319
-2.83532
-4.110862
-5.150811
-6.025014
-6.869654
-7.780796
-8.849652
-10.12736
-11.65984
-13.44419
-15.32163
-17.00404
-18.04462
-18.03079
-16.68596
-14.0394
-10.42424
-6.36442
-2.44537
0.9212642
3.51902
5.39128
6.712156
7.71632
8.541634
9.212009
9.650595
9.764965
9.526426
9.017418
8.388046
7.813984
7.400561
7.181669
7.144002
7.280946
7.580102
8.060042
8.653893
9.252594
9.700199
9.868504
9.715402
9.259752
8.589951
7.75914
6.809028
5.75697
4.624892
3.416778
2.075717
0.4923136
-1.409694
-3.594031
-5.82525
-7.72541
-8.988814
-9.590679
-9.868595
-10.3884
-11.65656
-13.85231
-16.72266
-19.66952
-21.98426
-23.09652
-22.74181
-20.94449
-17.97947
-14.21122
-10.02505
-5.760965
-1.686338
1.97928
5.087563
7.527836
9.295523
10.49596
11.31091
11.92724
12.42222
12.69933
12.55685
11.87142
10.75952
9.543573
8.626595
8.23271
8.323205
8.638249
8.934366
9.107404
9.238422
9.456101
9.761439
9.96352
9.801015
9.095384
7.877975
6.379171
4.861742
3.469564
2.172537
0.8129005
-0.7385159
-2.475147
-4.255964
-5.875751
-7.180906
-8.129219
-8.831911
-9.435637
-10.12531
-10.98592
-12.028
-13.18174
-14.3632
-15.47546
-16.39714
-17.00292
-17.09978
-16.5354
-15.18225
-12.99585
-10.04461
-6.531845
-2.766521
0.889185
4.079342
6.542698
8.18548
9.117765
9.580196
9.836246
10.04618
10.2458
10.39577
10.4889
10.56648
10.7056
10.93491
11.20496
11.38887
11.41718
11.32866
11.22692
11.20731
11.29107
11.38263
11.37617
11.19761
10.8319
10.28315
9.516016
8.38921
6.786003
4.725082
2.439068
0.2600384
-1.509541
-2.767912
-3.638025
-4.375191
-5.217342
-6.24538
-7.379454
-8.471233
-9.446299
-10.37015
-11.36944
-12.59973
-14.07781
-15.67375
-17.10349
-18.06725
-18.34309
-17.75778
-16.23418
-13.7308
-10.33907
-6.331285
-2.1759
1.554485
4.411129
6.214115
7.137724
7.563135
7.894203
8.281267
8.682281
8.888393
8.774097
8.392265
7.956627
7.714424
7.770912
8.087032
8.507462
8.885513
9.175793
9.398109
9.633232
9.889973
10.05425
9.917435
9.285828
8.090195
6.42931
4.597942
2.924198
1.645954
0.8018379
0.242897
-0.2913933
-1.033348
-2.037926
-3.190113
-4.262756
-5.103786
-5.729084
-6.400291
-7.472946
-9.273586
-11.87167
-15.00014
-18.09116
-20.47641
-21.64915
-21.3991
-19.83958
-17.25918
-13.97971
-10.2615
-6.300022
-2.299
1.504276
4.84626
7.534679
9.51395
10.80083
11.49493
11.7104
11.58132
11.25173
10.90293
10.70465
10.73757
10.94698
11.12632
11.08519
10.75977
10.2878
9.902538
9.81115
9.985527
10.19969
10.11834
9.501858
8.354561
6.91613
5.528656
4.432148
3.677074
3.101265
2.421291
1.434124
0.07284164
-1.580414
-3.389729
-5.236546
-7.032738
-8.703026
-10.13579
-11.21655
-11.83262
-12.03736
-12.04333
-12.18898
-12.75012
-13.77384
-14.97541
-15.86369
-15.89412
-14.71803
-12.34893
-9.068363
-5.297596
-1.450748
2.155441
5.302969
7.850704
9.692068
10.83447
11.39316
11.55138
11.53493
11.42154
11.17767
10.67714
9.835438
8.707602
7.496183
6.463419
5.827566
5.704685
6.025572
6.683168
7.541323
8.478201
9.396423
10.17433
10.67167
10.75185
10.31455
9.345629
7.95467
6.308292
4.620094
3.090948
1.838034
0.8459072
-0.01391602
-0.9116039
-2.014956
-3.364105
-4.871325
-6.375298
-7.699656
-8.762375
-9.565876
-10.18449
-10.69929
-11.21072
-11.82623
-12.70898
-13.96257
-15.53936
-17.16655
-18.3358
-18.51463
-17.32444
-14.72493
-11.02427
-6.749169
-2.488393
1.262516
4.19742
6.238845
7.46575
8.134315
8.526673
8.879058
9.257846
9.540375
9.496111
8.964723
7.977652
6.75191
5.673499
5.049332
5.008731
5.445213
6.09722
6.704236
7.153112
7.471584
7.741709
8.012954
8.189755
8.057409
7.433489
6.26099
4.671413
2.950325
1.393721
0.1669641
-0.776063
-1.625403
-2.615481
-3.840766
-5.266569
-6.693773
-7.908481
-8.798267
-9.388332
-9.835804
-10.36101
-11.12828
-12.1508
-13.32797
-14.45158
-15.30393
-15.69661
-15.50204
-14.58884
-12.86878
-10.32031
-7.038101
-3.272891
0.568341
4.067571
6.918007
9.026436
10.4918
11.5124
12.21989
12.61529
12.65392
12.29125
11.63593
10.90864
10.35714
10.06351
9.948845
9.799562
9.44067
8.861957
8.201874
7.656682
7.358493
7.301563
7.331414
7.298497
7.057389
6.556044
5.779007
4.74189
3.496716
2.12697
0.7072258
-0.6822853
-2.004136
-3.254753
-4.43713
-5.55425
-6.596116
-7.561743
-8.497925
-9.514121
-10.72575
-12.17764
-13.82798
-15.49801
-16.99401
-18.10507
-18.68865
-18.65912
-17.94269
-16.48073
-14.19355
-11.11216
-7.391933
-3.399868
0.3501453
3.376226
5.39179
6.457905
6.934923
7.331417
7.977091
8.914248
9.855028
10.45174
10.5082
10.14232
9.716463
9.538445
9.692726
9.957489
9.97324
9.506329
8.617924
7.615456
6.83931
6.522312
6.582998
6.801432
6.902225
6.699478
6.197889
5.443598
4.547016
3.559525
2.551178
1.557724
0.6274567
-0.2291031
-1.0299
-1.75993
-2.460777
-3.159325
-3.904587
-4.755062
-5.763996
-6.920952
-8.177715
-9.495308
-10.85244
-12.30232
-13.87979
-15.52515
-17.03811
-18.09251
-18.34547
-17.58863
-15.83032
-13.26056
-10.19899
-6.945755
-3.734577
-0.7269402
1.9688
4.256981
6.068764
7.31316
7.959431
8.049576
7.729191
7.210846
6.674171
6.270741
6.028267
5.901428
5.821926
5.74654
5.722122
5.831043
6.139668
6.613064
7.132935
7.507095
7.57629
7.289017
6.68948
5.912563
5.112099
4.37373
3.684433
2.917229
1.962643
0.7848358
-0.4979172
-1.675083
-2.572281
-3.175079
-3.638786
-4.183651
-4.990063
-6.053631
-7.224319
-8.323559
-9.301868
-10.23283
-11.30818
-12.62624
-14.12061
-15.56309
-16.59045
-16.84389
-16.06364
-14.15443
-11.21806
-7.561356
-3.643536
0.05415726
3.152397
5.502743
7.175888
8.356087
9.19223
9.685715
9.777046
9.431973
8.766029
8.050148
7.558884
7.454514
7.670055
8.006077
8.186176
8.071049
7.732986
7.387638
7.262154
7.438828
7.806145
8.108635
8.106277
7.623962
6.671204
5.396103
4.014587
2.742485
1.700233
0.8991394
0.2104645
-0.5398712
-1.519005
-2.806145
-4.34877
-6.001793
-7.620262
-9.118958
-10.51821
-11.92204
-13.41575
-14.98231
-16.50054
-17.78651
-18.65681
-18.93787
-18.46227
-17.09457
-14.77232
-11.60114
-7.87204
-3.994957
-0.4326935
2.468147
4.569572
5.913467
6.67453
7.039291
7.188416
7.237968
7.287498
7.439377
7.749855
8.212753
8.713989
9.046646
9.039635
8.668602
8.042053
7.422295
7.004967
6.857597
6.900955
6.977982
6.938065
6.733452
6.371544
5.830833
5.043312
3.883118
2.278801
0.3519211
-1.669922
-3.480545
-4.867905
-5.800919
-6.440819
-6.977196
-7.564034
-8.263168
-8.995392
-9.675171
-10.27056
-10.86163
-11.619
-12.72763
-14.1921
-15.79366
-17.10751
-17.61301
-16.95499
-15.01245
-11.97826
-8.259468
-4.345566
-0.6498413
2.488556
4.874077
6.458206
7.30587
7.613419
7.678955
7.761574
8.027298
8.509941
9.073402
9.493591
9.568375
9.159073
8.336838
7.351097
6.53006
6.155052
6.320236
6.876709
7.484367
7.85791
7.841812
7.548149
7.213715
6.984718
6.840714
6.569267
5.930672
4.804604
3.332451
1.772057
0.4035339
-0.6465378
-1.426414
-2.085251
-2.761604
-3.528336
-4.376595
-5.25135
-6.170662
-7.198975
-8.425224
-9.905373
-11.60085
-13.42126
-15.18916
-16.74876
-17.8962
-18.45306
-18.24021
-17.08881
-14.96422
-11.91888
-8.184479
-4.084511
-0.03075409
3.588776
6.443741
8.284294
9.036011
8.795609
7.867622
6.653419
5.568115
4.861893
4.582603
4.602158
4.74485
4.937202
5.23407
5.767517
6.604797
7.666656
8.710625
9.484947
9.85479
9.840111
9.613914
9.315132
8.993439
8.571571
7.930748
7.047989
5.996727
4.935936
3.968399
3.112602
2.26593
1.31134
0.2087936
-0.9821472
-2.09581
-2.991394
-3.605202
-4.021477
-4.399193
-4.905968
-5.668373
-6.729637
-8.09584
-9.720688
-11.547
-13.46938
-15.32188
-16.83357
-17.69303
-17.57547
-16.29066
-13.89143
-10.65189
-7.020302
-3.437294
-0.2159882
2.516991
4.767105
6.58873
8.019684
9.039757
9.622482
9.776367
9.554657
9.041145
8.303291
7.426788
6.5187
5.780045
5.415009
5.568199
6.276527
7.374718
8.616386
9.761688
10.65327
11.24229
11.54039
11.50532
11.03493
10.01299
8.439835
6.481499
4.457275
2.710091
1.44146
0.6616821
0.1744003
-0.2687149
-0.861618
-1.631302
-2.456726
-3.179031
-3.719963
-4.148041
-4.642929
-5.416733
-6.55954
-8.034012
-9.710182
-11.42239
-13.03767
-14.49548
-15.72039
-16.62149
-17.07987
-16.92787
-16.0519
-14.43056
-12.15231
-9.37468
-6.307724
-3.120529
0.03404999
2.998749
5.578033
7.55484
8.729301
8.992996
8.430527
7.351929
6.219376
5.525414
5.582527
6.397141
7.686073
8.998627
9.954117
10.35691
10.26414
9.871124
9.391335
8.975891
8.725357
8.682579
8.867897
9.241737
9.644363
9.81942
9.496605
8.529037
6.989616
5.149437
3.330032
1.768982
0.5672989
-0.311409
-0.9338531
-1.382339
-1.727921
-2.107689
-2.685997
-3.579407
-4.837021
-6.338142
-7.832558
-9.092422
-10.00179
-10.58646
-11.05525
-11.67677
-12.65763
-14.04511
-15.66588
-17.14484
-18.02988
-17.97302
-16.79946
-14.59833
-11.6517
-8.29734
-4.846031
-1.508095
1.606148
4.400551
6.782959
8.661316
9.978249
10.69447
10.83952
10.46722
9.694252
8.685501
7.61528
6.67215
6.013718
5.723145
5.790764
6.139542
6.581139
6.908981
6.966026
6.657303
6.010048
5.170525
4.292473
3.510811
2.963783
2.698364
2.720657
2.921631
3.082458
2.943535
2.33223
1.20816
-0.2182846
-1.655716
-2.903389
-3.949135
-4.972748
-6.164963
-7.554169
-8.917114
-9.943352
-10.40147
-10.31216
-9.989372
-9.851547
-10.16216
-10.89696
-11.74138
-12.26817
-12.12715
-11.12674
-9.258636
-6.696815
-3.667778
-0.4316788
2.731598
5.576515
7.904442
9.598885
10.63522
11.06309
10.94762
10.41267
9.57122
8.617065
7.763283
7.179604
6.912697
6.865906
6.85096
6.741539
6.59864
6.598953
6.913155
7.51815
8.152191
8.393684
7.870972
6.502472
4.532646
2.46067
0.7837372
-0.160965
-0.3200378
0.06439209
0.6083145
0.8894806
0.6249237
-0.259285
-1.618126
-3.184944
-4.672012
-5.919861
-6.963745
-7.945457
-9.048355
-10.39012
-11.97628
-13.77431
-15.72461
-17.72234
-19.58553
-21.02078
-21.64304
-21.1162
-19.28863
-16.28639
-12.48294
-8.370995
-4.393646
-0.8215103
2.246246
4.831406
6.946617
8.554787
9.577209
9.982574
9.852562
9.373405
8.767235
8.211937
7.729988
7.214539
6.536995
5.690468
4.821983
4.205269
4.070641
4.467064
5.197632
5.921516
6.306076
6.235062
5.846436
5.416306
5.183319
5.214676
5.384888
5.502335
5.436241
5.191399
4.835938
4.400818
3.791359
2.86557
1.570969
-0.0006484985
-1.621841
-3.052345
-4.210281
-5.210945
-6.302658
-7.693497
-9.407608
-11.27956
-13.04153
-14.46566
-15.4296
-15.9158
-15.96933
-15.60525
-14.75536
-13.315
-11.22353
-8.551285
-5.531898
-2.549942
0.01198578
1.884155
3.044754
3.710571
4.212326
4.843414
5.704384
6.666367
7.389198
7.530388
6.95256
5.767609
4.363792
3.194153
2.589264
2.649239
3.264542
4.18573
5.175331
6.068184
6.76445
7.191284
7.291138
7.008972
6.387779
5.553955
4.707771
3.97892
3.419334
2.973343
2.589561
2.240601
1.920029
1.584724
1.129852
0.4284973
-0.5764313
-1.789566
-3.01535
-4.039803
-4.786644
-5.378479
-6.081902
-7.24057
-9.024811
-11.382
-13.99535
-16.40411
-18.14127
-18.84556
-18.36634
-16.71848
-14.09455
-10.73853
-6.935562
-2.985397
0.8334732
4.226044
6.955742
8.872978
9.965881
10.34754
10.22274
9.797394
9.237251
8.61615
7.944595
7.189232
6.295029
5.279526
4.245003
3.407356
2.986595
3.129974
3.781113
4.665436
5.419449
5.719749
5.487335
4.900856
4.263031
3.847176
3.744537
3.791565
3.692337
3.127831
1.931335
0.1453934
-1.969154
-4.06308
-5.830635
-7.068825
-7.77858
-8.141159
-8.435158
-8.930489
-9.761475
-10.89833
-12.19337
-13.4495
-14.51494
-15.26951
-15.62409
-15.43987
-14.59458
-13.00319
-10.71352
-7.9282
-4.955406
-2.075523
0.509819
2.758621
4.721611
6.459015
7.976563
9.172256
9.913925
10.11387
9.783333
9.099304
8.330719
7.783417
7.637169
7.894478
8.362823
8.765457
8.887703
8.689308
8.334953
8.042267
7.975266
8.091888
8.150719
7.876221
7.087746
5.817406
4.289566
2.824066
1.618919
0.7244644
-0.03342438
-0.8848648
-1.993073
-3.353722
-4.782547
-6.02298
-6.861595
-7.225105
-7.203323
-7.03038
-6.990524
-7.267632
-7.962021
-9.030777
-10.38966
-11.93298
-13.57716
-15.14303
-16.35749
-16.83063
-16.15449
-14.16207
-11.00076
-7.17614
-3.356316
-0.1112518
2.302856
3.981316
5.216179
6.297928
7.319138
8.184509
8.730404
8.857712
8.620956
8.229069
7.962955
8.018177
8.430157
9.036335
9.553486
9.727924
9.437279
8.810375
8.139801
7.716728
7.67802
7.94043
8.227428
8.27425
7.894588
7.06451
5.888607
4.545418
3.212421
2.001228
0.9840622
0.1113968
-0.7407417
-1.740688
-3.014637
-4.567413
-6.238163
-7.805759
-9.116238
-10.14869
-11.04029
-11.96191
-13.04769
-14.28749
-15.53776
-16.63935
-17.43068
-17.75846
-17.48968
-16.47226
-14.57649
-11.8282
-8.419605
-4.687878
-1.063648
2.088371
4.559361
6.325497
7.455673
8.142998
8.561321
8.861027
9.123573
9.25808
9.09626
8.466228
7.365637
5.989628
4.764549
4.13788
4.347797
5.30147
6.59409
7.731449
8.338001
8.31172
7.782627
6.961094
6.010859
4.958223
3.742567
2.331589
0.763237
-0.8488369
-2.362616
-3.699259
-4.854647
-5.91576
-7.008709
-8.209103
-9.515004
-10.80485
-11.94475
-12.83333
-13.48167
-14.02128
-14.58511
-15.19761
-15.65006
-15.5397
-14.41632
-12.04309
-8.548413
-4.423774
-0.3414898
3.100433
5.574389
7.116159
7.98827
8.485943
8.785861
8.887738
8.715959
8.266018
7.635293
7.022981
6.64606
6.629855
6.956092
7.45639
7.887367
8.023011
7.722345
7.014143
6.059837
5.145071
4.539034
4.380922
4.598091
4.909899
4.937202
4.364103
3.073721
1.130175
-1.234982
-3.733234
-6.063536
-7.97052
-9.267431
-9.921177
-10.06966
-10.01866
-10.18872
-10.92213
-12.38483
-14.45896
-16.76418
-18.73227
-19.80101
-19.55312
-17.82872
-14.78908
-10.84813
-6.541222
-2.376442
1.306908
4.348522
6.72448
8.468288
9.597961
10.12246
10.07618
9.585949
8.854404
8.137112
7.621059
7.380157
7.387733
7.58202
7.931137
8.4772
9.281361
10.30503
11.41534
12.32913
12.77054
12.54296
11.63753
10.17797
8.419403
6.620125
4.988365
3.606209
2.465034
1.465622
0.4545746
-0.7060471
-2.078621
-3.587898
-5.101463
-6.47364
-7.663033
-8.730682
-9.800186
-10.95942
-12.20132
-13.46669
-14.67728
-15.79641
-16.76305
-17.42609
-17.50044
-16.62705
-14.52795
-11.22135
-7.029266
-2.537086
1.624527
5.001457
7.466553
9.147324
10.31851
11.23112
12.01302
12.63915
13.03168
13.08996
12.78876
12.19924
11.48635
10.82974
10.4401
10.43841
10.8336
11.52802
12.3422
13.05628
13.49501
13.55387
13.17906
12.39212
11.26749
9.910828
8.465416
7.078636
5.859589
4.819092
3.879753
2.938744
1.928604
0.8719635
-0.139061
-1.067047
-1.955917
-2.965759
-4.265427
-5.921249
-7.849777
-9.871368
-11.81934
-13.64665
-15.40274
-17.13873
-18.70592
-19.75459
-19.84233
-18.67023
-16.24364
-12.88339
-9.071991
-5.222351
-1.595795
1.698227
4.593765
6.992737
8.827393
10.06436
10.82701
11.32823
11.75301
12.14749
12.4129
12.40968
12.09831
11.62602
11.24377
11.17827
11.42876
11.836
12.13501
12.13301
11.79642
11.2356
10.59474
9.978424
9.426514
8.900452
8.340393
7.679016
6.880142
5.951019
4.933762
3.893585
2.89003
1.928772
0.9517059
-0.1503754
-1.443161
-2.906158
-4.395981
-5.711563
-6.721481
-7.45668
-8.155991
-9.164368
-10.72722
-12.83223
-15.13824
-17.02626
-17.82883
-17.06102
-14.57846
-10.65536
-5.821533
-0.7171631
4.088516
8.16304
11.22386
13.09528
13.75327
13.35677
12.22627
10.79648
9.440277
8.402771
7.719955
7.298523
7.041138
6.931686
7.051971
7.513458
8.404633
9.637741
11.01851
12.30432
13.27977
13.79292
13.77705
13.20532
12.11516
10.63037
8.951874
7.321945
5.960587
4.950836
4.241165
3.671021
3.052917
2.238129
1.194855
-3.051758e-05
-1.251877
-2.4534
-3.531235
-4.457047
-5.282837
-6.101318
-7.09079
-8.412125
-10.14145
-12.19888
-14.33305
-16.21739
-17.49005
-17.88437
-17.21791
-15.46324
-12.73427
-9.281921
-5.46109
-1.657211
1.773743
4.597672
6.748917
8.299225
9.395645
10.20512
10.83295
11.31917
11.6274
11.70022
11.50712
11.11455
10.66512
10.32327
10.23669
10.42928
10.77261
11.06768
11.13335
10.93413
10.53687
10.03776
9.487152
8.845818
8.045753
7.059471
5.970482
4.959915
4.178368
3.633804
3.173653
2.570663
1.651543
0.3876648
-1.067932
-2.488731
-3.696259
-4.641792
-5.414421
-6.156494
-6.977547
-7.935959
-8.996284
-10.08094
-11.13477
-12.16261
-13.22749
-14.39545
-15.63039
-16.75019
-17.45863
-17.40409
-16.28516
-14.01689
-10.7188
-6.740181
-2.564186
1.321503
4.549591
6.926155
8.434303
9.205681
9.420517
9.262627
8.921677
8.542
8.241325
8.088585
8.070015
8.148537
8.273949
8.426277
8.614685
8.88678
9.204124
9.490128
9.637325
9.568886
9.330326
9.028675
8.737129
8.414406
7.92625
7.083031
5.836777
4.304573
2.732841
1.369308
0.3460083
-0.4075012
-1.126873
-2.03241
-3.254341
-4.693363
-6.094673
-7.206654
-7.917774
-8.330864
-8.664646
-9.145077
-9.850422
-10.7275
-11.64297
-12.50408
-13.33207
-14.11922
-14.74366
-14.88018
-14.13197
-12.27676
-9.456127
-6.170801
-3.039124
-0.5311279
1.261873
2.554758
3.674509
4.821666
6.007905
7.05766
7.751003
8.000634
7.772259
7.125676
6.182963
5.125027
4.229282
3.80253
4.006078
4.730649
5.621522
6.225973
6.25639
5.771683
5.074292
4.524697
4.304535
4.300626
4.20094
3.744062
2.883301
1.807925
0.8342619
0.1517076
-0.26056
-0.6313572
-1.256193
-2.263418
-3.534967
-4.767199
-5.639418
-5.972757
-5.874838
-5.616968
-5.578514
-6.054913
-7.154003
-8.810337
-10.79345
-12.8178
-14.53368
-15.56709
-15.56193
-14.30206
-11.85366
-8.560612
-5.013954
-1.831051
0.5665092
2.120708
3.067593
3.799648
4.581188
5.433533
6.140308
6.40065
6.06525
5.20974
4.113235
3.104504
2.435486
2.215641
2.438065
3.045525
3.937912
4.983414
5.970726
6.666782
6.8769
6.523281
5.709488
4.637058
3.517529
2.448853
1.451294
0.5247879
-0.3327789
-1.078171
-1.680321
-2.158371
-2.613678
-3.162933
-3.894981
-4.776711
-5.680832
-6.453545
-7.002335
-7.388626
-7.76815
-8.339813
-9.242264
-10.52528
-12.09393
-13.79234
-15.38509
-16.6151
-17.20667
-16.95045
-15.74629
-13.62599
-10.73451
-7.31385
-3.733673
-0.39888
2.306717
4.12027
4.983246
5.118126
4.927315
4.83709
5.148262
5.877815
6.789856
7.592636
8.032013
8.082375
7.880707
7.593307
7.307129
6.968544
6.410789
5.496162
4.231613
2.798996
1.516754
0.6987534
0.5191498
0.9217453
1.695557
2.504745
3.041374
3.097786
2.623672
1.725746
0.5614853
-0.6824341
-1.873917
-2.952515
-3.908173
-4.743256
-5.449776
-6.065277
-6.646538
-7.313332
-8.205376
-9.377419
-10.78071
-12.23643
-13.49272
-14.33466
-14.66482
-14.46066
-13.73882
-12.48964
-10.66724
-8.270737
-5.414787
-2.368408
0.5110779
2.833527
4.4058
5.191742
5.350822
5.106094
4.694061
4.277191
3.912758
3.60778
3.367554
3.258492
3.357109
3.690048
4.212021
4.782013
5.229256
5.424263
5.313713
4.952911
4.40963
3.709808
2.836105
1.789268
0.6315918
-0.4442978
-1.208565
-1.484962
-1.273094
-0.7728119
-0.3112259
-0.1811981
-0.4914703
-1.236732
-2.257416
-3.415833
-4.635689
-5.917702
-7.238083
-8.515991
-9.634491
-10.47831
-11.09634
-11.61961
-12.19978
-12.88007
-13.49777
-13.70792
-13.15852
-11.64453
-9.234879
-6.302666
-3.347031
-0.8161011
1.04612
2.284447
3.180519
4.027252
5.004799
6.088531
7.0466
7.591011
7.551514
6.944534
6.023506
5.150093
4.611115
4.527855
4.832085
5.285759
5.601715
5.589134
5.150871
4.335297
3.286209
2.17807
1.161354
0.3451767
-0.2282028
-0.589798
-0.771553
-0.8650436
-0.9400787
-1.084564
-1.370529
-1.861382
-2.615448
-3.675339
-5.0215
-6.532532
-8.067879
-9.457268
-10.60618
-11.55432
-12.479
-13.56289
-14.91097
-16.37664
-17.59045
-18.1321
-17.64487
-15.99022
-13.31622
-9.94809
-6.283966
-2.67588
0.6180191
3.423035
5.576843
6.985641
7.648483
7.667892
7.250015
6.663994
6.151215
5.811554
5.638634
5.534714
5.398895
5.220306
5.029282
4.916779
4.929222
5.060913
5.241287
5.454567
5.695267
6.00486
6.38308
6.691284
6.736534
6.266891
5.164116
3.47953
1.475029
-0.5662689
-2.451729
-4.129059
-5.680748
-7.190628
-8.659729
-10.02427
-11.27469
-12.44372
-13.71855
-15.23656
-16.98244
-18.72081
-20.00374
-20.44245
-19.80381
-18.16544
-15.77003
-12.96313
-10.00713
-7.03788
-4.120701
-1.262577
1.46698
4.002392
6.27158
8.181164
9.658669
10.59972
10.96846
10.80424
10.30497
9.740723
9.347282
9.215088
9.257664
9.268532
9.108742
8.832394
8.583611
8.540379
8.707935
8.909733
8.838192
8.285244
7.288589
6.094978
5.051975
4.341854
3.968204
3.673908
3.160118
2.222881
0.8667164
-0.7176056
-2.351263
-3.906151
-5.338749
-6.630531
-7.764891
-8.712082
-9.527048
-10.35607
-11.40571
-12.84434
-14.63442
-16.50993
-18.03848
-18.8014
-18.5255
-17.13086
-14.73087
-11.54189
-7.840293
-3.908761
-0.07406712
3.324461
6.001944
7.800984
8.730697
8.952407
8.762325
8.489235
8.422327
8.711059
9.305534
10.01235
10.60946
10.92038
10.90893
10.71846
10.54002
10.56846
10.90523
11.5067
12.23817
12.87971
13.18706
12.96295
12.14835
10.83816
9.252571
7.696465
6.388643
5.388599
4.526947
3.527874
2.182287
0.4646568
-1.463972
-3.359869
-5.035349
-6.459007
-7.728699
-9.010651
-10.44576
-12.08423
-13.89392
-15.8
-17.64637
-19.1773
-20.06378
-19.95931
-18.61333
-16.02219
-12.43983
-8.338375
-4.224442
-0.5644798
2.312435
4.259232
5.306232
5.665955
5.647118
5.572613
5.615623
5.764935
5.86235
5.73455
5.334324
4.803352
4.421238
4.470779
5.079651
6.232285
7.759876
9.421753
10.95205
12.07098
12.57738
12.35271
11.47205
10.14703
8.710159
7.459114
6.54953
5.991035
5.643898
5.297516
4.77166
3.932404
2.689774
1.064262
-0.8434677
-2.853996
-4.778053
-6.536148
-8.206696
-9.998772
-12.09288
-14.47431
-16.84036
-18.67905
-19.46968
-18.89827
-16.97569
-13.99957
-10.39574
-6.492599
-2.508888
1.428879
5.174957
8.502594
11.14094
12.86279
13.61058
13.52451
12.89291
12.02897
11.12314
10.26404
9.494499
8.865746
8.468719
8.389824
8.639877
9.110123
9.603699
9.909439
9.907631
9.600304
9.082321
8.439026
7.692917
6.779236
5.639275
4.278473
2.819366
1.432426
0.2317047
-0.8081665
-1.841248
-3.036835
-4.519249
-6.235077
-8.00573
-9.624466
-10.95157
-12.01532
-12.99603
-14.13562
-15.63885
-17.5704
-19.7677
-21.84702
-23.29059
-23.63707
-22.60085
-20.19086
-16.62167
-12.21497
-7.331573
-2.324142
2.416412
6.455826
9.369919
10.98596
11.4696
11.3326
11.22141
11.56313
12.43283
13.51555
14.37236
14.73628
14.62193
14.26031
13.91197
13.71294
13.63766
13.60023
13.54083
13.46109
13.40199
13.3634
13.25848
12.94215
12.29715
11.27582
9.935059
8.388214
6.760864
5.14563
3.5504
1.91243
0.1902924
-1.584305
-3.30899
-4.826736
-6.03923
-7.007126
-7.937119
-9.151367
-10.84552
-13.05536
-15.62375
-18.26726
-20.65028
-22.42
-23.25133
-22.81563
-20.92827
-17.61525
-13.17667
-8.164963
-3.17865
1.297638
4.997833
7.830963
9.827881
11.04794
11.59076
11.56828
11.1459
10.49335
9.732529
8.963684
8.304764
7.898773
7.915863
8.42955
9.312347
10.28212
11.02469
11.28278
11.00874
10.33073
9.435165
8.516418
7.718719
7.144333
6.866669
6.854828
6.964478
6.921829
6.455643
5.368668
3.698761
1.685638
-0.3718109
-2.217773
-3.774261
-5.120621
-6.466095
-8.013519
-9.953461
-12.30925
-14.97137
-17.6292
-19.86311
-21.24763
-21.46915
-20.39981
-18.09129
-14.77168
-10.70619
-6.251892
-1.742233
2.484375
6.125351
8.984207
10.99203
12.20406
12.72885
12.69601
12.21504
11.40964
10.45389
9.539322
8.812088
8.351898
8.128143
8.053452
8.050995
8.091064
8.146744
8.151337
7.970825
7.449371
6.530411
5.280746
3.886093
2.567383
1.45195
0.5279846
-0.3203583
-1.245605
-2.347183
-3.654785
-5.148407
-6.776459
-8.487579
-10.24736
-12.0079
-13.70889
-15.27728
-16.55904
-17.32964
-17.33282
-16.341
-14.2235
-11.07779
-7.170883
-2.907684
1.269089
5.005707
8.042267
10.27087
11.66283
12.29118
12.22983
11.63748
10.68927
9.60051
8.626266
7.999603
7.863831
8.173798
8.772781
9.394516
9.85321
10.06824
10.07841
9.986115
9.808197
9.531921
9.054535
8.268066
7.092422
5.483994
3.450806
1.029953
-1.643677
-4.378006
-6.956497
-9.198318
-11.04044
-12.59033
-14.04652
-15.61598
-17.38562
-19.27393
-21.05643
-22.40825
-22.96567
-22.38235
-20.44536
-17.12984
-12.6357
-7.376892
-1.902359
3.217758
7.521713
10.74828
12.85966
14.03719
14.57025
14.77438
14.85358
14.88129
14.81136
14.55493
14.07385
13.42206
12.72913
12.16748
11.8217
11.68059
11.6636
11.6795
11.6795
11.61824
11.42563
10.98291
10.17255
8.939224
7.344116
5.509232
3.613586
1.768112
-0.04217529
-1.888321
-3.851105
-5.956207
-8.136032
-10.25925
-12.24481
-14.07811
-15.8392
-17.63626
-19.4919
-21.26233
-22.62305
-23.11043
-22.32611
-20.10078
-16.56949
-12.14818
-7.409149
-2.8396
1.250854
4.762619
7.747269
10.30469
12.48672
14.30357
15.69032
16.5426
16.84555
16.63768
16.07127
15.36128
14.70674
14.24399
14.01012
13.96317
14.04594
14.27052
14.64926
15.13724
15.57724
15.69431
15.19586
13.93445
11.991
9.684601
7.436996
5.561218
4.177139
3.147141
2.185989
1.007355
-0.5102386
-2.304474
-4.201965
-6.002716
-7.609909
-8.983749
-10.11761
-11.00908
-11.65556
-12.1413
-12.64415
-13.44681
-14.77209
-16.62212
-18.68378
-20.40192
-21.16524
-20.52467
-18.37576
-14.9156
-10.56676
-5.773285
-0.9528351
3.594406
7.611694
10.88974
13.2693
14.64227
15.06755
14.69713
13.85214
12.8636
12.05077
11.62025
11.5976
11.8439
12.10588
12.17859
12.00644
11.72951
11.57765
11.71115
12.10747
12.56311
12.7854
12.52522
11.72075
10.49408
9.046249
7.612625
6.334229
5.266663
4.418625
3.773468
3.223206
2.64473
1.861954
0.7436523
-0.6968384
-2.339737
-3.940689
-5.305191
-6.362137
-7.25293
-8.25798
-9.66217
-11.6151
-14.0287
-16.60982
-18.94539
-20.61943
-21.30811
-20.83455
-19.16904
-16.39917
-12.71091
-8.351669
-3.670166
0.8990326
4.961319
8.165344
10.33034
11.49666
11.83727
11.59598
11.02715
10.28154
9.470535
8.680054
8.002319
7.558823
7.433502
7.606995
7.958801
8.344879
8.638336
8.813126
8.895424
8.904655
8.808693
8.531845
7.980614
7.12542
6.019684
4.791321
3.588219
2.526985
1.629623
0.8656158
0.139946
-0.6645737
-1.618454
-2.696655
-3.82859
-4.850525
-5.635178
-6.163002
-6.548416
-6.994545
-7.734673
-8.914604
-10.47916
-12.22346
-13.81136
-14.90215
-15.24581
-14.69421
-13.21952
-10.89639
-7.921585
-4.562134
-1.164421
1.964104
4.625916
6.730331
8.295448
9.346527
9.887207
9.917717
9.498688
8.75164
7.872643
7.051956
6.423698
6.025509
5.823387
5.764877
5.842957
6.017799
6.178078
6.148346
5.779823
5.024136
4.005947
2.923878
1.960098
1.144054
0.4044113
-0.384655
-1.253311
-2.115295
-2.859829
-3.39222
-3.760151
-4.131941
-4.714678
-5.663254
-6.959005
-8.429981
-9.833336
-11.01435
-11.93319
-12.73679
-13.61248
-14.66576
-15.76052
-16.5344
-16.52767
-15.34021
-12.86315
-9.283366
-5.094383
-0.9137139
2.651197
5.211952
6.691979
7.320282
7.568308
7.879826
8.516199
9.381767
10.09669
10.22548
9.489271
7.946445
5.961229
4.052502
2.63693
1.895683
1.757979
2.01897
2.457627
2.891811
3.235065
3.403223
3.345886
3.007839
2.380642
1.524609
0.544508
-0.416832
-1.268379
-1.975828
-2.613626
-3.267326
-4.024044
-4.913414
-5.903809
-6.961571
-8.067867
-9.221916
-10.39305
-11.50747
-12.40562
-12.93467
-12.95415
-12.44504
-11.48421
-10.19571
-8.706844
-7.074738
-5.317482
-3.397743
-1.333477
0.7932472
2.810249
4.455669
5.516647
5.914928
5.794895
5.434357
5.129921
5.020737
5.008236
4.870735
4.413956
3.637596
2.735054
2.018486
1.738922
1.986969
2.657051
3.535728
4.404015
5.035782
5.26709
4.960754
4.123016
2.891098
1.517151
0.2837601
-0.6561432
-1.314514
-1.85495
-2.438156
-3.13475
-3.90995
-4.671295
-5.398468
-6.154335
-7.073769
-8.244926
-9.651711
-11.17806
-12.6166
-13.76596
-14.4231
-14.38067
-13.44527
-11.55222
-8.803169
-5.540192
-2.260712
0.562851
2.638107
3.953651
4.736412
5.290916
5.799225
6.292068
6.683136
6.840485
6.735161
6.377129
5.821121
5.102905
4.217133
3.215019
2.202736
1.365685
0.8431549
0.6678619
0.7290573
0.8312378
0.8511734
0.8171082
0.9107208
1.310463
2.065392
2.992645
3.760048
3.995651
3.467949
2.25074
0.6321411
-0.9614258
-2.179352
-2.918716
-3.344162
-3.760727
-4.469711
-5.623108
-7.174789
-8.922653
-10.623
-12.08846
-13.15619
-13.65727
-13.41685
-12.27254
-10.18848
-7.370529
-4.245697
-1.363144
0.8517151
2.229858
2.889999
3.115555
3.193619
3.307007
3.484543
3.670334
3.772247
3.74025
3.55191
3.210175
2.716324
2.098816
1.432495
0.8216095
0.3959808
0.2026825
0.2167664
0.3403015
0.4434509
0.4329376
0.2669525
-0.0617981
-0.5827942
-1.302048
-2.182739
-3.111633
-3.934845
-4.510635
-4.832657
-5.01799
-5.254684
-5.714066
-6.443832
-7.35701
-8.329941
-9.25383
-10.11711
-10.97673
-11.88268
-12.84238
-13.77913
-14.48619
-14.69968
-14.15831
-12.72896
-10.51176
-7.817123
-5.085251
-2.696823
-0.8525696
0.5188141
1.620178
2.633133
3.601349
4.412567
4.960205
5.251389
5.457886
5.74942
6.195374
6.615829
6.695099
6.191528
5.125305
3.861099
2.920975
2.764572
3.475189
4.743317
5.96489
6.5578
6.239044
5.106918
3.611267
2.274002
1.462067
1.241074
1.356857
1.420425
1.060135
0.1313934
-1.295044
-2.978226
-4.663818
-6.173004
-7.466202
-8.569031
-9.507019
-10.30203
-10.9222
-11.37311
-11.71643
-12.05986
-12.44646
-12.81833
-12.98119
-12.67847
-11.74504
-10.11388
-7.901703
-5.314224
-2.598206
0.01802063
2.34639
4.239426
5.589294
6.340469
6.487625
6.105576
5.366562
4.508392
3.791641
3.421341
3.484451
3.93219
4.604187
5.341827
6.01355
6.548935
6.898209
6.974503
6.66925
5.936096
4.869522
3.708755
2.742111
2.133606
1.844589
1.642151
1.254227
0.5220337
-0.5114746
-1.67157
-2.769073
-3.670135
-4.360184
-4.900055
-5.398392
-5.941177
-6.680145
-7.759369
-9.272369
-11.16487
-13.15401
-14.81209
-15.69791
-15.517
-14.23314
-12.04996
-9.271103
-6.195831
-3.061874
-0.05517578
2.621948
4.79805
6.369278
7.348572
7.843536
8.014236
8.006393
7.855362
7.575348
7.148911
6.656799
6.274414
6.160675
6.380005
6.871201
7.454987
7.905182
8.127487
8.115433
7.932953
7.611267
7.096222
6.30571
5.220512
3.941315
2.69796
1.767876
1.261139
1.054245
0.7700806
-0.001731873
-1.489861
-3.59848
-5.953407
-8.108482
-9.74897
-10.87795
-11.75468
-12.75585
-14.14489
-15.90957
-17.77168
-19.26519
-19.93718
-19.48219
-17.88811
-15.30362
-12.02035
-8.327232
-4.499672
-0.7811356
2.545135
5.197784
7.038254
8.060326
8.471313
8.58696
8.657829
8.767677
8.812012
8.670761
8.292313
7.841469
7.547195
7.593338
7.990257
8.56559
9.05687
9.252373
9.126785
8.750893
8.286156
7.814217
7.349686
6.837029
6.225937
5.523727
4.766663
4.024033
3.277283
2.47451
1.495865
0.2859573
-1.150833
-2.729507
-4.29155
-5.704254
-6.904358
-7.939606
-8.934395
-10.01159
-11.203
-12.45014
-13.6021
-14.44707
-14.76084
-14.36267
-13.16094
-11.17545
-8.568192
-5.608315
-2.625938
0.04882813
2.234283
3.905807
5.184425
6.231041
7.129532
7.84137
8.241562
8.25029
7.911598
7.425194
7.051834
6.983932
7.26918
7.813309
8.413582
8.831299
8.920044
8.635391
8.021019
7.221481
6.440956
5.878822
5.646858
5.728134
5.953411
6.1063
5.99968
5.559444
4.806526
3.833069
2.71183
1.48143
0.1747818
-1.173191
-2.513077
-3.777386
-4.908978
-5.891834
-6.749672
-7.564606
-8.483292
-9.676884
-11.27421
-13.2761
-15.43771
-17.25515
-18.10491
-17.49953
-15.27664
-11.69242
-7.349285
-2.961647
0.8781891
3.861462
5.932526
7.225693
7.945621
8.286266
8.416214
8.466316
8.525326
8.61927
8.711704
8.727146
8.653801
8.528549
8.441555
8.489864
8.694733
8.957336
9.114605
8.993279
8.490891
7.682533
6.747826
5.941036
5.42379
5.184696
5.053669
4.774292
4.115822
2.987625
1.469139
-0.2440071
-1.918842
-3.378216
-4.545574
-5.433487
-6.128689
-6.81435
-7.707527
-9.013594
-10.82943
-13.06796
-15.42995
-17.42712
-18.49577
-18.18577
-16.3375
-13.09832
-8.911726
-4.405689
-0.1798611
3.321188
5.871548
7.514606
8.471693
9.020252
9.380619
9.645056
9.751284
9.585512
9.058237
8.204266
7.196556
6.265358
5.635382
5.433786
5.660925
6.254416
7.142591
8.223124
9.348034
10.28105
10.75237
10.60676
9.84691
8.665039
7.333258
6.064163
4.92362
3.858229
2.780119
1.65115
0.5210133
-0.5516052
-1.55863
-2.60253
-3.788544
-5.205751
-6.860243
-8.688785
-10.58122
-12.41986
-14.10783
-15.56326
-16.70276
-17.48653
-17.86554
-17.77234
-17.07135
-15.57772
-13.16292
-9.852555
-5.91674
-1.79727
1.998389
5.124937
7.499277
9.236149
10.48172
11.29999
11.61551
11.34532
10.55913
9.485051
8.471098
7.792639
7.539344
7.587354
7.717915
7.792352
7.825532
7.94182
8.252975
8.731504
9.156723
9.26131
8.826617
7.803866
6.376114
4.824064
3.449192
2.435654
1.770003
1.284297
0.7740364
0.1164777
-0.6426084
-1.352823
-1.911039
-2.374639
-2.980573
-4.004668
-5.609913
-7.750399
-10.15364
-12.51861
-14.60886
-16.35296
-17.72824
-18.59789
-18.69895
-17.70766
-15.44608
-12.05172
-7.940184
-3.697677
0.1494164
3.272092
5.607673
7.222935
8.230749
8.750374
8.901703
8.853715
8.753581
8.705615
8.752211
8.819485
8.822014
8.762856
8.732615
8.882206
9.256516
9.73173
10.07304
10.05131
9.608011
8.883684
8.157591
7.673555
7.488463
7.467986
7.338705
6.855448
5.878856
4.383609
2.473994
0.291256
-1.970044
-4.119051
-5.942187
-7.335293
-8.285559
-8.929302
-9.510425
-10.23393
-11.26963
-12.68235
-14.42511
-16.31107
-18.02551
-19.08939
-19.0238
-17.48747
-14.43428
-10.21093
-5.471494
-0.9590635
2.772503
5.490842
7.300036
8.463607
9.192321
9.603519
9.706833
9.556509
9.296593
9.110737
9.134745
9.330477
9.489674
9.370358
8.899832
8.20529
7.576514
7.338559
7.576367
8.128202
8.593332
8.605771
7.982093
6.850564
5.502883
4.261254
3.330783
2.694999
2.21911
1.742093
1.176564
0.5023108
-0.2596931
-1.125643
-2.145634
-3.379249
-4.856687
-6.536427
-8.299736
-10.0075
-11.60955
-13.13731
-14.71161
-16.36373
-17.9695
-19.12467
-19.34299
-18.18583
-15.54023
-11.69887
-7.258471
-2.881858
0.9486551
4.036113
6.426399
8.188152
9.308037
9.684414
9.27503
8.26086
7.039131
6.084851
5.749367
6.091894
6.869334
7.698452
8.249973
8.399355
8.249293
8.029325
7.962618
8.151733
8.535513
8.938578
9.128669
8.93715
8.292444
7.328953
6.253623
5.31006
4.630854
4.184386
3.754413
3.034236
1.786355
-0.1041236
-2.49804
-5.102005
-7.553112
-9.568604
-11.03675
-12.04389
-12.86206
-13.81379
-15.09902
-16.66036
-18.12302
-18.98254
-18.82843
-17.55128
-15.39763
-12.80731
-10.15629
-7.583656
-4.979925
-2.156727
0.9081137
3.961172
6.558541
8.343698
9.268953
9.631887
9.853521
10.2211
10.70996
11.03506
10.94155
10.34223
9.44322
8.603632
8.089518
7.956973
8.019505
8.010042
7.711961
7.080701
6.184514
5.12917
4.010886
2.886349
1.829912
0.9173875
0.2167723
-0.2479312
-0.5381012
-0.7257662
-0.8968744
-1.127977
-1.486328
-2.001945
-2.690832
-3.515371
-4.427494
-5.400608
-6.500203
-7.845048
-9.527309
-11.48996
-13.47369
-15.0928
-15.95476
-15.79713
-14.59525
-12.49427
-9.737062
-6.562454
-3.186205
0.196826
3.379075
6.148839
8.314664
9.773888
10.51226
10.60472
10.16907
9.345432
8.267196
7.094492
6.019886
5.255143
4.985788
5.274385
6.002134
6.937991
7.754192
8.212369
8.202523
7.777407
7.118603
6.441345
5.913071
5.582679
5.385574
5.11935
4.536065
3.445847
1.782057
-0.3188794
-2.579165
-4.70414
-6.458302
-7.743857
-8.619031
-9.228809
-9.725703
-10.25609
-10.96142
-11.97659
-13.35684
-15.00782
-16.65064
-17.90631
-18.39644
-17.84707
-16.20646
-13.57742
-10.20946
-6.429698
-2.582165
0.9807196
3.959504
6.222615
7.817421
8.907287
9.669264
10.18506
10.40168
10.23473
9.670808
8.866501
8.144451
7.808697
8.019777
8.680058
9.461784
9.916517
9.734533
8.869358
7.623946
6.442842
5.708458
5.560203
5.826535
6.157147
6.225897
5.9115
5.304565
4.613046
3.958184
3.336561
2.60796
1.665875
0.493804
-0.8311286
-2.210588
-3.60915
-5.094391
-6.742088
-8.567113
-10.49578
-12.42309
-14.24865
-15.90138
-17.27164
-18.20972
-18.48898
-17.882
-16.25274
-13.59488
-10.08966
-6.043629
-1.843646
2.104668
5.439874
7.868076
9.208466
9.441549
8.710869
7.339825
5.78688
4.484452
3.789223
3.812586
4.44282
5.338282
6.148252
6.599318
6.644989
6.429015
6.187719
6.138709
6.353286
6.755534
7.14069
7.314705
7.207315
6.88376
6.508518
6.225673
6.038207
5.791305
5.27128
4.305123
2.861977
1.102376
-0.7214475
-2.377893
-3.770262
-4.983758
-6.214231
-7.625432
-9.271129
-11.12321
-13.03888
-14.87648
-16.42212
-17.48038
-17.80383
-17.15751
-15.39647
-12.5241
-8.814098
-4.661287
-0.5901752
2.963006
5.67611
7.462484
8.411292
8.748718
8.719864
8.508255
8.26464
8.055279
7.929326
7.892868
7.931774
7.981248
7.964211
7.815915
7.514963
7.142334
6.773071
6.466899
6.206237
5.879387
5.37258
4.596024
3.580598
2.415536
1.261953
0.2285893
-0.6537955
-1.410954
-2.112415
-2.784669
-3.470167
-4.175324
-4.949434
-5.848807
-6.943107
-8.257125
-9.755644
-11.41773
-13.16825
-14.98293
-16.74675
-18.23523
-19.0499
-18.75706
-17.05792
-13.98067
-9.96597
-5.664198
-1.740416
1.400198
3.698468
5.324785
6.543342
7.514024
8.326633
8.958431
9.393532
9.63652
9.697424
9.597296
9.306986
8.875502
8.39298
7.980429
7.720722
7.630568
7.63274
7.616134
7.484277
7.142633
6.576693
5.844882
4.988399
4.022733
2.915445
1.649906
0.250277
-1.194039
-2.591914
-3.846812
-4.903303
-5.792282
-6.538179
-7.172808
-7.705414
-8.213953
-8.80336
-9.670005
-10.98913
-12.7795
-14.88811
-16.90968
-18.35566
-18.78469
-17.93495
-15.7572
-12.46441
-8.465414
-4.276047
-0.3680286
2.969545
5.672393
7.857512
9.696592
11.28712
12.54932
13.28928
13.33473
12.6623
11.45192
10.06184
8.833468
8.027748
7.668005
7.611307
7.698442
7.856487
8.098734
8.517334
9.108258
9.665914
9.883367
9.427849
8.158859
6.258453
4.149977
2.337023
1.231527
0.9545269
1.305855
1.866051
2.164795
1.852999
0.8030434
-0.8889942
-2.972229
-5.148108
-7.204262
-9.069519
-10.78559
-12.47284
-14.22589
-16.02798
-17.75356
-19.12916
-19.84013
-19.63995
-18.37243
-16.05173
-12.89436
-9.21866
-5.392628
-1.764679
1.435921
4.081148
6.109327
7.510859
8.30356
8.528786
8.301449
7.787376
7.192965
6.697041
6.424475
6.380569
6.538677
6.840668
7.257345
7.787069
8.381483
8.936239
9.316771
9.419891
9.227118
8.793112
8.216822
7.57497
6.864372
6.013479
4.976715
3.784615
2.500637
1.22208
-0.007350922
-1.159193
-2.251213
-3.269226
-4.175257
-4.972763
-5.729792
-6.611551
-7.789364
-9.367134
-11.27769
-13.26765
-14.90769
-15.76108
-15.50171
-14.06725
-11.65334
-8.62215
-5.383497
-2.270582
0.5191917
2.898153
4.852451
6.386396
7.472992
8.107063
8.302519
8.118132
7.641523
6.966223
6.230492
5.617573
5.35013
5.583492
6.301046
7.264721
8.097338
8.467615
8.291382
7.739799
7.137617
6.773052
6.698496
6.703394
6.461967
5.722063
4.484917
2.978065
1.486464
0.1857948
-0.9851704
-2.242231
-3.758211
-5.54479
-7.43696
-9.158392
-10.50133
-11.48121
-12.36945
-13.53472
-15.26719
-17.52443
-19.90342
-21.74103
-22.3788
-21.41461
-18.90067
-15.25532
-11.06848
-6.899035
-3.059727
0.3661251
3.387718
5.994282
8.103765
9.615707
10.49441
10.81165
10.68109
10.2317
9.557991
8.775642
8.04108
7.543217
7.436787
7.746262
8.352077
9.03643
9.626678
10.05737
10.34906
10.56247
10.62984
10.39014
9.655834
8.355137
6.582428
4.60516
2.744438
1.227585
0.1297379
-0.6510391
-1.31263
-2.058224
-2.958076
-4.024563
-5.223534
-6.516533
-7.959671
-9.640263
-11.66421
-14.06674
-16.73601
-19.35052
-21.45856
-22.57934
-22.31514
-20.50184
-17.26516
-13.00159
-8.277073
-3.68129
0.3522987
3.593586
6.029652
7.756725
8.907883
9.559437
9.783871
9.657719
9.327789
8.957813
8.682831
8.60046
8.735165
9.055363
9.566082
10.28093
11.11786
11.95276
12.54908
12.68262
12.2794
11.47061
10.53405
9.742638
9.219994
8.793549
8.15451
6.981682
5.184677
2.920006
0.4717484
-1.876453
-3.948772
-5.69743
-7.156387
-8.337994
-9.249496
-9.902943
-10.38642
-10.91972
-11.75959
-13.13533
-15.05127
-17.28823
-19.33578
-20.60662
-20.56704
-18.93169
-15.78368
-11.48733
-6.610184
-1.688324
2.88063
6.898056
10.26538
12.89676
14.67419
15.4914
15.29814
14.18073
12.3941
10.30886
8.320599
6.767429
5.878216
5.695602
6.078075
6.741936
7.346581
7.638683
7.541218
7.1273
6.541603
5.927792
5.397621
4.991241
4.699574
4.453979
4.116146
3.497913
2.398685
0.7390747
-1.390617
-3.739071
-5.967922
-7.78841
-9.083054
-9.971596
-10.71982
-11.60116
-12.78688
-14.24579
-15.80971
-17.21023
-18.19838
-18.60991
-18.36024
-17.40024
-15.64866
-13.03394
-9.507523
-5.218655
-0.5242462
4.074512
8.06245
11.09956
13.10601
14.26553
14.83445
15.05376
14.98459
14.60168
13.84252
12.70715
11.27884
9.747185
8.334053
7.211472
6.500443
6.209068
6.246506
6.443237
6.561455
6.406097
5.90052
5.116516
4.254929
3.560211
3.161316
3.00486
2.905121
2.572792
1.815231
0.6137238
-0.9198685
-2.605415
-4.282677
-5.888573
-7.469345
-9.053543
-10.66117
-12.21233
-13.63144
-14.87995
-15.95013
-16.80869
-17.35938
-17.39989
-16.65173
-14.94749
-12.25848
-8.796432
-4.937408
-1.077782
2.49427
5.594551
8.142838
10.11324
11.4852
12.30629
12.68307
12.71803
12.54997
12.27328
11.92503
11.56972
11.30759
11.23842
11.42221
11.83502
12.29279
12.58194
12.50204
11.99513
11.14153
10.1371
9.163933
8.293709
7.487625
6.598007
5.506241
4.162659
2.650749
1.136177
-0.2283707
-1.387238
-2.399513
-3.39814
-4.543621
-5.899094
-7.438957
-9.042233
-10.56698
-11.93409
-13.16853
-14.33604
-15.47787
-16.58183
-17.48471
-17.91221
-17.55384
-16.12357
-13.55692
-9.99757
-5.839191
-1.594364
2.190331
5.1702
7.24461
8.547604
9.37994
10.01209
10.55692
10.91644
10.93772
10.58059
9.995522
9.485146
9.337978
9.646679
10.22073
10.66809
10.59776
9.848324
8.555237
7.105869
5.901333
5.163521
4.878674
4.827057
4.740665
4.431946
3.849377
3.048241
2.067005
0.904644
-0.4887695
-2.1096
-3.892265
-5.647728
-7.191444
-8.437218
-9.44643
-10.43261
-11.59199
-13.02625
-14.62629
-16.08409
-17.00281
-17.01696
-15.9285
-13.74077
-10.67276
-7.083698
-3.338734
0.2703323
3.554676
6.430786
8.832802
10.66363
11.81637
12.23545
11.97895
11.16893
9.996307
8.666775
7.33746
6.154701
5.259342
4.797089
4.842266
5.392452
6.308723
7.310974
8.091656
8.402309
8.149067
7.388878
6.304844
5.095978
3.891338
2.711014
1.445587
-0.02275467
-1.721176
-3.562241
-5.319447
-6.782511
-7.840685
-8.578224
-9.200891
-9.966984
-10.99779
-12.27548
-13.63963
-14.90054
-15.91205
-16.57092
-16.76046
-16.28182
-14.88703
-12.34909
-8.712431
-4.350914
0.09033775
3.942543
6.764517
8.593031
9.763361
10.68098
11.53247
12.16036
12.20982
11.44433
9.998955
8.343657
7.081573
6.556007
6.711548
7.121506
7.306047
7.037874
6.458645
5.895416
5.664703
5.785517
6.00143
5.959803
5.435336
4.443538
3.227738
2.136102
1.390799
1.071052
1.052187
1.079041
0.847681
0.08140469
-1.399637
-3.561666
-6.148204
-8.74898
-10.98218
-12.68023
-13.94117
-15.04581
-16.23088
-17.52216
-18.63327
-19.14282
-18.60724
-16.79509
-13.75082
-9.751053
-5.233331
-0.7182579
3.30908
6.456301
8.518368
9.505728
9.643623
9.246298
8.619506
8.000047
7.525455
7.324495
7.50645
8.117254
9.06157
10.08556
10.87335
11.16914
10.9129
10.26583
9.506788
8.862556
8.403118
8.069919
7.763932
7.45547
7.181435
6.973951
6.810348
6.545062
6.009399
5.051396
3.622145
1.808002
-0.220787
-2.274638
-4.186789
-5.887765
-7.42051
-8.912921
-10.49098
-12.21503
-14.04307
-15.83484
-17.41587
-18.62649
-19.35081
-19.49824
-18.99346
-17.73687
-15.70675
-12.98057
-9.739183
-6.228415
-2.680449
0.7293186
3.82111
6.420305
8.360184
9.51585
9.917404
9.738581
9.240396
8.647633
8.08861
7.606216
7.202957
6.924677
6.826122
6.934412
7.186729
7.393961
7.331675
6.845568
5.926006
4.71674
3.449131
2.334408
1.504303
1.014618
0.7976112
0.7443542
0.7197227
0.5846291
0.2494926
-0.3066292
-1.072567
-1.988327
-3.011978
-4.14146
-5.370274
-6.700363
-8.134556
-9.653275
-11.17065
-12.57903
-13.73722
-14.46053
-14.58018
-13.92769
-12.37722
-9.925228
-6.712288
-3.015842
0.7643547
4.187531
6.902657
8.76511
9.841591
10.31632
10.36264
10.06504
9.419464
8.469872
7.382912
6.391243
5.70409
5.392849
5.359097
5.468525
5.662079
5.979984
6.471569
7.138142
7.803062
8.222229
8.17889
7.63921
6.694542
5.508839
4.152996
2.621849
0.9320869
-0.8365974
-2.534492
-4.066616
-5.417152
-6.742466
-8.20409
-9.863014
-11.6402
-13.36114
-14.91647
-16.31743
-17.67972
-19.02424
-20.188
-20.78954
-20.39352
-18.71676
-15.78234
-11.95233
-7.736511
-3.611549
0.09152985
3.209572
5.697533
7.586998
8.93499
9.839005
10.35054
10.48925
10.24944
9.65213
8.798203
7.902122
7.199326
6.839851
6.879448
7.249519
7.823586
8.496651
9.165741
9.711266
9.997322
9.825638
9.057343
7.71402
5.98159
4.164398
2.557625
1.337624
0.4725723
-0.2001343
-0.9218597
-1.898376
-3.205322
-4.801056
-6.540802
-8.245842
-9.790627
-11.1811
-12.53336
-14.04195
-15.83786
-17.88921
-19.97395
-21.73635
-22.7924
-22.85374
-21.78548
-19.59814
-16.45364
-12.56409
-8.223885
-3.788635
0.403595
4.058434
6.992294
9.175591
10.7028
11.68471
12.19975
12.31386
12.05418
11.53123
10.88823
10.27638
9.768265
9.370483
9.016655
8.639503
8.285461
8.060364
8.096214
8.41201
8.863716
9.15609
8.976723
8.120377
6.620911
4.757736
2.906166
1.361038
0.1799316
-0.8139114
-1.933624
-3.39109
-5.144005
-6.900864
-8.260132
-8.985451
-9.143852
-9.143913
-9.54187
-10.76158
-12.87433
-15.5062
-17.9948
-19.6255
-19.90047
-18.6908
-16.21924
-12.91415
-9.225693
-5.470772
-1.832603
1.55999
4.565468
6.973572
8.611984
9.450851
9.633408
9.450783
9.206207
9.016502
8.837799
8.534744
7.99984
7.292282
6.640526
6.29541
6.375748
6.801468
7.327095
7.673515
7.687126
7.394234
6.94194
6.483482
6.052467
5.542488
4.850647
3.941002
2.850807
1.687637
0.4928436
-0.7565994
-2.097984
-3.560341
-5.061607
-6.457649
-7.637749
-8.587654
-9.423325
-10.30618
-11.34871
-12.54379
-13.7737
-14.80256
-15.36713
-15.233
-14.21919
-12.22197
-9.341721
-5.855659
-2.205315
1.152153
3.864426
5.801834
7.056267
7.854965
8.482407
9.099129
9.764137
10.3949
10.83147
10.93111
10.64397
10.03418
9.261383
8.483162
7.777649
7.132591
6.476082
5.785927
5.080566
4.459076
3.979156
3.659195
3.383659
2.998627
2.39653
1.530869
0.4526901
-0.7841949
-2.1399
-3.601189
-5.133224
-6.599571
-7.888344
-8.91021
-9.73333
-10.52205
-11.51948
-12.89632
-14.63956
-16.56017
-18.27788
-19.3718
-19.45298
-18.29408
-15.86576
-12.41443
-8.365654
-4.216492
-0.4261932
2.737984
5.186218
7.005859
8.321625
9.296562
9.99691
10.46902
10.75399
10.78649
10.53576
9.953209
9.080399
8.113998
7.339615
7.041359
7.315712
8.025848
8.738457
8.986229
8.451599
7.166298
5.473045
3.826088
2.555695
1.6595
0.9291611
0.09703827
-0.8779144
-1.832336
-2.54747
-2.945694
-3.245758
-3.858803
-5.152855
-7.142174
-9.484207
-11.58585
-12.98662
-13.62907
-13.82271
-14.08207
-14.73261
-15.69302
-16.51232
-16.61432
-15.61431
-13.50018
-10.64246
-7.52626
-4.50148
-1.67408
1.048744
3.805214
6.529747
8.924187
10.58315
11.21101
10.83191
9.817902
8.753738
8.180023
8.311035
9.008499
9.874161
10.50907
10.69686
10.50689
10.16311
9.875473
9.704491
9.562759
9.321022
8.901321
8.326385
7.679016
7.016861
6.326271
5.503754
4.460152
3.183144
1.743477
0.3163528
-0.9358444
-1.955582
-2.793137
-3.60585
-4.559105
-5.737175
-7.083832
-8.431854
-9.647774
-10.71548
-11.74171
-12.92043
-14.32973
-15.82646
-17.01437
-17.40381
-16.54259
-14.23251
-10.6219
-6.157661
-1.486725
2.751984
6.085831
8.335434
9.583595
10.11837
10.27153
10.29253
10.30719
10.29645
10.18507
9.929024
9.56398
9.148903
8.786255
8.551186
8.461761
8.476494
8.506447
8.501907
8.438286
8.327133
8.176682
7.966866
7.652008
7.208946
6.69487
6.161957
5.606964
4.92012
3.837776
2.105965
-0.340271
-3.286835
-6.267914
-8.745819
-10.38354
-11.17735
-11.4249
-11.5594
-11.93192
-12.66604
-13.69162
-14.79802
-15.72151
-16.21577
-16.03509
-14.96675
-12.93111
-10.02755
-6.582298
-3.024582
0.2496948
3.023483
5.256691
7.050369
8.499939
9.586136
10.23907
10.39066
10.04122
9.296959
8.294106
7.14856
5.960175
4.834824
3.893311
3.290474
3.132614
3.421272
4.0149
4.714172
5.309105
5.704491
5.903458
5.979462
5.987068
5.917297
5.624535
4.928513
3.677986
1.885078
-0.2636108
-2.443985
-4.299805
-5.622818
-6.450897
-7.09082
-7.963409
-9.418953
-11.57431
-14.20548
-16.81803
-18.76609
-19.50113
-18.70576
-16.42941
-13.01355
-8.970551
-4.864761
-1.106064
2.080597
4.671623
6.696274
8.212585
9.225243
9.767288
9.914383
9.744965
9.346657
8.726768
7.887817
6.852608
5.787964
4.943626
4.583076
4.842743
5.582794
6.451591
7.052147
7.102303
6.575241
5.659775
4.595436
3.520584
2.46933
1.387291
0.2891617
-0.7336121
-1.547798
-2.069527
-2.334007
-2.534409
-2.936928
-3.746582
-5.074615
-6.870537
-9.013481
-11.34837
-13.7057
-15.91105
-17.77071
-19.04896
-19.47789
-18.86412
-17.11658
-14.35651
-10.86507
-6.994888
-3.071541
0.6755142
4.127022
7.180107
9.66777
11.37411
12.13583
11.91768
10.9121
9.457695
7.93811
6.629013
5.671936
5.079338
4.86541
5.010506
5.477165
6.148361
6.849411
7.40477
7.703278
7.758614
7.682602
7.614357
7.618393
7.675209
7.664307
7.464638
6.985374
6.17318
4.974213
3.373192
1.348534
-1.061478
-3.68335
-6.267532
-8.518684
-10.26268
-11.4744
-12.36758
-13.2394
-14.34169
-15.69437
-17.0309
-17.91729
-17.89773
-16.71597
-14.39905
-11.23491
-7.63044
-4.000969
-0.6462975
2.243637
4.538887
6.17664
7.185314
7.743599
8.141598
8.659283
9.420177
10.27594
10.90845
10.97205
10.38203
9.33786
8.241592
7.471195
7.191002
7.267643
7.424904
7.409401
7.132904
6.675724
6.191368
5.767082
5.413475
5.013256
4.433064
3.547546
2.32008
0.8035393
-0.8738441
-2.546722
-4.122852
-5.559582
-6.852516
-8.007614
-9.014759
-9.83289
-10.5066
-11.18827
-12.05526
-13.24534
-14.68607
-16.06586
-16.9086
-16.75
-15.30015
-12.56886
-8.844124
-4.618443
-0.4063911
3.344265
6.375198
8.596928
10.04164
10.77267
10.85733
10.33958
9.335541
8.044201
6.778942
5.867062
5.468681
5.574512
5.926056
6.210892
6.198517
5.864944
5.360764
4.896751
4.652847
4.621342
4.687977
4.619469
4.208656
3.384159
2.222397
0.9429131
-0.2483559
-1.240501
-2.099674
-3.007893
-4.168739
-5.681141
-7.467457
-9.328796
-11.05604
-12.57269
-13.8746
-15.05347
-16.05474
-16.67498
-16.54639
-15.33183
-12.92317
-9.520695
-5.649334
-1.903931
1.197437
3.425907
4.85759
5.731548
6.323723
6.788704
7.164688
7.383114
7.387928
7.139603
6.666309
6.064148
5.451847
4.962158
4.693127
4.704407
4.953129
5.365685
5.81543
6.197197
6.468391
6.537361
6.340488
5.739628
4.624153
2.976269
0.9559555
-1.146183
-3.009525
-4.442009
-5.476437
-6.294731
-7.197651
-8.425613
-10.04531
-11.97341
-14.02469
-15.9566
-17.54463
-18.58706
-18.86417
-18.22211
-16.59848
-14.04593
-10.76928
-7.078981
-3.286263
0.3357792
3.586039
6.364681
8.617338
10.30892
11.4152
11.91357
11.84222
11.35007
10.66635
10.02429
9.603651
9.453308
9.532068
9.740885
9.991524
10.26667
10.58231
10.9254
11.1968
11.24608
10.907
10.12287
8.966531
7.549745
6.000972
4.366805
2.630021
0.8083143
-0.9920902
-2.603308
-3.885116
-4.835443
-5.630074
-6.556322
-7.859781
-9.656828
-11.88957
-14.34119
-16.71981
-18.69992
-19.9494
-20.21981
-19.34052
-17.27481
-14.1632
-10.31974
-6.139464
-2.047925
1.57022
4.47134
6.563071
7.896894
8.603703
8.825243
8.658426
8.130152
7.317873
6.376425
5.588551
5.270802
5.620181
6.617381
7.957297
9.207685
9.982998
10.11189
9.684044
8.980923
8.297996
7.763251
7.304839
6.720277
5.831601
4.606823
3.213313
1.918474
0.919323
0.1961746
-0.4469366
-1.26422
-2.392819
-3.766632
-5.187007
-6.492709
-7.664267
-8.838028
-10.16222
-11.69118
-13.24229
-14.4847
-15.02496
-14.583
-13.07534
-10.59381
-7.368473
-3.690027
0.1286526
3.806469
7.057238
9.624418
11.32966
12.12759
12.11277
11.56153
10.82667
10.20047
9.831757
9.71282
9.727627
9.747847
9.742872
9.725161
9.712543
9.672445
9.502119
9.123203
8.511673
7.735325
6.89691
6.062372
5.24287
4.40391
3.532059
2.646976
1.775942
0.9170837
0.03087425
-0.955904
-2.116798
-3.448544
-4.847519
-6.1978
-7.435778
-8.63212
-9.980947
-11.69737
-13.88206
-16.41066
-18.93526
-20.9375
-21.8996
-21.43414
-19.4706
-16.21061
-12.05307
-7.496723
-3.014404
1.036272
4.427338
7.070908
9.035053
10.46465
11.53268
12.34324
12.87614
13.07529
12.86325
12.2654
11.44161
10.65867
10.15167
10.0486
10.31532
10.78682
11.28712
11.6669
11.8468
11.73015
11.25281
10.35411
9.032852
7.403343
5.667213
4.089306
2.869093
2.062811
1.608936
1.352129
1.095787
0.7259579
0.2188263
-0.4056416
-1.103476
-1.899511
-2.85107
-4.051802
-5.586996
-7.505009
-9.765823
-12.24286
-14.69166
-16.78095
-18.15631
-18.52467
-17.73151
-15.77979
-12.86581
-9.284681
-5.381962
-1.48634
2.17346
5.427341
8.163738
10.26814
11.67972
12.37213
12.42767
12.00761
11.31839
10.57486
9.900309
9.352419
8.956161
8.704781
8.606083
8.66161
8.825102
8.991331
9.044346
8.908129
8.599958
8.183048
7.746925
7.291018
6.753553
6.084717
5.258326
4.321239
3.325523
2.320422
1.288342
0.1593971
-1.099373
-2.466636
-3.80019
-4.949941
-5.785813
-6.325382
-6.758771
-7.323737
-8.247038
-9.59328
-11.25157
-12.9701
-14.45172
-15.44782
-15.78936
-15.40677
-14.26227
-12.35737
-9.720062
-6.49533
-2.940958
0.5814846
3.712917
6.192011
7.892461
8.883578
9.346686
9.514308
9.573993
9.595492
9.549386
9.32785
8.870668
8.172539
7.358918
6.558733
5.928638
5.570881
5.496018
5.674253
5.995586
6.34828
6.597392
6.653861
6.447134
5.938795
5.140818
4.075075
2.810955
1.401638
-0.02748299
-1.383128
-2.586412
-3.558963
-4.303025
-4.835846
-5.239346
-5.649965
-6.265066
-7.285257
-8.873363
-11.01341
-13.44859
-15.71958
-17.28851
-17.74397
-16.91146
-14.90316
-12.01719
-8.617767
-5.047892
-1.558926
1.640619
4.399277
6.624563
8.267385
9.318645
9.816849
9.788849
9.285746
8.409204
7.272606
6.030481
4.858944
3.877426
3.217888
2.939663
3.011501
3.356373
3.805683
4.178032
4.35017
4.306248
4.100086
3.814217
3.510796
3.175102
2.801479
2.397926
2.025547
1.735508
1.50489
1.208511
0.7224731
-0.0327034
-0.9905472
-2.00769
-2.962887
-3.897579
-5.010021
-6.539173
-8.574062
-10.97373
-13.36653
-15.30177
-16.43884
-16.62906
-15.93861
-14.49289
-12.42219
-9.839985
-6.848095
-3.617565
-0.4517212
2.338409
4.528297
6.032249
6.956894
7.483486
7.75531
7.795254
7.568993
7.02718
6.191082
5.207653
4.318256
3.770248
3.723755
4.163761
4.904556
5.664631
6.153229
6.18885
5.79858
5.164818
4.553596
4.176781
4.060265
4.049599
3.855186
3.214798
2.086044
0.6358948
-0.8332367
-2.019661
-2.798607
-3.3069
-3.834023
-4.698486
-6.061478
-7.830963
-9.733551
-11.44866
-12.76266
-13.65148
-14.22065
-14.58737
-14.77062
-14.61771
-13.91168
-12.44894
-10.19699
-7.321236
-4.161469
-1.102249
1.574364
3.750816
5.47728
6.833488
7.836823
8.394905
8.390289
7.740303
6.553642
5.145668
3.951195
3.353439
3.508545
4.280884
5.319328
6.222816
6.73629
6.83239
6.608223
6.165726
5.543388
4.705284
3.685997
2.639236
1.837746
1.524979
1.723221
2.181183
2.460922
2.158485
1.117142
-0.5058212
-2.369431
-4.175125
-5.808647
-7.369011
-9.035515
-10.87459
-12.74294
-14.33133
-15.28832
-15.36768
-14.52202
-12.87567
-10.65131
-8.115349
-5.479134
-2.951218
-0.6783371
1.235565
2.740616
3.83593
4.621231
5.22187
5.752792
6.292511
6.820473
7.25193
7.447037
7.261566
6.615997
5.575409
4.334198
3.170738
2.390732
2.161491
2.434822
2.992294
3.510643
3.71907
3.53083
3.054413
2.518074
2.148232
1.990997
1.881409
1.544022
0.7356033
-0.596199
-2.346344
-4.298538
-6.252914
-8.071281
-9.706619
-11.1588
-12.37338
-13.30624
-13.87988
-14.05991
-13.84179
-13.2795
-12.40669
-11.2579
-9.801125
-7.951424
-5.687958
-3.072678
-0.2607803
2.459785
4.760735
6.378731
7.211815
7.3564
7.087479
6.67086
6.271278
5.910805
5.527084
5.072769
4.609978
4.292664
4.237801
4.46373
4.806458
5.000618
4.843269
4.277084
3.451797
2.623268
2.039963
1.802307
1.885284
2.14209
2.423134
2.600281
2.564278
2.26712
1.656204
0.691452
-0.6300049
-2.277412
-4.17083
-6.183052
-8.133598
-9.91713
-11.48795
-12.8701
-14.08587
-15.0275
-15.4406
-15.00746
-13.53747
-11.06348
-7.922897
-4.578484
-1.478836
1.104462
3.113716
4.643974
5.788872
6.598961
7.105049
7.325432
7.319977
7.134567
6.77317
6.216393
5.444702
4.527466
3.594055
2.809372
2.314468
2.180313
2.40461
2.91571
3.608864
4.334465
4.918877
5.210419
5.10247
4.615265
3.828033
2.904434
1.976326
1.112259
0.2871017
-0.5420227
-1.411362
-2.332794
-3.322105
-4.41777
-5.697281
-7.177368
-8.808098
-10.43362
-11.8644
-12.97038
-13.71937
-14.13972
-14.22482
-13.88757
-12.97088
-11.31775
-8.880898
-5.774117
-2.280197
1.223289
4.377045
6.954262
8.876381
10.22026
11.08265
11.58022
11.76374
11.61793
11.10919
10.26705
9.225197
8.216042
7.493408
7.211494
7.422256
8.030052
8.843857
9.616074
10.11243
10.13564
9.571823
8.418953
6.778145
4.866745
2.950516
1.286774
0.01577759
-0.8484421
-1.489471
-2.173103
-3.108025
-4.375153
-5.863541
-7.368523
-8.716225
-9.849144
-10.87989
-12.03915
-13.53082
-15.37959
-17.40073
-19.19995
-20.30223
-20.30682
-18.99675
-16.432
-12.91827
-8.903442
-4.855072
-1.168831
1.885101
4.17421
5.674721
6.487602
6.784966
6.848007
6.971519
7.388191
8.150169
9.121689
10.02319
10.58008
10.63444
10.19468
9.403469
8.492496
7.726261
7.283699
7.270134
7.638935
8.182899
8.570389
8.49831
7.757145
6.373482
4.587143
2.75983
1.225887
0.1479149
-0.4851189
-0.8412056
-1.112347
-1.506145
-2.174408
-3.177582
-4.451809
-5.887875
-7.345753
-8.77916
-10.27081
-11.94824
-13.90331
-16.04572
-18.03561
-19.37238
-19.58599
-18.42081
-15.94351
-12.48874
-8.529652
-4.499027
-0.6928711
2.728382
5.652481
8.009384
9.705986
10.67612
10.90792
10.51534
9.713833
8.800659
8.053387
7.636242
7.614735
7.932674
8.46172
9.031258
9.525784
9.867504
10.06519
10.18816
10.30455
10.44308
10.5183
10.36077
9.7924
8.749664
7.364525
5.906094
4.642921
3.710911
3.012478
2.302547
1.33437
-0.01356506
-1.666
-3.394421
-4.942871
-6.149223
-6.996696
-7.660511
-8.386894
-9.470169
-11.08908
-13.25587
-15.73678
-18.11707
-19.8892
-20.58574
-19.94958
-17.93852
-14.77709
-10.85711
-6.656044
-2.634628
0.8572769
3.646721
5.743523
7.236988
8.258606
8.864109
9.085953
8.927204
8.442417
7.756897
7.057228
6.544636
6.341881
6.481197
6.877304
7.371803
7.779858
7.926252
7.71661
7.141548
6.28389
5.269266
4.284319
3.475225
2.901857
2.559101
2.351091
2.164917
1.873299
1.407097
0.7407513
-0.1096764
-1.154516
-2.410002
-3.928284
-5.704477
-7.68412
-9.759552
-11.76481
-13.58474
-15.10205
-16.22946
-16.85311
-16.79628
-15.84969
-13.87961
-10.94812
-7.323542
-3.491642
0.04034042
2.822794
4.666595
5.621168
5.936163
5.969654
6.051085
6.388876
6.973654
7.646172
8.163975
8.362173
8.250828
8.027227
7.928215
8.085083
8.447523
8.767887
8.801191
8.410544
7.678591
6.82432
6.067157
5.463506
4.925261
4.303086
3.434088
2.302296
0.999671
-0.2870073
-1.363254
-2.11767
-2.559434
-2.872334
-3.321191
-4.181219
-5.596569
-7.508701
-9.72893
-11.98222
-14.06083
-15.81464
-17.13735
-17.92823
-18.04376
-17.3413
-15.7543
-13.34673
-10.28174
-6.826237
-3.220435
0.3141425
3.5568
6.275043
8.300647
9.53614
9.980167
9.823994
9.282413
8.599371
7.942541
7.375794
6.90158
6.493837
6.153433
5.899395
5.789449
5.862453
6.122822
6.541273
7.002514
7.399029
7.616676
7.566342
7.196752
6.523397
5.600967
4.502542
3.299676
1.995901
0.5990067
-0.8731756
-2.34117
-3.694814
-4.794171
-5.571611
-6.050941
-6.356438
-6.735473
-7.398024
-8.491014
-10.03107
-11.88123
-13.76555
-15.33912
-16.24585
-16.19745
-15.07713
-12.93838
-10.05202
-6.781097
-3.505186
-0.5132275
2.046658
4.15831
5.858078
7.171049
8.115215
8.693472
8.921509
8.889639
8.725307
8.570763
8.530308
8.662138
8.935856
9.285597
9.613647
9.809992
9.798391
9.546198
9.09428
8.543722
7.997225
7.483585
6.945057
6.238392
5.230034
3.897703
2.315491
0.6355515
-0.9895134
-2.446255
-3.683956
-4.670975
-5.459923
-6.13475
-6.865643
-7.864792
-9.27887
-11.07713
-13.03189
-14.74306
-15.81647
-16.01371
-15.31906
-13.8721
-11.86492
-9.441769
-6.659515
-3.5765
-0.3173637
2.925766
5.924255
8.49971
10.53093
11.95237
12.69889
12.74915
12.16069
11.1255
9.942616
8.932159
8.300117
8.043056
7.970078
7.833313
7.489418
6.99416
6.517208
6.267639
6.289444
6.434769
6.439877
6.061008
5.221642
4.046734
2.80019
1.725906
0.9694901
0.4750023
0.03588104
-0.6114197
-1.681606
-3.204075
-5.03381
-6.884743
-8.570473
-10.01725
-11.36563
-12.8231
-14.49132
-16.26659
-17.81133
-18.6897
-18.50492
-17.07596
-14.46594
-10.99016
-7.031517
-2.978481
0.8622093
4.266781
7.13176
9.457088
11.26847
12.58974
13.38415
13.58662
13.20564
12.34001
11.21418
10.09673
9.224529
8.716709
8.570202
8.704014
9.013256
9.447411
9.935951
10.40258
10.68894
10.63374
10.11538
9.12748
7.786201
6.251381
4.688065
3.162571
1.66856
0.135994
-1.458103
-3.088688
-4.582634
-5.76725
-6.567612
-7.046955
-7.436184
-8.026356
-9.013233
-10.41083
-12.07433
-13.75024
-15.19378
-16.21227
-16.63501
-16.26136
-14.92095
-12.53688
-9.251648
-5.447701
-1.645622
1.697144
4.326729
6.261818
7.676331
8.744301
9.553619
10.06211
10.22098
10.05856
9.750679
9.487228
9.420059
9.549652
9.727303
9.791412
9.621048
9.225449
8.743507
8.3265
8.05307
7.928726
7.817863
7.570549
7.092537
6.408638
5.643661
4.997314
4.571133
4.316093
4.021736
3.38583
2.164314
0.3471184
-1.834187
-3.974113
-5.638611
-6.61198
-6.932037
-6.934975
-7.07119
-7.729542
-9.052979
-10.89301
-12.83237
-14.30498
-14.80182
-13.98237
-11.83725
-8.656742
-4.932728
-1.180332
2.184452
4.930264
6.992321
8.389641
9.199181
9.504326
9.40794
9.070366
8.636417
8.241016
7.941925
7.723835
7.49921
7.247246
6.979961
6.767826
6.693947
6.710743
6.723721
6.583912
6.204948
5.63755
5.053848
4.6493
4.517811
4.592091
4.620628
4.36684
3.675446
2.580135
1.230927
-0.1955338
-1.598705
-3.002689
-4.420696
-5.8633
-7.203041
-8.296665
-9.054115
-9.513279
-9.901192
-10.54561
-11.73472
-13.55169
-15.81923
-18.02604
-19.54994
-19.87233
-18.72477
-16.25146
-12.82545
-8.902714
-4.858917
-0.947113
2.667027
5.795002
8.271797
9.978638
10.93287
11.28979
11.24937
10.974
10.50792
9.864288
9.076794
8.234024
7.503105
6.982601
6.695736
6.563225
6.471344
6.34214
6.187424
6.056751
6.017578
6.099583
6.247551
6.327141
6.209442
5.799263
5.153664
4.448101
3.907148
3.717997
3.900869
4.265644
4.504534
4.285151
3.389887
1.804155
-0.2916851
-2.612339
-4.856754
-6.812336
-8.424625
-9.788832
-11.08724
-12.46851
-13.93003
-15.30402
-16.30207
-16.64276
-16.2232
-15.12878
-13.57663
-11.75224
-9.709764
-7.371092
-4.642954
-1.608131
1.497385
4.283752
6.435191
7.858798
8.638754
8.963079
8.958734
8.640718
7.96673
7.01427
5.996275
5.245132
4.996062
5.268517
5.832796
6.348048
6.570455
6.451046
6.104108
5.713097
5.403275
5.183843
4.971177
4.700059
4.278995
3.691386
2.963554
2.146675
1.311142
0.5016747
-0.273911
-1.076698
-1.951778
-2.889201
-3.823769
-4.633485
-5.241293
-5.670289
-6.038437
-6.455495
-7.008955
-7.689099
-8.488152
-9.417337
-10.5194
-11.81421
-13.16234
-14.23521
-14.60143
-13.91697
-12.10366
-9.401453
-6.303179
-3.316772
-0.8296747
1.092443
2.618344
4.063621
5.682178
7.477204
9.171321
10.33566
10.63905
10.05765
8.92337
7.762103
7.030399
6.897032
7.215729
7.678912
8.012303
8.141053
8.156521
8.218864
8.411534
8.694391
8.944424
8.981419
8.709679
8.092627
7.165949
6.013947
4.755165
3.498638
2.285572
1.114962
-0.0737896
-1.302055
-2.544905
-3.76025
-4.926481
-6.108355
-7.397814
-8.823877
-10.31482
-11.72161
-12.85024
-13.63802
-14.16772
-14.60727
-15.12384
-15.70537
-16.12244
-16.07784
-15.28251
-13.6248
-11.21346
-8.329395
-5.24057
-2.210161
0.635088
3.233875
5.509285
7.316034
8.479124
8.880123
8.554512
7.724545
6.708179
5.774632
5.073971
4.554546
4.099453
3.612312
3.124599
2.808559
2.871307
3.375435
4.14772
4.870968
5.204002
5.028965
4.484749
3.867352
3.508415
3.528393
3.824181
4.102207
4.081367
3.588432
2.662502
1.478825
0.199791
-1.028599
-2.18383
-3.232262
-4.149986
-4.852184
-5.30064
-5.573086
-5.889282
-6.579967
-7.858059
-9.746063
-11.93399
-13.90301
-15.10446
-15.1781
-14.08046
-12.00697
-9.30703
-6.285908
-3.205494
-0.2549934
2.38834
4.542675
6.098381
7.054276
7.539963
7.725891
7.749138
7.60144
7.176773
6.343773
5.049366
3.448311
1.886299
0.8004723
0.5044327
1.078503
2.257248
3.567635
4.49781
4.716511
4.223629
3.291252
2.304108
1.597134
1.291378
1.314243
1.45121
1.447884
1.079292
0.2380524
-1.066208
-2.683643
-4.395161
-6.00967
-7.430779
-8.684113
-9.893463
-11.23368
-12.84161
-14.73249
-16.73916
-18.51499
-19.57011
-19.41761
-17.74034
-14.56489
-10.32067
-5.690056
-1.413353
1.966011
4.259945
5.594337
6.286282
6.656693
6.918545
7.148239
7.338833
7.442173
7.411648
7.196487
6.800278
6.245796
5.613918
5.019348
4.576759
4.411674
4.546082
4.910683
5.331825
5.575424
5.414921
4.77116
3.732452
2.53019
1.395462
0.414135
-0.485363
-1.458767
-2.635403
-3.975845
-5.282372
-6.331566
-7.004177
-7.404762
-7.833557
-8.639847
-10.03698
-11.99743
-14.23523
-16.36221
-18.00243
-18.89491
-18.89803
-17.98998
-16.20006
-13.61524
-10.42027
-6.847519
-3.232357
0.10812
2.927521
5.1329
6.741096
7.83987
8.523285
8.832155
8.827271
8.582432
8.190708
7.750767
7.337915
7.039436
6.964375
7.230709
7.889446
8.810879
9.701145
10.1953
10.01001
9.078753
7.606052
5.995314
4.586096
3.558956
2.860451
2.283522
1.639652
0.8521137
-0.08963013
-1.116615
-2.173758
-3.240528
-4.303423
-5.331902
-6.310529
-7.223105
-8.112483
-9.068561
-10.22136
-11.68332
-13.46187
-15.38547
-17.0812
-18.0561
-17.83327
-16.15853
-13.09148
-9.054119
-4.682511
-0.6355786
2.67765
5.128332
6.838269
8.064985
8.979904
9.687931
10.18074
10.42864
10.4127
10.18258
9.807024
9.404841
9.118454
9.059414
9.274567
9.728494
10.27135
10.70257
10.83723
10.58695
9.98387
9.139571
8.114237
6.899159
5.460391
3.742129
1.882084
0.1461325
-1.198268
-1.985544
-2.340071
-2.610972
-3.148386
-4.149277
-5.565959
-7.146429
-8.632573
-9.921186
-11.10933
-12.37232
-13.80176
-15.28954
-16.56776
-17.28743
-17.15395
-16.04495
-13.99538
-11.17789
-7.872631
-4.417715
-1.128872
1.778143
4.254086
6.406782
8.388994
10.24261
11.82269
12.79157
12.83088
11.84368
10.04658
7.974022
6.239695
5.253065
5.136387
5.73947
6.730959
7.778332
8.660873
9.231163
9.419327
9.201393
8.645966
7.954178
7.35907
7.033699
6.980846
6.987381
6.735645
5.949512
4.601952
2.847313
1.012299
-0.6799507
-2.156818
-3.501072
-4.847885
-6.335873
-8.033672
-9.980904
-12.19749
-14.57835
-16.89826
-18.7649
-19.66268
-19.17111
-17.13025
-13.68101
-9.297894
-4.630718
-0.2665749
3.339317
6.014355
7.780994
8.824341
9.379536
9.65123
9.770432
9.746513
9.530258
9.121761
8.603523
8.140816
7.87429
7.899773
8.201988
8.707241
9.331047
10.00236
10.61772
11.04264
11.07073
10.50628
9.295887
7.548183
5.557652
3.700706
2.27441
1.385132
0.9518242
0.6908951
0.2721443
-0.5643806
-1.899452
-3.624569
-5.484673
-7.205746
-8.590679
-9.668396
-10.62526
-11.74379
-13.2712
-15.29485
-17.64819
-19.96019
-21.7545
-22.60327
-22.21822
-20.50258
-17.58873
-13.77267
-9.468929
-5.122082
-1.146423
2.175785
4.751102
6.651512
8.106369
9.355923
10.5358
11.6016
12.41368
12.80132
12.7245
12.27288
11.68907
11.22117
11.07069
11.31717
11.92514
12.73205
13.53179
14.1248
14.35036
14.12842
13.43394
12.27861
10.74715
8.980293
7.207039
5.686691
4.628601
4.101158
3.945198
3.80954
3.335365
2.306511
0.7797394
-1.004547
-2.737709
-4.220688
-5.444618
-6.567619
-7.77182
-9.194008
-10.86156
-12.74761
-14.76893
-16.82443
-18.76432
-20.34214
-21.22618
-21.06933
-19.60194
-16.75239
-12.77978
-8.180008
-3.567238
0.5064468
3.736725
6.128036
7.883507
9.242111
10.31309
11.03767
11.32445
11.14799
10.63773
10.04234
9.640564
9.589615
9.888695
10.43212
11.03885
11.54949
11.85809
11.91454
11.71989
11.31326
10.79212
10.30486
9.929817
9.652939
9.353264
8.821129
7.916595
6.66581
5.246834
3.88446
2.714096
1.671013
0.5450516
-0.8427582
-2.512711
-4.251297
-5.697357
-6.592247
-6.951385
-7.075928
-7.444809
-8.466263
-10.28078
-12.72794
-15.40726
-17.81612
-19.51151
-20.12689
-19.45133
-17.42774
-14.17776
-10.04118
-5.542
-1.241661
2.395958
5.128662
7.003822
8.212601
9.003357
9.512413
9.744625
9.640667
9.201023
8.553471
7.920845
7.583447
7.668789
8.140587
8.830711
9.495071
9.972527
10.21844
10.26948
10.17009
9.892578
9.308868
8.326454
6.928265
5.219246
3.434177
1.817669
0.4849129
-0.5706825
-1.465946
-2.314636
-3.176884
-4.022125
-4.830296
-5.578041
-6.271786
-6.944565
-7.604195
-8.252262
-8.952187
-9.852207
-11.06071
-12.65611
-14.46836
-16.17321
-17.31514
-17.48253
-16.43704
-14.17923
-10.94465
-7.076759
-2.99292
0.9491043
4.448223
7.28788
9.315121
10.48198
10.81495
10.44663
9.59898
8.560791
7.632114
7.055908
6.935482
7.174717
7.583714
7.926056
8.072453
8.005611
7.805721
7.551479
7.289967
6.9716
6.558014
6.06385
5.571106
5.187504
4.990311
4.886017
4.658394
4.053219
2.897961
1.209751
-0.8158989
-2.928898
-4.904526
-6.624683
-8.097404
-9.407558
-10.67627
-11.99738
-13.4259
-14.97223
-16.57297
-18.09586
-19.33886
-20.08136
-20.12249
-19.32763
-17.63009
-15.07489
-11.76465
-7.901188
-3.777836
0.2497559
3.806026
6.604359
8.539646
9.675556
10.22573
10.42208
10.45044
10.40747
10.35722
10.31903
10.30155
10.30587
10.25601
10.01696
9.494884
8.719509
7.861298
7.20771
6.992157
7.227871
7.690651
8.023674
7.917309
7.310253
6.392799
5.434826
4.601023
3.808138
2.827349
1.454845
-0.2819901
-2.088087
-3.554909
-4.429604
-4.779539
-5.002897
-5.593784
-6.859821
-8.776138
-11.01445
-13.13427
-14.82013
-16.01547
-16.82454
-17.34788
-17.49611
-16.98481
-15.46918
-12.76449
-9.042665
-4.819298
-0.7825565
2.523512
4.8985
6.545635
7.821489
9.006855
10.14092
11.00528
11.35316
11.11804
10.47202
9.718529
9.11869
8.70722
8.36923
8.008314
7.629845
7.402006
7.470512
7.837852
8.302336
8.530014
8.247097
7.419498
6.200596
4.823709
3.484478
2.230532
1.038794
-0.09114647
-1.1224
-1.966946
-2.56254
-2.929441
-3.20554
-3.530193
-4.044714
-4.836333
-5.934196
-7.363114
-9.141177
-11.24882
-13.56961
-15.89425
-17.87685
-19.1069
-19.18687
-17.83847
-15.06007
-11.11274
-6.529728
-1.968743
1.990644
4.994425
6.929424
7.953062
8.363204
8.480743
8.539651
8.563799
8.420601
7.959916
7.133713
6.075174
5.079017
4.482626
4.449384
4.905725
5.561287
6.102642
6.360816
6.42523
6.483916
6.631421
6.779007
6.661514
6.02224
4.810381
3.241541
1.657728
0.3306413
-0.7075686
-1.623548
-2.651592
-3.879888
-5.203031
-6.42102
-7.391853
-8.184309
-9.039522
-10.23805
-11.93651
-14.08971
-16.39735
-18.43562
-19.76148
-20.02023
-19.01325
-16.72514
-13.33976
-9.21467
-4.813232
-0.5919383
3.072689
5.954674
7.93468
8.9734
9.138803
8.609994
7.668174
6.650217
5.833615
5.318355
5.050959
4.893265
4.71907
4.530493
4.420298
4.496275
4.803283
5.271923
5.732201
6.003296
5.985357
5.664304
5.128504
4.514048
3.939982
3.471362
3.095479
2.654791
1.95819
0.8502163
-0.6865085
-2.471668
-4.231995
-5.726926
-6.84163
-7.646602
-8.397709
-9.350858
-10.69059
-12.4716
-14.54881
-16.63072
-18.37615
-19.41408
-19.40193
-18.15507
-15.67094
-12.15304
-7.99473
-3.667087
0.4352231
4.005311
6.866002
8.927862
10.1924
10.70589
10.59291
10.04887
9.333548
8.690935
8.246337
8.003081
7.872366
7.813308
7.838717
8.05127
8.50891
9.129135
9.72007
10.06631
10.07774
9.809887
9.387798
8.936657
8.468409
7.904334
7.162778
6.219048
5.129873
3.960528
2.720849
1.326369
-0.2752256
-2.080856
-3.965056
-5.773761
-7.342259
-8.599876
-9.588105
-10.42113
-11.2918
-12.38158
-13.85022
-15.69285
-17.66425
-19.27377
-19.97186
-19.34385
-17.26776
-13.98295
-9.951546
-5.728812
-1.727399
1.787022
4.692451
6.967603
8.604409
9.614747
10.04971
9.990691
9.587667
8.988605
8.330093
7.726818
7.276045
7.055162
7.109537
7.431
7.964778
8.597394
9.16753
9.479898
9.322449
8.603625
7.352911
5.767525
4.157058
2.843619
2.037276
1.736806
1.74682
1.759092
1.514931
0.8808298
-0.04837894
-1.090323
-2.105079
-3.052078
-4.066029
-5.328679
-6.976933
-9.012473
-11.26276
-13.47667
-15.39796
-16.82979
-17.63198
-17.67242
-16.82992
-15.04123
-12.37859
-9.083665
-5.47247
-1.818425
1.663478
4.868809
7.697217
9.984937
11.53477
12.20135
12.005
11.1649
10.00252
8.800702
7.735147
6.835251
6.086765
5.515073
5.1647
5.108547
5.334361
5.726846
6.093525
6.265421
6.172652
5.831273
5.351528
4.815801
4.261876
3.634017
2.804576
1.631094
0.05032444
-1.890046
-4.001498
-5.985849
-7.598783
-8.73029
-9.465565
-10.08114
-10.92451
-12.25845
-14.1663
-16.42962
-18.58184
-20.09386
-20.55376
-19.80015
-17.95241
-15.26408
-12.01578
-8.43177
-4.695597
-0.98452
2.441229
5.292377
7.370123
8.674263
9.408186
9.864067
10.24663
10.57905
10.73872
10.60114
10.20627
9.770144
9.543299
9.657211
9.99658
10.27391
10.20115
9.662983
8.800989
7.890837
7.176588
6.682035
6.239681
5.583103
4.578068
3.266125
1.797886
0.3277607
-1.147991
-2.691803
-4.349012
-5.998899
-7.435476
-8.467005
-9.113459
-9.649031
-10.48974
-11.93666
-13.9726
-16.21863
-18.07208
-18.9769
-18.62258
-17.00695
-14.3779
-11.08274
-7.469219
-3.835445
-0.3922424
2.694908
5.368992
7.621178
9.529896
11.15996
12.53964
13.57495
14.10612
14.00148
13.25784
12.09058
10.84921
9.885803
9.399303
9.362579
9.568993
9.739155
9.687981
9.350552
8.800453
8.125664
7.407883
6.67564
5.918179
5.156853
4.427746
3.772915
3.184921
2.592804
1.845764
0.8331757
-0.4826088
-2.038254
-3.676029
-5.257282
-6.679455
-7.968342
-9.234249
-10.64765
-12.32754
-14.29389
-16.43769
-18.48394
-20.04948
-20.68101
-20.00286
-17.83346
-14.29138
-9.82198
-5.052708
-0.6518555
2.967373
5.652485
7.542168
8.91124
10.00266
10.92699
11.65404
12.07618
12.11937
11.80504
11.22921
10.54131
9.881481
9.336361
8.928009
8.629601
8.380905
8.14624
7.932301
7.71307
7.492157
7.235909
6.867439
6.335613
5.588535
4.64444
3.514
2.260807
0.907402
-0.4695244
-1.793827
-3.02898
-4.129612
-5.135239
-6.130104
-7.222713
-8.470028
-9.870159
-11.33575
-12.76774
-14.08509
-15.18297
-15.92288
-16.10852
-15.47481
-13.81081
-11.05554
-7.333164
-2.955719
1.613117
5.901768
9.468281
11.96426
13.20044
13.20097
12.24129
10.78086
9.348373
8.325996
7.869816
7.877983
8.14925
8.517765
8.910332
9.338356
9.801647
10.22787
10.45393
10.33468
9.779659
8.858078
7.765408
6.714336
5.849342
5.133827
4.41721
3.517941
2.331791
0.8434143
-0.8710785
-2.719391
-4.643581
-6.622223
-8.628166
-10.60474
-12.44403
-14.02795
-15.31721
-16.40713
-17.42033
-18.41257
-19.28386
-19.74243
-19.46775
-18.26466
-16.1419
-13.3281
-10.10313
-6.688416
-3.234665
0.1671906
3.399792
6.273178
8.575878
10.19083
11.11419
11.45913
11.35664
10.91926
10.23444
9.379665
8.512051
7.840717
7.547611
7.704319
8.250877
8.965313
9.571259
9.870373
9.792809
9.384071
8.740551
7.967709
7.132694
6.276268
5.448284
4.682713
4.007404
3.390564
2.734768
1.886703
0.6712914
-1.009857
-3.118351
-5.478432
-7.839172
-9.930569
-11.60702
-12.85831
-13.82264
-14.7033
-15.63715
-16.59561
-17.36213
-17.56268
-16.83528
-14.99071
-12.12401
-8.586102
-4.827143
-1.263567
1.877321
4.519323
6.681393
8.357153
9.517233
10.11618
10.20172
9.929728
9.513546
9.085323
8.661274
8.163332
7.52833
6.835672
6.323463
6.278763
6.867352
8.002884
9.341145
10.44616
10.97022
10.82853
10.16383
9.264465
8.372568
7.601049
6.877594
6.056303
4.986288
3.642279
2.130209
0.6277657
-0.6805954
-1.723946
-2.580931
-3.410376
-4.382437
-5.595617
-7.000803
-8.512228
-10.03322
-11.53191
-13.00744
-14.46486
-15.77461
-16.67719
-16.8696
-16.10151
-14.30456
-11.60374
-8.305924
-4.78861
-1.460956
1.417168
3.738398
5.554795
7.033992
8.358901
9.63626
10.81986
11.68734
11.98657
11.57382
10.55364
9.254723
8.119864
7.449677
7.294823
7.445918
7.573663
7.430459
6.965713
6.295069
5.561865
4.876955
4.212579
3.490295
2.698792
1.874669
1.119439
0.5125463
0.04769754
-0.3557262
-0.7947519
-1.361112
-2.121212
-3.117941
-4.368105
-5.854093
-7.530324
-9.279283
-10.97999
-12.51767
-13.80377
-14.769
-15.3452
-15.43016
-14.91394
-13.7086
-11.79406
-9.252653
-6.284111
-3.136208
-0.09417915
2.603784
4.812307
6.473902
7.604877
8.272824
8.589313
8.647403
8.555636
8.419459
8.293505
8.202471
8.099947
7.936646
7.655683
7.255054
6.753029
6.189498
5.572797
4.955353
4.424419
4.119474
4.152973
4.508688
4.957979
5.115681
4.615471
3.252115
1.17477
-1.216555
-3.438845
-5.121561
-6.193531
-6.847256
-7.400221
-8.107531
-9.056705
-10.17104
-11.28629
-12.32532
-13.28336
-14.21539
-15.13236
-15.95168
-16.49582
-16.52818
-15.85998
-14.39802
-12.1523
-9.226419
-5.797703
-2.102865
1.589565
4.963346
7.716654
9.614647
10.57454
10.68221
10.20534
9.48163
8.828909
8.483713
8.488791
8.701986
8.870258
8.733757
8.1404
7.150002
6.058317
5.199493
4.867523
5.094826
5.635841
6.100517
6.157013
5.696045
4.877754
4.041519
3.461292
3.203133
3.086918
2.749615
1.917549
0.4745407
-1.387321
-3.303715
-4.8881
-5.937588
-6.503014
-6.888046
-7.550312
-8.852356
-10.94919
-13.66088
-16.54497
-19.03804
-20.63382
-21.03432
-20.18161
-18.21162
-15.33791
-11.80785
-7.867889
-3.755131
0.2604485
3.900558
6.888111
9.038544
10.24025
10.50023
9.92894
8.69479
7.083721
5.451393
4.173229
3.529652
3.652168
4.432041
5.566059
6.697853
7.501743
7.84045
7.773987
7.474968
7.11544
6.807137
6.494568
6.035072
5.305897
4.285206
3.049393
1.812054
0.7203789
-0.1660728
-0.9294205
-1.758995
-2.845535
-4.239208
-5.83625
-7.450127
-8.889469
-10.09723
-11.15918
-12.2103
-13.36715
-14.57904
-15.62782
-16.19363
-15.98066
-14.82234
-12.77507
-10.04326
-6.878559
-3.530327
-0.1558571
3.129707
6.164089
8.705189
10.48987
11.30986
11.16306
10.31134
9.141598
8.062775
7.274216
6.759876
6.369877
6.004726
5.661381
5.399349
5.280205
5.215416
5.062168
4.740665
4.31847
4.009499
3.979382
4.200844
4.382275
4.183071
3.39592
2.1017
0.5907059
-0.8370972
-2.066936
-3.183804
-4.370983
-5.724125
-7.204464
-8.720917
-10.23988
-11.85227
-13.65734
-15.6828
-17.7294
-19.4027
-20.27045
-20.03136
-18.61583
-16.19415
-13.09212
-9.675755
-6.294838
-3.219349
-0.6205406
1.433735
3.001957
4.246674
5.382999
6.592587
7.897762
9.15057
10.09475
10.50576
10.33324
9.766655
9.136173
8.779049
8.853031
9.317505
9.951363
10.50835
10.79344
10.67247
10.08141
8.950672
7.288521
5.239891
3.102043
1.237656
-0.07668304
-0.7999687
-1.107468
-1.27906
-1.5858
-2.139847
-2.92144
-3.798859
-4.680702
-5.560814
-6.567562
-7.880135
-9.631939
-11.8216
-14.25433
-16.62255
-18.52845
-19.5786
-19.45274
-18.00151
-15.26278
-11.5149
-7.221607
-2.932341
0.810112
3.671434
5.593172
6.759134
7.475489
8.021669
8.514036
8.920086
9.178877
9.215666
9.045103
8.710775
8.250294
7.695019
7.052235
6.409811
5.88059
5.620174
5.748327
6.2675
7.05337
7.867947
8.447367
8.572388
8.142321
7.184702
5.874214
4.385035
2.915527
1.598503
0.4978333
-0.3660908
-1.047054
-1.632898
-2.257385
-3.072571
-4.212694
-5.76564
-7.767881
-10.17306
-12.81272
-15.44077
-17.7154
-19.26857
-19.76525
-18.981
-16.9082
-13.74356
-9.932854
-5.995566
-2.385649
0.6315603
3.062222
5.109122
6.999764
8.83624
10.5203
11.78705
12.38924
12.2133
11.37621
10.2015
9.080858
8.308879
7.994888
8.071238
8.332614
8.567433
8.651392
8.561217
8.331901
7.987609
7.494919
6.775711
5.800235
4.631792
3.453306
2.47584
1.772236
1.253845
0.665277
-0.2631207
-1.641287
-3.357075
-5.147129
-6.762941
-8.068181
-9.165028
-10.26828
-11.60505
-13.27653
-15.1968
-17.10563
-18.66102
-19.51436
-19.4164
-18.2611
-16.06171
-12.94677
-9.146728
-4.952013
-0.7199807
3.161085
6.339588
8.610627
9.98778
10.70591
11.07896
11.36408
11.64293
11.80812
11.67335
11.09885
10.1194
8.898629
7.758198
6.93009
6.539415
6.571602
6.893891
7.340314
7.757813
8.057549
8.186429
8.156347
8.005742
7.755744
7.396751
6.845847
5.994936
4.777217
3.231063
1.486807
-0.2533817
-1.828044
-3.183632
-4.4167
-5.648146
-6.978172
-8.335467
-9.568971
-10.57656
-11.40307
-12.24906
-13.3814
-14.89006
-16.57727
-17.93445
-18.37902
-17.49761
-15.2698
-12.04207
-8.363605
-4.732123
-1.427261
1.479362
4.074874
6.429152
8.526517
10.2879
11.60347
12.39094
12.64095
12.40672
11.82379
11.09823
10.4544
10.07719
10.04474
10.32685
10.76246
11.16434
11.35893
11.24785
10.77839
9.965441
8.895114
7.721239
6.644069
5.849795
5.436008
5.382448
5.566713
5.784481
5.800316
5.394952
4.432477
2.881217
0.8875055
-1.279205
-3.300316
-4.929253
-6.105379
-6.968413
-7.777726
-8.752387
-10.03345
-11.61821
-13.40813
-15.25904
-17.00046
-18.42055
-19.2598
-19.25512
-18.25813
-16.28739
-13.54599
-10.35611
-7.042903
-3.866388
-0.9722047
1.623561
3.98951
6.190624
8.203306
9.891033
11.05313
11.49467
11.1834
10.3362
9.362527
8.682432
8.525699
8.852671
9.369423
9.747069
9.726694
9.317232
8.706413
8.133043
7.736311
7.481863
7.239357
6.860288
6.269982
5.500141
4.687097
3.982535
3.441521
2.978811
2.378594
1.393257
-0.1233692
-2.089779
-4.22167
-6.091681
-7.377609
-7.998816
-8.122323
-8.112729
-8.349326
-9.078161
-10.35319
-11.97106
-13.57929
-14.75301
-15.11209
-14.42758
-12.69097
-10.0912
-6.983717
-3.713221
-0.5443161
2.374806
4.99364
7.287601
9.245549
10.84344
12.03849
12.76127
12.91796
12.44315
11.36858
9.92391
8.474625
7.438759
7.05455
7.27966
7.797161
8.190955
8.189063
7.719353
6.935845
6.090914
5.360227
4.787634
4.309179
3.834043
3.290325
2.667577
1.967092
1.187046
0.299161
-0.7563076
-2.041877
-3.570949
-5.29525
-7.123993
-8.902344
-10.51716
-11.86424
-12.92387
-13.75749
-14.50864
-15.36183
-16.45805
-17.88581
-19.52656
-21.05529
-21.95039
-21.71038
-20.01755
-16.88701
-12.71335
-8.095466
-3.678994
0.08932304
3.002913
5.129226
6.651634
7.791342
8.722835
9.532087
10.21948
10.75089
11.08211
11.1763
11.07227
10.83488
10.55216
10.31489
10.20082
10.2346
10.37437
10.53707
10.58559
10.43377
10.0658
9.545122
8.968618
8.404339
7.836222
7.119233
6.121016
4.780499
3.220485
1.667197
0.325592
-0.7309589
-1.623528
-2.582354
-3.787954
-5.246794
-6.774473
-8.128033
-9.136478
-9.81366
-10.38282
-11.15395
-12.34312
-13.93818
-15.70871
-17.29872
-18.34753
-18.62199
-18.05115
-16.67748
-14.62391
-11.99007
-8.883963
-5.428814
-1.858927
1.500952
4.303019
6.268097
7.276949
7.420778
6.986492
6.334558
5.771309
5.481245
5.530281
5.875078
6.475367
7.253708
8.138357
8.962795
9.506239
9.536057
8.939833
7.82903
6.474516
5.296974
4.590307
4.408829
4.541277
4.608574
4.268855
3.349568
1.955065
0.3688641
-1.077662
-2.157763
-2.839739
-3.275455
-3.735497
-4.464822
-5.664031
-7.411016
-9.653231
-12.19629
-14.74972
-16.9347
-18.44053
-19.07005
-18.77288
-17.64035
-15.78002
-13.25974
-10.09777
-6.388137
-2.329579
1.688905
5.196855
7.821733
9.41524
10.08226
10.08499
9.71823
9.201799
8.682501
8.233483
7.939541
7.830706
7.901201
8.045321
8.151729
8.156007
8.080777
8.041505
8.106831
8.277388
8.454167
8.48804
8.273363
7.746839
6.960545
5.957517
4.78301
3.465074
2.081886
0.7221746
-0.547986
-1.682049
-2.732773
-3.802172
-5.018612
-6.485038
-8.228325
-10.22207
-12.37959
-14.62116
-16.8708
-19.06077
-21.02194
-22.5187
-23.21047
-22.79826
-21.12097
-18.23376
-14.43717
-10.1442
-5.805157
-1.770291
1.785484
4.828083
7.430694
9.656865
11.52404
12.95398
13.82411
14.02108
13.54874
12.58853
11.40783
10.30711
9.481696
8.914354
8.489064
8.067547
7.597407
7.158037
6.876338
6.824634
6.950018
7.103042
7.107206
6.819058
6.210878
5.335103
4.259173
3.065985
1.786202
0.4428749
-0.9382658
-2.333763
-3.700636
-4.961393
-6.063491
-7.039421
-7.998263
-9.141758
-10.65347
-12.6347
-15.03867
-17.62986
-20.00657
-21.72637
-22.33651
-21.50784
-19.14371
-15.40514
-10.78092
-5.938449
-1.53332
2.040861
4.723667
6.769777
8.5655
10.33954
12.06962
13.53555
14.44767
14.68281
14.33322
13.64398
12.86674
12.18786
11.65136
11.24883
10.96051
10.77932
10.65595
10.46072
10.04064
9.28071
8.215939
7.01651
5.992872
5.365898
5.172834
5.232927
5.207077
4.73583
3.638586
1.971088
-0.0265255
-2.01483
-3.695528
-4.92795
-5.727831
-6.256498
-6.728821
-7.318617
-8.136921
-9.236523
-10.67456
-12.46454
-14.54494
-16.72537
-18.5781
-19.59525
-19.32519
-17.52705
-14.34279
-10.2226
-5.746313
-1.476303
2.214252
5.133131
7.277361
8.724421
9.614153
10.06412
10.20055
10.14688
9.999273
9.85833
9.786116
9.771091
9.727066
9.519133
9.019329
8.229475
7.299028
6.486862
5.999077
5.916929
6.130497
6.39238
6.528982
6.430098
6.158131
5.792429
5.343279
4.722494
3.798771
2.50005
0.8754616
-0.8724003
-2.518032
-3.868475
-4.885757
-5.696547
-6.546036
-7.692198
-9.323891
-11.45037
-13.88773
-16.29953
-18.28694
-19.51146
-19.74055
-18.85795
-16.87927
-13.89095
-10.09452
-5.795189
-1.407871
2.581345
5.76347
7.922108
9.114609
9.595493
9.706718
9.678005
9.554512
9.274734
8.739429
8.010246
7.249012
6.718246
6.565292
6.825794
7.362423
7.964218
8.424931
8.586048
8.387394
7.854843
7.087624
6.240623
5.487053
4.902901
4.424877
3.888058
3.060066
1.834393
0.2804756
-1.39959
-2.971115
-4.329544
-5.541779
-6.771156
-8.127117
-9.603748
-11.06876
-12.41689
-13.69484
-15.06878
-16.73093
-18.63502
-20.41311
-21.40288
-20.9993
-18.89626
-15.27476
-10.74614
-6.07708
-1.890961
1.532581
4.220493
6.377499
8.137241
9.540356
10.52169
11.02369
11.05635
10.72618
10.15435
9.476967
8.816402
8.271648
7.969032
8.014435
8.453167
9.258327
10.27022
11.29094
12.07243
12.41508
12.18641
11.32964
9.902382
8.063747
6.044159
4.093315
2.40202
1.050827
0.01942825
-0.8309402
-1.667965
-2.653286
-3.869343
-5.29435
-6.848454
-8.391048
-9.762962
-10.85321
-11.68071
-12.34687
-13.02126
-13.81112
-14.66548
-15.36903
-15.58025
-15.00289
-13.46144
-11.01033
-7.92012
-4.588058
-1.425369
1.318039
3.596863
5.510033
7.167904
8.566948
9.555897
9.933559
9.64122
8.844746
7.942383
7.398006
7.529083
8.328312
9.494133
10.59698
11.26433
11.33031
10.86936
10.10324
9.290466
8.646809
8.290977
8.197979
8.247688
8.242054
8.014122
7.458099
6.605404
5.541908
4.370335
3.142204
1.850616
0.4915924
-0.9401932
-2.354927
-3.647869
-4.737278
-5.604012
-6.317928
-7.033649
-7.935177
-9.153419
-10.80241
-12.88209
-15.29282
-17.80307
-20.02809
-21.50608
-21.81919
-20.74
-18.29216
-14.81169
-10.71137
-6.350651
-1.954742
2.351921
6.438286
10.07574
12.95205
14.83417
15.66472
15.62801
14.99359
14.02396
12.87145
11.5993
10.30644
9.15699
8.375832
8.080933
8.238407
8.623867
8.97393
9.119099
9.000542
8.683754
8.248276
7.718433
7.022167
6.095871
4.919155
3.573246
2.237156
1.073513
0.1646423
-0.5405464
-1.222237
-2.070168
-3.16782
-4.460094
-5.750359
-6.855835
-7.726875
-8.448162
-9.207062
-10.17289
-11.37169
-12.66538
-13.83796
-14.67913
-15.03493
-14.82718
-13.9773
-12.42257
-10.18075
-7.399834
-4.329105
-1.316013
1.340183
3.501759
5.180607
6.542133
7.746689
8.885933
9.917423
10.70404
11.07292
10.92921
10.27079
9.207462
7.948875
6.695538
5.602463
4.758053
4.162373
3.755379
3.486622
3.359451
3.345619
3.429649
3.492962
3.391987
2.986885
2.200287
1.026844
-0.4115524
-1.95335
-3.447052
-4.755184
-5.835217
-6.721691
-7.520519
-8.378948
-9.472233
-10.93513
-12.83387
-15.12055
-17.57421
-19.85156
-21.483
-22.03779
-21.1934
-18.91739
-15.45617
-11.29804
-7.00758
-3.041168
0.3486366
3.153469
5.520721
7.602097
9.440514
10.92281
11.88735
12.20918
11.94566
11.30647
10.62815
10.18639
10.11775
10.37983
10.79425
11.18252
11.40757
11.42345
11.20437
10.74623
9.9874
8.900578
7.528923
5.962204
4.35593
2.836403
1.518436
0.4310188
-0.4253387
-1.123562
-1.772934
-2.469482
-3.310162
-4.320408
-5.497814
-6.776344
-8.073006
-9.32114
-10.5221
-11.74128
-13.07069
-14.58512
-16.2289
-17.79871
-18.92432
-19.16825
-18.17983
-15.85239
-12.36208
-8.148445
-3.767147
0.3462105
3.913715
6.87479
9.28838
11.20601
12.60496
13.41143
13.55327
13.06301
12.15852
11.16032
10.37313
9.955265
9.860615
9.89777
9.836414
9.573967
9.126064
8.600533
8.10022
7.625237
7.137806
6.624779
6.155113
5.855095
5.823643
6.026592
6.269058
6.236671
5.637356
4.354462
2.488831
0.3419151
-1.752415
-3.568535
-5.062023
-6.361301
-7.697285
-9.233265
-10.99519
-12.86529
-14.64536
-16.15969
-17.29457
-17.97603
-18.07304
-17.41849
-15.8777
-13.42813
-10.26923
-6.808922
-3.49313
-0.6634674
1.540562
3.186432
4.448772
5.497742
6.415432
7.187614
7.758759
8.1171
8.300289
8.383995
8.480034
8.683285
9.049503
9.563087
10.13263
10.62545
10.89503
10.86837
10.54843
10.00599
9.30275
8.477013
7.482616
6.275566
4.890591
3.483833
2.283844
1.455765
0.9887161
0.6167984
-0.05958939
-1.324348
-3.154976
-5.211147
-7.044258
-8.319984
-9.072441
-9.603737
-10.34901
-11.57767
-13.24638
-14.99853
-16.31974
-16.75832
-16.05122
-14.23143
-11.53493
-8.331152
-4.992422
-1.791458
1.118771
3.714035
5.984976
7.892439
9.290976
10.04446
10.1167
9.677469
9.041323
8.531219
8.384077
8.60857
9.051918
9.492483
9.77211
9.828735
9.695904
9.44882
9.076736
8.5597
7.819862
6.844332
5.735855
4.682352
3.855141
3.293678
2.904642
2.44499
1.703545
0.582489
-0.859621
-2.443565
-4.012991
-5.505859
-6.939939
-8.337427
-9.706757
-11.00968
-12.23792
-13.45465
-14.74786
-16.19126
-17.7101
-19.08251
-19.94817
-20.00328
-19.02341
-16.96695
-13.91596
-10.04815
-5.690111
-1.230145
2.867882
6.178247
8.424097
9.60383
9.987688
9.920036
9.75305
9.646086
9.610418
9.588663
9.523611
9.422247
9.331682
9.294779
9.279661
9.299303
9.354675
9.511819
9.790509
10.09435
10.21488
9.91102
9.071215
7.76416
6.334615
5.152216
4.438096
4.1192
3.87871
3.314732
2.167875
0.4882107
-1.465725
-3.282689
-4.674011
-5.60895
-6.251131
-6.900925
-7.771873
-8.862601
-10.01938
-11.06215
-11.89411
-12.54216
-13.12497
-13.67239
-14.06798
-14.01345
-13.17989
-11.36365
-8.658768
-5.415554
-2.134275
0.7043142
2.8547
4.311077
5.284086
6.058577
6.838361
7.638433
8.328691
8.751682
8.815746
8.604346
8.296933
8.09749
8.082105
8.187737
8.279301
8.243977
8.070919
7.850967
7.708409
7.689931
7.705542
7.631566
7.40528
7.070396
6.743648
6.525044
6.357561
6.082455
5.477148
4.406722
2.883971
1.075119
-0.7590094
-2.40359
-3.727833
-4.733832
-5.488852
-6.100179
-6.730548
-7.538824
-8.684392
-10.2709
-12.27492
-14.47488
-16.52589
-18.01142
-18.54151
-17.93581
-16.22326
-13.62235
-10.47625
-7.152851
-3.938478
-1.030214
1.494301
3.634912
5.430803
6.925072
8.117682
8.941257
9.29175
9.106628
8.420776
7.42626
6.416145
5.698717
5.503723
5.878584
6.682224
7.649403
8.462122
8.866766
8.72777
8.060061
7.013861
5.806463
4.639215
3.593786
2.688292
1.861843
1.062059
0.2703018
-0.5526581
-1.46932
-2.572868
-3.913334
-5.466284
-7.085384
-8.573093
-9.782635
-10.63752
-11.19835
-11.53209
-11.7281
-11.85346
-11.94439
-11.99406
-11.88522
-11.3915
-10.24132
-8.262856
-5.48777
-2.219036
1.111
4.066662
6.378098
7.975677
8.917538
9.322689
9.285141
8.93985
8.420853
7.906345
7.509243
7.236019
6.987545
6.615093
6.073574
5.393551
4.707035
4.143158
3.778778
3.654068
3.751373
4.020954
4.331566
4.505558
4.332691
3.646481
2.42643
0.790062
-1.009319
-2.688721
-4.043671
-5.049213
-5.807461
-6.499989
-7.279877
-8.228195
-9.355309
-10.62633
-12.03942
-13.57942
-15.28113
-17.02725
-18.56148
-19.48803
-19.3805
-17.9894
-15.32467
-11.71431
-7.654221
-3.652523
-0.04985428
2.984684
5.422558
7.301147
8.630577
9.401802
9.654118
9.530598
9.273525
9.130814
9.195118
9.378532
9.460766
9.189011
8.42363
7.242439
5.900742
4.768803
4.132706
4.119061
4.603237
5.322327
5.943279
6.196365
5.979877
5.308704
4.352551
3.306812
2.33342
1.51379
0.817131
0.1829796
-0.4356804
-1.035923
-1.627808
-2.197769
-2.754086
-3.329453
-3.97097
-4.739868
-5.733261
-6.995033
-8.546158
-10.38245
-12.4108
-14.4998
-16.43305
-17.85628
-18.36871
-17.61766
-15.4583
-12.07375
-7.977913
-3.828865
-0.2307587
2.457809
4.228172
5.270866
5.832054
6.088966
6.115303
5.973412
5.735512
5.562469
5.590767
5.903915
6.452934
7.093803
7.665611
8.070396
8.278282
8.343224
8.345795
8.350739
8.397041
8.467255
8.492104
8.360817
7.980606
7.323318
6.432228
5.398819
4.286232
3.079514
1.698853
0.07292175
-1.752541
-3.586952
-5.150291
-6.216698
-6.749466
-6.927788
-7.074814
-7.475327
-8.325478
-9.643066
-11.32212
-13.16167
-14.87257
-16.04607
-16.24734
-15.12873
-12.59475
-8.918266
-4.647606
-0.4258575
3.189461
5.926804
7.776604
8.87606
9.429199
9.588509
9.448364
9.098808
8.606987
7.987701
7.251686
6.379791
5.377396
4.319138
3.318848
2.535934
2.142914
2.245461
2.838158
3.794762
4.861137
5.745461
6.226753
6.218231
5.77536
5.069061
4.241035
3.347206
2.420784
1.470406
0.5572891
-0.2058029
-0.7622223
-1.20993
-1.772186
-2.73954
-4.287788
-6.409805
-8.897827
-11.44979
-13.75478
-15.59827
-16.83873
-17.36761
-17.13038
-16.08556
-14.25389
-11.77744
-8.845604
-5.705521
-2.572189
0.3403244
2.904114
5.008492
6.645378
7.843369
8.64817
9.121666
9.294006
9.158638
8.727112
8.058945
7.275764
6.540787
6.037292
5.833748
5.940788
6.222198
6.51757
6.649628
6.519989
6.102989
5.45475
4.68129
3.858215
3.05658
2.278511
1.472389
0.6091766
-0.3428116
-1.327942
-2.28698
-3.110039
-3.767639
-4.269623
-4.709213
-5.227898
-5.948654
-6.979393
-8.35936
-10.03984
-11.9281
-13.84823
-15.54971
-16.72472
-17.03947
-16.24126
-14.26053
-11.25117
-7.578262
-3.727509
-0.1149521
2.968086
5.468338
7.460419
9.022308
10.16417
10.85551
11.03748
10.72462
10.07559
9.293488
8.648636
8.267799
8.134819
8.080605
7.878754
7.387344
6.629303
5.834541
5.280708
5.139893
5.350967
5.595886
5.49942
4.803558
3.591293
2.243141
1.257233
0.9670181
1.30825
1.897148
2.168076
1.745644
0.5551453
-1.119408
-2.849281
-4.359459
-5.629921
-6.923149
-8.543671
-10.6353
-13.01152
-15.30688
-17.09274
-18.12171
-18.37305
-17.9265
-16.8186
-14.95386
-12.19679
-8.533997
-4.235703
0.1761322
4.063309
6.907196
8.556236
9.156776
9.119751
8.852669
8.629036
8.520119
8.437119
8.243851
7.824333
7.214546
6.544098
6.051498
5.924217
6.191689
6.711288
7.230202
7.520432
7.489655
7.192894
6.716934
6.095871
5.261322
4.112106
2.583931
0.7776642
-1.06826
-2.674309
-3.862579
-4.636971
-5.154701
-5.627335
-6.235641
-7.060265
-8.101456
-9.299454
-10.54536
-11.69736
-12.61412
-13.12355
-13.05675
-12.29131
-10.78113
-8.608307
-5.955444
-3.09816
-0.2917328
2.283615
4.564995
6.584984
8.385101
9.971001
11.24602
12.02578
12.10912
11.40968
10.03038
8.275833
6.564026
5.305595
4.719749
4.757614
5.096573
5.272896
4.932678
3.978851
2.62751
1.313065
0.4405365
0.2000351
0.4896545
0.9883347
1.343399
1.344688
0.9706497
0.3198318
-0.4932098
-1.455231
-2.656746
-4.160652
-5.965508
-7.908318
-9.778641
-11.35875
-12.58425
-13.52484
-14.36581
-15.24364
-16.09391
-16.59215
-16.28624
-14.80058
-12.04749
-8.372139
-4.396622
-0.808548
1.946571
3.78701
4.915199
5.633118
6.12822
6.409554
6.417252
6.164848
5.777161
5.43351
5.24614
5.178772
5.120552
5.008202
4.876137
4.848389
5.001068
5.27491
5.515495
5.561424
5.360504
5.00135
4.628555
4.290619
3.882004
3.221024
2.156616
0.7146683
-0.9004898
-2.453796
-3.779388
-4.825851
-5.686676
-6.448013
-7.184647
-7.955872
-8.824112
-9.843582
-11.03348
-12.28705
-13.39625
-14.11877
-14.28165
-13.87063
-12.99297
-11.75197
-10.13951
-8.016045
-5.258301
-1.973709
1.453049
4.475578
6.674385
7.931793
8.48745
8.729782
8.961151
9.24369
9.434799
9.351181
8.952904
8.388359
7.891205
7.67498
7.757782
7.972603
8.100006
7.981125
7.580383
7.001846
6.387695
5.850098
5.396027
4.950569
4.395187
3.652565
2.715027
1.653427
0.5636368
-0.4901352
-1.500328
-2.458969
-3.338959
-4.069626
-4.570915
-4.879211
-5.125725
-5.559372
-6.371086
-7.650139
-9.308113
-11.15955
-12.9946
-14.60592
-15.79686
-16.32256
-15.9305
-14.41444
-11.72394
-8.059647
-3.88279
0.2056198
3.661156
6.154137
7.641357
8.325897
8.491158
8.405357
8.200798
7.923294
7.570236
7.183685
6.791618
6.437523
6.129196
5.840752
5.590294
5.432838
5.468742
5.751099
6.188515
6.535812
6.545425
6.096474
5.286201
4.386765
3.627129
3.101692
2.69873
2.239288
1.603119
0.802063
-0.07563019
-0.9799347
-1.92823
-2.982475
-4.114517
-5.201721
-6.128204
-6.828003
-7.432014
-8.201935
-9.383705
-11.00986
-12.84552
-14.46857
-15.4498
-15.54855
-14.71101
-13.04604
-10.69556
-7.770493
-4.410835
-0.8168716
2.736526
5.901115
8.385567
10.07658
10.97593
11.21336
10.92046
10.16564
8.978912
7.43119
5.742126
4.261688
3.394737
3.35054
4.074791
5.248672
6.375702
7.063828
7.130325
6.66433
5.904778
5.116272
4.452385
3.928276
3.473381
2.979034
2.382713
1.662895
0.8399658
-0.03620911
-0.9064102
-1.743301
-2.562737
-3.464874
-4.584236
-6.036201
-7.830292
-9.861504
-11.91724
-13.76418
-15.21754
-16.17464
-16.60084
-16.46737
-15.7232
-14.3101
-12.21876
-9.516441
-6.387573
-3.123768
-0.02823257
2.626846
4.690605
6.120018
6.978394
7.428181
7.624901
7.695389
7.642124
7.439774
6.999489
6.364872
5.709908
5.256824
5.19643
5.555187
6.197388
6.859203
7.336903
7.516724
7.449318
7.272568
7.138783
7.083652
7.006767
6.719078
6.019394
4.8437
3.274994
1.559288
0.002422333
-1.206951
-2.061405
-2.750999
-3.567131
-4.70966
-6.205647
-7.931339
-9.729492
-11.49593
-13.2184
-14.84599
-16.275
-17.26869
-17.56816
-16.97338
-15.45916
-13.12762
-10.17183
-6.852539
-3.397198
-0.04093933
2.976276
5.470184
7.384636
8.745468
9.661938
10.25708
10.57952
10.61659
10.32606
9.679508
8.711727
7.565647
6.404137
5.438591
4.816719
4.607506
4.809696
5.342663
6.086063
6.862873
7.513924
7.891411
7.910931
7.617035
7.117504
6.527399
5.908705
5.223858
4.382246
3.314962
2.070847
0.802969
-0.3128262
-1.19512
-1.921377
-2.675375
-3.66017
-4.937695
-6.423769
-7.993111
-9.561327
-11.13884
-12.8277
-14.64135
-16.42862
-17.83344
-18.4367
-17.90415
-16.19419
-13.52279
-10.25189
-6.753307
-3.24299
0.1996193
3.514063
6.526098
8.961208
10.51212
11.02732
10.65612
9.79838
8.907944
8.34145
8.203777
8.337381
8.529892
8.5716
8.405237
8.065536
7.612748
7.097627
6.55021
6.015283
5.573739
5.367651
5.443905
5.758073
6.159314
6.434698
6.388313
5.907455
4.964167
3.56403
1.759629
-0.368453
-2.713438
-5.071612
-7.22837
-9.049704
-10.55379
-11.88919
-13.27828
-14.77697
-16.24508
-17.3244
-17.61162
-16.84987
-15.02592
-12.36207
-9.197804
-5.838003
-2.480942
0.7485031
3.77512
6.517243
8.876904
10.77328
12.10259
12.73758
12.57672
11.61688
10.00423
8.117177
6.388552
5.157154
4.542431
4.410361
4.488107
4.539842
4.519863
4.531369
4.668775
4.935382
5.157413
5.109428
4.675395
3.929813
3.05652
2.241038
1.537939
0.8479357
0.03151321
-1.009124
-2.21104
-3.452361
-4.629201
-5.787961
-7.097932
-8.732245
-10.70811
-12.84768
-14.84259
-16.37594
-17.31113
-17.62867
-17.38591
-16.5924
-15.1761
-12.99513
-9.999283
-6.33766
-2.349737
1.486694
4.743301
7.176926
8.761641
9.625662
9.950272
9.885628
9.509516
8.893305
8.141277
7.405586
6.87718
6.653076
6.685129
6.807234
6.851089
6.732119
6.512453
6.321003
6.291895
6.471205
6.833668
7.30899
7.780214
8.129274
8.196014
7.821516
6.865232
5.33392
3.390665
1.352579
-0.4349861
-1.757133
-2.608856
-3.186928
-3.767109
-4.603127
-5.839897
-7.46529
-9.350349
-11.30088
-13.10007
-14.56108
-15.50464
-15.77206
-15.21336
-13.75338
-11.42046
-8.377926
-4.923542
-1.402607
1.872772
4.627285
6.738983
8.188442
9.045269
9.462788
9.578529
9.478474
9.182289
8.688667
8.004833
7.295364
6.811775
6.781933
7.263702
8.023304
8.630447
8.710068
8.162762
7.19458
6.233711
5.673592
5.636852
5.997879
6.404713
6.492306
6.016308
4.916412
3.272217
1.29718
-0.7570419
-2.637978
-4.156212
-5.251228
-6.011551
-6.614357
-7.329987
-8.37925
-9.87587
-11.78196
-13.88181
-15.80582
-17.11839
-17.41307
-16.42879
-14.19918
-10.97681
-7.190388
-3.323742
0.2359657
3.246365
5.601601
7.279106
8.368546
8.962486
9.18644
9.058197
8.562363
7.689468
6.51334
5.252777
4.188808
3.628044
3.764118
4.590286
5.914066
7.409828
8.77211
9.759392
10.25856
10.21615
9.667931
8.69593
7.403355
5.923454
4.367558
2.822163
1.312153
-0.122242
-1.495338
-2.861813
-4.307171
-5.940887
-7.751209
-9.695866
-11.6447
-13.48495
-15.07523
-16.3254
-17.10493
-17.22977
-16.53018
-14.85303
-12.22211
-8.85601
-5.109085
-1.38475
1.961708
4.720619
6.853142
8.414673
9.553246
10.36406
10.90639
11.16461
11.06079
10.50828
9.509552
8.240669
6.931992
5.885483
5.236885
4.962639
4.87397
4.717033
4.33493
3.716461
2.97319
2.271324
1.785385
1.566673
1.566551
1.655754
1.606346
1.240028
0.4822083
-0.6318741
-1.92363
-3.154732
-4.177376
-5.003044
-5.769417
-6.683807
-7.876877
-9.343491
-10.98163
-12.64141
-14.15999
-15.38804
-16.18762
-16.33915
-15.66092
-14.04646
-11.57081
-8.497063
-5.207481
-2.033783
0.8023376
3.235008
5.28334
6.959869
8.20462
8.944077
9.117302
8.801094
8.181488
7.477577
6.883751
6.513985
6.439697
6.705177
7.386749
8.501862
9.919373
11.36822
12.44225
12.79889
12.30436
11.09045
9.506317
7.966705
6.741844
5.906395
5.313171
4.742088
4.027153
3.12764
2.071167
0.918602
-0.3203583
-1.689499
-3.249443
-4.959114
-6.699944
-8.293724
-9.590363
-10.62584
-11.56413
-12.59418
-13.80177
-15.06172
-16.04401
-16.38672
-15.80408
-14.20035
-11.66709
-8.388786
-4.63932
-0.7091904
3.082207
6.446587
9.166084
11.12103
12.28156
12.6962
12.42142
11.53452
10.17931
8.585381
7.064125
5.933083
5.379982
5.420319
5.892334
6.541801
7.159676
7.61982
7.907845
7.992599
7.837425
7.33345
6.406822
5.070503
3.446396
1.772919
0.2886734
-0.8165207
-1.526283
-1.979279
-2.410583
-3.050491
-4.014664
-5.256325
-6.632401
-8.049355
-9.508492
-11.11062
-12.91677
-14.80546
-16.41753
-17.26931
-16.94688
-15.28606
-12.43287
-8.773659
-4.75576
-0.7650146
2.914375
6.067245
8.513412
10.0989
10.78413
10.6573
9.960854
9.001472
8.019325
7.171898
6.513092
6.05233
5.842354
5.949066
6.38501
7.045654
7.739807
8.190071
8.203445
7.725006
6.873817
5.88736
4.985901
4.276733
3.709236
3.150978
2.44725
1.519028
0.3896561
-0.8997345
-2.311699
-3.858727
-5.587616
-7.506958
-9.542381
-11.53689
-13.2901
-14.62959
-15.4837
-15.84229
-15.73618
-15.13771
-13.94196
-11.98779
-9.217781
-5.716782
-1.842682
1.885933
5.004578
7.208046
8.498711
9.153107
9.513458
9.829216
10.15939
10.328
10.10361
9.365776
8.198647
6.873627
5.763359
5.149979
5.124779
5.598518
6.315399
6.988426
7.383171
7.360886
6.897324
6.099899
5.108269
4.06813
3.054474
2.104668
1.166542
0.2101974
-0.7891769
-1.81105
-2.825119
-3.829903
-4.871361
-6.052338
-7.438271
-8.988213
-10.58616
-12.09434
-13.43971
-14.63138
-15.73228
-16.73891
-17.49109
-17.67716
-16.90682
-14.88566
-11.57653
-7.235703
-2.382324
2.351334
6.429337
9.533195
11.57296
12.61033
12.78665
12.25255
11.18837
9.858673
8.601578
7.75042
7.500458
7.825645
8.480606
9.130684
9.525948
9.589012
9.382622
9.028236
8.611969
8.178291
7.722603
7.238487
6.727356
6.169998
5.522957
4.762833
3.925041
3.083771
2.307571
1.602768
0.8943253
0.07461548
-0.9218826
-2.093384
-3.382355
-4.747139
-6.200417
-7.770004
-9.465157
-11.23852
-12.98973
-14.62474
-16.07856
-17.30283
-18.16834
-18.45606
-17.9238
-16.4047
-13.90172
-10.58092
-6.731323
-2.675049
1.245155
4.724228
7.502113
9.405174
10.41883
10.7016
10.57983
10.38815
10.34048
10.43939
10.53612
10.45348
10.13976
9.711876
9.351631
9.185249
9.168991
9.125076
8.792618
8.040794
6.896568
5.517273
4.140709
2.93782
2.010986
1.377182
1.008583
0.8105927
0.6571274
0.3764343
-0.1837769
-1.080307
-2.267723
-3.594162
-4.867195
-5.976906
-6.886223
-7.692398
-8.536926
-9.570717
-10.88853
-12.47712
-14.17585
-15.6435
-16.46362
-16.25747
-14.80607
-12.16441
-8.615417
-4.568687
-0.503685
3.19516
6.25563
8.567627
10.14455
11.06824
11.43591
11.36074
10.95378
10.34228
9.73822
9.369362
9.361679
9.683022
10.08453
10.22099
9.891846
9.135803
8.241943
7.533279
7.110252
6.810867
6.284386
5.303398
3.901115
2.379723
1.109207
0.2445068
-0.3194809
-0.8849564
-1.684837
-2.758415
-3.967903
-5.153419
-6.264664
-7.394043
-8.662277
-10.16254
-11.91055
-13.80618
-15.72485
-17.52972
-19.00204
-19.85823
-19.82369
-18.6841
-16.40098
-13.15378
-9.266388
-5.113846
-1.101585
2.42244
5.195671
7.075066
8.077972
8.402084
8.294151
7.961037
7.511986
6.990685
6.45948
6.086517
6.063622
6.501923
7.310989
8.211418
8.882439
9.106979
8.89119
8.43013
7.959206
7.569275
7.196556
6.663452
5.847969
4.797325
3.737953
2.941467
2.591736
2.658913
2.851227
2.775246
2.070625
0.6215744
-1.39695
-3.598419
-5.609177
-7.216736
-8.49826
-9.707787
-11.07483
-12.66246
-14.32024
-15.80327
-16.85031
-17.32362
-17.14107
-16.26221
-14.63212
-12.20953
-9.029922
-5.317955
-1.409515
2.311539
5.5429
8.119553
9.986122
11.13401
11.62536
11.58948
11.22856
10.7855
10.42828
10.21001
9.986641
9.588448
8.872253
7.892296
6.846352
6.020546
5.661545
5.848297
6.507683
7.381371
8.180794
8.62035
8.534294
7.859493
6.672314
5.156822
3.548435
2.083061
0.9214821
0.08501434
-0.5201073
-1.088341
-1.811501
-2.821163
-4.125149
-5.594589
-7.019096
-8.193924
-9.008865
-9.511189
-9.955059
-10.61781
-11.71033
-13.19805
-14.7719
-15.94729
-16.26696
-15.44587
-13.46835
-10.59243
-7.170956
-3.57452
-0.1406593
2.85722
5.175083
6.662483
7.368927
7.541977
7.505009
7.556072
7.777618
8.038712
8.151463
7.970051
7.524708
6.966583
6.451679
6.035484
5.685677
5.341377
4.980972
4.688606
4.561329
4.642273
4.860889
5.032635
4.940804
4.476437
3.648083
2.605572
1.566128
0.673687
-0.1077118
-0.9554176
-2.113899
-3.758789
-5.847183
-8.119415
-10.20032
-11.79537
-12.87084
-13.62542
-14.31839
-15.04478
-15.61757
-15.59714
-14.54814
-12.30199
-9.011223
-5.13464
-1.185612
2.444481
5.57523
8.142155
10.15689
11.5446
12.20777
12.11744
11.37291
10.23896
9.029984
8.018227
7.35714
7.089489
7.131287
7.327076
7.515511
7.568077
7.436127
7.12397
6.696243
6.217018
5.7048
5.140594
4.472553
3.675148
2.758278
1.761497
0.7209377
-0.351757
-1.487341
-2.735245
-4.109556
-5.609827
-7.160109
-8.672211
-10.06021
-11.28635
-12.33856
-13.26834
-14.15618
-15.00144
-15.71284
-16.09554
-15.88995
-14.8626
-12.93756
-10.27652
-7.26284
-4.379328
-1.983667
-0.1776619
1.220715
2.508965
3.898954
5.366583
6.658762
7.456635
7.578606
7.081532
6.236582
5.380281
4.753807
4.433479
4.390718
4.549685
4.859743
5.307884
5.880262
6.483719
6.993797
7.297417
7.300602
7.002827
6.479603
5.865423
5.284426
4.828562
4.529493
4.354603
4.172094
3.832569
3.170952
2.087166
0.5898876
-1.221336
-3.127586
-4.938179
-6.559231
-8.03904
-9.518822
-11.09694
-12.6981
-14.05034
-14.82921
-14.81832
-13.97626
-12.42854
-10.32923
-7.773919
-4.817392
-1.631301
1.489278
4.109811
5.880772
6.719426
6.847184
6.686652
6.594422
6.687373
6.800379
6.691472
6.203502
5.36715
4.384607
3.51143
2.947062
2.793465
3.071088
3.668177
4.36565
4.913667
5.044453
4.647495
3.830811
2.879451
2.116821
1.73229
1.672771
1.695254
1.507879
0.9100566
-0.06888485
-1.270868
-2.447185
-3.404521
-4.066431
-4.465938
-4.739028
-5.074852
-5.684953
-6.718981
-8.201509
-9.950859
-11.60678
-12.71515
-12.89412
-11.9579
-9.990396
-7.306582
-4.319323
-1.421398
1.051072
2.939217
4.200977
4.945001
5.379363
5.709811
6.031857
6.317157
6.389044
6.025024
5.122687
3.805383
2.432856
1.455789
1.203139
1.742782
2.836283
4.071788
5.054458
5.581879
5.674689
5.525276
5.298891
5.076358
4.764741
4.228951
3.397342
2.325213
1.187629
0.1335229
-0.8105276
-1.740868
-2.824728
-4.169568
-5.793583
-7.636686
-9.586475
-11.52053
-13.33072
-14.86107
-15.8434
-15.94069
-14.90225
-12.7171
-9.696344
-6.403894
-3.409685
-1.082971
0.547183
1.732301
2.818756
4.010023
5.272257
6.39077
7.079992
7.196746
6.815906
6.165983
5.509181
5.047845
4.811475
4.752769
4.776944
4.828634
4.884922
4.993695
5.165598
5.377766
5.540032
5.46251
4.981505
3.982779
2.520864
0.8239064
-0.7733707
-1.997901
-2.747899
-3.17681
-3.634193
-4.444905
-5.763649
-7.44156
-9.091089
-10.3093
-10.93097
-11.10692
-11.23902
-11.74902
-12.7571
-13.98562
-14.8517
-14.69153
-13.15701
-10.39218
-6.965405
-3.599334
-0.8624558
1.112875
2.565222
3.856985
5.245647
6.641339
7.754865
8.245285
8.021099
7.27529
6.434324
5.874146
5.738919
5.910121
6.098599
6.073243
5.780132
5.353649
5.007625
4.93264
5.144853
5.549813
5.979936
6.253517
6.248724
5.918218
5.268681
4.38843
3.434699
2.500269
1.630983
0.81338
-0.001324415
-0.8290431
-1.655035
-2.48127
-3.35985
-4.435987
-5.857581
-7.675795
-9.779579
-11.90874
-13.73141
-14.98054
-15.52665
-15.31678
-14.36243
-12.70483
-10.38607
-7.515296
-4.276203
-0.8852587
2.440114
5.460902
7.979744
9.81876
10.83689
11.0342
10.54548
9.626539
8.592686
7.708534
7.132689
6.92721
7.069467
7.442462
7.863846
8.095858
7.946092
7.359386
6.467742
5.536457
4.82829
4.45121
4.307321
4.201456
3.939867
3.488549
2.984241
2.573236
2.329049
2.152809
1.859575
1.220167
0.1753721
-1.230912
-2.787965
-4.245353
-5.448586
-6.3711
-7.121702
-7.856376
-8.700001
-9.6436
-10.64059
-11.55173
-12.19856
-12.4171
-12.03694
-10.89565
-8.948196
-6.324249
-3.318726
-0.3189368
2.35064
4.526243
6.214949
7.470039
8.289043
8.582025
8.247505
7.309619
5.955148
4.489495
3.219232
2.368128
2.043604
2.25507
2.97357
4.103044
5.426397
6.625762
7.358216
7.402686
6.760043
5.688025
4.503269
3.454505
2.652514
2.014769
1.375434
0.5790863
-0.4463515
-1.690314
-3.082403
-4.539459
-5.937366
-7.155214
-8.075089
-8.664145
-9.007633
-9.273377
-9.675943
-10.33437
-11.21648
-12.09074
-12.62228
-12.46004
-11.42352
-9.561296
-7.091582
-4.328415
-1.521681
1.189374
3.741774
6.06676
7.987764
9.318811
9.938448
9.885425
9.385186
8.766735
8.252313
7.884583
7.58503
7.263136
6.908103
6.575917
6.321637
6.112909
5.851977
5.451526
4.949737
4.516022
4.324611
4.385503
4.485117
4.26358
3.46722
2.109691
0.4743409
-1.019713
-2.053005
-2.594275
-2.854061
-3.146546
-3.700556
-4.509373
-5.430375
-6.334295
-7.240173
-8.334002
-9.863389
-11.86691
-14.11616
-16.20492
-17.68357
-18.25038
-17.78702
-16.30758
-13.88857
-10.6606
-6.833575
-2.750967
1.129099
4.372257
6.729607
8.208864
9.041783
9.487522
9.746628
9.893279
9.881047
9.674165
9.276951
8.744694
8.193612
7.737576
7.449742
7.361804
7.485833
7.77026
8.160714
8.589881
9.011032
9.36195
9.573709
9.476247
8.907934
7.740917
5.961858
3.725901
1.313064
-0.9334412
-2.718995
-3.866378
-4.420629
-4.532602
-4.466966
-4.481427
-4.722932
-5.265406
-6.067613
-7.06547
-8.200098
-9.4522
-10.79475
-12.23651
-13.70126
-14.99766
-15.81229
-15.78875
-14.63885
-12.28523
-8.9514
-5.065981
-1.149006
2.35956
5.23424
7.418722
8.926697
9.831428
10.19403
10.14271
9.885002
9.610581
9.426561
9.336164
9.177898
8.800815
8.147488
7.321786
6.559756
6.094344
6.015009
6.231771
6.530896
6.645617
6.417347
5.811494
4.909476
3.87253
2.882514
2.067739
1.520332
1.250263
1.184909
1.228302
1.213332
0.9748111
0.4016085
-0.5190058
-1.744356
-3.158808
-4.610675
-5.9992
-7.22507
-8.228804
-8.993413
-9.57456
-10.1044
-10.74287
-11.57634
-12.47144
-13.12183
-13.12449
-12.17114
-10.20443
-7.470634
-4.374287
-1.373809
1.207295
3.23613
4.705147
5.739349
6.444124
6.917091
7.18952
7.236863
7.033368
6.591048
5.977623
5.347997
4.91186
4.833521
5.157053
5.784535
6.528654
7.185745
7.64716
7.890462
7.953505
7.869007
7.650805
7.223899
6.524254
5.545681
4.328899
2.994916
1.690328
0.5082287
-0.4911468
-1.34615
-2.156234
-3.046092
-4.096552
-5.287847
-6.532379
-7.688526
-8.659194
-9.408175
-10.01344
-10.63962
-11.42073
-12.378
-13.36574
-14.13001
-14.36034
-13.83835
-12.47268
-10.35693
-7.698349
-4.722144
-1.627288
1.439599
4.378786
7.033057
9.189428
10.66394
11.33288
11.23853
10.55226
9.520132
8.344389
7.16815
6.086774
5.171088
4.531728
4.272758
4.394572
4.773169
5.182375
5.382096
5.265877
4.850005
4.246964
3.577625
2.91357
2.259676
1.58692
0.8976469
0.2330179
-0.3453064
-0.8299789
-1.283592
-1.828905
-2.616422
-3.697838
-5.053947
-6.583001
-8.142157
-9.646899
-11.09814
-12.5625
-14.09627
-15.64948
-16.9832
-17.71684
-17.45677
-15.95702
-13.25152
-9.687629
-5.826804
-2.201221
0.7984219
3.093694
4.833118
6.213228
7.328243
8.072102
8.272367
7.843746
6.946473
5.978817
5.363718
5.348848
5.815288
6.411594
6.698564
6.493618
5.851251
5.031696
4.289608
3.724998
3.296732
2.94636
2.668108
2.527584
2.555692
2.652678
2.557674
2.020858
0.9199677
-0.6485467
-2.389847
-3.933754
-5.026777
-5.615237
-5.838862
-5.929236
-6.13097
-6.644655
-7.552164
-8.863223
-10.49874
-12.25538
-13.90116
-15.13833
-15.70688
-15.42144
-14.25178
-12.26257
-9.625075
-6.543189
-3.210792
0.1692355
3.386334
6.180914
8.30505
9.583793
10.01171
9.740814
9.031571
8.157495
7.299288
6.523059
5.864148
5.345005
5.004267
4.87664
4.926256
5.08074
5.24121
5.334755
5.359399
5.334427
5.246664
5.04261
4.616032
3.916635
2.992801
1.984361
1.044072
0.2470798
-0.460803
-1.240618
-2.211198
-3.393842
-4.685481
-5.944282
-7.079413
-8.127002
-9.170463
-10.32409
-11.61896
-12.99205
-14.28766
-15.3583
-16.0321
-16.13385
-15.53194
-14.14514
-12.01531
-9.295952
-6.249166
-3.111485
-0.09885025
2.641039
4.999096
6.821039
7.932281
8.219643
7.748983
6.766827
5.646332
4.765867
4.338717
4.417168
4.885941
5.582907
6.362381
7.113955
7.755163
8.192602
8.365511
8.217892
7.77993
7.119724
6.357273
5.581139
4.789146
3.948982
2.957428
1.787498
0.4781723
-0.8382912
