1569661849.14605
1569661849.16167
1569661849.1773
1569661849.19293
1569661849.20855
1569661849.22418
1569661849.2398
1569661849.25543
1569661849.27105
1569661849.28668
1569661849.30231
1569661849.31793
1569661849.33356
1569661849.34918
1569661849.36481
1569661849.38043
1569661849.39606
1569661849.41169
1569661849.42731
1569661849.44294
1569661849.45856
1569661849.47419
1569661849.48981
1569661849.50544
1569661849.52107
1569661849.53669
1569661849.55232
1569661849.56794
1569661849.58357
1569661849.59919
1569661849.61482
1569661849.63045
1569661849.64607
1569661849.6617
1569661849.67732
1569661849.69295
1569661849.70858
1569661849.7242
1569661849.73983
1569661849.75545
1569661849.77108
1569661849.7867
1569661849.80233
1569661849.81796
1569661849.83358
1569661849.84921
1569661849.86483
1569661849.88046
1569661849.89608
1569661849.91171
1569661849.92734
1569661849.94296
1569661849.95859
1569661849.97421
1569661849.98984
1569661850.00546
1569661850.02109
1569661850.03672
1569661850.05234
1569661850.06797
1569661850.08359
1569661850.09922
1569661850.11484
1569661850.13047
1569661850.1461
1569661850.16172
1569661850.17735
1569661850.19297
1569661850.2086
1569661850.22422
1569661850.23985
1569661850.25548
1569661850.2711
1569661850.28673
1569661850.30235
1569661850.31798
1569661850.3336
1569661850.34923
1569661850.36486
1569661850.38048
1569661850.39611
1569661850.41173
1569661850.42736
1569661850.44298
1569661850.45861
1569661850.47424
1569661850.48986
1569661850.50549
1569661850.52111
1569661850.53674
1569661850.55236
1569661850.56799
1569661850.58362
1569661850.59924
1569661850.61487
1569661850.63049
1569661850.64612
1569661850.66174
1569661850.67737
1569661850.693
1569661850.70862
1569661850.72425
1569661850.73987
1569661850.7555
1569661850.77112
1569661850.78675
1569661850.80238
1569661850.818
1569661850.83363
1569661850.84925
1569661850.86488
1569661850.8805
1569661850.89613
1569661850.91176
1569661850.92738
1569661850.94301
1569661850.95863
1569661850.97426
1569661850.98988
1569661851.00551
1569661851.02114
1569661851.03676
1569661851.05239
1569661851.06801
1569661851.08364
1569661851.09926
1569661851.11489
1569661851.13052
1569661851.14614
1569661851.16177
1569661851.17739
1569661851.19302
1569661851.20864
1569661851.22427
1569661851.2399
1569661851.25552
1569661851.27115
1569661851.28677
1569661851.3024
1569661851.31802
1569661851.33365
1569661851.34928
1569661851.3649
1569661851.38053
1569661851.39615
1569661851.41178
1569661851.4274
1569661851.44303
1569661851.45866
1569661851.47428
1569661851.48991
1569661851.50553
1569661851.52116
1569661851.53678
1569661851.55241
1569661851.56804
1569661851.58366
1569661851.59929
1569661851.61491
1569661851.63054
1569661851.64616
1569661851.66179
1569661851.67742
1569661851.69304
1569661851.70867
1569661851.72429
1569661851.73992
1569661851.75554
1569661851.77117
1569661851.7868
1569661851.80242
1569661851.81805
1569661851.83367
1569661851.8493
1569661851.86492
1569661851.88055
1569661851.89618
1569661851.9118
1569661851.92743
1569661851.94305
1569661851.95868
1569661851.9743
1569661851.98993
1569661852.00556
1569661852.02118
1569661852.03681
1569661852.05243
1569661852.06806
1569661852.08368
1569661852.09931
1569661852.11494
1569661852.13056
1569661852.14619
1569661852.16181
1569661852.17744
1569661852.19306
1569661852.20869
1569661852.22432
1569661852.23994
1569661852.25557
1569661852.27119
1569661852.28682
1569661852.30244
1569661852.31807
1569661852.3337
1569661852.34932
1569661852.36495
1569661852.38057
1569661852.3962
1569661852.41183
1569661852.42745
1569661852.44308
1569661852.4587
1569661852.47433
1569661852.48995
1569661852.50558
1569661852.52121
1569661852.53683
1569661852.55246
1569661852.56808
1569661852.58371
1569661852.59933
1569661852.61496
1569661852.63059
1569661852.64621
1569661852.66184
1569661852.67746
1569661852.69309
1569661852.70871
1569661852.72434
1569661852.73997
1569661852.75559
1569661852.77122
1569661852.78684
1569661852.80247
1569661852.81809
1569661852.83372
1569661852.84935
1569661852.86497
1569661852.8806
1569661852.89622
1569661852.91185
1569661852.92747
1569661852.9431
1569661852.95873
1569661852.97435
1569661852.98998
1569661853.0056
1569661853.02123
1569661853.03685
1569661853.05248
1569661853.06811
1569661853.08373
1569661853.09936
1569661853.11498
1569661853.13061
1569661853.14623
1569661853.16186
1569661853.17749
1569661853.19311
1569661853.20874
1569661853.22436
1569661853.23999
1569661853.25561
1569661853.27124
1569661853.28687
1569661853.30249
1569661853.31812
1569661853.33374
1569661853.34937
1569661853.36499
1569661853.38062
1569661853.39625
1569661853.41187
1569661853.4275
1569661853.44312
1569661853.45875
1569661853.47437
1569661853.49
1569661853.50563
1569661853.52125
1569661853.53688
1569661853.5525
1569661853.56813
1569661853.58375
1569661853.59938
1569661853.61501
1569661853.63063
1569661853.64626
1569661853.66188
1569661853.67751
1569661853.69313
1569661853.70876
1569661853.72439
1569661853.74001
1569661853.75564
1569661853.77126
1569661853.78689
1569661853.80251
1569661853.81814
1569661853.83377
1569661853.84939
1569661853.86502
1569661853.88064
1569661853.89627
1569661853.91189
1569661853.92752
1569661853.94315
1569661853.95877
1569661853.9744
1569661853.99002
1569661854.00565
1569661854.02127
1569661854.0369
1569661854.05253
1569661854.06815
1569661854.08378
1569661854.0994
1569661854.11503
1569661854.13065
1569661854.14628
1569661854.16191
1569661854.17753
1569661854.19316
1569661854.20878
1569661854.22441
1569661854.24003
1569661854.25566
1569661854.27129
1569661854.28691
1569661854.30254
1569661854.31816
1569661854.33379
1569661854.34941
1569661854.36504
1569661854.38067
1569661854.39629
1569661854.41192
1569661854.42754
1569661854.44317
1569661854.45879
1569661854.47442
1569661854.49005
1569661854.50567
1569661854.5213
1569661854.53692
1569661854.55255
1569661854.56818
1569661854.5838
1569661854.59943
1569661854.61505
1569661854.63068
1569661854.6463
1569661854.66193
1569661854.67756
1569661854.69318
1569661854.70881
1569661854.72443
1569661854.74006
1569661854.75568
1569661854.77131
1569661854.78694
1569661854.80256
1569661854.81819
1569661854.83381
1569661854.84944
1569661854.86506
1569661854.88069
1569661854.89632
1569661854.91194
1569661854.92757
1569661854.94319
1569661854.95882
1569661854.97444
1569661854.99007
1569661855.0057
1569661855.02132
1569661855.03695
1569661855.05257
1569661855.0682
1569661855.08382
1569661855.09945
1569661855.11508
1569661855.1307
1569661855.14633
1569661855.16195
1569661855.17758
1569661855.1932
1569661855.20883
1569661855.22446
1569661855.24008
1569661855.25571
1569661855.27133
1569661855.28696
1569661855.30258
1569661855.31821
1569661855.33384
1569661855.34946
1569661855.36509
1569661855.38071
1569661855.39634
1569661855.41196
1569661855.42759
1569661855.44322
1569661855.45884
1569661855.47447
1569661855.49009
1569661855.50572
1569661855.52134
1569661855.53697
1569661855.5526
1569661855.56822
1569661855.58385
1569661855.59947
1569661855.6151
1569661855.63072
1569661855.64635
1569661855.66198
1569661855.6776
1569661855.69323
1569661855.70885
1569661855.72448
1569661855.7401
1569661855.75573
1569661855.77136
1569661855.78698
1569661855.80261
1569661855.81823
1569661855.83386
1569661855.84948
1569661855.86511
1569661855.88074
1569661855.89636
1569661855.91199
1569661855.92761
1569661855.94324
1569661855.95886
1569661855.97449
1569661855.99012
1569661856.00574
1569661856.02137
1569661856.03699
1569661856.05262
1569661856.06824
1569661856.08387
1569661856.0995
1569661856.11512
1569661856.13075
1569661856.14637
1569661856.162
1569661856.17762
1569661856.19325
1569661856.20888
1569661856.2245
1569661856.24013
1569661856.25575
1569661856.27138
1569661856.287
1569661856.30263
1569661856.31826
1569661856.33388
1569661856.34951
1569661856.36513
1569661856.38076
1569661856.39638
1569661856.41201
1569661856.42764
1569661856.44326
1569661856.45889
1569661856.47451
1569661856.49014
1569661856.50576
1569661856.52139
1569661856.53702
1569661856.55264
1569661856.56827
1569661856.58389
1569661856.59952
1569661856.61514
1569661856.63077
1569661856.6464
1569661856.66202
1569661856.67765
1569661856.69327
1569661856.7089
1569661856.72452
1569661856.74015
1569661856.75578
1569661856.7714
1569661856.78703
1569661856.80265
1569661856.81828
1569661856.8339
1569661856.84953
1569661856.86516
1569661856.88078
1569661856.89641
1569661856.91203
1569661856.92766
1569661856.94328
1569661856.95891
1569661856.97454
1569661856.99016
1569661857.00579
1569661857.02141
1569661857.03704
1569661857.05267
1569661857.06829
1569661857.08392
1569661857.09954
1569661857.11517
1569661857.13079
1569661857.14642
1569661857.16205
1569661857.17767
1569661857.1933
1569661857.20892
1569661857.22455
1569661857.24017
1569661857.2558
1569661857.27143
1569661857.28705
1569661857.30268
1569661857.3183
1569661857.33393
1569661857.34955
1569661857.36518
1569661857.38081
1569661857.39643
1569661857.41206
1569661857.42768
1569661857.44331
1569661857.45893
1569661857.47456
1569661857.49019
1569661857.50581
1569661857.52144
1569661857.53706
1569661857.55269
1569661857.56831
1569661857.58394
1569661857.59957
1569661857.61519
1569661857.63082
1569661857.64644
1569661857.66207
1569661857.67769
1569661857.69332
1569661857.70895
1569661857.72457
1569661857.7402
1569661857.75582
1569661857.77145
1569661857.78707
1569661857.8027
1569661857.81833
1569661857.83395
1569661857.84958
1569661857.8652
1569661857.88083
1569661857.89645
1569661857.91208
1569661857.92771
1569661857.94333
1569661857.95896
1569661857.97458
1569661857.99021
1569661858.00583
1569661858.02146
1569661858.03709
1569661858.05271
1569661858.06834
1569661858.08396
1569661858.09959
1569661858.11521
1569661858.13084
1569661858.14647
1569661858.16209
1569661858.17772
1569661858.19334
1569661858.20897
1569661858.22459
1569661858.24022
1569661858.25585
1569661858.27147
1569661858.2871
1569661858.30272
1569661858.31835
1569661858.33397
1569661858.3496
1569661858.36523
1569661858.38085
1569661858.39648
1569661858.4121
1569661858.42773
1569661858.44335
1569661858.45898
1569661858.47461
1569661858.49023
1569661858.50586
1569661858.52148
1569661858.53711
1569661858.55273
1569661858.56836
1569661858.58399
1569661858.59961
1569661858.61524
1569661858.63086
1569661858.64649
1569661858.66211
1569661858.67774
1569661858.69337
1569661858.70899
1569661858.72462
1569661858.74024
1569661858.75587
1569661858.77149
1569661858.78712
1569661858.80275
1569661858.81837
1569661858.834
1569661858.84962
1569661858.86525
1569661858.88087
1569661858.8965
1569661858.91213
1569661858.92775
1569661858.94338
1569661858.959
1569661858.97463
1569661858.99025
1569661859.00588
1569661859.02151
1569661859.03713
1569661859.05276
1569661859.06838
1569661859.08401
1569661859.09963
1569661859.11526
1569661859.13089
1569661859.14651
1569661859.16214
1569661859.17776
1569661859.19339
1569661859.20901
1569661859.22464
1569661859.24027
1569661859.25589
1569661859.27152
1569661859.28714
1569661859.30277
1569661859.31839
1569661859.33402
1569661859.34965
1569661859.36527
1569661859.3809
1569661859.39652
1569661859.41215
1569661859.42778
1569661859.4434
1569661859.45903
1569661859.47465
1569661859.49028
1569661859.5059
1569661859.52153
1569661859.53716
1569661859.55278
1569661859.56841
1569661859.58403
1569661859.59966
1569661859.61528
1569661859.63091
1569661859.64654
1569661859.66216
1569661859.67779
1569661859.69341
1569661859.70904
1569661859.72466
1569661859.74029
1569661859.75592
1569661859.77154
1569661859.78717
1569661859.80279
1569661859.81842
1569661859.83404
1569661859.84967
1569661859.8653
1569661859.88092
1569661859.89655
1569661859.91217
1569661859.9278
1569661859.94342
1569661859.95905
1569661859.97468
1569661859.9903
1569661860.00593
1569661860.02155
1569661860.03718
1569661860.0528
1569661860.06843
1569661860.08406
1569661860.09968
1569661860.11531
1569661860.13093
1569661860.14656
1569661860.16218
1569661860.17781
1569661860.19344
1569661860.20906
1569661860.22469
1569661860.24031
1569661860.25594
1569661860.27156
1569661860.28719
1569661860.30282
1569661860.31844
1569661860.33407
1569661860.34969
1569661860.36532
1569661860.38094
1569661860.39657
1569661860.4122
1569661860.42782
1569661860.44345
1569661860.45907
1569661860.4747
1569661860.49032
1569661860.50595
1569661860.52158
1569661860.5372
1569661860.55283
1569661860.56845
1569661860.58408
1569661860.5997
1569661860.61533
1569661860.63096
1569661860.64658
1569661860.66221
1569661860.67783
1569661860.69346
1569661860.70908
1569661860.72471
1569661860.74034
1569661860.75596
1569661860.77159
1569661860.78721
1569661860.80284
1569661860.81846
1569661860.83409
1569661860.84972
1569661860.86534
1569661860.88097
1569661860.89659
1569661860.91222
1569661860.92784
1569661860.94347
1569661860.9591
1569661860.97472
1569661860.99035
1569661861.00597
1569661861.0216
1569661861.03722
1569661861.05285
1569661861.06848
1569661861.0841
1569661861.09973
1569661861.11535
1569661861.13098
1569661861.1466
1569661861.16223
1569661861.17786
1569661861.19348
1569661861.20911
1569661861.22473
1569661861.24036
1569661861.25598
1569661861.27161
1569661861.28724
1569661861.30286
1569661861.31849
1569661861.33411
1569661861.34974
1569661861.36536
1569661861.38099
1569661861.39662
1569661861.41224
1569661861.42787
1569661861.44349
1569661861.45912
1569661861.47474
1569661861.49037
1569661861.506
1569661861.52162
1569661861.53725
1569661861.55287
1569661861.5685
1569661861.58412
1569661861.59975
1569661861.61538
1569661861.631
1569661861.64663
1569661861.66225
1569661861.67788
1569661861.69351
1569661861.70913
1569661861.72476
1569661861.74038
1569661861.75601
1569661861.77163
1569661861.78726
1569661861.80289
1569661861.81851
1569661861.83414
1569661861.84976
1569661861.86539
1569661861.88101
1569661861.89664
1569661861.91227
1569661861.92789
1569661861.94352
1569661861.95914
1569661861.97477
1569661861.99039
1569661862.00602
1569661862.02165
1569661862.03727
1569661862.0529
1569661862.06852
1569661862.08415
1569661862.09977
1569661862.1154
1569661862.13103
1569661862.14665
1569661862.16228
1569661862.1779
1569661862.19353
1569661862.20915
1569661862.22478
1569661862.24041
1569661862.25603
1569661862.27166
1569661862.28728
1569661862.30291
1569661862.31853
1569661862.33416
1569661862.34979
1569661862.36541
1569661862.38104
1569661862.39666
1569661862.41229
1569661862.42791
1569661862.44354
1569661862.45917
1569661862.47479
1569661862.49042
1569661862.50604
1569661862.52167
1569661862.53729
1569661862.55292
1569661862.56855
1569661862.58417
1569661862.5998
1569661862.61542
1569661862.63105
1569661862.64667
1569661862.6623
1569661862.67793
1569661862.69355
1569661862.70918
1569661862.7248
1569661862.74043
1569661862.75605
1569661862.77168
1569661862.78731
1569661862.80293
1569661862.81856
1569661862.83418
1569661862.84981
1569661862.86543
1569661862.88106
1569661862.89669
1569661862.91231
1569661862.92794
1569661862.94356
1569661862.95919
1569661862.97481
1569661862.99044
1569661863.00607
1569661863.02169
1569661863.03732
1569661863.05294
1569661863.06857
1569661863.08419
1569661863.09982
1569661863.11545
1569661863.13107
1569661863.1467
1569661863.16232
1569661863.17795
1569661863.19357
1569661863.2092
1569661863.22483
1569661863.24045
1569661863.25608
1569661863.2717
1569661863.28733
1569661863.30295
1569661863.31858
1569661863.33421
1569661863.34983
1569661863.36546
1569661863.38108
1569661863.39671
1569661863.41233
1569661863.42796
1569661863.44359
1569661863.45921
1569661863.47484
1569661863.49046
1569661863.50609
1569661863.52171
1569661863.53734
1569661863.55297
1569661863.56859
1569661863.58422
1569661863.59984
1569661863.61547
1569661863.63109
1569661863.64672
1569661863.66235
1569661863.67797
1569661863.6936
1569661863.70922
1569661863.72485
1569661863.74047
1569661863.7561
1569661863.77173
1569661863.78735
1569661863.80298
1569661863.8186
1569661863.83423
1569661863.84985
1569661863.86548
1569661863.88111
1569661863.89673
1569661863.91236
1569661863.92798
1569661863.94361
1569661863.95923
1569661863.97486
1569661863.99049
1569661864.00611
1569661864.02174
1569661864.03736
1569661864.05299
1569661864.06861
1569661864.08424
1569661864.09987
1569661864.11549
1569661864.13112
1569661864.14674
1569661864.16237
1569661864.17799
1569661864.19362
1569661864.20925
1569661864.22487
1569661864.2405
1569661864.25612
1569661864.27175
1569661864.28738
1569661864.303
1569661864.31863
1569661864.33425
1569661864.34988
1569661864.3655
1569661864.38113
1569661864.39676
1569661864.41238
1569661864.42801
1569661864.44363
1569661864.45926
1569661864.47488
1569661864.49051
1569661864.50614
1569661864.52176
1569661864.53739
1569661864.55301
1569661864.56864
1569661864.58426
1569661864.59989
1569661864.61552
1569661864.63114
1569661864.64677
1569661864.66239
1569661864.67802
1569661864.69364
1569661864.70927
1569661864.7249
1569661864.74052
1569661864.75615
1569661864.77177
1569661864.7874
1569661864.80302
1569661864.81865
1569661864.83428
1569661864.8499
1569661864.86553
1569661864.88115
1569661864.89678
1569661864.9124
1569661864.92803
1569661864.94366
1569661864.95928
1569661864.97491
1569661864.99053
1569661865.00616
1569661865.02178
1569661865.03741
1569661865.05304
1569661865.06866
1569661865.08429
1569661865.09991
1569661865.11554
1569661865.13116
1569661865.14679
1569661865.16242
1569661865.17804
1569661865.19367
1569661865.20929
1569661865.22492
1569661865.24054
1569661865.25617
1569661865.2718
1569661865.28742
1569661865.30305
1569661865.31867
1569661865.3343
1569661865.34992
1569661865.36555
1569661865.38118
1569661865.3968
1569661865.41243
1569661865.42805
1569661865.44368
1569661865.4593
1569661865.47493
1569661865.49056
1569661865.50618
1569661865.52181
1569661865.53743
1569661865.55306
1569661865.56868
1569661865.58431
1569661865.59994
1569661865.61556
1569661865.63119
1569661865.64681
1569661865.66244
1569661865.67806
1569661865.69369
1569661865.70932
1569661865.72494
1569661865.74057
1569661865.75619
1569661865.77182
1569661865.78744
1569661865.80307
1569661865.8187
1569661865.83432
1569661865.84995
1569661865.86557
1569661865.8812
1569661865.89682
1569661865.91245
1569661865.92808
1569661865.9437
1569661865.95933
1569661865.97495
1569661865.99058
1569661866.0062
1569661866.02183
1569661866.03746
1569661866.05308
1569661866.06871
1569661866.08433
1569661866.09996
1569661866.11558
1569661866.13121
1569661866.14684
1569661866.16246
1569661866.17809
1569661866.19371
1569661866.20934
1569661866.22496
1569661866.24059
1569661866.25622
1569661866.27184
1569661866.28747
1569661866.30309
1569661866.31872
1569661866.33434
1569661866.34997
1569661866.3656
1569661866.38122
1569661866.39685
1569661866.41247
1569661866.4281
1569661866.44372
1569661866.45935
1569661866.47498
1569661866.4906
1569661866.50623
1569661866.52185
1569661866.53748
1569661866.55311
1569661866.56873
1569661866.58436
1569661866.59998
1569661866.61561
1569661866.63123
1569661866.64686
1569661866.66249
1569661866.67811
1569661866.69374
1569661866.70936
1569661866.72499
1569661866.74061
1569661866.75624
1569661866.77187
1569661866.78749
1569661866.80312
1569661866.81874
1569661866.83437
1569661866.84999
1569661866.86562
1569661866.88125
1569661866.89687
1569661866.9125
1569661866.92812
1569661866.94375
1569661866.95937
1569661866.975
1569661866.99063
1569661867.00625
1569661867.02188
1569661867.0375
1569661867.05313
1569661867.06875
1569661867.08438
1569661867.10001
1569661867.11563
1569661867.13126
1569661867.14688
1569661867.16251
1569661867.17813
1569661867.19376
1569661867.20939
1569661867.22501
1569661867.24064
1569661867.25626
1569661867.27189
1569661867.28751
1569661867.30314
1569661867.31877
1569661867.33439
1569661867.35002
1569661867.36564
1569661867.38127
1569661867.39689
1569661867.41252
1569661867.42815
1569661867.44377
1569661867.4594
1569661867.47502
1569661867.49065
1569661867.50627
1569661867.5219
1569661867.53753
1569661867.55315
1569661867.56878
1569661867.5844
1569661867.60003
1569661867.61565
1569661867.63128
1569661867.64691
1569661867.66253
1569661867.67816
1569661867.69378
1569661867.70941
1569661867.72503
1569661867.74066
1569661867.75629
1569661867.77191
1569661867.78754
1569661867.80316
1569661867.81879
1569661867.83441
1569661867.85004
1569661867.86567
1569661867.88129
1569661867.89692
1569661867.91254
1569661867.92817
1569661867.94379
1569661867.95942
1569661867.97505
1569661867.99067
1569661868.0063
1569661868.02192
1569661868.03755
1569661868.05317
1569661868.0688
1569661868.08443
1569661868.10005
1569661868.11568
1569661868.1313
1569661868.14693
1569661868.16255
1569661868.17818
1569661868.19381
1569661868.20943
1569661868.22506
1569661868.24068
1569661868.25631
1569661868.27193
1569661868.28756
1569661868.30319
1569661868.31881
1569661868.33444
1569661868.35006
1569661868.36569
1569661868.38131
1569661868.39694
1569661868.41257
1569661868.42819
1569661868.44382
1569661868.45944
1569661868.47507
1569661868.49069
1569661868.50632
1569661868.52195
1569661868.53757
1569661868.5532
1569661868.56882
1569661868.58445
1569661868.60007
1569661868.6157
1569661868.63133
1569661868.64695
1569661868.66258
1569661868.6782
1569661868.69383
1569661868.70946
1569661868.72508
1569661868.74071
1569661868.75633
1569661868.77196
1569661868.78758
1569661868.80321
1569661868.81884
1569661868.83446
1569661868.85009
1569661868.86571
1569661868.88134
1569661868.89696
1569661868.91259
1569661868.92822
1569661868.94384
1569661868.95947
1569661868.97509
1569661868.99072
1569661869.00634
1569661869.02197
1569661869.0376
1569661869.05322
1569661869.06885
1569661869.08447
1569661869.1001
1569661869.11572
1569661869.13135
1569661869.14698
1569661869.1626
1569661869.17823
1569661869.19385
1569661869.20948
1569661869.2251
1569661869.24073
1569661869.25636
1569661869.27198
1569661869.28761
1569661869.30323
1569661869.31886
1569661869.33448
1569661869.35011
1569661869.36574
1569661869.38136
1569661869.39699
1569661869.41261
1569661869.42824
1569661869.44386
1569661869.45949
1569661869.47512
1569661869.49074
1569661869.50637
1569661869.52199
1569661869.53762
1569661869.55324
1569661869.56887
1569661869.5845
1569661869.60012
1569661869.61575
1569661869.63137
1569661869.647
1569661869.66262
1569661869.67825
1569661869.69388
1569661869.7095
1569661869.72513
1569661869.74075
1569661869.75638
1569661869.772
1569661869.78763
1569661869.80326
1569661869.81888
1569661869.83451
1569661869.85013
1569661869.86576
1569661869.88138
1569661869.89701
1569661869.91264
1569661869.92826
1569661869.94389
1569661869.95951
1569661869.97514
1569661869.99076
1569661870.00639
1569661870.02202
1569661870.03764
1569661870.05327
1569661870.06889
1569661870.08452
1569661870.10014
1569661870.11577
1569661870.1314
1569661870.14702
1569661870.16265
1569661870.17827
1569661870.1939
1569661870.20952
1569661870.22515
1569661870.24078
1569661870.2564
1569661870.27203
1569661870.28765
1569661870.30328
1569661870.3189
1569661870.33453
1569661870.35016
1569661870.36578
1569661870.38141
1569661870.39703
1569661870.41266
1569661870.42828
1569661870.44391
1569661870.45954
1569661870.47516
1569661870.49079
1569661870.50641
1569661870.52204
1569661870.53766
1569661870.55329
1569661870.56892
1569661870.58454
1569661870.60017
1569661870.61579
1569661870.63142
1569661870.64704
1569661870.66267
1569661870.6783
1569661870.69392
1569661870.70955
1569661870.72517
1569661870.7408
1569661870.75642
1569661870.77205
1569661870.78768
1569661870.8033
1569661870.81893
1569661870.83455
1569661870.85018
1569661870.8658
1569661870.88143
1569661870.89706
1569661870.91268
1569661870.92831
1569661870.94393
1569661870.95956
1569661870.97518
1569661870.99081
1569661871.00644
1569661871.02206
1569661871.03769
1569661871.05331
1569661871.06894
1569661871.08456
1569661871.10019
1569661871.11582
1569661871.13144
1569661871.14707
1569661871.16269
1569661871.17832
1569661871.19394
1569661871.20957
1569661871.2252
1569661871.24082
1569661871.25645
1569661871.27207
1569661871.2877
1569661871.30332
1569661871.31895
1569661871.33458
1569661871.3502
1569661871.36583
1569661871.38145
1569661871.39708
1569661871.41271
1569661871.42833
1569661871.44396
1569661871.45958
1569661871.47521
1569661871.49083
1569661871.50646
1569661871.52209
1569661871.53771
1569661871.55334
1569661871.56896
1569661871.58459
1569661871.60021
1569661871.61584
1569661871.63147
1569661871.64709
1569661871.66272
1569661871.67834
1569661871.69397
1569661871.70959
1569661871.72522
1569661871.74085
1569661871.75647
1569661871.7721
1569661871.78772
1569661871.80335
1569661871.81897
1569661871.8346
1569661871.85023
1569661871.86585
1569661871.88148
1569661871.8971
1569661871.91273
1569661871.92835
1569661871.94398
1569661871.95961
1569661871.97523
1569661871.99086
1569661872.00648
1569661872.02211
1569661872.03773
1569661872.05336
1569661872.06899
1569661872.08461
1569661872.10024
1569661872.11586
1569661872.13149
1569661872.14711
1569661872.16274
1569661872.17837
1569661872.19399
1569661872.20962
1569661872.22524
1569661872.24087
1569661872.25649
1569661872.27212
1569661872.28775
1569661872.30337
1569661872.319
1569661872.33462
1569661872.35025
1569661872.36587
1569661872.3815
1569661872.39713
1569661872.41275
1569661872.42838
1569661872.444
1569661872.45963
1569661872.47525
1569661872.49088
1569661872.50651
1569661872.52213
1569661872.53776
1569661872.55338
1569661872.56901
1569661872.58463
1569661872.60026
1569661872.61589
1569661872.63151
1569661872.64714
1569661872.66276
1569661872.67839
1569661872.69401
1569661872.70964
1569661872.72527
1569661872.74089
1569661872.75652
1569661872.77214
1569661872.78777
1569661872.80339
1569661872.81902
1569661872.83465
1569661872.85027
1569661872.8659
1569661872.88152
1569661872.89715
1569661872.91277
1569661872.9284
1569661872.94403
1569661872.95965
1569661872.97528
1569661872.9909
1569661873.00653
1569661873.02215
1569661873.03778
1569661873.05341
1569661873.06903
1569661873.08466
1569661873.10028
1569661873.11591
1569661873.13153
1569661873.14716
1569661873.16279
1569661873.17841
1569661873.19404
1569661873.20966
1569661873.22529
1569661873.24091
1569661873.25654
1569661873.27217
1569661873.28779
1569661873.30342
1569661873.31904
1569661873.33467
1569661873.35029
1569661873.36592
1569661873.38155
1569661873.39717
1569661873.4128
1569661873.42842
1569661873.44405
1569661873.45967
1569661873.4753
1569661873.49093
1569661873.50655
1569661873.52218
1569661873.5378
1569661873.55343
1569661873.56906
1569661873.58468
1569661873.60031
1569661873.61593
1569661873.63156
1569661873.64718
1569661873.66281
1569661873.67844
1569661873.69406
1569661873.70969
1569661873.72531
1569661873.74094
1569661873.75656
1569661873.77219
1569661873.78782
1569661873.80344
1569661873.81907
1569661873.83469
1569661873.85032
1569661873.86594
1569661873.88157
1569661873.8972
1569661873.91282
1569661873.92845
1569661873.94407
1569661873.9597
1569661873.97532
1569661873.99095
1569661874.00658
1569661874.0222
1569661874.03783
1569661874.05345
1569661874.06908
1569661874.0847
1569661874.10033
1569661874.11596
1569661874.13158
1569661874.14721
1569661874.16283
1569661874.17846
1569661874.19408
1569661874.20971
1569661874.22534
1569661874.24096
1569661874.25659
1569661874.27221
1569661874.28784
1569661874.30346
1569661874.31909
1569661874.33472
1569661874.35034
1569661874.36597
1569661874.38159
1569661874.39722
1569661874.41284
1569661874.42847
1569661874.4441
1569661874.45972
1569661874.47535
1569661874.49097
1569661874.5066
1569661874.52222
1569661874.53785
1569661874.55348
1569661874.5691
1569661874.58473
1569661874.60035
1569661874.61598
1569661874.6316
1569661874.64723
1569661874.66286
1569661874.67848
1569661874.69411
1569661874.70973
1569661874.72536
1569661874.74098
1569661874.75661
1569661874.77224
1569661874.78786
1569661874.80349
1569661874.81911
1569661874.83474
1569661874.85036
1569661874.86599
1569661874.88162
1569661874.89724
1569661874.91287
1569661874.92849
1569661874.94412
1569661874.95974
1569661874.97537
1569661874.991
1569661875.00662
1569661875.02225
1569661875.03787
1569661875.0535
1569661875.06912
1569661875.08475
1569661875.10038
1569661875.116
1569661875.13163
1569661875.14725
1569661875.16288
1569661875.1785
1569661875.19413
1569661875.20976
1569661875.22538
1569661875.24101
1569661875.25663
1569661875.27226
1569661875.28788
1569661875.30351
1569661875.31914
1569661875.33476
1569661875.35039
1569661875.36601
1569661875.38164
1569661875.39726
1569661875.41289
1569661875.42852
1569661875.44414
1569661875.45977
1569661875.47539
1569661875.49102
1569661875.50664
1569661875.52227
1569661875.5379
1569661875.55352
1569661875.56915
1569661875.58477
1569661875.6004
1569661875.61602
1569661875.63165
1569661875.64728
1569661875.6629
1569661875.67853
1569661875.69415
1569661875.70978
1569661875.7254
1569661875.74103
1569661875.75666
1569661875.77228
1569661875.78791
1569661875.80353
1569661875.81916
1569661875.83478
1569661875.85041
1569661875.86604
1569661875.88166
1569661875.89729
1569661875.91291
1569661875.92854
1569661875.94416
1569661875.95979
1569661875.97542
1569661875.99104
1569661876.00667
1569661876.02229
1569661876.03792
1569661876.05355
1569661876.06917
1569661876.0848
1569661876.10042
1569661876.11605
1569661876.13167
1569661876.1473
1569661876.16293
1569661876.17855
1569661876.19418
1569661876.2098
1569661876.22543
1569661876.24105
1569661876.25668
1569661876.27231
1569661876.28793
1569661876.30356
1569661876.31918
1569661876.33481
1569661876.35043
1569661876.36606
1569661876.38169
1569661876.39731
1569661876.41294
1569661876.42856
1569661876.44419
1569661876.45981
1569661876.47544
1569661876.49107
1569661876.50669
1569661876.52232
1569661876.53794
1569661876.55357
1569661876.56919
1569661876.58482
1569661876.60045
1569661876.61607
1569661876.6317
1569661876.64732
1569661876.66295
1569661876.67857
1569661876.6942
1569661876.70983
1569661876.72545
1569661876.74108
1569661876.7567
1569661876.77233
1569661876.78795
1569661876.80358
1569661876.81921
1569661876.83483
1569661876.85046
1569661876.86608
1569661876.88171
1569661876.89733
1569661876.91296
1569661876.92859
1569661876.94421
1569661876.95984
1569661876.97546
1569661876.99109
1569661877.00671
1569661877.02234
1569661877.03797
1569661877.05359
1569661877.06922
1569661877.08484
1569661877.10047
1569661877.11609
1569661877.13172
1569661877.14735
1569661877.16297
1569661877.1786
1569661877.19422
1569661877.20985
1569661877.22547
1569661877.2411
1569661877.25673
1569661877.27235
1569661877.28798
1569661877.3036
1569661877.31923
1569661877.33485
1569661877.35048
1569661877.36611
1569661877.38173
1569661877.39736
1569661877.41298
1569661877.42861
1569661877.44423
1569661877.45986
1569661877.47549
1569661877.49111
1569661877.50674
1569661877.52236
1569661877.53799
1569661877.55361
1569661877.56924
1569661877.58487
1569661877.60049
1569661877.61612
1569661877.63174
1569661877.64737
1569661877.66299
1569661877.67862
1569661877.69425
1569661877.70987
1569661877.7255
1569661877.74112
1569661877.75675
1569661877.77237
1569661877.788
1569661877.80363
1569661877.81925
1569661877.83488
1569661877.8505
1569661877.86613
1569661877.88175
1569661877.89738
1569661877.91301
1569661877.92863
1569661877.94426
1569661877.95988
1569661877.97551
1569661877.99113
1569661878.00676
1569661878.02239
1569661878.03801
1569661878.05364
1569661878.06926
1569661878.08489
1569661878.10051
1569661878.11614
1569661878.13177
1569661878.14739
1569661878.16302
1569661878.17864
1569661878.19427
1569661878.20989
1569661878.22552
1569661878.24115
1569661878.25677
1569661878.2724
1569661878.28802
1569661878.30365
1569661878.31927
1569661878.3349
1569661878.35053
1569661878.36615
1569661878.38178
1569661878.3974
1569661878.41303
1569661878.42865
1569661878.44428
1569661878.45991
1569661878.47553
1569661878.49116
1569661878.50678
1569661878.52241
1569661878.53804
1569661878.55366
1569661878.56929
1569661878.58491
1569661878.60054
1569661878.61616
1569661878.63179
1569661878.64742
1569661878.66304
1569661878.67867
1569661878.69429
1569661878.70992
1569661878.72554
1569661878.74117
1569661878.7568
1569661878.77242
1569661878.78805
1569661878.80367
1569661878.8193
1569661878.83492
1569661878.85055
1569661878.86618
1569661878.8818
1569661878.89743
1569661878.91305
1569661878.92868
1569661878.9443
1569661878.95993
1569661878.97556
1569661878.99118
1569661879.00681
1569661879.02243
1569661879.03806
1569661879.05368
1569661879.06931
1569661879.08494
1569661879.10056
1569661879.11619
1569661879.13181
1569661879.14744
1569661879.16306
1569661879.17869
1569661879.19432
1569661879.20994
1569661879.22557
1569661879.24119
1569661879.25682
1569661879.27244
1569661879.28807
1569661879.3037
1569661879.31932
1569661879.33495
1569661879.35057
1569661879.3662
1569661879.38182
1569661879.39745
1569661879.41308
1569661879.4287
1569661879.44433
1569661879.45995
1569661879.47558
1569661879.4912
1569661879.50683
1569661879.52246
1569661879.53808
1569661879.55371
1569661879.56933
1569661879.58496
1569661879.60058
1569661879.61621
1569661879.63184
1569661879.64746
1569661879.66309
1569661879.67871
1569661879.69434
1569661879.70996
1569661879.72559
1569661879.74122
1569661879.75684
1569661879.77247
1569661879.78809
1569661879.80372
1569661879.81934
1569661879.83497
1569661879.8506
1569661879.86622
1569661879.88185
1569661879.89747
1569661879.9131
1569661879.92872
1569661879.94435
1569661879.95998
1569661879.9756
1569661879.99123
1569661880.00685
1569661880.02248
1569661880.0381
1569661880.05373
1569661880.06936
1569661880.08498
1569661880.10061
1569661880.11623
1569661880.13186
1569661880.14748
1569661880.16311
1569661880.17874
1569661880.19436
1569661880.20999
1569661880.22561
1569661880.24124
1569661880.25686
1569661880.27249
1569661880.28812
1569661880.30374
1569661880.31937
1569661880.33499
1569661880.35062
1569661880.36624
1569661880.38187
1569661880.3975
1569661880.41312
1569661880.42875
1569661880.44437
1569661880.46
1569661880.47562
1569661880.49125
1569661880.50688
1569661880.5225
1569661880.53813
1569661880.55375
1569661880.56938
1569661880.585
1569661880.60063
1569661880.61626
1569661880.63188
1569661880.64751
1569661880.66313
1569661880.67876
1569661880.69439
1569661880.71001
1569661880.72564
1569661880.74126
1569661880.75689
1569661880.77251
1569661880.78814
1569661880.80377
1569661880.81939
1569661880.83502
1569661880.85064
1569661880.86627
1569661880.88189
1569661880.89752
1569661880.91315
1569661880.92877
1569661880.9444
1569661880.96002
1569661880.97565
1569661880.99127
1569661881.0069
1569661881.02253
1569661881.03815
1569661881.05378
1569661881.0694
1569661881.08503
1569661881.10065
1569661881.11628
1569661881.13191
1569661881.14753
1569661881.16316
1569661881.17878
1569661881.19441
1569661881.21003
1569661881.22566
1569661881.24129
1569661881.25691
1569661881.27254
1569661881.28816
1569661881.30379
1569661881.31941
1569661881.33504
1569661881.35067
1569661881.36629
1569661881.38192
1569661881.39754
1569661881.41317
1569661881.42879
1569661881.44442
1569661881.46005
1569661881.47567
1569661881.4913
1569661881.50692
1569661881.52255
1569661881.53817
1569661881.5538
1569661881.56943
1569661881.58505
1569661881.60068
1569661881.6163
1569661881.63193
1569661881.64755
1569661881.66318
1569661881.67881
1569661881.69443
1569661881.71006
1569661881.72568
1569661881.74131
1569661881.75693
1569661881.77256
1569661881.78819
1569661881.80381
1569661881.81944
1569661881.83506
1569661881.85069
1569661881.86631
1569661881.88194
1569661881.89757
1569661881.91319
1569661881.92882
1569661881.94444
1569661881.96007
1569661881.97569
1569661881.99132
1569661882.00695
1569661882.02257
1569661882.0382
1569661882.05382
1569661882.06945
1569661882.08507
1569661882.1007
1569661882.11633
1569661882.13195
1569661882.14758
1569661882.1632
1569661882.17883
1569661882.19445
1569661882.21008
1569661882.22571
1569661882.24133
1569661882.25696
1569661882.27258
1569661882.28821
1569661882.30383
1569661882.31946
1569661882.33509
1569661882.35071
1569661882.36634
1569661882.38196
1569661882.39759
1569661882.41321
1569661882.42884
1569661882.44447
1569661882.46009
1569661882.47572
1569661882.49134
1569661882.50697
1569661882.52259
1569661882.53822
1569661882.55385
1569661882.56947
1569661882.5851
1569661882.60072
1569661882.61635
1569661882.63197
1569661882.6476
1569661882.66323
1569661882.67885
1569661882.69448
1569661882.7101
1569661882.72573
1569661882.74135
1569661882.75698
1569661882.77261
1569661882.78823
1569661882.80386
1569661882.81948
1569661882.83511
1569661882.85073
1569661882.86636
1569661882.88199
1569661882.89761
1569661882.91324
1569661882.92886
1569661882.94449
1569661882.96011
1569661882.97574
1569661882.99137
1569661883.00699
1569661883.02262
1569661883.03824
1569661883.05387
1569661883.06949
1569661883.08512
1569661883.10075
1569661883.11637
1569661883.132
1569661883.14762
1569661883.16325
1569661883.17887
1569661883.1945
1569661883.21013
1569661883.22575
1569661883.24138
1569661883.257
1569661883.27263
1569661883.28825
1569661883.30388
1569661883.31951
1569661883.33513
1569661883.35076
1569661883.36638
1569661883.38201
1569661883.39764
1569661883.41326
1569661883.42889
1569661883.44451
1569661883.46014
1569661883.47576
1569661883.49139
1569661883.50702
1569661883.52264
1569661883.53827
1569661883.55389
1569661883.56952
1569661883.58514
1569661883.60077
1569661883.6164
1569661883.63202
1569661883.64765
1569661883.66327
1569661883.6789
1569661883.69452
1569661883.71015
1569661883.72578
1569661883.7414
1569661883.75703
1569661883.77265
1569661883.78828
1569661883.8039
1569661883.81953
1569661883.83516
1569661883.85078
1569661883.86641
1569661883.88203
1569661883.89766
1569661883.91328
1569661883.92891
1569661883.94454
1569661883.96016
1569661883.97579
1569661883.99141
1569661884.00704
1569661884.02266
1569661884.03829
1569661884.05392
1569661884.06954
1569661884.08517
1569661884.10079
1569661884.11642
1569661884.13204
1569661884.14767
1569661884.1633
1569661884.17892
1569661884.19455
1569661884.21017
1569661884.2258
1569661884.24142
1569661884.25705
1569661884.27268
1569661884.2883
1569661884.30393
1569661884.31955
1569661884.33518
1569661884.3508
1569661884.36643
1569661884.38206
1569661884.39768
1569661884.41331
1569661884.42893
1569661884.44456
1569661884.46018
1569661884.47581
1569661884.49144
1569661884.50706
1569661884.52269
1569661884.53831
1569661884.55394
1569661884.56956
1569661884.58519
1569661884.60082
1569661884.61644
1569661884.63207
1569661884.64769
1569661884.66332
1569661884.67894
1569661884.69457
1569661884.7102
1569661884.72582
1569661884.74145
1569661884.75707
1569661884.7727
1569661884.78832
1569661884.80395
1569661884.81958
1569661884.8352
1569661884.85083
1569661884.86645
1569661884.88208
1569661884.8977
1569661884.91333
1569661884.92896
1569661884.94458
1569661884.96021
1569661884.97583
1569661884.99146
1569661885.00708
1569661885.02271
1569661885.03834
1569661885.05396
1569661885.06959
1569661885.08521
1569661885.10084
1569661885.11646
1569661885.13209
1569661885.14772
1569661885.16334
1569661885.17897
1569661885.19459
1569661885.21022
1569661885.22584
1569661885.24147
1569661885.2571
1569661885.27272
1569661885.28835
1569661885.30397
1569661885.3196
1569661885.33522
1569661885.35085
1569661885.36648
1569661885.3821
1569661885.39773
1569661885.41335
1569661885.42898
1569661885.4446
1569661885.46023
1569661885.47586
1569661885.49148
1569661885.50711
1569661885.52273
1569661885.53836
1569661885.55399
1569661885.56961
1569661885.58524
1569661885.60086
1569661885.61649
1569661885.63211
1569661885.64774
1569661885.66337
1569661885.67899
1569661885.69462
1569661885.71024
1569661885.72587
1569661885.74149
1569661885.75712
1569661885.77275
1569661885.78837
1569661885.804
1569661885.81962
1569661885.83525
1569661885.85087
1569661885.8665
1569661885.88213
1569661885.89775
1569661885.91338
1569661885.929
1569661885.94463
1569661885.96025
1569661885.97588
1569661885.99151
1569661886.00713
1569661886.02276
1569661886.03838
1569661886.05401
1569661886.06963
1569661886.08526
1569661886.10089
1569661886.11651
1569661886.13214
1569661886.14776
1569661886.16339
1569661886.17901
1569661886.19464
1569661886.21027
1569661886.22589
1569661886.24152
1569661886.25714
1569661886.27277
1569661886.28839
1569661886.30402
1569661886.31965
1569661886.33527
1569661886.3509
1569661886.36652
1569661886.38215
1569661886.39777
1569661886.4134
1569661886.42903
1569661886.44465
1569661886.46028
1569661886.4759
1569661886.49153
1569661886.50715
1569661886.52278
1569661886.53841
1569661886.55403
1569661886.56966
1569661886.58528
1569661886.60091
1569661886.61653
1569661886.63216
1569661886.64779
1569661886.66341
1569661886.67904
1569661886.69466
1569661886.71029
1569661886.72591
1569661886.74154
1569661886.75717
1569661886.77279
1569661886.78842
1569661886.80404
1569661886.81967
1569661886.83529
1569661886.85092
1569661886.86655
1569661886.88217
1569661886.8978
1569661886.91342
1569661886.92905
1569661886.94467
1569661886.9603
1569661886.97593
1569661886.99155
1569661887.00718
1569661887.0228
1569661887.03843
1569661887.05405
1569661887.06968
1569661887.08531
1569661887.10093
1569661887.11656
1569661887.13218
1569661887.14781
1569661887.16343
1569661887.17906
1569661887.19469
1569661887.21031
1569661887.22594
1569661887.24156
1569661887.25719
1569661887.27281
1569661887.28844
1569661887.30407
1569661887.31969
1569661887.33532
1569661887.35094
1569661887.36657
1569661887.38219
1569661887.39782
1569661887.41345
1569661887.42907
1569661887.4447
1569661887.46032
1569661887.47595
1569661887.49157
1569661887.5072
1569661887.52283
1569661887.53845
1569661887.55408
1569661887.5697
1569661887.58533
1569661887.60095
1569661887.61658
1569661887.63221
1569661887.64783
1569661887.66346
1569661887.67908
1569661887.69471
1569661887.71033
1569661887.72596
1569661887.74159
1569661887.75721
1569661887.77284
1569661887.78846
1569661887.80409
1569661887.81972
1569661887.83534
1569661887.85097
1569661887.86659
1569661887.88222
1569661887.89784
1569661887.91347
1569661887.9291
1569661887.94472
1569661887.96035
1569661887.97597
1569661887.9916
1569661888.00722
1569661888.02285
1569661888.03848
1569661888.0541
1569661888.06973
1569661888.08535
1569661888.10098
1569661888.1166
1569661888.13223
1569661888.14786
1569661888.16348
1569661888.17911
1569661888.19473
1569661888.21036
1569661888.22598
1569661888.24161
1569661888.25724
1569661888.27286
1569661888.28849
1569661888.30411
1569661888.31974
1569661888.33536
1569661888.35099
1569661888.36662
1569661888.38224
1569661888.39787
1569661888.41349
1569661888.42912
1569661888.44474
1569661888.46037
1569661888.476
1569661888.49162
1569661888.50725
1569661888.52287
1569661888.5385
1569661888.55412
1569661888.56975
1569661888.58538
1569661888.601
1569661888.61663
1569661888.63225
1569661888.64788
1569661888.6635
1569661888.67913
1569661888.69476
1569661888.71038
1569661888.72601
1569661888.74163
1569661888.75726
1569661888.77288
1569661888.78851
1569661888.80414
1569661888.81976
1569661888.83539
1569661888.85101
1569661888.86664
1569661888.88226
1569661888.89789
1569661888.91352
1569661888.92914
1569661888.94477
1569661888.96039
1569661888.97602
1569661888.99164
1569661889.00727
1569661889.0229
1569661889.03852
1569661889.05415
1569661889.06977
1569661889.0854
1569661889.10102
1569661889.11665
1569661889.13228
1569661889.1479
1569661889.16353
1569661889.17915
1569661889.19478
1569661889.2104
1569661889.22603
1569661889.24166
1569661889.25728
1569661889.27291
1569661889.28853
1569661889.30416
1569661889.31978
1569661889.33541
1569661889.35104
1569661889.36666
1569661889.38229
1569661889.39791
1569661889.41354
1569661889.42916
1569661889.44479
1569661889.46042
1569661889.47604
1569661889.49167
1569661889.50729
1569661889.52292
1569661889.53854
1569661889.55417
1569661889.5698
1569661889.58542
1569661889.60105
1569661889.61667
1569661889.6323
1569661889.64792
1569661889.66355
1569661889.67918
1569661889.6948
1569661889.71043
1569661889.72605
1569661889.74168
1569661889.7573
1569661889.77293
1569661889.78856
1569661889.80418
1569661889.81981
1569661889.83543
1569661889.85106
1569661889.86668
1569661889.88231
1569661889.89794
1569661889.91356
1569661889.92919
1569661889.94481
1569661889.96044
1569661889.97606
1569661889.99169
1569661890.00732
1569661890.02294
1569661890.03857
1569661890.05419
1569661890.06982
1569661890.08544
1569661890.10107
1569661890.1167
1569661890.13232
1569661890.14795
1569661890.16357
1569661890.1792
1569661890.19482
1569661890.21045
1569661890.22608
1569661890.2417
1569661890.25733
1569661890.27295
1569661890.28858
1569661890.3042
1569661890.31983
1569661890.33546
1569661890.35108
1569661890.36671
1569661890.38233
1569661890.39796
1569661890.41359
1569661890.42921
1569661890.44484
1569661890.46046
1569661890.47609
1569661890.49171
1569661890.50734
1569661890.52297
1569661890.53859
1569661890.55422
1569661890.56984
1569661890.58547
1569661890.60109
1569661890.61672
1569661890.63235
1569661890.64797
1569661890.6636
1569661890.67922
1569661890.69485
1569661890.71047
1569661890.7261
1569661890.74173
1569661890.75735
1569661890.77298
1569661890.7886
1569661890.80423
1569661890.81985
1569661890.83548
1569661890.85111
1569661890.86673
1569661890.88236
1569661890.89798
1569661890.91361
1569661890.92923
1569661890.94486
1569661890.96049
1569661890.97611
1569661890.99174
1569661891.00736
1569661891.02299
1569661891.03861
1569661891.05424
1569661891.06987
1569661891.08549
1569661891.10112
1569661891.11674
1569661891.13237
1569661891.14799
1569661891.16362
1569661891.17925
1569661891.19487
1569661891.2105
1569661891.22612
1569661891.24175
1569661891.25737
1569661891.273
1569661891.28863
1569661891.30425
1569661891.31988
1569661891.3355
1569661891.35113
1569661891.36675
1569661891.38238
1569661891.39801
1569661891.41363
1569661891.42926
1569661891.44488
1569661891.46051
1569661891.47613
1569661891.49176
1569661891.50739
1569661891.52301
1569661891.53864
1569661891.55426
1569661891.56989
1569661891.58551
1569661891.60114
1569661891.61677
1569661891.63239
1569661891.64802
1569661891.66364
1569661891.67927
1569661891.69489
1569661891.71052
1569661891.72615
1569661891.74177
1569661891.7574
1569661891.77302
1569661891.78865
1569661891.80427
1569661891.8199
1569661891.83553
1569661891.85115
1569661891.86678
1569661891.8824
1569661891.89803
1569661891.91365
1569661891.92928
1569661891.94491
1569661891.96053
1569661891.97616
1569661891.99178
1569661892.00741
1569661892.02303
1569661892.03866
1569661892.05429
1569661892.06991
1569661892.08554
1569661892.10116
1569661892.11679
1569661892.13241
1569661892.14804
1569661892.16367
1569661892.17929
1569661892.19492
1569661892.21054
1569661892.22617
1569661892.24179
1569661892.25742
1569661892.27305
1569661892.28867
1569661892.3043
1569661892.31992
1569661892.33555
1569661892.35117
1569661892.3668
1569661892.38243
1569661892.39805
1569661892.41368
1569661892.4293
1569661892.44493
1569661892.46055
1569661892.47618
1569661892.49181
1569661892.50743
1569661892.52306
1569661892.53868
1569661892.55431
1569661892.56993
1569661892.58556
1569661892.60119
1569661892.61681
1569661892.63244
1569661892.64806
1569661892.66369
1569661892.67932
1569661892.69494
1569661892.71057
1569661892.72619
1569661892.74182
1569661892.75744
1569661892.77307
1569661892.7887
1569661892.80432
1569661892.81995
1569661892.83557
1569661892.8512
1569661892.86682
1569661892.88245
1569661892.89808
1569661892.9137
1569661892.92933
1569661892.94495
1569661892.96058
1569661892.9762
1569661892.99183
1569661893.00746
1569661893.02308
1569661893.03871
1569661893.05433
1569661893.06996
1569661893.08558
1569661893.10121
1569661893.11684
1569661893.13246
1569661893.14809
1569661893.16371
1569661893.17934
1569661893.19496
1569661893.21059
1569661893.22622
1569661893.24184
1569661893.25747
1569661893.27309
1569661893.28872
1569661893.30434
1569661893.31997
1569661893.3356
1569661893.35122
1569661893.36685
1569661893.38247
1569661893.3981
1569661893.41372
1569661893.42935
1569661893.44498
1569661893.4606
1569661893.47623
1569661893.49185
1569661893.50748
1569661893.5231
1569661893.53873
1569661893.55436
1569661893.56998
1569661893.58561
1569661893.60123
1569661893.61686
1569661893.63248
1569661893.64811
1569661893.66374
1569661893.67936
1569661893.69499
1569661893.71061
1569661893.72624
1569661893.74186
1569661893.75749
1569661893.77312
1569661893.78874
1569661893.80437
1569661893.81999
1569661893.83562
1569661893.85124
1569661893.86687
1569661893.8825
1569661893.89812
1569661893.91375
1569661893.92937
1569661893.945
1569661893.96062
1569661893.97625
1569661893.99188
1569661894.0075
1569661894.02313
1569661894.03875
1569661894.05438
1569661894.07
1569661894.08563
1569661894.10126
1569661894.11688
1569661894.13251
1569661894.14813
1569661894.16376
1569661894.17938
1569661894.19501
1569661894.21064
1569661894.22626
1569661894.24189
1569661894.25751
1569661894.27314
1569661894.28876
1569661894.30439
1569661894.32002
1569661894.33564
1569661894.35127
1569661894.36689
1569661894.38252
1569661894.39814
1569661894.41377
1569661894.4294
1569661894.44502
1569661894.46065
1569661894.47627
1569661894.4919
1569661894.50752
1569661894.52315
1569661894.53878
1569661894.5544
1569661894.57003
1569661894.58565
1569661894.60128
1569661894.6169
1569661894.63253
1569661894.64816
1569661894.66378
1569661894.67941
1569661894.69503
1569661894.71066
1569661894.72628
1569661894.74191
1569661894.75754
1569661894.77316
1569661894.78879
1569661894.80441
1569661894.82004
1569661894.83566
1569661894.85129
1569661894.86692
1569661894.88254
1569661894.89817
1569661894.91379
1569661894.92942
1569661894.94504
1569661894.96067
1569661894.9763
1569661894.99192
1569661895.00755
1569661895.02317
1569661895.0388
1569661895.05443
1569661895.07005
1569661895.08568
1569661895.1013
1569661895.11693
1569661895.13255
1569661895.14818
1569661895.16381
1569661895.17943
1569661895.19506
1569661895.21068
1569661895.22631
1569661895.24193
1569661895.25756
1569661895.27319
1569661895.28881
1569661895.30444
1569661895.32006
1569661895.33569
1569661895.35131
1569661895.36694
1569661895.38257
1569661895.39819
1569661895.41382
1569661895.42944
1569661895.44507
1569661895.46069
1569661895.47632
1569661895.49195
1569661895.50757
1569661895.5232
1569661895.53882
1569661895.55445
1569661895.57007
1569661895.5857
1569661895.60133
1569661895.61695
1569661895.63258
1569661895.6482
1569661895.66383
1569661895.67945
1569661895.69508
1569661895.71071
1569661895.72633
1569661895.74196
1569661895.75758
1569661895.77321
1569661895.78883
1569661895.80446
1569661895.82009
1569661895.83571
1569661895.85134
1569661895.86696
1569661895.88259
1569661895.89821
1569661895.91384
1569661895.92947
1569661895.94509
1569661895.96072
1569661895.97634
1569661895.99197
1569661896.00759
1569661896.02322
1569661896.03885
1569661896.05447
1569661896.0701
1569661896.08572
1569661896.10135
1569661896.11697
1569661896.1326
1569661896.14823
1569661896.16385
1569661896.17948
1569661896.1951
1569661896.21073
1569661896.22635
1569661896.24198
1569661896.25761
1569661896.27323
1569661896.28886
1569661896.30448
1569661896.32011
1569661896.33573
1569661896.35136
1569661896.36699
1569661896.38261
1569661896.39824
1569661896.41386
1569661896.42949
1569661896.44511
1569661896.46074
1569661896.47637
1569661896.49199
1569661896.50762
1569661896.52324
1569661896.53887
1569661896.55449
1569661896.57012
1569661896.58575
1569661896.60137
1569661896.617
1569661896.63262
1569661896.64825
1569661896.66387
1569661896.6795
1569661896.69513
1569661896.71075
1569661896.72638
1569661896.742
1569661896.75763
1569661896.77325
1569661896.78888
1569661896.80451
1569661896.82013
1569661896.83576
1569661896.85138
1569661896.86701
1569661896.88263
1569661896.89826
1569661896.91389
1569661896.92951
1569661896.94514
1569661896.96076
1569661896.97639
1569661896.99201
1569661897.00764
1569661897.02327
1569661897.03889
1569661897.05452
1569661897.07014
1569661897.08577
1569661897.10139
1569661897.11702
1569661897.13265
1569661897.14827
1569661897.1639
1569661897.17952
1569661897.19515
1569661897.21077
1569661897.2264
1569661897.24203
1569661897.25765
1569661897.27328
1569661897.2889
1569661897.30453
1569661897.32015
1569661897.33578
1569661897.35141
1569661897.36703
1569661897.38266
1569661897.39828
1569661897.41391
1569661897.42953
1569661897.44516
1569661897.46079
1569661897.47641
1569661897.49204
1569661897.50766
1569661897.52329
1569661897.53892
1569661897.55454
1569661897.57017
1569661897.58579
1569661897.60142
1569661897.61704
1569661897.63267
1569661897.6483
1569661897.66392
1569661897.67955
1569661897.69517
1569661897.7108
1569661897.72642
1569661897.74205
1569661897.75768
1569661897.7733
1569661897.78893
1569661897.80455
1569661897.82018
1569661897.8358
1569661897.85143
1569661897.86706
1569661897.88268
1569661897.89831
1569661897.91393
1569661897.92956
1569661897.94518
1569661897.96081
1569661897.97644
1569661897.99206
1569661898.00769
1569661898.02331
1569661898.03894
1569661898.05456
1569661898.07019
1569661898.08582
1569661898.10144
1569661898.11707
1569661898.13269
1569661898.14832
1569661898.16394
1569661898.17957
1569661898.1952
1569661898.21082
1569661898.22645
1569661898.24207
1569661898.2577
1569661898.27332
1569661898.28895
1569661898.30458
1569661898.3202
1569661898.33583
1569661898.35145
1569661898.36708
1569661898.3827
1569661898.39833
1569661898.41396
1569661898.42958
1569661898.44521
1569661898.46083
1569661898.47646
1569661898.49208
1569661898.50771
1569661898.52334
1569661898.53896
1569661898.55459
1569661898.57021
1569661898.58584
1569661898.60146
1569661898.61709
1569661898.63272
1569661898.64834
1569661898.66397
1569661898.67959
1569661898.69522
1569661898.71084
1569661898.72647
1569661898.7421
1569661898.75772
1569661898.77335
1569661898.78897
1569661898.8046
1569661898.82022
1569661898.83585
1569661898.85148
1569661898.8671
1569661898.88273
1569661898.89835
1569661898.91398
1569661898.9296
1569661898.94523
1569661898.96086
1569661898.97648
1569661898.99211
1569661899.00773
1569661899.02336
1569661899.03898
1569661899.05461
1569661899.07024
1569661899.08586
1569661899.10149
1569661899.11711
1569661899.13274
1569661899.14836
1569661899.16399
1569661899.17962
1569661899.19524
1569661899.21087
1569661899.22649
1569661899.24212
1569661899.25774
1569661899.27337
1569661899.289
1569661899.30462
1569661899.32025
1569661899.33587
1569661899.3515
1569661899.36712
1569661899.38275
1569661899.39838
1569661899.414
1569661899.42963
1569661899.44525
1569661899.46088
1569661899.4765
1569661899.49213
1569661899.50776
1569661899.52338
1569661899.53901
1569661899.55463
1569661899.57026
1569661899.58588
1569661899.60151
1569661899.61714
1569661899.63276
1569661899.64839
1569661899.66401
1569661899.67964
1569661899.69527
1569661899.71089
1569661899.72652
1569661899.74214
1569661899.75777
1569661899.77339
1569661899.78902
1569661899.80465
1569661899.82027
1569661899.8359
1569661899.85152
1569661899.86715
1569661899.88277
1569661899.8984
1569661899.91403
1569661899.92965
1569661899.94528
1569661899.9609
1569661899.97653
1569661899.99215
1569661900.00778
1569661900.02341
1569661900.03903
1569661900.05466
1569661900.07028
1569661900.08591
1569661900.10153
1569661900.11716
1569661900.13279
1569661900.14841
1569661900.16404
1569661900.17966
1569661900.19529
1569661900.21091
1569661900.22654
1569661900.24217
1569661900.25779
1569661900.27342
1569661900.28904
1569661900.30467
1569661900.32029
1569661900.33592
1569661900.35155
1569661900.36717
1569661900.3828
1569661900.39842
1569661900.41405
1569661900.42967
1569661900.4453
1569661900.46093
1569661900.47655
1569661900.49218
1569661900.5078
1569661900.52343
1569661900.53905
1569661900.55468
1569661900.57031
1569661900.58593
1569661900.60156
1569661900.61718
1569661900.63281
1569661900.64843
1569661900.66406
1569661900.67969
1569661900.69531
1569661900.71094
1569661900.72656
1569661900.74219
1569661900.75781
1569661900.77344
1569661900.78907
1569661900.80469
1569661900.82032
1569661900.83594
1569661900.85157
1569661900.86719
1569661900.88282
1569661900.89845
1569661900.91407
1569661900.9297
1569661900.94532
1569661900.96095
1569661900.97657
1569661900.9922
1569661901.00783
1569661901.02345
1569661901.03908
1569661901.0547
1569661901.07033
1569661901.08595
1569661901.10158
1569661901.11721
1569661901.13283
1569661901.14846
1569661901.16408
1569661901.17971
1569661901.19533
1569661901.21096
1569661901.22659
1569661901.24221
1569661901.25784
1569661901.27346
1569661901.28909
1569661901.30471
1569661901.32034
1569661901.33597
1569661901.35159
1569661901.36722
1569661901.38284
1569661901.39847
1569661901.41409
1569661901.42972
1569661901.44535
1569661901.46097
1569661901.4766
1569661901.49222
1569661901.50785
1569661901.52347
1569661901.5391
1569661901.55473
1569661901.57035
1569661901.58598
1569661901.6016
1569661901.61723
1569661901.63285
1569661901.64848
1569661901.66411
1569661901.67973
1569661901.69536
1569661901.71098
1569661901.72661
1569661901.74223
1569661901.75786
1569661901.77349
1569661901.78911
1569661901.80474
1569661901.82036
1569661901.83599
1569661901.85161
1569661901.86724
1569661901.88287
1569661901.89849
1569661901.91412
1569661901.92974
1569661901.94537
1569661901.96099
1569661901.97662
1569661901.99225
1569661902.00787
1569661902.0235
1569661902.03912
1569661902.05475
1569661902.07037
1569661902.086
1569661902.10163
1569661902.11725
1569661902.13288
1569661902.1485
1569661902.16413
1569661902.17975
1569661902.19538
1569661902.21101
1569661902.22663
1569661902.24226
1569661902.25788
1569661902.27351
1569661902.28913
1569661902.30476
1569661902.32039
1569661902.33601
1569661902.35164
1569661902.36726
1569661902.38289
1569661902.39852
1569661902.41414
1569661902.42977
1569661902.44539
1569661902.46102
1569661902.47664
1569661902.49227
1569661902.5079
1569661902.52352
1569661902.53915
1569661902.55477
1569661902.5704
1569661902.58602
1569661902.60165
1569661902.61728
1569661902.6329
1569661902.64853
1569661902.66415
1569661902.67978
1569661902.6954
1569661902.71103
1569661902.72666
1569661902.74228
1569661902.75791
1569661902.77353
1569661902.78916
1569661902.80478
1569661902.82041
1569661902.83604
1569661902.85166
1569661902.86729
1569661902.88291
1569661902.89854
1569661902.91416
1569661902.92979
1569661902.94542
1569661902.96104
1569661902.97667
1569661902.99229
1569661903.00792
1569661903.02354
1569661903.03917
1569661903.0548
1569661903.07042
1569661903.08605
1569661903.10167
1569661903.1173
1569661903.13292
1569661903.14855
1569661903.16418
1569661903.1798
1569661903.19543
1569661903.21105
1569661903.22668
1569661903.2423
1569661903.25793
1569661903.27356
1569661903.28918
1569661903.30481
1569661903.32043
1569661903.33606
1569661903.35168
1569661903.36731
1569661903.38294
1569661903.39856
1569661903.41419
1569661903.42981
1569661903.44544
1569661903.46106
1569661903.47669
1569661903.49232
1569661903.50794
1569661903.52357
1569661903.53919
1569661903.55482
1569661903.57044
1569661903.58607
1569661903.6017
1569661903.61732
1569661903.63295
1569661903.64857
1569661903.6642
1569661903.67982
1569661903.69545
1569661903.71108
1569661903.7267
1569661903.74233
1569661903.75795
1569661903.77358
1569661903.7892
1569661903.80483
1569661903.82046
1569661903.83608
1569661903.85171
1569661903.86733
1569661903.88296
1569661903.89858
1569661903.91421
1569661903.92984
1569661903.94546
1569661903.96109
1569661903.97671
1569661903.99234
1569661904.00796
1569661904.02359
1569661904.03922
1569661904.05484
1569661904.07047
1569661904.08609
1569661904.10172
1569661904.11734
1569661904.13297
1569661904.1486
1569661904.16422
1569661904.17985
1569661904.19547
1569661904.2111
1569661904.22672
1569661904.24235
1569661904.25798
1569661904.2736
1569661904.28923
1569661904.30485
1569661904.32048
1569661904.3361
1569661904.35173
1569661904.36736
1569661904.38298
1569661904.39861
1569661904.41423
1569661904.42986
1569661904.44548
1569661904.46111
1569661904.47674
1569661904.49236
1569661904.50799
1569661904.52361
1569661904.53924
1569661904.55487
1569661904.57049
1569661904.58612
1569661904.60174
1569661904.61737
1569661904.63299
1569661904.64862
1569661904.66425
1569661904.67987
1569661904.6955
1569661904.71112
1569661904.72675
1569661904.74237
1569661904.758
1569661904.77363
1569661904.78925
1569661904.80488
1569661904.8205
1569661904.83613
1569661904.85175
1569661904.86738
1569661904.88301
1569661904.89863
1569661904.91426
1569661904.92988
1569661904.94551
1569661904.96113
1569661904.97676
1569661904.99239
1569661905.00801
1569661905.02364
1569661905.03926
1569661905.05489
1569661905.07051
1569661905.08614
1569661905.10177
1569661905.11739
1569661905.13302
1569661905.14864
1569661905.16427
1569661905.17989
1569661905.19552
1569661905.21115
1569661905.22677
1569661905.2424
1569661905.25802
1569661905.27365
1569661905.28927
1569661905.3049
1569661905.32053
1569661905.33615
1569661905.35178
1569661905.3674
1569661905.38303
1569661905.39865
1569661905.41428
1569661905.42991
1569661905.44553
1569661905.46116
1569661905.47678
1569661905.49241
1569661905.50803
1569661905.52366
1569661905.53929
1569661905.55491
1569661905.57054
1569661905.58616
1569661905.60179
1569661905.61741
1569661905.63304
1569661905.64867
1569661905.66429
1569661905.67992
1569661905.69554
1569661905.71117
1569661905.72679
1569661905.74242
1569661905.75805
1569661905.77367
1569661905.7893
1569661905.80492
1569661905.82055
1569661905.83617
1569661905.8518
1569661905.86743
1569661905.88305
1569661905.89868
1569661905.9143
1569661905.92993
1569661905.94555
1569661905.96118
1569661905.97681
1569661905.99243
1569661906.00806
1569661906.02368
1569661906.03931
1569661906.05493
1569661906.07056
1569661906.08619
1569661906.10181
1569661906.11744
1569661906.13306
1569661906.14869
1569661906.16431
1569661906.17994
1569661906.19557
1569661906.21119
1569661906.22682
1569661906.24244
1569661906.25807
1569661906.27369
1569661906.28932
1569661906.30495
1569661906.32057
1569661906.3362
1569661906.35182
1569661906.36745
1569661906.38307
1569661906.3987
1569661906.41433
1569661906.42995
1569661906.44558
1569661906.4612
1569661906.47683
1569661906.49245
1569661906.50808
1569661906.52371
1569661906.53933
1569661906.55496
1569661906.57058
1569661906.58621
1569661906.60183
1569661906.61746
1569661906.63309
1569661906.64871
1569661906.66434
1569661906.67996
1569661906.69559
1569661906.71121
1569661906.72684
1569661906.74247
1569661906.75809
1569661906.77372
1569661906.78934
1569661906.80497
1569661906.8206
1569661906.83622
1569661906.85185
1569661906.86747
1569661906.8831
1569661906.89872
1569661906.91435
1569661906.92998
1569661906.9456
1569661906.96123
1569661906.97685
1569661906.99248
1569661907.0081
1569661907.02373
1569661907.03936
1569661907.05498
1569661907.07061
1569661907.08623
1569661907.10186
1569661907.11748
1569661907.13311
1569661907.14874
1569661907.16436
1569661907.17999
1569661907.19561
1569661907.21124
1569661907.22686
1569661907.24249
1569661907.25812
1569661907.27374
1569661907.28937
1569661907.30499
1569661907.32062
1569661907.33624
1569661907.35187
1569661907.3675
1569661907.38312
1569661907.39875
1569661907.41437
1569661907.43
1569661907.44562
1569661907.46125
1569661907.47688
1569661907.4925
1569661907.50813
1569661907.52375
1569661907.53938
1569661907.555
1569661907.57063
1569661907.58626
1569661907.60188
1569661907.61751
1569661907.63313
1569661907.64876
1569661907.66438
1569661907.68001
1569661907.69564
1569661907.71126
1569661907.72689
1569661907.74251
1569661907.75814
1569661907.77376
1569661907.78939
1569661907.80502
1569661907.82064
1569661907.83627
1569661907.85189
1569661907.86752
1569661907.88314
1569661907.89877
1569661907.9144
1569661907.93002
1569661907.94565
1569661907.96127
1569661907.9769
1569661907.99252
1569661908.00815
1569661908.02378
1569661908.0394
1569661908.05503
1569661908.07065
1569661908.08628
1569661908.1019
1569661908.11753
1569661908.13316
1569661908.14878
1569661908.16441
1569661908.18003
1569661908.19566
1569661908.21128
1569661908.22691
1569661908.24254
1569661908.25816
1569661908.27379
1569661908.28941
1569661908.30504
1569661908.32066
1569661908.33629
1569661908.35192
1569661908.36754
1569661908.38317
1569661908.39879
1569661908.41442
1569661908.43004
1569661908.44567
1569661908.4613
1569661908.47692
1569661908.49255
1569661908.50817
1569661908.5238
1569661908.53942
1569661908.55505
1569661908.57068
1569661908.5863
1569661908.60193
1569661908.61755
1569661908.63318
1569661908.6488
1569661908.66443
1569661908.68006
1569661908.69568
1569661908.71131
1569661908.72693
1569661908.74256
1569661908.75818
1569661908.77381
1569661908.78944
1569661908.80506
1569661908.82069
1569661908.83631
1569661908.85194
1569661908.86756
1569661908.88319
1569661908.89882
1569661908.91444
1569661908.93007
1569661908.94569
1569661908.96132
1569661908.97694
1569661908.99257
1569661909.0082
1569661909.02382
1569661909.03945
1569661909.05507
1569661909.0707
1569661909.08632
1569661909.10195
1569661909.11758
1569661909.1332
1569661909.14883
1569661909.16445
1569661909.18008
1569661909.1957
1569661909.21133
1569661909.22696
1569661909.24258
1569661909.25821
1569661909.27383
1569661909.28946
1569661909.30508
1569661909.32071
1569661909.33634
1569661909.35196
1569661909.36759
1569661909.38321
1569661909.39884
1569661909.41446
1569661909.43009
1569661909.44572
1569661909.46134
1569661909.47697
1569661909.49259
1569661909.50822
1569661909.52385
1569661909.53947
1569661909.5551
1569661909.57072
1569661909.58635
1569661909.60197
1569661909.6176
1569661909.63323
1569661909.64885
1569661909.66448
1569661909.6801
1569661909.69573
1569661909.71135
1569661909.72698
1569661909.74261
1569661909.75823
1569661909.77386
1569661909.78948
1569661909.80511
1569661909.82073
1569661909.83636
1569661909.85199
1569661909.86761
1569661909.88324
1569661909.89886
1569661909.91449
1569661909.93011
1569661909.94574
1569661909.96137
1569661909.97699
1569661909.99262
1569661910.00824
1569661910.02387
1569661910.03949
1569661910.05512
1569661910.07075
1569661910.08637
1569661910.102
1569661910.11762
1569661910.13325
1569661910.14887
1569661910.1645
1569661910.18013
1569661910.19575
1569661910.21138
1569661910.227
1569661910.24263
1569661910.25825
1569661910.27388
1569661910.28951
1569661910.30513
1569661910.32076
1569661910.33638
1569661910.35201
1569661910.36763
1569661910.38326
1569661910.39889
1569661910.41451
1569661910.43014
1569661910.44576
1569661910.46139
1569661910.47701
1569661910.49264
1569661910.50827
1569661910.52389
1569661910.53952
1569661910.55514
1569661910.57077
1569661910.58639
1569661910.60202
1569661910.61765
1569661910.63327
1569661910.6489
1569661910.66452
1569661910.68015
1569661910.69577
1569661910.7114
1569661910.72703
1569661910.74265
1569661910.75828
1569661910.7739
1569661910.78953
1569661910.80515
1569661910.82078
1569661910.83641
1569661910.85203
1569661910.86766
1569661910.88328
1569661910.89891
1569661910.91453
1569661910.93016
1569661910.94579
1569661910.96141
1569661910.97704
1569661910.99266
1569661911.00829
1569661911.02391
1569661911.03954
1569661911.05517
1569661911.07079
1569661911.08642
1569661911.10204
1569661911.11767
1569661911.13329
1569661911.14892
1569661911.16455
1569661911.18017
1569661911.1958
1569661911.21142
1569661911.22705
1569661911.24267
1569661911.2583
1569661911.27393
1569661911.28955
1569661911.30518
1569661911.3208
1569661911.33643
1569661911.35205
1569661911.36768
1569661911.38331
1569661911.39893
1569661911.41456
1569661911.43018
1569661911.44581
1569661911.46143
1569661911.47706
1569661911.49269
1569661911.50831
1569661911.52394
1569661911.53956
1569661911.55519
1569661911.57081
1569661911.58644
1569661911.60207
1569661911.61769
1569661911.63332
1569661911.64894
1569661911.66457
1569661911.6802
1569661911.69582
1569661911.71145
1569661911.72707
1569661911.7427
1569661911.75832
1569661911.77395
1569661911.78958
1569661911.8052
1569661911.82083
1569661911.83645
1569661911.85208
1569661911.8677
1569661911.88333
1569661911.89896
1569661911.91458
1569661911.93021
1569661911.94583
1569661911.96146
1569661911.97708
1569661911.99271
1569661912.00834
1569661912.02396
1569661912.03959
1569661912.05521
1569661912.07084
1569661912.08646
1569661912.10209
1569661912.11772
1569661912.13334
1569661912.14897
1569661912.16459
1569661912.18022
1569661912.19584
1569661912.21147
1569661912.2271
1569661912.24272
1569661912.25835
1569661912.27397
1569661912.2896
1569661912.30522
1569661912.32085
1569661912.33648
1569661912.3521
1569661912.36773
1569661912.38335
1569661912.39898
1569661912.4146
1569661912.43023
1569661912.44586
1569661912.46148
1569661912.47711
1569661912.49273
1569661912.50836
1569661912.52398
1569661912.53961
1569661912.55524
1569661912.57086
1569661912.58649
1569661912.60211
1569661912.61774
1569661912.63336
1569661912.64899
1569661912.66462
1569661912.68024
1569661912.69587
1569661912.71149
1569661912.72712
1569661912.74274
1569661912.75837
1569661912.774
1569661912.78962
1569661912.80525
1569661912.82087
1569661912.8365
1569661912.85212
1569661912.86775
1569661912.88338
1569661912.899
1569661912.91463
1569661912.93025
1569661912.94588
1569661912.9615
1569661912.97713
1569661912.99276
1569661913.00838
1569661913.02401
1569661913.03963
1569661913.05526
1569661913.07088
1569661913.08651
1569661913.10214
1569661913.11776
1569661913.13339
1569661913.14901
1569661913.16464
1569661913.18026
1569661913.19589
1569661913.21152
1569661913.22714
1569661913.24277
1569661913.25839
1569661913.27402
1569661913.28964
1569661913.30527
1569661913.3209
1569661913.33652
1569661913.35215
1569661913.36777
1569661913.3834
1569661913.39902
1569661913.41465
1569661913.43028
1569661913.4459
1569661913.46153
1569661913.47715
1569661913.49278
1569661913.5084
1569661913.52403
1569661913.53966
1569661913.55528
1569661913.57091
1569661913.58653
1569661913.60216
1569661913.61778
1569661913.63341
1569661913.64904
1569661913.66466
1569661913.68029
1569661913.69591
1569661913.71154
1569661913.72716
1569661913.74279
1569661913.75842
1569661913.77404
1569661913.78967
1569661913.80529
1569661913.82092
1569661913.83654
1569661913.85217
1569661913.8678
1569661913.88342
1569661913.89905
1569661913.91467
1569661913.9303
1569661913.94593
1569661913.96155
1569661913.97718
1569661913.9928
1569661914.00843
1569661914.02405
1569661914.03968
1569661914.05531
1569661914.07093
1569661914.08656
1569661914.10218
1569661914.11781
1569661914.13343
1569661914.14906
1569661914.16469
1569661914.18031
1569661914.19594
1569661914.21156
1569661914.22719
1569661914.24281
1569661914.25844
1569661914.27407
1569661914.28969
1569661914.30532
1569661914.32094
1569661914.33657
1569661914.35219
1569661914.36782
1569661914.38345
1569661914.39907
1569661914.4147
1569661914.43032
1569661914.44595
1569661914.46157
1569661914.4772
1569661914.49283
1569661914.50845
1569661914.52408
1569661914.5397
1569661914.55533
1569661914.57095
1569661914.58658
1569661914.60221
1569661914.61783
1569661914.63346
1569661914.64908
1569661914.66471
1569661914.68033
1569661914.69596
1569661914.71159
1569661914.72721
1569661914.74284
1569661914.75846
1569661914.77409
1569661914.78971
1569661914.80534
1569661914.82097
1569661914.83659
1569661914.85222
1569661914.86784
1569661914.88347
1569661914.89909
1569661914.91472
1569661914.93035
1569661914.94597
1569661914.9616
1569661914.97722
1569661914.99285
1569661915.00847
1569661915.0241
1569661915.03973
1569661915.05535
1569661915.07098
1569661915.0866
1569661915.10223
1569661915.11785
1569661915.13348
1569661915.14911
1569661915.16473
1569661915.18036
1569661915.19598
1569661915.21161
1569661915.22723
1569661915.24286
1569661915.25849
1569661915.27411
1569661915.28974
1569661915.30536
1569661915.32099
1569661915.33661
1569661915.35224
1569661915.36787
1569661915.38349
1569661915.39912
1569661915.41474
1569661915.43037
1569661915.44599
1569661915.46162
1569661915.47725
1569661915.49287
1569661915.5085
1569661915.52412
1569661915.53975
1569661915.55537
1569661915.571
1569661915.58663
1569661915.60225
1569661915.61788
1569661915.6335
1569661915.64913
1569661915.66475
1569661915.68038
1569661915.69601
1569661915.71163
1569661915.72726
1569661915.74288
1569661915.75851
1569661915.77413
1569661915.78976
1569661915.80539
1569661915.82101
1569661915.83664
1569661915.85226
1569661915.86789
1569661915.88351
1569661915.89914
1569661915.91477
1569661915.93039
1569661915.94602
1569661915.96164
1569661915.97727
1569661915.99289
1569661916.00852
1569661916.02415
1569661916.03977
1569661916.0554
1569661916.07102
1569661916.08665
1569661916.10227
1569661916.1179
1569661916.13353
1569661916.14915
1569661916.16478
1569661916.1804
1569661916.19603
1569661916.21165
1569661916.22728
1569661916.24291
1569661916.25853
1569661916.27416
1569661916.28978
1569661916.30541
1569661916.32103
1569661916.33666
1569661916.35229
1569661916.36791
1569661916.38354
1569661916.39916
1569661916.41479
1569661916.43041
1569661916.44604
1569661916.46167
1569661916.47729
1569661916.49292
1569661916.50854
1569661916.52417
1569661916.5398
1569661916.55542
1569661916.57105
1569661916.58667
1569661916.6023
1569661916.61792
1569661916.63355
1569661916.64918
1569661916.6648
1569661916.68043
1569661916.69605
1569661916.71168
1569661916.7273
1569661916.74293
1569661916.75856
1569661916.77418
1569661916.78981
1569661916.80543
1569661916.82106
1569661916.83668
1569661916.85231
1569661916.86794
1569661916.88356
1569661916.89919
1569661916.91481
1569661916.93044
1569661916.94606
1569661916.96169
1569661916.97732
1569661916.99294
1569661917.00857
1569661917.02419
1569661917.03982
1569661917.05544
1569661917.07107
1569661917.0867
1569661917.10232
1569661917.11795
1569661917.13357
1569661917.1492
1569661917.16482
1569661917.18045
1569661917.19608
1569661917.2117
1569661917.22733
1569661917.24295
1569661917.25858
1569661917.2742
1569661917.28983
1569661917.30546
1569661917.32108
1569661917.33671
1569661917.35233
1569661917.36796
1569661917.38358
1569661917.39921
1569661917.41484
1569661917.43046
1569661917.44609
1569661917.46171
1569661917.47734
1569661917.49296
1569661917.50859
1569661917.52422
1569661917.53984
1569661917.55547
1569661917.57109
1569661917.58672
1569661917.60234
1569661917.61797
1569661917.6336
1569661917.64922
1569661917.66485
1569661917.68047
1569661917.6961
1569661917.71172
1569661917.72735
1569661917.74298
1569661917.7586
1569661917.77423
1569661917.78985
1569661917.80548
1569661917.8211
1569661917.83673
1569661917.85236
1569661917.86798
1569661917.88361
1569661917.89923
1569661917.91486
1569661917.93048
1569661917.94611
1569661917.96174
1569661917.97736
1569661917.99299
1569661918.00861
1569661918.02424
1569661918.03986
1569661918.05549
1569661918.07112
1569661918.08674
1569661918.10237
1569661918.11799
1569661918.13362
1569661918.14924
1569661918.16487
1569661918.1805
1569661918.19612
1569661918.21175
1569661918.22737
1569661918.243
1569661918.25862
1569661918.27425
1569661918.28988
1569661918.3055
1569661918.32113
1569661918.33675
1569661918.35238
1569661918.368
1569661918.38363
1569661918.39926
1569661918.41488
1569661918.43051
1569661918.44613
1569661918.46176
1569661918.47738
1569661918.49301
1569661918.50864
1569661918.52426
1569661918.53989
1569661918.55551
1569661918.57114
1569661918.58676
1569661918.60239
1569661918.61802
1569661918.63364
1569661918.64927
1569661918.66489
1569661918.68052
1569661918.69614
1569661918.71177
1569661918.7274
1569661918.74302
1569661918.75865
1569661918.77427
1569661918.7899
1569661918.80553
1569661918.82115
1569661918.83678
1569661918.8524
1569661918.86803
1569661918.88365
1569661918.89928
1569661918.91491
1569661918.93053
1569661918.94616
1569661918.96178
1569661918.97741
1569661918.99303
1569661919.00866
1569661919.02429
1569661919.03991
1569661919.05554
1569661919.07116
1569661919.08679
1569661919.10241
1569661919.11804
1569661919.13367
1569661919.14929
1569661919.16492
1569661919.18054
1569661919.19617
1569661919.21179
1569661919.22742
1569661919.24305
1569661919.25867
1569661919.2743
1569661919.28992
1569661919.30555
1569661919.32117
1569661919.3368
1569661919.35243
1569661919.36805
1569661919.38368
1569661919.3993
1569661919.41493
1569661919.43055
1569661919.44618
1569661919.46181
1569661919.47743
1569661919.49306
1569661919.50868
1569661919.52431
1569661919.53993
1569661919.55556
1569661919.57119
1569661919.58681
1569661919.60244
1569661919.61806
1569661919.63369
1569661919.64931
1569661919.66494
1569661919.68057
1569661919.69619
1569661919.71182
1569661919.72744
1569661919.74307
1569661919.75869
1569661919.77432
1569661919.78995
1569661919.80557
1569661919.8212
1569661919.83682
1569661919.85245
1569661919.86807
1569661919.8837
1569661919.89933
1569661919.91495
1569661919.93058
1569661919.9462
1569661919.96183
1569661919.97745
1569661919.99308
1569661920.00871
1569661920.02433
1569661920.03996
1569661920.05558
1569661920.07121
1569661920.08683
1569661920.10246
1569661920.11809
1569661920.13371
1569661920.14934
1569661920.16496
1569661920.18059
1569661920.19621
1569661920.21184
1569661920.22747
1569661920.24309
1569661920.25872
1569661920.27434
1569661920.28997
1569661920.30559
1569661920.32122
1569661920.33685
1569661920.35247
1569661920.3681
1569661920.38372
1569661920.39935
1569661920.41497
1569661920.4306
1569661920.44623
1569661920.46185
1569661920.47748
1569661920.4931
1569661920.50873
1569661920.52435
1569661920.53998
1569661920.55561
1569661920.57123
1569661920.58686
1569661920.60248
1569661920.61811
1569661920.63373
1569661920.64936
1569661920.66499
1569661920.68061
1569661920.69624
1569661920.71186
1569661920.72749
1569661920.74311
1569661920.75874
1569661920.77437
1569661920.78999
1569661920.80562
1569661920.82124
1569661920.83687
1569661920.85249
1569661920.86812
1569661920.88375
1569661920.89937
1569661920.915
1569661920.93062
1569661920.94625
1569661920.96187
1569661920.9775
1569661920.99313
1569661921.00875
1569661921.02438
1569661921.04
1569661921.05563
1569661921.07125
1569661921.08688
1569661921.10251
1569661921.11813
1569661921.13376
1569661921.14938
1569661921.16501
1569661921.18063
1569661921.19626
1569661921.21189
1569661921.22751
1569661921.24314
1569661921.25876
1569661921.27439
1569661921.29001
1569661921.30564
1569661921.32127
1569661921.33689
1569661921.35252
1569661921.36814
1569661921.38377
1569661921.3994
1569661921.41502
1569661921.43065
1569661921.44627
1569661921.4619
1569661921.47752
1569661921.49315
1569661921.50878
1569661921.5244
1569661921.54003
1569661921.55565
1569661921.57128
1569661921.5869
1569661921.60253
1569661921.61816
1569661921.63378
1569661921.64941
1569661921.66503
1569661921.68066
1569661921.69628
1569661921.71191
1569661921.72754
1569661921.74316
1569661921.75879
1569661921.77441
1569661921.79004
1569661921.80566
1569661921.82129
1569661921.83692
1569661921.85254
1569661921.86817
1569661921.88379
1569661921.89942
1569661921.91504
1569661921.93067
1569661921.9463
1569661921.96192
1569661921.97755
1569661921.99317
1569661922.0088
1569661922.02442
1569661922.04005
1569661922.05568
1569661922.0713
1569661922.08693
1569661922.10255
1569661922.11818
1569661922.1338
1569661922.14943
1569661922.16506
1569661922.18068
1569661922.19631
1569661922.21193
1569661922.22756
1569661922.24318
1569661922.25881
1569661922.27444
1569661922.29006
1569661922.30569
1569661922.32131
1569661922.33694
1569661922.35256
1569661922.36819
1569661922.38382
1569661922.39944
1569661922.41507
1569661922.43069
1569661922.44632
1569661922.46194
1569661922.47757
1569661922.4932
1569661922.50882
1569661922.52445
1569661922.54007
1569661922.5557
1569661922.57132
1569661922.58695
1569661922.60258
1569661922.6182
1569661922.63383
1569661922.64945
1569661922.66508
1569661922.6807
1569661922.69633
1569661922.71196
1569661922.72758
1569661922.74321
1569661922.75883
1569661922.77446
1569661922.79008
1569661922.80571
1569661922.82134
1569661922.83696
1569661922.85259
1569661922.86821
1569661922.88384
1569661922.89946
1569661922.91509
1569661922.93072
1569661922.94634
1569661922.96197
1569661922.97759
1569661922.99322
1569661923.00884
1569661923.02447
1569661923.0401
1569661923.05572
1569661923.07135
1569661923.08697
1569661923.1026
1569661923.11822
1569661923.13385
1569661923.14948
1569661923.1651
1569661923.18073
1569661923.19635
1569661923.21198
1569661923.2276
1569661923.24323
1569661923.25886
1569661923.27448
1569661923.29011
1569661923.30573
1569661923.32136
1569661923.33698
1569661923.35261
1569661923.36824
1569661923.38386
1569661923.39949
1569661923.41511
1569661923.43074
1569661923.44636
1569661923.46199
1569661923.47762
1569661923.49324
1569661923.50887
1569661923.52449
1569661923.54012
1569661923.55574
1569661923.57137
1569661923.587
1569661923.60262
1569661923.61825
1569661923.63387
1569661923.6495
1569661923.66513
1569661923.68075
1569661923.69638
1569661923.712
1569661923.72763
1569661923.74325
1569661923.75888
1569661923.77451
1569661923.79013
1569661923.80576
1569661923.82138
1569661923.83701
1569661923.85263
1569661923.86826
1569661923.88389
1569661923.89951
1569661923.91514
1569661923.93076
1569661923.94639
1569661923.96201
1569661923.97764
1569661923.99327
1569661924.00889
1569661924.02452
1569661924.04014
1569661924.05577
1569661924.07139
1569661924.08702
1569661924.10265
1569661924.11827
1569661924.1339
1569661924.14952
1569661924.16515
1569661924.18077
1569661924.1964
1569661924.21203
1569661924.22765
1569661924.24328
1569661924.2589
1569661924.27453
1569661924.29015
1569661924.30578
1569661924.32141
1569661924.33703
1569661924.35266
1569661924.36828
1569661924.38391
1569661924.39953
1569661924.41516
1569661924.43079
1569661924.44641
1569661924.46204
1569661924.47766
1569661924.49329
1569661924.50891
1569661924.52454
1569661924.54017
1569661924.55579
1569661924.57142
1569661924.58704
1569661924.60267
1569661924.61829
1569661924.63392
1569661924.64955
1569661924.66517
1569661924.6808
1569661924.69642
1569661924.71205
1569661924.72767
1569661924.7433
1569661924.75893
1569661924.77455
1569661924.79018
1569661924.8058
1569661924.82143
1569661924.83705
1569661924.85268
1569661924.86831
1569661924.88393
1569661924.89956
1569661924.91518
1569661924.93081
1569661924.94643
1569661924.96206
1569661924.97769
1569661924.99331
1569661925.00894
1569661925.02456
1569661925.04019
1569661925.05581
1569661925.07144
1569661925.08707
1569661925.10269
1569661925.11832
1569661925.13394
1569661925.14957
1569661925.16519
1569661925.18082
1569661925.19645
1569661925.21207
1569661925.2277
1569661925.24332
1569661925.25895
1569661925.27457
1569661925.2902
1569661925.30583
1569661925.32145
1569661925.33708
1569661925.3527
1569661925.36833
1569661925.38395
1569661925.39958
1569661925.41521
1569661925.43083
1569661925.44646
1569661925.46208
1569661925.47771
1569661925.49333
1569661925.50896
1569661925.52459
1569661925.54021
1569661925.55584
1569661925.57146
1569661925.58709
1569661925.60271
1569661925.61834
1569661925.63397
1569661925.64959
1569661925.66522
1569661925.68084
1569661925.69647
1569661925.71209
1569661925.72772
1569661925.74335
1569661925.75897
1569661925.7746
1569661925.79022
1569661925.80585
1569661925.82148
1569661925.8371
1569661925.85273
1569661925.86835
1569661925.88398
1569661925.8996
1569661925.91523
1569661925.93086
1569661925.94648
1569661925.96211
1569661925.97773
1569661925.99336
1569661926.00898
1569661926.02461
1569661926.04024
1569661926.05586
1569661926.07149
1569661926.08711
1569661926.10274
1569661926.11836
1569661926.13399
1569661926.14962
1569661926.16524
1569661926.18087
1569661926.19649
1569661926.21212
1569661926.22774
1569661926.24337
1569661926.259
1569661926.27462
1569661926.29025
1569661926.30587
1569661926.3215
1569661926.33712
1569661926.35275
1569661926.36838
1569661926.384
1569661926.39963
1569661926.41525
1569661926.43088
1569661926.4465
1569661926.46213
1569661926.47776
1569661926.49338
1569661926.50901
1569661926.52463
1569661926.54026
1569661926.55588
1569661926.57151
1569661926.58714
1569661926.60276
1569661926.61839
1569661926.63401
1569661926.64964
1569661926.66526
1569661926.68089
1569661926.69652
1569661926.71214
1569661926.72777
1569661926.74339
1569661926.75902
1569661926.77464
1569661926.79027
1569661926.8059
1569661926.82152
1569661926.83715
1569661926.85277
1569661926.8684
1569661926.88402
1569661926.89965
1569661926.91528
1569661926.9309
1569661926.94653
1569661926.96215
1569661926.97778
1569661926.9934
1569661927.00903
1569661927.02466
1569661927.04028
1569661927.05591
1569661927.07153
1569661927.08716
1569661927.10278
1569661927.11841
1569661927.13404
1569661927.14966
1569661927.16529
1569661927.18091
1569661927.19654
1569661927.21216
1569661927.22779
1569661927.24342
1569661927.25904
1569661927.27467
1569661927.29029
1569661927.30592
1569661927.32154
1569661927.33717
1569661927.3528
1569661927.36842
1569661927.38405
1569661927.39967
1569661927.4153
1569661927.43092
1569661927.44655
1569661927.46218
1569661927.4778
1569661927.49343
1569661927.50905
1569661927.52468
1569661927.5403
1569661927.55593
1569661927.57156
1569661927.58718
1569661927.60281
1569661927.61843
1569661927.63406
1569661927.64968
1569661927.66531
1569661927.68094
1569661927.69656
1569661927.71219
1569661927.72781
1569661927.74344
1569661927.75906
1569661927.77469
1569661927.79032
1569661927.80594
1569661927.82157
1569661927.83719
1569661927.85282
1569661927.86844
1569661927.88407
1569661927.8997
1569661927.91532
1569661927.93095
1569661927.94657
1569661927.9622
1569661927.97782
1569661927.99345
1569661928.00908
1569661928.0247
1569661928.04033
1569661928.05595
1569661928.07158
1569661928.0872
1569661928.10283
1569661928.11846
1569661928.13408
1569661928.14971
1569661928.16533
1569661928.18096
1569661928.19658
1569661928.21221
1569661928.22784
1569661928.24346
1569661928.25909
1569661928.27471
1569661928.29034
1569661928.30596
1569661928.32159
1569661928.33722
1569661928.35284
1569661928.36847
1569661928.38409
1569661928.39972
1569661928.41534
1569661928.43097
1569661928.4466
1569661928.46222
1569661928.47785
1569661928.49347
1569661928.5091
1569661928.52473
1569661928.54035
1569661928.55598
1569661928.5716
1569661928.58723
1569661928.60285
1569661928.61848
1569661928.63411
1569661928.64973
1569661928.66536
1569661928.68098
1569661928.69661
1569661928.71223
1569661928.72786
1569661928.74349
1569661928.75911
1569661928.77474
1569661928.79036
1569661928.80599
1569661928.82161
1569661928.83724
1569661928.85287
1569661928.86849
1569661928.88412
1569661928.89974
1569661928.91537
1569661928.93099
1569661928.94662
1569661928.96225
1569661928.97787
1569661928.9935
1569661929.00912
1569661929.02475
1569661929.04037
1569661929.056
1569661929.07163
1569661929.08725
1569661929.10288
1569661929.1185
1569661929.13413
1569661929.14975
1569661929.16538
1569661929.18101
1569661929.19663
1569661929.21226
1569661929.22788
1569661929.24351
1569661929.25913
1569661929.27476
1569661929.29039
1569661929.30601
1569661929.32164
1569661929.33726
1569661929.35289
1569661929.36851
1569661929.38414
1569661929.39977
1569661929.41539
1569661929.43102
1569661929.44664
1569661929.46227
1569661929.47789
1569661929.49352
1569661929.50915
1569661929.52477
1569661929.5404
1569661929.55602
1569661929.57165
1569661929.58727
1569661929.6029
1569661929.61853
1569661929.63415
1569661929.64978
1569661929.6654
1569661929.68103
1569661929.69665
1569661929.71228
1569661929.72791
1569661929.74353
1569661929.75916
1569661929.77478
1569661929.79041
1569661929.80603
1569661929.82166
1569661929.83729
1569661929.85291
1569661929.86854
1569661929.88416
1569661929.89979
1569661929.91541
1569661929.93104
1569661929.94667
1569661929.96229
1569661929.97792
1569661929.99354
1569661930.00917
1569661930.02479
1569661930.04042
1569661930.05605
1569661930.07167
1569661930.0873
1569661930.10292
1569661930.11855
1569661930.13417
1569661930.1498
1569661930.16543
1569661930.18105
1569661930.19668
1569661930.2123
1569661930.22793
1569661930.24355
1569661930.25918
1569661930.27481
1569661930.29043
1569661930.30606
1569661930.32168
1569661930.33731
1569661930.35293
1569661930.36856
1569661930.38419
1569661930.39981
1569661930.41544
1569661930.43106
1569661930.44669
1569661930.46231
1569661930.47794
1569661930.49357
1569661930.50919
1569661930.52482
1569661930.54044
1569661930.55607
1569661930.57169
1569661930.58732
1569661930.60295
1569661930.61857
1569661930.6342
1569661930.64982
1569661930.66545
1569661930.68108
1569661930.6967
1569661930.71233
1569661930.72795
1569661930.74358
1569661930.7592
1569661930.77483
1569661930.79046
1569661930.80608
1569661930.82171
1569661930.83733
1569661930.85296
1569661930.86858
1569661930.88421
1569661930.89984
1569661930.91546
1569661930.93109
1569661930.94671
1569661930.96234
1569661930.97796
1569661930.99359
1569661931.00922
1569661931.02484
1569661931.04047
1569661931.05609
1569661931.07172
1569661931.08734
1569661931.10297
1569661931.1186
1569661931.13422
1569661931.14985
1569661931.16547
1569661931.1811
1569661931.19672
1569661931.21235
1569661931.22798
1569661931.2436
1569661931.25923
1569661931.27485
1569661931.29048
1569661931.3061
1569661931.32173
1569661931.33736
1569661931.35298
1569661931.36861
1569661931.38423
1569661931.39986
1569661931.41548
1569661931.43111
1569661931.44674
1569661931.46236
1569661931.47799
1569661931.49361
1569661931.50924
1569661931.52486
1569661931.54049
1569661931.55612
1569661931.57174
1569661931.58737
1569661931.60299
1569661931.61862
1569661931.63424
1569661931.64987
1569661931.6655
1569661931.68112
1569661931.69675
1569661931.71237
1569661931.728
1569661931.74362
1569661931.75925
1569661931.77488
1569661931.7905
1569661931.80613
1569661931.82175
1569661931.83738
1569661931.853
1569661931.86863
1569661931.88426
1569661931.89988
1569661931.91551
1569661931.93113
1569661931.94676
1569661931.96238
1569661931.97801
1569661931.99364
1569661932.00926
1569661932.02489
1569661932.04051
1569661932.05614
1569661932.07176
1569661932.08739
1569661932.10302
1569661932.11864
1569661932.13427
1569661932.14989
1569661932.16552
1569661932.18114
1569661932.19677
1569661932.2124
1569661932.22802
1569661932.24365
1569661932.25927
1569661932.2749
1569661932.29052
1569661932.30615
1569661932.32178
1569661932.3374
1569661932.35303
1569661932.36865
1569661932.38428
1569661932.3999
1569661932.41553
1569661932.43116
1569661932.44678
1569661932.46241
1569661932.47803
1569661932.49366
1569661932.50928
1569661932.52491
1569661932.54054
1569661932.55616
1569661932.57179
1569661932.58741
1569661932.60304
1569661932.61866
1569661932.63429
1569661932.64992
1569661932.66554
1569661932.68117
1569661932.69679
1569661932.71242
1569661932.72804
1569661932.74367
1569661932.7593
1569661932.77492
1569661932.79055
1569661932.80617
1569661932.8218
1569661932.83742
1569661932.85305
1569661932.86868
1569661932.8843
1569661932.89993
1569661932.91555
1569661932.93118
1569661932.94681
1569661932.96243
1569661932.97806
1569661932.99368
1569661933.00931
1569661933.02493
1569661933.04056
1569661933.05619
1569661933.07181
1569661933.08744
1569661933.10306
1569661933.11869
1569661933.13431
1569661933.14994
1569661933.16557
1569661933.18119
1569661933.19682
1569661933.21244
1569661933.22807
1569661933.24369
1569661933.25932
1569661933.27495
1569661933.29057
1569661933.3062
1569661933.32182
1569661933.33745
1569661933.35307
1569661933.3687
1569661933.38433
1569661933.39995
1569661933.41558
1569661933.4312
1569661933.44683
1569661933.46245
1569661933.47808
1569661933.49371
1569661933.50933
1569661933.52496
1569661933.54058
1569661933.55621
1569661933.57183
1569661933.58746
1569661933.60309
1569661933.61871
1569661933.63434
1569661933.64996
1569661933.66559
1569661933.68121
1569661933.69684
1569661933.71247
1569661933.72809
1569661933.74372
1569661933.75934
1569661933.77497
1569661933.79059
1569661933.80622
1569661933.82185
1569661933.83747
1569661933.8531
1569661933.86872
1569661933.88435
1569661933.89997
1569661933.9156
1569661933.93123
1569661933.94685
1569661933.96248
1569661933.9781
1569661933.99373
1569661934.00935
1569661934.02498
1569661934.04061
1569661934.05623
1569661934.07186
1569661934.08748
1569661934.10311
1569661934.11873
1569661934.13436
1569661934.14999
1569661934.16561
1569661934.18124
1569661934.19686
1569661934.21249
1569661934.22811
1569661934.24374
1569661934.25937
1569661934.27499
1569661934.29062
1569661934.30624
1569661934.32187
1569661934.33749
1569661934.35312
1569661934.36875
1569661934.38437
1569661934.4
1569661934.41562
1569661934.43125
1569661934.44687
1569661934.4625
1569661934.47813
1569661934.49375
1569661934.50938
1569661934.525
1569661934.54063
1569661934.55625
1569661934.57188
1569661934.58751
1569661934.60313
1569661934.61876
1569661934.63438
1569661934.65001
1569661934.66563
1569661934.68126
1569661934.69689
1569661934.71251
1569661934.72814
1569661934.74376
1569661934.75939
1569661934.77501
1569661934.79064
1569661934.80627
1569661934.82189
1569661934.83752
1569661934.85314
1569661934.86877
1569661934.88439
1569661934.90002
1569661934.91565
1569661934.93127
1569661934.9469
1569661934.96252
1569661934.97815
1569661934.99377
1569661935.0094
1569661935.02503
1569661935.04065
1569661935.05628
1569661935.0719
1569661935.08753
1569661935.10315
1569661935.11878
1569661935.13441
1569661935.15003
1569661935.16566
1569661935.18128
1569661935.19691
1569661935.21253
1569661935.22816
1569661935.24379
1569661935.25941
1569661935.27504
1569661935.29066
1569661935.30629
1569661935.32191
1569661935.33754
1569661935.35317
1569661935.36879
1569661935.38442
1569661935.40004
1569661935.41567
1569661935.43129
1569661935.44692
1569661935.46255
1569661935.47817
1569661935.4938
1569661935.50942
1569661935.52505
1569661935.54067
1569661935.5563
1569661935.57193
1569661935.58755
1569661935.60318
1569661935.6188
1569661935.63443
1569661935.65006
1569661935.66568
1569661935.68131
1569661935.69693
1569661935.71256
1569661935.72818
1569661935.74381
1569661935.75944
1569661935.77506
1569661935.79069
1569661935.80631
1569661935.82194
1569661935.83756
1569661935.85319
1569661935.86882
1569661935.88444
1569661935.90007
1569661935.91569
1569661935.93132
1569661935.94694
1569661935.96257
1569661935.9782
1569661935.99382
1569661936.00945
1569661936.02507
1569661936.0407
1569661936.05632
1569661936.07195
1569661936.08758
1569661936.1032
1569661936.11883
1569661936.13445
1569661936.15008
1569661936.1657
1569661936.18133
1569661936.19696
1569661936.21258
1569661936.22821
1569661936.24383
1569661936.25946
1569661936.27508
1569661936.29071
1569661936.30634
1569661936.32196
1569661936.33759
1569661936.35321
1569661936.36884
1569661936.38446
1569661936.40009
1569661936.41572
1569661936.43134
1569661936.44697
1569661936.46259
1569661936.47822
1569661936.49384
1569661936.50947
1569661936.5251
1569661936.54072
1569661936.55635
1569661936.57197
1569661936.5876
1569661936.60322
1569661936.61885
1569661936.63448
1569661936.6501
1569661936.66573
1569661936.68135
1569661936.69698
1569661936.7126
1569661936.72823
1569661936.74386
1569661936.75948
1569661936.77511
1569661936.79073
1569661936.80636
1569661936.82198
1569661936.83761
1569661936.85324
1569661936.86886
1569661936.88449
1569661936.90011
1569661936.91574
1569661936.93136
1569661936.94699
1569661936.96262
1569661936.97824
1569661936.99387
1569661937.00949
1569661937.02512
1569661937.04074
1569661937.05637
1569661937.072
1569661937.08762
1569661937.10325
1569661937.11887
1569661937.1345
1569661937.15012
1569661937.16575
1569661937.18138
1569661937.197
1569661937.21263
1569661937.22825
1569661937.24388
1569661937.2595
1569661937.27513
1569661937.29076
1569661937.30638
1569661937.32201
1569661937.33763
1569661937.35326
1569661937.36888
1569661937.38451
1569661937.40014
1569661937.41576
1569661937.43139
1569661937.44701
1569661937.46264
1569661937.47826
1569661937.49389
1569661937.50952
1569661937.52514
1569661937.54077
1569661937.55639
1569661937.57202
1569661937.58764
1569661937.60327
1569661937.6189
1569661937.63452
1569661937.65015
1569661937.66577
1569661937.6814
1569661937.69702
1569661937.71265
1569661937.72828
1569661937.7439
1569661937.75953
1569661937.77515
1569661937.79078
1569661937.80641
1569661937.82203
1569661937.83766
1569661937.85328
1569661937.86891
1569661937.88453
1569661937.90016
1569661937.91579
1569661937.93141
1569661937.94704
1569661937.96266
1569661937.97829
1569661937.99391
1569661938.00954
1569661938.02517
1569661938.04079
1569661938.05642
1569661938.07204
1569661938.08767
1569661938.10329
1569661938.11892
1569661938.13455
1569661938.15017
1569661938.1658
1569661938.18142
1569661938.19705
1569661938.21267
1569661938.2283
1569661938.24393
1569661938.25955
1569661938.27518
1569661938.2908
1569661938.30643
1569661938.32205
1569661938.33768
1569661938.35331
1569661938.36893
1569661938.38456
1569661938.40018
1569661938.41581
1569661938.43143
1569661938.44706
1569661938.46269
1569661938.47831
1569661938.49394
1569661938.50956
1569661938.52519
1569661938.54081
1569661938.55644
1569661938.57207
1569661938.58769
1569661938.60332
1569661938.61894
1569661938.63457
1569661938.65019
1569661938.66582
1569661938.68145
1569661938.69707
1569661938.7127
1569661938.72832
1569661938.74395
1569661938.75957
1569661938.7752
1569661938.79083
1569661938.80645
1569661938.82208
1569661938.8377
1569661938.85333
1569661938.86895
1569661938.88458
1569661938.90021
1569661938.91583
1569661938.93146
1569661938.94708
1569661938.96271
1569661938.97833
1569661938.99396
1569661939.00959
1569661939.02521
1569661939.04084
1569661939.05646
1569661939.07209
1569661939.08771
1569661939.10334
1569661939.11897
1569661939.13459
1569661939.15022
1569661939.16584
1569661939.18147
1569661939.19709
1569661939.21272
1569661939.22835
1569661939.24397
1569661939.2596
1569661939.27522
1569661939.29085
1569661939.30647
1569661939.3221
1569661939.33773
1569661939.35335
1569661939.36898
1569661939.3846
1569661939.40023
1569661939.41585
1569661939.43148
1569661939.44711
1569661939.46273
1569661939.47836
1569661939.49398
1569661939.50961
1569661939.52523
1569661939.54086
1569661939.55649
1569661939.57211
1569661939.58774
1569661939.60336
1569661939.61899
1569661939.63461
1569661939.65024
1569661939.66587
1569661939.68149
1569661939.69712
1569661939.71274
1569661939.72837
1569661939.74399
1569661939.75962
1569661939.77525
1569661939.79087
1569661939.8065
1569661939.82212
1569661939.83775
1569661939.85337
1569661939.869
1569661939.88463
1569661939.90025
1569661939.91588
1569661939.9315
1569661939.94713
1569661939.96275
1569661939.97838
1569661939.99401
1569661940.00963
1569661940.02526
1569661940.04088
1569661940.05651
1569661940.07213
1569661940.08776
1569661940.10339
1569661940.11901
1569661940.13464
1569661940.15026
1569661940.16589
1569661940.18151
1569661940.19714
1569661940.21277
1569661940.22839
1569661940.24402
1569661940.25964
1569661940.27527
1569661940.29089
1569661940.30652
1569661940.32215
1569661940.33777
1569661940.3534
1569661940.36902
1569661940.38465
1569661940.40027
1569661940.4159
1569661940.43153
1569661940.44715
1569661940.46278
1569661940.4784
1569661940.49403
1569661940.50966
1569661940.52528
1569661940.54091
1569661940.55653
1569661940.57216
1569661940.58778
1569661940.60341
1569661940.61904
1569661940.63466
1569661940.65029
1569661940.66591
1569661940.68154
1569661940.69716
1569661940.71279
1569661940.72842
1569661940.74404
1569661940.75967
1569661940.77529
1569661940.79092
1569661940.80654
1569661940.82217
1569661940.8378
1569661940.85342
1569661940.86905
1569661940.88467
1569661940.9003
1569661940.91592
1569661940.93155
1569661940.94718
1569661940.9628
1569661940.97843
1569661940.99405
1569661941.00968
1569661941.0253
1569661941.04093
1569661941.05656
1569661941.07218
1569661941.08781
1569661941.10343
1569661941.11906
1569661941.13468
1569661941.15031
1569661941.16594
1569661941.18156
1569661941.19719
1569661941.21281
1569661941.22844
1569661941.24406
1569661941.25969
1569661941.27532
1569661941.29094
1569661941.30657
1569661941.32219
1569661941.33782
1569661941.35344
1569661941.36907
1569661941.3847
1569661941.40032
1569661941.41595
1569661941.43157
1569661941.4472
1569661941.46282
1569661941.47845
1569661941.49408
1569661941.5097
1569661941.52533
1569661941.54095
1569661941.55658
1569661941.5722
1569661941.58783
1569661941.60346
1569661941.61908
1569661941.63471
1569661941.65033
1569661941.66596
1569661941.68158
1569661941.69721
1569661941.71284
1569661941.72846
1569661941.74409
1569661941.75971
1569661941.77534
1569661941.79096
1569661941.80659
1569661941.82222
1569661941.83784
1569661941.85347
1569661941.86909
1569661941.88472
1569661941.90034
1569661941.91597
1569661941.9316
1569661941.94722
1569661941.96285
1569661941.97847
1569661941.9941
1569661942.00972
1569661942.02535
1569661942.04098
1569661942.0566
1569661942.07223
1569661942.08785
1569661942.10348
1569661942.1191
1569661942.13473
1569661942.15036
1569661942.16598
1569661942.18161
1569661942.19723
1569661942.21286
1569661942.22848
1569661942.24411
1569661942.25974
1569661942.27536
1569661942.29099
1569661942.30661
1569661942.32224
1569661942.33786
1569661942.35349
1569661942.36912
1569661942.38474
1569661942.40037
1569661942.41599
1569661942.43162
1569661942.44724
1569661942.46287
1569661942.4785
1569661942.49412
1569661942.50975
1569661942.52537
1569661942.541
1569661942.55662
1569661942.57225
1569661942.58788
1569661942.6035
1569661942.61913
1569661942.63475
1569661942.65038
1569661942.66601
1569661942.68163
1569661942.69726
1569661942.71288
1569661942.72851
1569661942.74413
1569661942.75976
1569661942.77539
1569661942.79101
1569661942.80664
1569661942.82226
1569661942.83789
1569661942.85351
1569661942.86914
1569661942.88477
1569661942.90039
1569661942.91602
1569661942.93164
1569661942.94727
1569661942.96289
1569661942.97852
1569661942.99415
1569661943.00977
1569661943.0254
1569661943.04102
1569661943.05665
1569661943.07227
1569661943.0879
1569661943.10353
1569661943.11915
1569661943.13478
1569661943.1504
1569661943.16603
1569661943.18165
1569661943.19728
1569661943.21291
1569661943.22853
1569661943.24416
1569661943.25978
1569661943.27541
1569661943.29103
1569661943.30666
1569661943.32229
1569661943.33791
1569661943.35354
1569661943.36916
1569661943.38479
1569661943.40041
1569661943.41604
1569661943.43167
1569661943.44729
1569661943.46292
1569661943.47854
1569661943.49417
1569661943.50979
1569661943.52542
1569661943.54105
1569661943.55667
1569661943.5723
1569661943.58792
1569661943.60355
1569661943.61917
1569661943.6348
1569661943.65043
1569661943.66605
1569661943.68168
1569661943.6973
1569661943.71293
1569661943.72855
1569661943.74418
1569661943.75981
1569661943.77543
1569661943.79106
1569661943.80668
1569661943.82231
1569661943.83793
1569661943.85356
1569661943.86919
1569661943.88481
1569661943.90044
1569661943.91606
1569661943.93169
1569661943.94731
1569661943.96294
1569661943.97857
1569661943.99419
1569661944.00982
1569661944.02544
1569661944.04107
1569661944.05669
1569661944.07232
1569661944.08795
1569661944.10357
1569661944.1192
1569661944.13482
1569661944.15045
1569661944.16607
1569661944.1817
1569661944.19733
1569661944.21295
1569661944.22858
1569661944.2442
1569661944.25983
1569661944.27545
1569661944.29108
1569661944.30671
1569661944.32233
1569661944.33796
1569661944.35358
1569661944.36921
1569661944.38483
1569661944.40046
1569661944.41609
1569661944.43171
1569661944.44734
1569661944.46296
1569661944.47859
1569661944.49421
1569661944.50984
1569661944.52547
1569661944.54109
1569661944.55672
1569661944.57234
1569661944.58797
1569661944.60359
1569661944.61922
1569661944.63485
1569661944.65047
1569661944.6661
1569661944.68172
1569661944.69735
1569661944.71297
1569661944.7286
1569661944.74423
1569661944.75985
1569661944.77548
1569661944.7911
1569661944.80673
1569661944.82235
1569661944.83798
1569661944.85361
1569661944.86923
1569661944.88486
1569661944.90048
1569661944.91611
1569661944.93174
1569661944.94736
1569661944.96299
1569661944.97861
1569661944.99424
1569661945.00986
1569661945.02549
1569661945.04112
1569661945.05674
1569661945.07237
1569661945.08799
1569661945.10362
1569661945.11924
1569661945.13487
1569661945.1505
1569661945.16612
1569661945.18175
1569661945.19737
1569661945.213
1569661945.22862
1569661945.24425
1569661945.25988
1569661945.2755
1569661945.29113
1569661945.30675
1569661945.32238
1569661945.338
1569661945.35363
1569661945.36926
1569661945.38488
1569661945.40051
1569661945.41613
1569661945.43176
1569661945.44738
1569661945.46301
1569661945.47864
1569661945.49426
1569661945.50989
1569661945.52551
1569661945.54114
1569661945.55676
1569661945.57239
1569661945.58802
1569661945.60364
1569661945.61927
1569661945.63489
1569661945.65052
1569661945.66614
1569661945.68177
1569661945.6974
1569661945.71302
1569661945.72865
1569661945.74427
1569661945.7599
1569661945.77552
1569661945.79115
1569661945.80678
1569661945.8224
1569661945.83803
1569661945.85365
1569661945.86928
1569661945.8849
1569661945.90053
1569661945.91616
1569661945.93178
1569661945.94741
1569661945.96303
1569661945.97866
1569661945.99428
1569661946.00991
1569661946.02554
1569661946.04116
1569661946.05679
1569661946.07241
1569661946.08804
1569661946.10366
1569661946.11929
1569661946.13492
1569661946.15054
1569661946.16617
1569661946.18179
1569661946.19742
1569661946.21304
1569661946.22867
1569661946.2443
1569661946.25992
1569661946.27555
1569661946.29117
1569661946.3068
1569661946.32242
1569661946.33805
1569661946.35368
1569661946.3693
1569661946.38493
1569661946.40055
1569661946.41618
1569661946.4318
1569661946.44743
1569661946.46306
1569661946.47868
1569661946.49431
1569661946.50993
1569661946.52556
1569661946.54118
1569661946.55681
1569661946.57244
1569661946.58806
1569661946.60369
1569661946.61931
1569661946.63494
1569661946.65056
1569661946.66619
1569661946.68182
1569661946.69744
1569661946.71307
1569661946.72869
1569661946.74432
1569661946.75994
1569661946.77557
1569661946.7912
1569661946.80682
1569661946.82245
1569661946.83807
1569661946.8537
1569661946.86932
1569661946.88495
1569661946.90058
1569661946.9162
1569661946.93183
1569661946.94745
1569661946.96308
1569661946.9787
1569661946.99433
1569661947.00996
1569661947.02558
1569661947.04121
1569661947.05683
1569661947.07246
1569661947.08808
1569661947.10371
1569661947.11934
1569661947.13496
1569661947.15059
1569661947.16621
1569661947.18184
1569661947.19746
1569661947.21309
1569661947.22872
1569661947.24434
1569661947.25997
1569661947.27559
1569661947.29122
1569661947.30684
1569661947.32247
1569661947.3381
1569661947.35372
1569661947.36935
1569661947.38497
1569661947.4006
1569661947.41622
1569661947.43185
1569661947.44748
1569661947.4631
1569661947.47873
1569661947.49435
1569661947.50998
1569661947.52561
1569661947.54123
1569661947.55686
1569661947.57248
1569661947.58811
1569661947.60373
1569661947.61936
1569661947.63499
1569661947.65061
1569661947.66624
1569661947.68186
1569661947.69749
1569661947.71311
1569661947.72874
1569661947.74437
1569661947.75999
1569661947.77562
1569661947.79124
1569661947.80687
1569661947.82249
1569661947.83812
1569661947.85375
1569661947.86937
1569661947.885
1569661947.90062
1569661947.91625
1569661947.93187
1569661947.9475
1569661947.96313
1569661947.97875
1569661947.99438
1569661948.01
1569661948.02563
1569661948.04125
1569661948.05688
1569661948.07251
1569661948.08813
1569661948.10376
1569661948.11938
1569661948.13501
1569661948.15063
1569661948.16626
1569661948.18189
1569661948.19751
1569661948.21314
1569661948.22876
1569661948.24439
1569661948.26001
1569661948.27564
1569661948.29127
1569661948.30689
1569661948.32252
1569661948.33814
1569661948.35377
1569661948.36939
1569661948.38502
1569661948.40065
1569661948.41627
1569661948.4319
1569661948.44752
1569661948.46315
1569661948.47877
1569661948.4944
1569661948.51003
1569661948.52565
1569661948.54128
1569661948.5569
1569661948.57253
1569661948.58815
1569661948.60378
1569661948.61941
1569661948.63503
1569661948.65066
1569661948.66628
1569661948.68191
1569661948.69753
1569661948.71316
1569661948.72879
1569661948.74441
1569661948.76004
1569661948.77566
1569661948.79129
1569661948.80691
1569661948.82254
1569661948.83817
1569661948.85379
1569661948.86942
1569661948.88504
1569661948.90067
1569661948.91629
1569661948.93192
1569661948.94755
1569661948.96317
1569661948.9788
1569661948.99442
1569661949.01005
1569661949.02567
1569661949.0413
1569661949.05693
1569661949.07255
1569661949.08818
1569661949.1038
1569661949.11943
1569661949.13505
1569661949.15068
1569661949.16631
1569661949.18193
1569661949.19756
1569661949.21318
1569661949.22881
1569661949.24443
1569661949.26006
1569661949.27569
1569661949.29131
1569661949.30694
1569661949.32256
1569661949.33819
1569661949.35381
1569661949.36944
1569661949.38507
1569661949.40069
1569661949.41632
1569661949.43194
1569661949.44757
1569661949.46319
1569661949.47882
1569661949.49445
1569661949.51007
1569661949.5257
1569661949.54132
1569661949.55695
1569661949.57257
1569661949.5882
1569661949.60383
1569661949.61945
1569661949.63508
1569661949.6507
1569661949.66633
1569661949.68195
1569661949.69758
1569661949.71321
1569661949.72883
1569661949.74446
1569661949.76008
1569661949.77571
1569661949.79134
1569661949.80696
1569661949.82259
1569661949.83821
1569661949.85384
1569661949.86946
1569661949.88509
1569661949.90072
1569661949.91634
1569661949.93197
1569661949.94759
1569661949.96322
1569661949.97884
1569661949.99447
1569661950.0101
1569661950.02572
1569661950.04135
1569661950.05697
1569661950.0726
1569661950.08822
1569661950.10385
1569661950.11948
1569661950.1351
1569661950.15073
1569661950.16635
1569661950.18198
1569661950.1976
1569661950.21323
1569661950.22886
1569661950.24448
1569661950.26011
1569661950.27573
1569661950.29136
1569661950.30698
1569661950.32261
1569661950.33824
1569661950.35386
1569661950.36949
1569661950.38511
1569661950.40074
1569661950.41636
1569661950.43199
1569661950.44762
1569661950.46324
1569661950.47887
1569661950.49449
1569661950.51012
1569661950.52574
1569661950.54137
1569661950.557
1569661950.57262
1569661950.58825
1569661950.60387
1569661950.6195
1569661950.63512
1569661950.65075
1569661950.66638
1569661950.682
1569661950.69763
1569661950.71325
1569661950.72888
1569661950.7445
1569661950.76013
1569661950.77576
1569661950.79138
1569661950.80701
1569661950.82263
1569661950.83826
1569661950.85388
1569661950.86951
1569661950.88514
1569661950.90076
1569661950.91639
1569661950.93201
1569661950.94764
1569661950.96326
1569661950.97889
1569661950.99452
1569661951.01014
1569661951.02577
1569661951.04139
1569661951.05702
1569661951.07264
1569661951.08827
1569661951.1039
1569661951.11952
1569661951.13515
1569661951.15077
1569661951.1664
1569661951.18202
1569661951.19765
1569661951.21328
1569661951.2289
1569661951.24453
1569661951.26015
1569661951.27578
1569661951.2914
1569661951.30703
1569661951.32266
1569661951.33828
1569661951.35391
1569661951.36953
1569661951.38516
1569661951.40078
1569661951.41641
1569661951.43204
1569661951.44766
1569661951.46329
1569661951.47891
1569661951.49454
1569661951.51016
1569661951.52579
1569661951.54142
1569661951.55704
1569661951.57267
1569661951.58829
1569661951.60392
1569661951.61954
1569661951.63517
1569661951.6508
1569661951.66642
1569661951.68205
1569661951.69767
1569661951.7133
1569661951.72892
1569661951.74455
1569661951.76018
1569661951.7758
1569661951.79143
1569661951.80705
1569661951.82268
1569661951.8383
1569661951.85393
1569661951.86956
1569661951.88518
1569661951.90081
1569661951.91643
1569661951.93206
1569661951.94769
1569661951.96331
1569661951.97894
1569661951.99456
1569661952.01019
1569661952.02581
1569661952.04144
1569661952.05707
1569661952.07269
1569661952.08832
1569661952.10394
1569661952.11957
1569661952.13519
1569661952.15082
1569661952.16645
1569661952.18207
1569661952.1977
1569661952.21332
1569661952.22895
1569661952.24457
1569661952.2602
1569661952.27583
1569661952.29145
1569661952.30708
1569661952.3227
1569661952.33833
1569661952.35395
1569661952.36958
1569661952.38521
1569661952.40083
1569661952.41646
1569661952.43208
1569661952.44771
1569661952.46333
1569661952.47896
1569661952.49459
1569661952.51021
1569661952.52584
1569661952.54146
1569661952.55709
1569661952.57271
1569661952.58834
1569661952.60397
1569661952.61959
1569661952.63522
1569661952.65084
1569661952.66647
1569661952.68209
1569661952.69772
1569661952.71335
1569661952.72897
1569661952.7446
1569661952.76022
1569661952.77585
1569661952.79147
1569661952.8071
1569661952.82273
1569661952.83835
1569661952.85398
1569661952.8696
1569661952.88523
1569661952.90085
1569661952.91648
1569661952.93211
1569661952.94773
1569661952.96336
1569661952.97898
1569661952.99461
1569661953.01023
1569661953.02586
1569661953.04149
1569661953.05711
1569661953.07274
1569661953.08836
1569661953.10399
1569661953.11961
1569661953.13524
1569661953.15087
1569661953.16649
1569661953.18212
1569661953.19774
1569661953.21337
1569661953.22899
1569661953.24462
1569661953.26025
1569661953.27587
1569661953.2915
1569661953.30712
1569661953.32275
1569661953.33837
1569661953.354
1569661953.36963
1569661953.38525
1569661953.40088
1569661953.4165
1569661953.43213
1569661953.44775
1569661953.46338
1569661953.47901
1569661953.49463
1569661953.51026
1569661953.52588
1569661953.54151
1569661953.55713
1569661953.57276
1569661953.58839
1569661953.60401
1569661953.61964
1569661953.63526
1569661953.65089
1569661953.66651
1569661953.68214
1569661953.69777
1569661953.71339
1569661953.72902
1569661953.74464
1569661953.76027
1569661953.77589
1569661953.79152
1569661953.80715
1569661953.82277
1569661953.8384
1569661953.85402
1569661953.86965
1569661953.88527
1569661953.9009
1569661953.91653
1569661953.93215
1569661953.94778
1569661953.9634
1569661953.97903
1569661953.99465
1569661954.01028
1569661954.02591
1569661954.04153
1569661954.05716
1569661954.07278
1569661954.08841
1569661954.10403
1569661954.11966
1569661954.13529
1569661954.15091
1569661954.16654
1569661954.18216
1569661954.19779
1569661954.21341
1569661954.22904
1569661954.24467
1569661954.26029
1569661954.27592
1569661954.29154
1569661954.30717
1569661954.32279
1569661954.33842
1569661954.35405
1569661954.36967
1569661954.3853
1569661954.40092
1569661954.41655
1569661954.43217
1569661954.4478
1569661954.46343
1569661954.47905
1569661954.49468
1569661954.5103
1569661954.52593
1569661954.54155
1569661954.55718
1569661954.57281
1569661954.58843
1569661954.60406
1569661954.61968
1569661954.63531
1569661954.65094
1569661954.66656
1569661954.68219
1569661954.69781
1569661954.71344
1569661954.72906
1569661954.74469
1569661954.76032
1569661954.77594
1569661954.79157
1569661954.80719
1569661954.82282
1569661954.83844
1569661954.85407
1569661954.8697
1569661954.88532
1569661954.90095
1569661954.91657
1569661954.9322
1569661954.94782
1569661954.96345
1569661954.97908
1569661954.9947
1569661955.01033
1569661955.02595
1569661955.04158
1569661955.0572
1569661955.07283
1569661955.08846
1569661955.10408
1569661955.11971
1569661955.13533
1569661955.15096
1569661955.16658
1569661955.18221
1569661955.19784
1569661955.21346
1569661955.22909
1569661955.24471
1569661955.26034
1569661955.27596
1569661955.29159
1569661955.30722
1569661955.32284
1569661955.33847
1569661955.35409
1569661955.36972
1569661955.38534
1569661955.40097
1569661955.4166
1569661955.43222
1569661955.44785
1569661955.46347
1569661955.4791
1569661955.49472
1569661955.51035
1569661955.52598
1569661955.5416
1569661955.55723
1569661955.57285
1569661955.58848
1569661955.6041
1569661955.61973
1569661955.63536
1569661955.65098
1569661955.66661
1569661955.68223
1569661955.69786
1569661955.71348
1569661955.72911
1569661955.74474
1569661955.76036
1569661955.77599
1569661955.79161
1569661955.80724
1569661955.82286
1569661955.83849
1569661955.85412
1569661955.86974
1569661955.88537
1569661955.90099
1569661955.91662
1569661955.93224
1569661955.94787
1569661955.9635
1569661955.97912
1569661955.99475
1569661956.01037
1569661956.026
1569661956.04162
1569661956.05725
1569661956.07288
1569661956.0885
1569661956.10413
1569661956.11975
1569661956.13538
1569661956.151
1569661956.16663
1569661956.18226
1569661956.19788
1569661956.21351
1569661956.22913
1569661956.24476
1569661956.26038
1569661956.27601
1569661956.29164
1569661956.30726
1569661956.32289
1569661956.33851
1569661956.35414
1569661956.36976
1569661956.38539
1569661956.40102
1569661956.41664
1569661956.43227
1569661956.44789
1569661956.46352
1569661956.47914
1569661956.49477
1569661956.5104
1569661956.52602
1569661956.54165
1569661956.55727
1569661956.5729
1569661956.58852
1569661956.60415
1569661956.61978
1569661956.6354
1569661956.65103
1569661956.66665
1569661956.68228
1569661956.6979
1569661956.71353
1569661956.72916
1569661956.74478
1569661956.76041
1569661956.77603
1569661956.79166
1569661956.80729
1569661956.82291
1569661956.83854
1569661956.85416
1569661956.86979
1569661956.88541
1569661956.90104
1569661956.91667
1569661956.93229
1569661956.94792
1569661956.96354
1569661956.97917
1569661956.99479
1569661957.01042
1569661957.02605
1569661957.04167
1569661957.0573
1569661957.07292
1569661957.08855
1569661957.10417
1569661957.1198
1569661957.13543
1569661957.15105
1569661957.16668
1569661957.1823
1569661957.19793
1569661957.21355
1569661957.22918
1569661957.24481
1569661957.26043
1569661957.27606
1569661957.29168
1569661957.30731
1569661957.32293
1569661957.33856
1569661957.35419
1569661957.36981
1569661957.38544
1569661957.40106
1569661957.41669
1569661957.43231
1569661957.44794
1569661957.46357
1569661957.47919
1569661957.49482
1569661957.51044
1569661957.52607
1569661957.54169
1569661957.55732
1569661957.57295
1569661957.58857
1569661957.6042
1569661957.61982
1569661957.63545
1569661957.65107
1569661957.6667
1569661957.68233
1569661957.69795
1569661957.71358
1569661957.7292
1569661957.74483
1569661957.76045
1569661957.77608
1569661957.79171
1569661957.80733
1569661957.82296
1569661957.83858
1569661957.85421
1569661957.86983
1569661957.88546
1569661957.90109
1569661957.91671
1569661957.93234
1569661957.94796
1569661957.96359
1569661957.97921
1569661957.99484
1569661958.01047
1569661958.02609
1569661958.04172
1569661958.05734
1569661958.07297
1569661958.08859
1569661958.10422
1569661958.11985
1569661958.13547
1569661958.1511
1569661958.16672
1569661958.18235
1569661958.19797
1569661958.2136
1569661958.22923
1569661958.24485
1569661958.26048
1569661958.2761
1569661958.29173
1569661958.30735
1569661958.32298
1569661958.33861
1569661958.35423
1569661958.36986
1569661958.38548
1569661958.40111
1569661958.41673
1569661958.43236
1569661958.44799
1569661958.46361
1569661958.47924
1569661958.49486
1569661958.51049
1569661958.52611
1569661958.54174
1569661958.55737
1569661958.57299
1569661958.58862
1569661958.60424
1569661958.61987
1569661958.63549
1569661958.65112
1569661958.66675
1569661958.68237
1569661958.698
1569661958.71362
1569661958.72925
1569661958.74487
1569661958.7605
1569661958.77613
1569661958.79175
1569661958.80738
1569661958.823
1569661958.83863
1569661958.85425
1569661958.86988
1569661958.88551
1569661958.90113
1569661958.91676
1569661958.93238
1569661958.94801
1569661958.96363
1569661958.97926
1569661958.99489
1569661959.01051
1569661959.02614
1569661959.04176
1569661959.05739
1569661959.07301
1569661959.08864
1569661959.10427
1569661959.11989
1569661959.13552
1569661959.15114
1569661959.16677
1569661959.18239
1569661959.19802
1569661959.21365
1569661959.22927
1569661959.2449
1569661959.26052
1569661959.27615
1569661959.29177
1569661959.3074
1569661959.32303
1569661959.33865
1569661959.35428
1569661959.3699
1569661959.38553
1569661959.40116
1569661959.41678
1569661959.43241
1569661959.44803
1569661959.46366
1569661959.47928
1569661959.49491
1569661959.51054
1569661959.52616
1569661959.54179
1569661959.55741
1569661959.57304
1569661959.58866
1569661959.60429
1569661959.61992
1569661959.63554
1569661959.65117
1569661959.66679
1569661959.68242
1569661959.69804
1569661959.71367
1569661959.7293
1569661959.74492
1569661959.76055
1569661959.77617
1569661959.7918
1569661959.80742
1569661959.82305
1569661959.83868
1569661959.8543
1569661959.86993
1569661959.88555
1569661959.90118
1569661959.9168
1569661959.93243
1569661959.94806
1569661959.96368
1569661959.97931
1569661959.99493
1569661960.01056
1569661960.02618
1569661960.04181
1569661960.05744
1569661960.07306
1569661960.08869
1569661960.10431
1569661960.11994
1569661960.13556
1569661960.15119
