0.9945145
3.326576
5.109413
6.417465
7.373779
8.039337
8.42511
8.49398
8.220078
7.640282
6.838524
5.942421
5.095985
4.411079
4.021194
4.025085
4.449699
5.199371
6.020218
6.538879
6.472588
5.761261
4.640068
3.559296
2.926888
2.878242
3.210075
3.454979
3.154945
2.172249
0.6930923
-0.8220978
-1.952477
-2.562752
-2.806046
-3.032593
-3.571503
-4.578407
-5.943008
-7.42868
-8.768036
-9.746338
-10.28062
-10.30666
-9.759384
-8.594406
-6.808456
-4.478851
-1.80394
0.9255066
3.433853
5.519913
7.106308
8.252686
9.063263
9.657867
10.0802
10.29869
10.24777
9.907578
9.29924
8.514908
7.660355
6.849762
6.173203
5.708115
5.524719
5.669525
6.135742
6.81778
7.518234
8.011719
8.083817
7.641129
6.730408
5.545074
4.331436
3.299515
2.531708
1.938736
1.344101
0.5687103
-0.4794159
-1.726852
-3.022263
-4.259811
-5.448944
-6.735031
-8.288177
-10.11339
-11.98798
-13.52254
-14.25725
-13.91428
-12.46388
-10.07942
-7.042679
-3.681122
-0.2658234
2.952835
5.705612
7.776581
9.040512
9.512787
9.356262
8.815704
8.1409
7.539154
7.132568
6.992584
7.155197
7.65535
8.409042
9.292679
10.0416
10.35687
10.03468
9.017136
7.500214
5.842255
4.414917
3.516953
3.206573
3.304581
3.48407
3.400452
2.811996
1.68782
0.2135773
-1.344604
-2.715622
-3.72612
-4.398163
-4.895966
-5.453949
-6.276581
-7.460999
-8.952728
-10.5827
-12.02216
-12.89397
-12.82938
-11.58972
-9.141525
-5.770615
-1.972198
1.678375
4.690704
6.830231
8.087479
8.635681
8.730515
8.600174
8.429306
8.313553
8.265411
8.255478
8.26297
8.266541
8.346008
8.567978
8.934311
9.362869
9.694809
9.765076
9.502029
8.972687
8.307388
7.659409
7.100143
6.629074
6.223129
5.872269
5.565475
5.282043
4.963669
4.534256
3.934021
3.172256
2.306625
1.410156
0.5322418
-0.3030548
-1.097626
-1.82933
-2.465271
-2.949829
-3.261902
-3.419388
-3.471863
-3.498581
-3.532486
-3.574875
-3.584427
-3.522888
-3.367065
-3.123032
-2.839096
-2.568375
-2.358002
-2.221588
-2.141724
-2.084
-2.010376
-1.896561
-1.741364
-1.564117
-1.39328
-1.253891
-1.154068
-1.088928
-1.040359
-0.9909668
-0.9257202
-0.8420258
-0.7492676
-0.6596069
-0.5842438
-0.5280304
-0.4897919
-0.4632568
-0.4391174
-0.4117584
-0.3789215
-0.3442383
-0.3098755
-0.2826843
-0.2612
-0.2462311
-0.2347565
-0.226593
-0.2175903
-0.2091522
-0.2019043
-0.195816
-0.19104
-0.1873169
-0.1856384
-0.1843719
-0.1841583
-0.1839142
-0.1840668
-0.1838226
-0.183548
-0.1839905
-0.1831512
-0.182785
-0.1824646
-0.182312
-0.1821747
-0.1811981
-0.1812439
-0.1811523
-0.1808472
-0.1805573
-0.1804199
-0.179718
-0.1793671
-0.1794281
-0.1791534
-0.1784821
-0.1779022
-0.1779938
-0.1776428
-0.177475
-0.1768646
-0.1769562
-0.1768341
-0.1765289
-0.1763916
-0.1759338
-0.1755981
-0.1751251
-0.1750793
-0.1745148
-0.174118
-0.173996
-0.1736908
-0.1736755
-0.1729736
-0.1724091
-0.1725159
-0.1725769
-0.172226
-0.1717987
-0.1720428
-0.1715698
-0.1713104
-0.170929
-0.1710205
-0.1707611
-0.1706085
-0.1700287
-0.1699677
-0.1697998
-0.1691437
-0.1687622
-0.1688995
-0.1681671
-0.167923
-0.1672821
-0.1672668
-0.1666718
-0.1661224
-0.1661835
-0.1659241
-0.1657257
-0.1651001
-0.1650848
-0.1646118
-0.1642609
-0.163559
-0.164032
-0.1631775
-0.1630554
-0.1620789
-0.16185
-0.1619568
-0.1614838
-0.1613464
-0.1606293
-0.1609192
-0.1609497
-0.1607208
-0.1603394
-0.1600494
-0.1602325
-0.1595306
-0.1596069
-0.1597595
-0.1594849
-0.1590271
-0.1588287
-0.1585236
-0.158493
-0.1582031
-0.157486
-0.1575928
-0.1573639
-0.1568146
-0.1567535
-0.1563873
-0.1562042
-0.1555328
-0.1554565
-0.1549988
-0.1551971
-0.1549072
-0.1545715
-0.1543121
-0.154007
-0.1540222
-0.1536255
-0.1530304
-0.1525421
-0.1530609
-0.1522064
-0.1516266
-0.1519318
-0.1513824
-0.1516571
-0.1510162
-0.1508026
-0.1509552
-0.1504517
-0.1500702
-0.1494904
-0.1498108
-0.1493835
-0.148941
-0.1491699
-0.1488495
-0.1490021
-0.1494904
-0.1490021
-0.1486969
-0.1493683
-0.1490784
-0.1478271
-0.1472015
-0.147522
-0.1480713
-0.1488724
-0.1500168
-0.1518173
-0.1538696
-0.1559448
-0.1574783
-0.1576157
-0.158638
-0.1598816
-0.161377
-0.1623001
-0.1630096
-0.1627197
-0.1616058
-0.1597137
-0.1571732
-0.155983
-0.1562881
-0.1568146
-0.157196
-0.157547
-0.1572189
-0.1571503
-0.1569672
-0.1572037
-0.1586456
-0.1606598
-0.1635208
-0.1660309
-0.1686478
-0.171524
-0.1745377
-0.176239
-0.1776352
-0.17836
-0.1804428
-0.1833344
-0.1866074
-0.1904755
-0.1927872
-0.1932449
-0.187355
-0.1784821
-0.1663132
-0.1540909
-0.1432266
-0.1306763
-0.1170959
-0.1017609
-0.08916473
-0.06269836
-0.01795959
0.06034088
0.1738205
0.3047409
0.4264526
0.5007477
0.5308838
0.5213013
0.522171
0.5643082
0.6877136
0.9231796
1.27874
1.753433
2.292923
2.819031
3.240669
3.525612
3.708801
3.851006
3.998802
4.134445
4.181396
4.061295
3.770279
3.36367
2.954506
2.605263
2.303253
1.986
1.616821
1.266174
1.054543
1.107193
1.416718
1.844139
2.146866
2.126556
1.773651
1.24295
0.8115234
0.6657562
0.8562012
1.234161
1.557724
1.676018
1.592712
1.479942
1.494011
1.64241
1.747322
1.550148
0.8770752
-0.1811829
-1.311089
-2.185852
-2.619698
-2.723518
-2.78717
-3.095924
-3.754089
-4.683929
-5.693275
-6.594109
-7.297997
-7.747879
-7.926056
-7.723099
-7.044464
-5.866585
-4.330406
-2.728378
-1.342346
-0.3755188
0.1693344
0.4281235
0.5673828
0.7241974
0.942688
1.22229
1.497643
1.71875
1.788116
1.634926
1.237465
0.6424789
0.04315186
-0.3398972
-0.3225632
0.1434631
0.9383087
1.833832
2.593422
3.093079
3.264084
3.096313
2.587685
1.804825
0.8562775
-0.05186462
-0.7440414
-1.152443
-1.316475
-1.403976
-1.542824
-1.754753
-1.966492
-2.056221
-1.958015
-1.747292
-1.586441
-1.635689
-2.017891
-2.719131
-3.618858
-4.573311
-5.401009
-5.941628
-6.101105
-5.82608
-5.13546
-4.124069
-2.923401
-1.632057
-0.3786545
0.7820129
1.768288
2.532921
3.048431
3.357254
3.498894
3.547035
3.561996
3.480644
3.240532
2.752365
2.033966
1.236595
0.6006203
0.3245544
0.4818192
0.9608536
1.561256
2.133213
2.625454
3.066368
3.461613
3.695976
3.542286
2.795799
1.474293
-0.1295547
-1.524475
-2.318703
-2.426006
-2.130524
-1.933388
-2.210655
-3.053486
-4.179981
-5.14447
-5.572105
-5.380253
-4.795269
-4.172054
-3.813953
-3.841801
-4.165287
-4.574387
-4.871983
-4.911633
-4.66309
-4.136677
-3.380306
-2.478718
-1.560249
-0.755928
-0.1389503
0.2827339
0.5655098
0.7828255
0.9793091
1.158459
1.34182
1.555359
1.868958
2.332256
2.894157
3.373672
3.602772
3.454563
2.97538
2.350323
1.796783
1.458736
1.338314
1.323792
1.316422
1.256016
1.186695
1.185886
1.308502
1.563129
1.879711
2.154549
2.313301
2.342014
2.259758
2.085651
1.834255
1.477219
0.9658928
0.2035332
-0.8363609
-2.108128
-3.42094
-4.563148
-5.348392
-5.748356
-5.876183
-5.92601
-6.012447
-6.098751
-6.012173
-5.537457
-4.632519
-3.453693
-2.323891
-1.509403
-1.062637
-0.8000755
-0.4145699
0.2980385
1.346668
2.522537
3.54282
4.152966
4.252838
3.900322
3.276764
2.639534
2.18541
2.078861
2.357399
2.916954
3.581371
4.132095
4.434666
4.412365
4.097015
3.506695
2.689693
1.702557
0.6624947
-0.2412224
-0.8143997
-0.9412613
-0.6432495
-0.1006966
0.3866234
0.5541191
0.285656
-0.3166275
-0.9466362
-1.269554
-1.098389
-0.5555534
0.03060913
0.2210732
-0.2264633
-1.252964
-2.561142
-3.782486
-4.741093
-5.473045
-6.110672
-6.727207
-7.13451
-6.979893
-5.942902
-4.020538
-1.561104
0.8395729
2.626381
3.56736
3.774345
3.603569
3.427517
3.408993
3.493328
3.482101
3.226154
2.692516
1.986294
1.230881
0.4786377
-0.2435608
-0.8896561
-1.353077
-1.444324
-1.038471
-0.2035065
0.8306999
1.730465
2.21756
2.222343
1.883163
1.440456
1.082315
0.8659801
0.7061977
0.4924946
0.1831837
-0.2060146
-0.5965424
-0.9399967
-1.205957
-1.399349
-1.51823
-1.570959
-1.584585
-1.570621
-1.606176
-1.742769
-2.018835
-2.427567
-2.914997
-3.43051
-3.926098
-4.376104
-4.734102
-4.926153
-4.834167
-4.352566
-3.445841
-2.182814
-0.7452564
0.6464558
1.787956
2.603941
3.159203
3.578146
3.968386
4.307352
4.481363
4.378042
3.981482
3.422617
2.91571
2.587032
2.423214
2.271893
1.931732
1.338877
0.6153049
-0.01906395
-0.3332481
-0.2304516
0.2091026
0.8047161
1.392849
1.89612
2.343719
2.77602
3.171352
3.42672
3.383266
2.943512
2.119646
1.079321
0.01360893
-0.9220562
-1.696671
-2.424898
-3.252865
-4.25321
-5.345957
-6.30253
-6.880175
-6.94956
-6.520763
-5.72423
-4.748249
-3.700579
-2.621685
-1.535667
-0.4605808
0.5223637
1.321457
1.891294
2.245766
2.459108
2.618919
2.774935
2.909628
2.965494
2.854408
2.557436
2.098509
1.576071
1.133223
0.960207
1.162746
1.747068
2.569715
3.410413
4.045629
4.362763
4.364399
4.162402
3.916666
3.706357
3.509131
3.229012
2.716864
1.862162
0.7045813
-0.6213942
-1.920694
-3.010592
-3.78146
-4.211143
-4.358646
-4.306961
-4.161144
-4.010347
-3.9082
-3.903583
-4.035439
-4.355536
-4.880656
-5.610825
-6.466886
-7.314886
-7.994831
-8.293164
-8.058167
-7.202655
-5.784081
-3.952733
-1.944448
-0.02846527
1.574156
2.682471
3.267411
3.437524
3.436244
3.486388
3.723069
4.093024
4.434655
4.563836
4.391265
3.950274
3.376042
2.803029
2.319992
1.943974
1.682228
1.569911
1.690841
2.074324
2.651982
3.22918
3.55067
3.4649
2.944127
2.125933
1.238621
0.4861922
-0.002668858
-0.2065411
-0.1937966
-0.1388564
-0.1583662
-0.3760076
-0.8098187
-1.389834
-2.003773
-2.544301
-2.985085
-3.41528
-3.995005
-4.820641
-5.848498
-6.893605
-7.690078
-8.089512
-8.105749
-7.884444
-7.578658
-7.229212
-6.702617
-5.789958
-4.379999
-2.522982
-0.5201702
1.265924
2.503
3.066393
3.018165
2.546052
1.869254
1.163958
0.5844579
0.20327
0.080194
0.2135234
0.5456567
1.000395
1.463929
1.853994
2.119012
2.257989
2.293073
2.314061
2.397094
2.595222
2.911689
3.255137
3.510062
3.549368
3.304484
2.771956
2.028314
1.143433
0.1994791
-0.7304778
-1.577909
-2.20626
-2.519405
-2.484549
-2.217988
-1.935277
-1.883348
-2.204889
-2.883363
-3.78897
-4.750318
-5.653706
-6.431971
-7.041725
-7.417266
-7.446589
-7.01801
-6.086662
-4.75947
-3.236371
-1.765797
-0.4950209
0.5658112
1.491103
2.370154
3.204494
3.894604
4.311101
4.386135
4.15039
3.756865
3.379072
3.134097
3.025258
3.025558
3.132095
3.408179
3.933341
4.669511
5.437162
5.949014
6.004216
5.54679
4.723187
3.771192
2.854683
2.000314
1.11478
0.1449852
-0.8633318
-1.736833
-2.291487
-2.46113
-2.34633
-2.185673
-2.203378
-2.485428
-2.957783
-3.482856
-3.919878
-4.252173
-4.551631
-4.922981
-5.411628
-5.932544
-6.301264
-6.342587
-5.969344
-5.270683
-4.440048
-3.642635
-2.938858
-2.253416
-1.41972
-0.3510189
0.9020767
2.142418
3.094961
3.573339
3.546482
3.206553
2.833908
2.706835
2.933933
3.421768
3.965549
4.316141
4.332476
4.004707
3.443241
2.805792
2.268608
1.92684
1.803776
1.855162
1.956089
1.985151
1.834896
1.46817
0.9369659
0.3724422
-0.1512337
-0.545475
-0.8477516
-1.127199
-1.452305
-1.851162
-2.279783
-2.610365
-2.715206
-2.583851
-2.307129
-2.118389
-2.247185
-2.771894
-3.583382
-4.457539
-5.160452
-5.619591
-5.913288
-6.134476
-6.290148
-6.220518
-5.648605
-4.462696
-2.791597
-0.9937782
0.5352726
1.57419
2.202147
2.63728
3.079412
3.574318
3.949846
4.028463
3.791283
3.437851
3.29632
3.63842
4.477304
5.570414
6.58849
7.210196
7.325481
6.970985
6.324963
5.545879
4.783516
4.126392
3.620342
3.27372
3.028851
2.808712
2.519726
2.101563
1.576004
1.030056
0.5615311
0.1918488
-0.09972
-0.3924484
-0.7429428
-1.192562
-1.750401
-2.426453
-3.182133
-3.966892
-4.703907
-5.318943
-5.774303
-6.078049
-6.277481
-6.437344
-6.565689
-6.580093
-6.351051
-5.803497
-4.938221
-3.862679
-2.723293
-1.598206
-0.4736519
0.7077484
1.969852
3.244682
4.352806
5.110058
5.416187
5.310925
4.943562
4.492493
4.037601
3.60918
3.202522
2.860588
2.704903
2.867302
3.410114
4.212593
5.016441
5.485291
5.372913
4.627838
3.4519
2.248531
1.419941
1.219982
1.592331
2.231091
2.693241
2.622292
1.871513
0.5633507
-0.9952087
-2.449703
-3.50639
-4.00351
-3.959007
-3.568073
-3.168156
-3.089314
-3.537586
-4.409771
-5.345013
-5.861164
-5.611385
-4.54813
-2.926144
-1.172783
0.3402596
1.427261
2.104843
2.460659
2.563652
2.421108
2.068321
1.658749
1.418915
1.59943
2.248459
3.213154
4.176891
4.812366
4.951958
4.635002
4.097107
3.605652
3.37661
3.46207
3.784992
4.154022
4.37809
4.340775
4.021255
3.506199
2.928135
2.423126
2.02224
1.669308
1.311279
0.9311104
0.5888519
0.3646317
0.2966957
0.3072777
0.2915192
0.09832382
-0.3503418
-1.011368
-1.814194
-2.618149
-3.365608
-4.031456
-4.641674
-5.21854
-5.784157
-6.315399
-6.721607
-6.866734
-6.592823
-5.776566
-4.371292
-2.508308
-0.4084587
1.632425
3.328562
4.461063
4.883816
4.613926
3.816986
2.81595
2.000975
1.682627
1.926947
2.527931
3.094532
3.247637
2.851196
2.055582
1.24284
0.8520947
1.113668
1.951942
3.038733
3.954163
4.365728
4.213305
3.663322
3.009878
2.51285
2.268978
2.171736
2.056105
1.829632
1.486265
1.151079
0.9060459
0.7158394
0.4679527
0.03264809
-0.6091022
-1.308083
-1.839119
-2.054419
-1.930201
-1.616293
-1.320807
-1.196333
-1.280634
-1.53326
-1.907331
-2.438482
-3.161375
-4.012142
-4.832827
-5.344172
-5.285681
-4.570122
-3.330997
-1.864981
-0.5320091
0.385807
0.8155365
0.83675
0.6434536
0.4206495
0.2700939
0.2168064
0.2639408
0.3821764
0.5500154
0.767334
0.9647388
1.094585
1.107948
0.9643869
0.6840582
0.2985573
-0.1052485
-0.4406395
-0.5768204
-0.4232759
0.05712509
0.8190279
1.678958
2.362988
2.593676
2.263769
1.490467
0.6432753
0.1342316
0.2187524
0.852839
1.643162
2.114878
1.93691
1.160185
0.1580706
-0.5610247
-0.6679692
-0.2084341
0.4155927
0.6546221
0.1875286
-0.9612608
-2.449806
-3.825277
-4.808448
-5.371994
-5.66363
-5.792373
-5.681266
-5.108768
-3.861255
-1.993671
0.1258999
1.939961
2.972141
3.077253
2.528367
1.792156
1.300334
1.216293
1.427559
1.734488
2.001685
2.211172
2.433712
2.727415
2.989952
3.087029
2.917483
2.518582
2.112264
1.907311
2.017096
2.421783
2.960616
3.462525
3.795702
3.861298
3.59631
2.956752
1.989281
0.7864962
-0.4985704
-1.710011
-2.759356
-3.61758
-4.234938
-4.557025
-4.520044
-4.135259
-3.550139
-3.048842
-2.931808
-3.35785
-4.241667
-5.306639
-6.259157
-6.902915
-7.224227
-7.271114
-7.055604
-6.552905
-5.718777
-4.607064
-3.427884
-2.405111
-1.66523
-1.128114
-0.570591
0.2169151
1.273068
2.367603
3.146113
3.305761
2.789675
1.842052
0.863308
0.1706181
-0.08022499
0.05248642
0.4022121
0.8527966
1.355032
1.934458
2.587824
3.263702
3.824566
4.150795
4.139822
3.779383
3.091988
2.194052
1.233971
0.3857498
-0.2035885
-0.4368324
-0.3444443
-0.08645821
0.1404171
0.1608791
-0.1139927
-0.6359005
-1.254232
-1.816038
-2.173038
-2.265888
-2.16025
-1.996199
-1.976946
-2.313843
-3.102863
-4.30035
-5.733225
-7.111506
-8.178209
-8.770218
-8.821783
-8.350338
-7.429611
-6.122057
-4.557495
-2.888098
-1.310328
0.04008102
1.077518
1.826302
2.330633
2.651548
2.809816
2.790258
2.551811
2.082779
1.445759
0.7735062
0.2514076
0.002082825
0.0429821
0.2792606
0.5529518
0.7651367
0.880888
0.9508057
1.040077
1.171814
1.271538
1.254896
1.091148
0.8192196
0.5458355
0.3172646
0.06398582
-0.3341026
-0.9190693
-1.592724
-2.115381
-2.248943
-1.9426
-1.349586
-0.8300457
-0.7021389
-1.152757
-2.112199
-3.345686
-4.588388
-5.686615
-6.640947
-7.492081
-8.260341
-8.84399
-9.073627
-8.792092
-7.925661
-6.56861
-4.943326
-3.303581
-1.825286
-0.5368719
0.6380062
1.791677
2.911247
3.891377
4.568007
4.807575
4.564728
3.933078
3.086703
2.250871
1.62923
1.32965
1.389851
1.694538
2.074295
2.297938
2.228385
1.795784
1.096989
0.3236001
-0.3138261
-0.6440793
-0.6274794
-0.3074379
0.1835777
0.6893637
1.039129
1.095254
0.7803776
0.1005552
-0.8081241
-1.754041
-2.555888
-3.131037
-3.550819
-4.015194
-4.75082
-5.857581
-7.266613
-8.687348
-9.785643
-10.27766
-10.09768
-9.339297
-8.222816
-6.955824
-5.631283
-4.268332
-2.829733
-1.308248
0.2211609
1.622782
2.752146
3.507524
3.912788
4.089756
4.204952
4.407999
4.727396
5.112019
5.458046
5.668259
5.700693
5.567976
5.329702
5.029545
4.675272
4.271101
3.822348
3.33922
2.82229
2.247276
1.613508
0.9426231
0.2718563
-0.3189201
-0.7757454
-1.101048
-1.343513
-1.53891
-1.709545
-1.802036
-1.835316
-1.905067
-2.118042
-2.589798
-3.356422
-4.356449
-5.489132
-6.669018
-7.8381
-8.949459
-9.920227
-10.54767
-10.5936
-9.915306
-8.532322
-6.650032
-4.600243
-2.664097
-1.010536
0.3086967
1.348846
2.171101
2.822304
3.337322
3.75008
4.053375
4.236774
4.286198
4.185951
3.94746
3.594059
3.187889
2.802624
2.506622
2.384315
2.534096
2.99939
3.753571
4.668571
5.49765
5.99366
5.993294
5.457069
4.523972
3.431763
2.410233
1.620575
1.156807
0.9911957
1.081207
1.362999
1.714066
1.949608
1.841125
1.159767
-0.2153702
-2.207306
-4.577431
-6.994949
-9.17202
-10.92474
-12.18061
-12.87268
-12.92968
-12.27302
-10.91726
-9.030197
-6.918945
-4.907753
-3.177605
-1.681755
-0.2540207
1.270126
2.911598
4.483818
5.745682
6.507668
6.782921
6.771469
6.785393
7.042328
7.560982
8.161362
8.560486
8.589577
8.249939
7.723045
7.225861
6.890144
6.747665
6.790665
7.010826
7.446915
8.098915
8.819237
9.271355
9.067482
7.915375
5.837708
3.215454
0.5762253
-1.617775
-3.17157
-4.217369
-5.04631
-5.867035
-6.754883
-7.617584
-8.350082
-8.948166
-9.473282
-9.986771
-10.43042
-10.62375
-10.30428
-9.299438
-7.579514
-5.267776
-2.584198
0.2556
3.04834
5.625153
7.788895
9.373489
10.25049
10.41559
9.972351
9.080765
7.965363
6.834412
5.930283
5.473907
5.600067
6.266388
7.260773
8.248337
8.924896
9.161102
8.968735
8.46492
7.757538
6.912338
6.040039
5.317261
4.943451
5.03093
5.471298
5.899139
5.825882
4.904205
3.140717
0.9103088
-1.208115
-2.718506
-3.421494
-3.462067
-3.229691
-3.110825
-3.32991
-3.874771
-4.554047
-5.107498
-5.30571
-5.020538
-4.24614
-3.042206
-1.47438
0.3726349
2.413986
4.495026
6.42569
7.996262
9.066467
9.605087
9.720261
9.557114
9.211945
8.724792
8.084366
7.368286
6.737717
6.385071
6.401428
6.722565
7.069122
7.106659
6.620773
5.615494
4.288773
2.919144
1.67601
0.5320892
-0.6770172
-2.128204
-3.850433
-5.680344
-7.325012
-8.500519
-9.11528
-9.318008
-9.445068
-9.853333
-10.7215
-11.96025
-13.26234
-14.22377
-14.45341
-13.72375
-11.97888
-9.387939
-6.299957
-3.151062
-0.3774261
1.754852
3.209305
4.192215
4.983154
5.783066
6.600372
7.224228
7.405411
7.029419
6.241028
5.328278
4.619232
4.263535
4.227417
4.351929
4.477188
4.563278
4.670166
4.908691
5.295654
5.726166
5.95137
5.735703
4.922226
3.512238
1.688004
-0.2578583
-1.95842
-3.131088
-3.648544
-3.644608
-3.456482
-3.510681
-4.089493
-5.152786
-6.383255
-7.339172
-7.629623
-7.103561
-5.878326
-4.198242
-2.277924
-0.2344818
1.916656
4.16156
6.334335
8.195267
9.493683
10.07591
9.967468
9.389557
8.634735
7.980835
7.533951
7.269257
7.043488
6.764297
6.420837
6.097366
5.860657
5.686005
5.424179
4.865372
3.946426
2.787292
1.665527
0.9030457
0.6456146
0.7707672
0.9718475
0.9415588
0.5258636
-0.2050323
-1.008636
-1.676132
-2.18306
-2.647202
-3.273102
-4.17308
-5.284912
-6.382462
-7.256271
-7.784706
-7.998177
-7.97699
-7.673576
-6.890099
-5.374077
-3.017464
-0.03920746
3.023193
5.520111
6.990891
7.395836
7.067635
6.502106
6.041023
5.721779
5.367958
4.752419
3.813599
2.717766
1.806282
1.392395
1.595039
2.25444
3.017479
3.504402
3.515251
3.136795
2.687485
2.547234
2.952194
3.818832
4.781212
5.360001
5.19091
4.25396
2.822205
1.359184
0.2100067
-0.5399857
-1.057655
-1.610619
-2.360062
-3.276428
-4.160889
-4.781586
-5.037674
-5.028625
-4.944305
-4.962547
-5.105171
-5.222115
-5.06797
-4.444092
-3.304199
-1.785027
-0.1159515
1.461098
2.769844
3.785431
4.536308
5.044197
5.291679
5.154419
4.523888
3.37011
1.858162
0.3253937
-0.8407593
-1.341393
-1.092628
-0.2503738
0.8492737
1.887527
2.643646
3.079361
3.260406
3.284035
3.200394
2.954315
2.481541
1.724976
0.7321548
-0.3675499
-1.395531
-2.143852
-2.479073
-2.402515
-2.070545
-1.6884
-1.506184
-1.638844
-2.10931
-2.824173
-3.647388
-4.467361
-5.202511
-5.806335
-6.198082
-6.270332
-5.897964
-5.063335
-3.862839
-2.512657
-1.27433
-0.3413963
0.1866493
0.399868
0.459404
0.5741043
0.8961105
1.446167
2.125149
2.736156
3.092216
3.061119
2.65612
1.980236
1.218832
0.5656948
0.1028194
-0.1573315
-0.3323421
-0.537344
-0.9083405
-1.494724
-2.305
-3.219843
-4.058773
-4.641804
-4.793861
-4.479013
-3.779465
-2.921597
-2.160252
-1.76561
-1.825714
-2.243542
-2.830225
-3.332914
-3.625925
-3.71001
-3.698559
-3.707986
-3.800507
-3.983985
-4.22868
-4.50397
-4.779255
-4.959399
-4.874822
-4.310644
-3.134191
-1.396404
0.6186428
2.487273
3.804958
4.331767
4.049626
3.137767
1.908375
0.6791048
-0.2658505
-0.7532425
-0.7371479
-0.2896605
0.4365621
1.221458
1.875594
2.246312
2.222875
1.754966
0.8283854
-0.4434741
-1.847879
-3.080234
-3.864408
-4.098655
-3.918581
-3.538357
-3.146769
-2.813035
-2.445087
-1.956226
-1.382044
-0.9033966
-0.7786112
-1.167554
-2.001534
-2.979622
-3.759006
-4.102132
-4.019735
-3.723102
-3.498455
-3.539621
-3.869575
-4.321833
-4.658852
-4.671439
-4.225287
-3.304323
-2.010533
-0.5072651
1.00278
2.303373
3.208795
3.595044
3.43126
2.792492
1.84444
0.7985744
-0.09476089
-0.6861038
-0.9127331
-0.815073
-0.4740391
0.06143379
0.7668362
1.633183
2.57622
3.486124
4.22492
4.665115
4.773726
4.608629
4.283503
3.864157
3.35076
2.66291
1.72415
0.5143337
-0.8620853
-2.18873
-3.224396
-3.787527
-3.850859
-3.534018
-3.115398
-2.868732
-2.965864
-3.3867
-3.942696
-4.404812
-4.627506
-4.642689
-4.602348
-4.701143
-5.035074
-5.530684
-5.973917
-6.07634
-5.607882
-4.504461
-2.910517
-1.159512
0.3476105
1.299612
1.627886
1.48373
1.173389
0.9957066
1.085663
1.359447
1.641809
1.813019
1.91308
2.106903
2.514235
3.118841
3.701124
3.964737
3.723751
3.025654
2.111988
1.307707
0.800808
0.5645313
0.3886452
0.03400612
-0.6172562
-1.445469
-2.165394
-2.526157
-2.442074
-2.07679
-1.742134
-1.726612
-2.126993
-2.847694
-3.654491
-4.350733
-4.91102
-5.455658
-6.12446
-6.972473
-7.900749
-8.678476
-9.085991
-9.004728
-8.424646
-7.429991
-6.112499
-4.612358
-3.067499
-1.645756
-0.4604855
0.4882221
1.281857
2.058664
2.85104
3.566093
3.961031
3.843206
3.196898
2.274563
1.468508
1.112036
1.301037
1.821926
2.317598
2.467621
2.162897
1.527502
0.8277092
0.3212414
0.09620094
0.09800529
0.1595287
0.1872101
0.1882954
0.2593708
0.4612579
0.7611904
0.9920616
0.910656
0.3861599
-0.5627804
-1.735403
-2.869759
-3.762772
-4.351551
-4.695898
-4.866732
-4.93091
-4.859062
-4.66636
-4.429578
-4.307552
-4.429147
-4.836707
-5.408062
-5.923784
-6.18898
-6.083564
-5.617157
-4.908118
-4.087552
-3.24955
-2.431692
-1.628129
-0.8027163
0.02985287
0.8175716
1.488129
1.987391
2.312721
2.520216
2.658059
2.714222
2.641037
2.366395
1.90087
1.366073
0.9885201
0.9889874
1.450571
2.270471
3.173434
3.918043
4.345127
4.493608
4.481768
4.397573
4.241611
3.88965
3.232707
2.233814
1.044392
-0.1159372
-1.01564
-1.544869
-1.742275
-1.772065
-1.851239
-2.100451
-2.523416
-2.96427
-3.229481
-3.158094
-2.767952
-2.247072
-1.87209
-1.89673
-2.45297
-3.499121
-4.864824
-6.312435
-7.549389
-8.305185
-8.366987
-7.613489
-6.116943
-4.107164
-1.953154
-0.01318169
1.511332
2.597216
3.36735
3.927353
4.33674
4.610968
4.791523
4.956844
5.174204
5.456806
5.706661
5.819508
5.711641
5.450193
5.166845
5.003572
5.025581
5.172482
5.330074
5.39444
5.316486
5.092537
4.726288
4.211525
3.537804
2.752377
1.998833
1.449936
1.243561
1.401695
1.807743
2.211308
2.33675
1.963135
1.049786
-0.2370872
-1.605019
-2.757416
-3.510303
-3.854752
-3.975784
-4.084919
-4.362633
-4.854172
-5.518768
-6.298016
-7.174892
-8.16399
-9.211739
-10.15651
-10.70022
-10.51906
-9.451656
-7.590797
-5.319374
-3.135658
-1.445518
-0.3585129
0.2638397
0.7286415
1.315945
2.093746
2.970486
3.711246
4.155083
4.255318
4.096886
3.777798
3.419575
3.090462
2.845745
2.795963
3.061565
3.722141
4.777493
6.038765
7.232254
8.025307
8.201218
7.72123
6.762787
5.635719
4.611977
3.846008
3.269638
2.707603
2.026642
1.228539
0.4486389
-0.07210541
-0.178154
0.1068878
0.643425
1.191971
1.54689
1.580719
1.2612
0.5623779
-0.4707794
-1.787636
-3.293259
-4.803711
-6.125938
-7.10508
-7.696495
-7.994408
-8.171143
-8.414055
-8.769226
-9.172119
-9.428116
-9.300514
-8.58461
-7.177811
-5.128593
-2.585396
0.2070389
2.955528
5.326004
7.006653
7.798965
7.710136
6.968201
5.962471
5.09462
4.606392
4.523285
4.696953
4.950417
5.149803
5.257439
5.330093
5.416382
5.549446
5.737946
5.995468
6.268326
6.492546
6.561378
6.323746
5.678192
4.601921
3.195374
1.625931
0.1274185
-1.106468
-1.889519
-2.126282
-1.808052
-1.057701
-0.1266785
0.6977386
1.154068
1.165405
0.7276459
-0.02144623
-0.9435425
-1.925949
-2.866364
-3.712662
-4.450989
-5.142456
-5.900696
-6.858047
-8.033348
-9.27993
-10.26484
-10.58399
-9.96273
-8.40197
-6.219604
-3.913673
-1.960548
-0.6361008
0.07428741
0.3665161
0.5246201
0.7456741
1.135513
1.626129
2.09446
2.432213
2.598595
2.658142
2.721939
2.938957
3.343819
3.912918
4.546326
5.127304
5.608376
5.986534
6.315407
6.588394
6.767502
6.750008
6.473351
5.950851
5.299461
4.633896
4.006371
3.395424
2.718048
1.938957
1.095818
0.2936935
-0.3724976
-0.8815155
-1.309586
-1.772949
-2.313019
-2.880768
-3.342499
-3.630066
-3.790176
-4.016464
-4.570343
-5.600967
-7.092789
-8.764633
-10.18253
-10.89442
-10.66071
-9.551849
-7.893097
-6.121063
-4.545944
-3.23967
-2.045685
-0.7666779
0.6811829
2.187561
3.503448
4.426392
4.915237
5.141357
5.310852
5.540359
5.74173
5.710297
5.30043
4.55011
3.722061
3.130951
3.038437
3.493774
4.352585
5.36441
6.260529
6.875229
7.144104
7.110428
6.855576
6.490952
6.086426
5.641602
5.108353
4.404404
3.439896
2.206467
0.8115387
-0.5979156
-1.847473
-2.849808
-3.582367
-4.09227
-4.427673
-4.611069
-4.723877
-4.90654
-5.392853
-6.395523
-7.986374
-10.01768
-12.10223
-13.7767
-14.62509
-14.45006
-13.27101
-11.30055
-8.852997
-6.261322
-3.813492
-1.699982
-0.00819397
1.269409
2.238724
3.037613
3.782593
4.553558
5.364029
6.174774
6.918198
7.524338
7.942566
8.15535
8.205307
8.134552
8.013062
7.871384
7.721725
7.542267
7.331818
7.144592
7.064056
7.14238
7.362076
7.596497
7.663834
7.38588
6.690582
5.652863
4.449799
3.312485
2.386414
1.702438
1.205276
0.7764893
0.3262939
-0.169342
-0.6743011
-1.120743
-1.470108
-1.80542
-2.280167
-3.066116
-4.229568
-5.719116
-7.306213
-8.771408
-9.965622
-10.92236
-11.77135
-12.61198
-13.3465
-13.64423
-13.06413
-11.29002
-8.357559
-4.693497
-0.9608002
2.180069
4.35759
5.57431
6.124588
6.442413
6.863007
7.479752
8.217331
8.85321
9.168533
9.064621
8.527405
7.63501
6.568939
5.536865
4.733276
4.326965
4.398254
4.869431
5.551285
6.145645
6.378586
6.117294
5.427582
4.526627
3.695358
3.130859
2.866379
2.819122
2.850647
2.849762
2.810455
2.718109
2.526062
2.069412
1.162598
-0.2651825
-2.050369
-3.847672
-5.259705
-6.057022
-6.319016
-6.379242
-6.647781
-7.389481
-8.586288
-9.955734
-11.12396
-11.76097
-11.71439
-10.95712
-9.561813
-7.616669
-5.274567
-2.724991
-0.196991
2.096466
4.045532
5.659439
7.030441
8.232132
9.261963
10.00842
10.34857
10.20187
9.648865
8.8927
8.196411
7.778885
7.66684
7.73645
7.741989
7.457764
6.8134
5.937424
5.097977
4.551117
4.395035
4.503372
4.608047
4.476089
4.007996
3.317429
2.586517
1.98317
1.534134
1.141464
0.6783447
0.07568359
-0.6065216
-1.258759
-1.779541
-2.208237
-2.648193
-3.238892
-4.052231
-5.075592
-6.211609
-7.360336
-8.474304
-9.505981
-10.45918
-11.32616
-12.09244
-12.73607
-13.20216
-13.39787
-13.13231
-12.20367
-10.45715
-7.901642
-4.774811
-1.462189
1.600708
4.122406
5.979446
7.221222
7.964798
8.319916
8.400803
8.306305
8.194183
8.199692
8.415054
8.802551
9.21933
9.501785
9.591736
9.521225
9.403397
9.344528
9.338745
9.302872
9.118073
8.71756
8.102158
7.361496
6.575256
5.765015
4.932022
4.08696
3.26712
2.547195
1.96817
1.526291
1.132172
0.6955872
0.146759
-0.519043
-1.243912
-1.952606
-2.566101
-3.100037
-3.587173
-4.123901
-4.807632
-5.689896
-6.780823
-8.060928
-9.474091
-10.93483
-12.29227
-13.27899
-13.59041
-12.96657
-11.35353
-8.959381
-6.228455
-3.64949
-1.543045
0.008850098
1.193192
2.265945
3.387619
4.55452
5.601852
6.351349
6.730392
6.764801
6.57489
6.311111
6.066986
5.910034
5.925522
6.150864
6.599335
7.22052
7.861176
8.382782
8.70369
8.83522
8.863068
8.854446
8.791977
8.578171
8.09314
7.282776
6.228485
5.097427
4.099777
3.315613
2.717041
2.128448
1.423401
0.589325
-0.2628784
-0.9267426
-1.255539
-1.241348
-1.034897
-0.8933868
-1.082169
-1.719528
-2.764709
-3.98201
-5.100922
-5.918533
-6.397461
-6.708038
-7.114639
-7.898407
-9.120392
-10.59706
-11.90437
-12.5463
-12.14719
-10.59837
-8.130219
-5.222778
-2.436584
-0.1963501
1.291168
2.075333
2.384766
2.474182
2.573502
2.827454
3.27948
3.917999
4.680008
5.447571
6.073822
6.453796
6.54567
6.419418
6.184784
5.949951
5.748734
5.535049
5.291168
5.067307
5.006409
5.203979
5.642532
6.111649
6.327927
6.077606
5.350784
4.361603
3.398117
2.671768
2.167267
1.721313
1.114563
0.2405853
-0.8642273
-2.01825
-3.036018
-3.782455
-4.213081
-4.438972
-4.639275
-5.001877
-5.668335
-6.650497
-7.785446
-8.848297
-9.656189
-10.11811
-10.26411
-10.16184
-9.779854
-8.959557
-7.52552
-5.434067
-2.869751
-0.2483978
1.997124
3.568832
4.436096
4.759377
4.751617
4.583267
4.330879
4.032837
3.756714
3.633919
3.723106
4.035721
4.474945
4.870491
5.095146
5.08271
4.845627
4.452148
3.999435
3.520973
3.09864
2.787636
2.572914
2.391441
2.133179
1.673088
0.9961243
0.2061844
-0.5323792
-1.032082
-1.194099
-1.060852
-0.7650299
-0.5075302
-0.4382172
-0.6359177
-1.097061
-1.734703
-2.448029
-3.195351
-3.941139
-4.638977
-5.28093
-5.850098
-6.352074
-6.894997
-7.583199
-8.523285
-9.664825
-10.75631
-11.3475
-11.05111
-9.701324
-7.485046
-4.90345
-2.484436
-0.6164856
0.5976181
1.310875
1.764694
2.124809
2.439209
2.675941
2.778549
2.769173
2.723656
2.746544
2.887199
3.139912
3.467285
3.848244
4.253502
4.644184
5.036346
5.416496
5.764042
6.020039
6.075214
5.855125
5.294594
4.475155
3.515621
2.62011
1.936134
1.554638
1.467327
1.579472
1.823769
2.055943
2.128403
1.911636
1.293434
0.2706718
-1.039547
-2.43182
-3.694164
-4.665752
-5.314716
-5.674004
-5.843918
-5.915329
-5.960075
-6.011707
-6.126839
-6.375267
-6.783363
-7.298069
-7.742958
-7.892361
-7.557766
-6.635273
-5.193653
-3.436684
-1.666821
-0.1958694
0.7514114
1.151123
1.145689
0.9834194
0.9213486
1.053385
1.297377
1.516268
1.604553
1.619133
1.733307
2.100391
2.734426
3.471369
4.04624
4.252975
4.110229
3.805975
3.581892
3.577055
3.739458
3.898701
3.926523
3.764914
3.46183
3.127155
2.827162
2.575052
2.374517
2.166829
1.926642
1.607912
1.158148
0.5693703
-0.1263466
-0.8349571
-1.425696
-1.770387
-1.83682
-1.70821
-1.573982
-1.642381
-2.07267
-2.91467
-4.105422
-5.527193
-7.008211
-8.406929
-9.568001
-10.34019
-10.52948
-9.986648
-8.678485
-6.772549
-4.634089
-2.679324
-1.243948
-0.3796692
0.1286807
0.6183
1.392088
2.484393
3.68904
4.664767
5.158576
5.116117
4.69592
4.156604
3.697618
3.398518
3.192725
2.982002
2.676937
2.306775
1.971746
1.797857
1.868921
2.147376
2.525093
2.862856
3.052937
3.066553
2.951206
2.766441
2.547758
2.289934
1.928846
1.432201
0.7427864
-0.1116791
-1.070572
-2.044783
-2.935436
-3.682432
-4.289135
-4.849329
-5.512043
-6.406696
-7.559216
-8.856501
-10.09348
-11.01936
-11.47238
-11.36322
-10.68122
-9.451578
-7.749784
-5.712265
-3.573814
-1.654171
-0.196331
0.7030296
1.181736
1.542664
2.056648
2.823841
3.73098
4.486935
4.820282
4.653027
4.09103
3.411282
2.89624
2.727699
2.926201
3.399086
3.943851
4.392677
4.642506
4.693993
4.65276
4.643379
4.731335
4.908783
5.081623
5.093689
4.795059
4.151363
3.209671
2.107632
1.039211
0.1689034
-0.3633232
-0.4786339
-0.2236633
0.2620888
0.7404022
0.9297562
0.6431236
-0.1475449
-1.317734
-2.648472
-3.918083
-5.036049
-5.997223
-6.860752
-7.697392
-8.491043
-9.200832
-9.778496
-10.20305
-10.46416
-10.53475
-10.34787
-9.819633
-8.888367
-7.548889
-5.852345
-3.895866
-1.823814
0.1883202
1.910305
3.133362
3.724854
3.672085
3.150772
2.461578
1.900295
1.663605
1.800446
2.215942
2.771431
3.333801
3.777657
4.03698
4.075096
3.938614
3.764412
3.738853
3.995201
4.540794
5.210373
5.74572
5.94384
5.725754
5.175797
4.43383
3.614159
2.768539
1.905243
1.070923
0.3565826
-0.1587219
-0.4955063
-0.7839127
-1.225349
-1.95504
-2.96067
-4.030174
-4.877945
-5.296547
-5.282127
-5.075363
-4.962807
-5.169586
-5.705116
-6.420845
-7.114388
-7.681381
-8.126823
-8.467392
-8.655205
-8.480026
-7.703491
-6.225266
-4.221306
-2.151299
-0.5099716
0.384285
0.5600433
0.3349915
0.1548538
0.3316116
0.9333344
1.792946
2.615463
3.142517
3.247177
3.028839
2.717735
2.616463
2.903015
3.590958
4.528076
5.444229
6.121483
6.447525
6.474838
6.294136
5.963242
5.449112
4.691406
3.707146
2.620712
1.670197
1.064842
0.865303
0.930687
0.948204
0.6135101
-0.2262955
-1.469788
-2.808731
-3.882362
-4.48333
-4.647835
-4.594078
-4.552086
-4.595512
-4.63961
-4.560997
-4.374519
-4.272621
-4.56382
-5.439461
-6.79348
-8.173508
-9.021851
-8.940346
-7.912941
-6.25972
-4.469681
-2.91291
-1.732391
-0.8262177
-0.006286621
0.8385086
1.675003
2.406754
2.983833
3.456848
3.948975
4.522995
5.107475
5.500595
5.530647
5.159882
4.552681
3.997108
3.775368
4.025795
4.647705
5.392281
5.938751
6.04406
5.671753
4.971817
4.156281
3.465172
3.007828
2.762978
2.588776
2.325279
1.874306
1.2444
0.5165787
-0.2436752
-1.003761
-1.79615
-2.641243
-3.495682
-4.268448
-4.821808
-5.050514
-4.979233
-4.737289
-4.525269
-4.53109
-4.871613
-5.518547
-6.347771
-7.193962
-7.890808
-8.379906
-8.635574
-8.68306
-8.536209
-8.174004
-7.515015
-6.544182
-5.305725
-3.901001
-2.487747
-1.155678
0.06224823
1.191238
2.258018
3.239326
4.065269
4.651054
4.956322
4.978035
4.805069
4.496216
4.166466
3.893501
3.767967
3.892921
4.347672
5.14872
6.172852
7.194885
7.932404
8.199005
7.955254
7.309471
6.432381
5.493706
4.5952
3.782051
3.120697
2.703293
2.612617
2.833221
3.185417
3.319725
2.924454
1.863182
0.3052139
-1.338226
-2.636848
-3.347443
-3.534149
-3.503006
-3.601692
-4.064194
-4.879837
-5.913048
-7.005524
-8.093925
-9.20298
-10.34319
-11.43502
-12.28559
-12.6884
-12.52062
-11.81303
-10.71909
-9.416397
-7.977203
-6.365448
-4.480171
-2.302589
0.0125351
2.179588
3.863533
4.888252
5.252602
5.144089
4.794785
4.379532
3.988457
3.679527
3.550034
3.719215
4.265366
5.126045
6.098503
6.859642
7.133514
6.797668
5.94175
4.796135
3.631653
2.641426
1.91156
1.451431
1.209564
1.139336
1.18335
1.254951
1.257248
1.071365
0.6224747
-0.08355713
-0.9295959
-1.748169
-2.386055
-2.802055
-3.067963
-3.365875
-3.8573
-4.624588
-5.638863
-6.802223
-8.014359
-9.186684
-10.24351
-11.05011
-11.41201
-11.11987
-10.06179
-8.322281
-6.177216
-4.015511
-2.13427
-0.6598663
0.4791336
1.437424
2.347366
3.205444
3.943192
4.463615
4.751709
4.844566
4.823341
4.750572
4.66172
4.587395
4.546799
4.528061
4.508301
4.445152
4.343887
4.275475
4.366592
4.670914
5.104515
5.413338
5.289841
4.595787
3.439926
2.195839
1.255775
0.8401871
0.8761673
1.07518
1.124771
0.8431702
0.2481079
-0.551918
-1.403481
-2.233856
-3.002518
-3.742004
-4.461273
-5.171158
-5.895203
-6.677017
-7.576447
-8.612373
-9.779419
-11.03222
-12.31718
-13.50333
-14.3932
-14.72395
-14.19433
-12.62679
-10.06751
-6.857468
-3.502197
-0.5449982
1.630325
2.882416
3.324348
3.227455
2.920059
2.661942
2.588203
2.723831
3.008125
3.354263
3.664719
3.86586
3.992317
4.154999
4.492851
5.069397
5.814476
6.505898
6.899689
6.897591
6.613533
6.347862
6.386238
6.839584
7.54129
8.119171
8.197411
7.602455
6.425079
4.919868
3.360657
1.887581
0.5236893
-0.7510071
-1.885925
-2.78701
-3.339615
-3.533989
-3.513496
-3.504875
-3.783493
-4.503487
-5.622849
-6.856583
-7.757744
-7.904335
-7.084175
-5.399628
-3.223839
-1.015404
0.8882294
2.362488
3.506912
4.44072
5.206535
5.700294
5.819443
5.595711
5.220497
4.96566
5.045952
5.486755
6.068985
6.5355
6.685318
6.522507
6.19342
5.8349
5.489906
5.049576
4.346413
3.313553
2.027458
0.7526627
-0.2214432
-0.7439499
-0.8658447
-0.8236008
-0.9125977
-1.322876
-2.069809
-3.001991
-3.908958
-4.627502
-5.137093
-5.512352
-5.817123
-6.113159
-6.403816
-6.654007
-6.916145
-7.317291
-8.016228
-9.098206
-10.43345
-11.66006
-12.32768
-12.03064
-10.5969
-8.219513
-5.360283
-2.576393
-0.3365707
1.199257
2.139229
2.765289
3.339706
4.012138
4.743111
5.401306
5.861351
6.040909
5.980972
5.74733
5.411171
5.047234
4.713196
4.462013
4.349815
4.385841
4.488388
4.586082
4.549263
4.318123
3.886993
3.26162
2.483238
1.549667
0.4570389
-0.8039551
-2.133461
-3.40464
-4.441902
-5.145195
-5.566223
-5.896446
-6.383705
-7.188454
-8.281464
-9.452484
-10.43307
-10.98627
-11.00774
-10.55178
-9.699516
-8.518051
-6.98632
-5.051712
-2.701286
-0.0631485
2.619621
5.044159
6.916588
8.064056
8.403809
8.019875
7.13118
6.070404
5.199684
4.776367
4.88781
5.355743
5.89592
6.187965
6.080513
5.644012
5.12458
4.810837
4.87001
5.269012
5.812714
6.27697
6.462509
6.264969
5.621521
4.536797
3.046471
1.297592
-0.5394897
-2.288818
-3.828964
-5.141983
-6.274445
-7.355316
-8.471458
-9.663464
-10.86427
-11.90305
-12.58304
-12.68584
-12.0653
-10.68025
-8.588188
-5.980465
-3.089607
-0.1897583
2.463268
4.644012
6.177307
7.013348
7.199978
6.952053
6.552464
6.277466
6.268307
6.525772
6.924732
7.31115
7.569595
7.708229
7.753002
7.784698
7.790405
7.670971
7.30719
6.624699
5.723431
4.844742
4.279785
4.257328
4.774384
5.626511
6.48912
7.070724
7.216976
6.930046
6.27142
5.301731
4.061749
2.593956
0.9879761
-0.5262299
-1.728554
-2.50893
-2.917183
-3.11618
-3.313946
-3.661064
-4.20871
-5.005566
-6.081322
-7.410423
-8.907589
-10.32101
-11.26698
-11.39218
-10.50257
-8.692966
-6.320564
-3.842163
-1.634926
0.1342278
1.464127
2.47963
3.302128
3.968758
4.479816
4.828388
5.051315
5.232201
5.469421
5.790974
6.128975
6.373878
6.441673
6.351845
6.201694
6.094353
6.100018
6.189949
6.308861
6.416977
6.495811
6.535271
6.547577
6.496399
6.329399
6.028404
5.637032
5.245506
4.907913
4.585808
4.125954
3.378036
2.236618
0.7393723
-0.9406586
-2.632439
-4.169983
-5.465561
-6.448677
-7.120049
-7.480293
-7.606499
-7.601868
-7.550598
-7.550903
-7.653519
-7.884193
-8.210709
-8.524689
-8.651779
-8.372574
-7.491058
-5.903343
-3.744835
-1.302765
1.070839
3.043213
4.478653
5.37336
5.812828
5.88205
5.643311
5.139061
4.479538
3.834702
3.419449
3.429733
3.940132
4.874161
6.004982
7.079834
7.861069
8.315559
8.507233
8.615768
8.804405
9.079056
9.309883
9.260628
8.783485
7.869537
6.695694
5.495148
4.46537
3.677399
3.080925
2.57534
2.099007
1.623047
1.143623
0.6360245
0.01384735
-0.832016
-1.953033
-3.273628
-4.605911
-5.713226
-6.429604
-6.73304
-6.73597
-6.675934
-6.777527
-7.158669
-7.807808
-8.578583
-9.331741
-9.969604
-10.49041
-10.90859
-11.17867
-11.17815
-10.71392
-9.62648
-7.901909
-5.71817
-3.391235
-1.300949
0.3016434
1.37944
2.077339
2.623573
3.196266
3.83976
4.449127
4.892349
5.097382
5.13591
5.153275
5.279854
5.515503
5.657654
5.472343
4.800171
3.699791
2.449181
1.432266
0.9208679
0.9650879
1.423225
2.011795
2.512527
2.842438
3.053772
3.25325
3.515564
3.780823
3.910706
3.771637
3.357376
2.802536
2.346191
2.210922
2.397995
2.681076
2.712311
2.21048
1.142303
-0.2522888
-1.605194
-2.597855
-3.117325
-3.248413
-3.207123
-3.181717
-3.279877
-3.579498
-4.123306
-4.964111
-6.090973
-7.375183
-8.544739
-9.303848
-9.453247
-8.96019
-7.987045
-6.761307
-5.479004
-4.212143
-2.957718
-1.696472
-0.4363098
0.7414856
1.695526
2.33316
2.634598
2.667053
2.586487
2.528748
2.554657
2.627686
2.630859
2.485474
2.216125
2.001099
2.062546
2.555649
3.444016
4.4487
5.241882
5.522781
5.225555
4.490616
3.572098
2.682388
1.915924
1.28183
0.7456207
0.3228912
0.0242157
-0.1564026
-0.2892303
-0.4749908
-0.8104706
-1.294128
-1.840088
-2.339554
-2.680237
-2.850784
-2.916718
-2.982559
-3.178116
-3.570496
-4.138077
-4.790588
-5.409088
-5.876343
-6.15271
-6.306686
-6.422684
-6.584702
-6.707733
-6.640045
-6.215408
-5.418747
-4.426193
-3.545319
-3.010773
-2.843719
-2.837936
-2.684586
-2.161392
-1.280029
-0.2610168
0.6372375
1.230881
1.524384
1.641556
1.67392
1.632797
1.459259
1.126083
0.7448425
0.5147247
0.5904999
1.013962
1.590546
2.029419
2.060974
1.612823
0.836792
0.02610779
-0.5404053
-0.7274017
-0.5756836
-0.2667084
-0.01254272
0.02192688
-0.2247314
-0.690567
-1.271484
-1.821304
-2.283722
-2.666107
-3.048981
-3.512604
-4.074417
-4.686844
-5.20224
-5.513107
-5.597214
-5.530624
-5.486862
-5.652405
-6.13382
-6.928757
-7.91597
-8.835297
-9.376495
-9.245422
-8.305115
-6.664459
-4.664841
-2.754974
-1.319458
-0.5097961
-0.194046
-0.0647583
0.2020264
0.7436523
1.504456
2.3069
2.951813
3.375824
3.622101
3.787003
3.92836
4.020615
3.977737
3.72731
3.33728
2.969238
2.842468
3.061981
3.568329
4.138504
4.472519
4.37178
3.817673
2.97879
2.10463
1.429047
1.05452
0.9332123
0.8942719
0.7558441
0.3881683
-0.1772461
-0.7833557
-1.266693
-1.517944
-1.593613
-1.643555
-1.829788
-2.20401
-2.732849
-3.321136
-3.915024
-4.569733
-5.351501
-6.311096
-7.360962
-8.339203
-9.107178
-9.607452
-9.911285
-10.12079
-10.21355
-10.06892
-9.506699
-8.436996
-6.953842
-5.256088
-3.57901
-2.093033
-0.8726501
0.07077026
0.7513123
1.168396
1.34462
1.354004
1.34996
1.476669
1.82579
2.393204
3.088654
3.807159
4.470657
5.046143
5.522949
5.868378
6.048157
6.022964
5.81987
5.493195
5.093109
4.63121
4.060211
3.330963
2.426086
1.393539
0.3082886
-0.7304993
-1.69812
-2.592987
-3.471161
-4.360641
-5.290771
-6.235443
-7.141434
-7.953888
-8.634155
-9.237854
-9.867554
-10.67075
-11.72107
-12.92154
-13.95491
-14.34039
-13.62703
-11.64783
-8.656372
-5.275284
-2.22052
-0.014328
1.25087
1.869675
2.308701
2.948303
3.856125
4.832153
5.56723
5.856598
5.69397
5.284622
4.927917
4.862137
5.151657
5.705154
6.306625
6.767105
7.0159
7.08728
7.106659
7.186478
7.334106
7.38147
7.118866
6.363968
5.125397
3.627304
2.20636
1.128647
0.4345398
-0.08422852
-0.7319412
-1.697052
-2.946274
-4.236023
-5.314964
-6.062737
-6.589569
-7.130142
-7.901054
-8.920868
-9.974915
-10.79943
-11.1533
-10.94921
-10.23946
-9.112267
-7.60746
-5.77861
-3.713158
-1.586319
0.3685455
1.973572
3.205078
4.144577
4.939461
5.669563
6.283852
6.639023
6.604904
6.178772
5.498268
4.829842
4.413528
4.360588
4.6297
5.045769
5.444824
5.726677
5.916695
6.083534
6.276421
6.406792
6.329918
5.882904
5.024147
3.91468
2.83226
2.048294
1.668716
1.593704
1.566101
1.34539
0.8318863
0.07453918
-0.774292
-1.617607
-2.45063
-3.369179
-4.437523
-5.647919
-6.910828
-8.098686
-9.133827
-10.02753
-10.82296
-11.54791
-12.14756
-12.48641
-12.36362
-11.59161
-10.07726
-7.885078
-5.227829
-2.41317
0.2413635
2.516724
4.310192
5.662045
6.637611
7.299057
7.656578
7.719852
7.542988
7.244122
6.959278
6.76762
6.686794
6.663696
6.687576
6.759796
6.938251
7.194763
7.41713
7.457977
7.234344
6.781929
6.224411
5.679932
5.167316
4.622593
3.951771
3.132061
2.211529
1.302639
0.4949875
-0.176487
-0.7369194
-1.223534
-1.656738
-2.048813
-2.454655
-2.981747
-3.770166
-4.879023
-6.273878
-7.808834
-9.294464
-10.55007
-11.42304
-11.7597
-11.3704
-10.10827
-7.926065
-4.989054
-1.679649
1.46785
3.954935
5.505688
6.152422
6.165068
5.923859
5.728951
5.680127
5.745418
5.830647
5.840096
5.775557
5.66888
5.576946
5.55353
5.646252
5.897955
6.348299
6.974084
7.665355
8.272964
8.668972
8.775421
8.606384
8.243323
7.721161
7.031781
6.125942
4.978035
3.649183
2.273283
1.027198
0.03321451
-0.7323915
-1.364249
-1.966848
-2.606764
-3.264385
-3.897371
-4.491743
-5.10982
-5.84136
-6.786419
-7.915495
-9.128702
-10.27266
-11.14021
-11.54194
-11.30358
-10.26447
-8.358804
-5.716981
-2.656206
0.3777151
2.912746
4.6798
5.698586
6.252058
6.772717
7.649358
9.023292
10.77311
12.51299
13.76836
14.20208
13.73229
12.57814
11.16062
9.925737
9.126282
8.723802
8.45301
7.979311
7.074757
5.751585
4.231447
2.827562
1.768816
1.119394
0.7609272
0.5071621
0.2030296
-0.1768169
-0.5195332
-0.6923809
-0.6032505
-0.2877884
0.07990837
0.3030586
0.2290096
-0.209631
-1.013943
-2.124367
-3.457066
-4.86895
-6.172083
-7.205193
-7.891504
-8.302864
-8.695013
-9.372162
-10.50504
-12.0514
-13.70828
-15.02145
-15.5843
-15.13856
-13.66692
-11.35835
-8.562347
-5.619291
-2.868643
-0.5320091
1.289415
2.591784
3.490698
4.142958
4.739874
5.435541
6.294178
7.236807
8.07407
8.580307
8.57918
8.077896
7.294243
6.585211
6.323082
6.723558
7.742846
9.093323
10.38716
11.24809
11.47512
11.04957
10.13058
8.911209
7.568436
6.2388
5.016949
4.012276
3.294693
2.866734
2.611195
2.382504
2.063389
1.669361
1.312077
1.068336
0.9035721
0.6434364
0.0810051
-0.8926888
-2.191895
-3.597557
-4.894306
-6.023609
-7.094112
-8.274353
-9.604824
-10.90816
-11.86432
-12.15596
-11.6459
-10.44033
-8.810528
-7.071259
-5.404591
-3.806686
-2.13438
-0.2311897
1.950809
4.244633
6.379879
8.071823
9.13039
9.581394
9.54438
9.171223
8.573135
7.839741
7.001858
6.138126
5.326466
4.642311
4.111839
3.706371
3.386452
3.150959
3.043331
3.093479
3.269714
3.463612
3.508606
3.261604
2.686794
1.861969
0.9780502
0.1954346
-0.3791695
-0.7385139
-0.9703293
-1.185389
-1.447964
-1.819965
-2.306412
-2.878872
-3.511028
-4.155979
-4.780014
-5.395969
-6.06601
-6.868023
-7.878191
-9.068859
-10.27904
-11.21584
-11.54238
-11.021
-9.612183
-7.476652
-4.951809
-2.424637
-0.1836777
1.610661
2.970001
4.007338
4.875448
5.632097
6.27704
6.668907
6.659946
6.206081
5.380917
4.389626
3.535236
3.055885
3.042627
3.375141
3.77829
3.995953
3.923258
3.653469
3.448181
3.553406
4.033537
4.721684
5.3097
5.49917
5.183031
4.464838
3.565052
2.675365
1.881823
1.111954
0.2496281
-0.7844372
-1.98855
-3.240477
-4.392334
-5.315313
-5.919048
-6.213419
-6.345142
-6.531858
-6.99021
-7.86484
-9.104675
-10.4662
-11.61311
-12.28833
-12.4034
-12.08419
-11.49388
-10.74667
-9.79538
-8.499826
-6.760132
-4.630688
-2.309338
-0.01296616
2.101891
4.011845
5.786209
7.364319
8.554974
9.0882
8.832947
7.91531
6.7113
5.68679
5.158302
5.167225
5.512051
5.941013
6.288517
6.547485
6.78508
7.036163
7.232361
7.238518
6.982086
6.452824
5.753506
4.95348
4.076462
3.103382
2.082249
1.13842
0.4449272
0.1127548
0.09769058
0.2252274
0.2332802
-0.07008362
-0.7101707
-1.577732
-2.531948
-3.497425
-4.515335
-5.697426
-7.098793
-8.704243
-10.35803
-11.80452
-12.78665
-13.07903
-12.59755
-11.40163
-9.693718
-7.698627
-5.646965
-3.68774
-1.883049
-0.2831764
1.099682
2.270813
3.276398
4.185551
5.053738
5.858902
6.495773
6.833439
6.778984
6.383892
5.848763
5.46666
5.465916
5.908474
6.666874
7.495834
8.154194
8.501457
8.538105
8.361607
8.122643
7.935696
7.860664
7.888039
7.947262
7.909073
7.611839
6.933361
5.826218
4.359596
2.68882
1.030987
-0.4136009
-1.525017
-2.254997
-2.673485
-2.854111
-2.918755
-2.992138
-3.180878
-3.552319
-4.078667
-4.68848
-5.275196
-5.827709
-6.414972
-7.167793
-8.184303
-9.438721
-10.72891
-11.73948
-12.17803
-11.83243
-10.6845
-8.893105
-6.746935
-4.580837
-2.683279
-1.217007
-0.2002468
0.462883
0.9221764
1.289373
1.59868
1.829067
1.960852
2.066061
2.262405
2.693563
3.406015
4.301561
5.164337
5.761696
5.969488
5.829819
5.584354
5.493017
5.726521
6.26713
6.913
7.378223
7.38409
6.848717
5.856722
4.620892
3.384953
2.328535
1.53632
1.058706
0.8614292
0.8649464
0.9098434
0.8076572
0.383934
-0.4249706
-1.550711
-2.834284
-4.06633
-5.084084
-5.825392
-6.286636
-6.537064
-6.708422
-7.00795
-7.620829
-8.626287
-9.850031
-10.86978
-11.15173
-10.3337
-8.441954
-5.899446
-3.318773
-1.218227
0.1896973
1.005819
1.489071
1.903637
2.37743
2.924675
3.52322
4.154255
4.790884
5.347191
5.686499
5.709106
5.43667
5.081198
4.929295
5.225786
6.023539
7.140165
8.258158
9.071672
9.412777
9.284771
8.81131
8.110735
7.286129
6.400501
5.502083
4.649029
3.909712
3.333212
2.908918
2.582577
2.269722
1.93181
1.530148
1.034895
0.4124374
-0.3793163
-1.366751
-2.448631
-3.500914
-4.392752
-5.060537
-5.571943
-6.084081
-6.761216
-7.716392
-8.958968
-10.34373
-11.66596
-12.7475
-13.42565
-13.6372
-13.31764
-12.38275
-10.78774
-8.585617
-5.970684
-3.247998
-0.7607241
1.302873
2.934305
4.271091
5.475228
6.565255
7.394754
7.751289
7.517277
6.818446
6.016095
5.494196
5.483366
5.943156
6.579472
7.043962
7.151443
6.965003
6.721739
6.66237
6.8659
7.209754
7.472773
7.423221
7.019723
6.383937
5.679415
4.996333
4.260499
3.311319
2.073529
0.6610308
-0.6513178
-1.513085
-1.735143
-1.375452
-0.7503402
-0.2811154
-0.3306124
-1.033029
-2.274153
-3.744837
-5.094847
-6.058405
-6.567448
-6.703798
-6.640347
-6.577958
-6.711003
-7.157669
-7.966619
-9.075363
-10.26078
-11.16729
-11.39718
-10.64889
-8.866464
-6.29726
-3.435834
-0.8211155
1.125401
2.277736
2.805301
3.047402
3.345959
3.905158
4.663395
5.343345
5.621127
5.237691
4.214078
2.869485
1.692715
1.127734
1.344143
2.150044
3.115454
3.851978
4.183146
4.2547
4.346843
4.686311
5.279457
5.902006
6.231039
6.083148
5.448625
4.496204
3.424896
2.329667
1.194613
-0.009305954
-1.200689
-2.166967
-2.654615
-2.546093
-2.005512
-1.416962
-1.24206
-1.793808
-2.977989
-4.44243
-5.72263
-6.511215
-6.810263
-6.89954
-7.12084
-7.651794
-8.44602
-9.239202
-9.74733
-9.763462
-9.219418
-8.143116
-6.638599
-4.804848
-2.786898
-0.7424183
1.1717
2.793177
4.034348
4.837048
5.181946
5.072765
4.59119
3.86495
3.094778
2.490866
2.178408
2.210897
2.544577
3.025892
3.456728
3.688745
3.654675
3.418793
3.175987
3.143612
3.43256
3.94702
4.405386
4.506628
4.101286
3.280212
2.321848
1.559259
1.170874
1.132942
1.27947
1.394291
1.34729
1.094761
0.6489716
0.03261566
-0.724781
-1.583862
-2.462849
-3.292431
-4.020828
-4.664654
-5.301018
-6.001831
-6.808582
-7.670654
-8.553814
-9.410458
-10.15575
-10.66634
-10.76409
-10.25734
-9.025284
-7.147896
-4.870289
-2.537689
-0.4414101
1.288998
2.668434
3.786304
4.675949
5.310474
5.613827
5.572205
5.273102
4.887493
4.563175
4.353516
4.259354
4.256313
4.37384
4.644089
5.091228
5.646652
6.175438
6.529316
6.601471
6.416084
6.047058
5.575775
4.986397
4.225346
3.244381
2.094002
0.938343
-0.01486206
-0.6265068
-0.9148483
-0.9945908
-1.050282
-1.209042
-1.531536
-2.00795
-2.615162
-3.329189
-4.130711
-4.983353
-5.806847
-6.535908
-7.175186
-7.795647
-8.527954
-9.442467
-10.48973
-11.43003
-11.95964
-11.80559
-10.87074
-9.270588
-7.276989
-5.201183
-3.249435
-1.475941
0.2116241
1.906403
3.6017
5.127663
6.264633
6.853046
6.869144
6.476807
5.911507
5.386257
4.983162
4.690876
4.460575
4.308666
4.287319
4.445179
4.793003
5.24955
5.693386
6.034657
6.251362
6.38118
6.433758
6.344643
5.980881
5.240303
4.105797
2.6712
1.122864
-0.345974
-1.614346
-2.609688
-3.30809
-3.697083
-3.805321
-3.696098
-3.453377
-3.18383
-2.946583
-2.770943
-2.65554
-2.60146
-2.628353
-2.832016
-3.323826
-4.193371
-5.425457
-6.893803
-8.328499
-9.409428
-9.836636
-9.456879
-8.313793
-6.635719
-4.725761
-2.858646
-1.228733
0.1234055
1.185734
1.936749
2.376736
2.551701
2.53746
2.492134
2.537617
2.707123
2.96011
3.173664
3.263294
3.257751
3.29248
3.554108
4.125683
4.977673
5.920124
6.685116
7.001408
6.709187
5.806896
4.44252
2.899731
1.475056
0.443924
-0.06195831
-0.0353241
0.346962
0.8634567
1.294903
1.448235
1.246571
0.6962814
-0.1479149
-1.184139
-2.286789
-3.369434
-4.357529
-5.20742
-5.948925
-6.616547
-7.248165
-7.866238
-8.430344
-8.860909
-9.036575
-8.847626
-8.224712
-7.15976
-5.728573
-4.075264
-2.394012
-0.83918
0.5019798
1.629612
2.603256
3.473549
4.254356
4.925564
5.430607
5.717342
5.791874
5.745979
5.695862
5.759869
5.968243
6.219238
6.371494
6.292538
5.937634
5.398094
4.848175
4.405975
4.114838
3.92131
3.731186
3.515305
3.327888
3.246681
3.295448
3.409332
3.378433
3.040329
2.31739
1.263054
0.06024933
-1.059906
-1.940338
-2.531845
-2.920654
-3.2882
-3.764084
-4.407669
-5.13694
-5.783592
-6.18116
-6.321358
-6.324982
-6.420059
-6.782547
-7.415062
-8.156349
-8.771622
-9.042953
-8.853073
-8.220787
-7.158005
-5.682442
-3.819405
-1.634438
0.6867371
2.847382
4.585579
5.709
6.142021
6.007141
5.50386
4.824715
4.153236
3.586609
3.13797
2.800591
2.556931
2.438004
2.537773
2.971436
3.790825
4.920929
6.116013
7.029922
7.345985
6.902618
5.770065
4.265511
2.775063
1.617218
0.942482
0.6660461
0.5995636
0.5692368
0.4969101
0.4133072
0.3950195
0.4157104
0.372261
0.171463
-0.2464828
-0.8003922
-1.321419
-1.707672
-1.954247
-2.186127
-2.625816
-3.41877
-4.584259
-6.013596
-7.499802
-8.815285
-9.78096
-10.26607
-10.20195
-9.59066
-8.489922
-7.018333
-5.32428
-3.545532
-1.82238
-0.2362289
1.155167
2.318909
3.20694
3.798256
4.086021
4.107826
3.941711
3.703697
3.490883
3.380692
3.39801
3.494438
3.61702
3.701973
3.717949
3.64241
3.462494
3.19313
2.867493
2.59201
2.438759
2.477638
2.686455
2.957993
3.132645
3.072418
2.693039
2.029205
1.21067
0.4054489
-0.2284241
-0.5749741
-0.6580048
-0.5722504
-0.4891891
-0.5837402
-0.9315948
-1.496422
-2.153549
-2.750259
-3.20887
-3.543953
-3.822998
-4.116814
-4.485519
-4.935356
-5.507133
-6.238976
-7.130516
-8.082542
-8.860237
-9.13945
-8.677887
-7.462845
-5.742035
-3.917313
-2.344162
-1.13884
-0.1924362
0.7727509
1.927979
3.249992
4.454979
5.262985
5.527664
5.371132
5.130173
5.09436
5.383904
5.865898
6.255356
6.300591
5.9217
5.273468
4.594131
4.122002
3.919312
3.905006
3.892113
3.728058
3.344559
2.793922
2.228134
1.815353
1.660347
1.720505
1.838379
1.809006
1.492119
0.8831253
0.09011078
-0.6951752
-1.350563
-1.823555
-2.187729
-2.544144
-2.967522
-3.433006
-3.894516
-4.302528
-4.631378
-4.918747
-5.247726
-5.653061
-6.165443
-6.757675
-7.378418
-7.940941
-8.360962
-8.51445
-8.277954
-7.554337
-6.309029
-4.633408
-2.714691
-0.7977905
0.9183197
2.31398
3.391296
4.219879
4.866646
5.383316
5.706627
5.751709
5.437088
4.781807
3.934258
3.136467
2.602234
2.492867
2.78846
3.308098
3.815147
4.134064
4.182846
4.041779
3.877037
3.828606
3.987488
4.348373
4.823624
5.299393
5.655647
5.787247
5.600899
5.024948
4.083321
2.842377
1.444763
0.06069946
-1.147499
-2.078117
-2.752922
-3.26651
-3.816368
-4.543007
-5.459435
-6.431664
-7.195717
-7.528
-7.385979
-6.946426
-6.549507
-6.493599
-6.884804
-7.547119
-8.156624
-8.424606
-8.228409
-7.654839
-6.846428
-5.895447
-4.774719
-3.44883
-1.983116
-0.6121216
0.4194565
0.9810486
1.190132
1.357155
1.787155
2.574959
3.537926
4.331917
4.62027
4.319817
3.622581
2.884514
2.499321
2.6866
3.418983
4.449806
5.423721
6.03463
6.150871
5.846268
5.311699
4.714462
4.087395
3.328964
2.333099
1.136269
-0.01031494
-0.7851181
-0.9588394
-0.5909424
0.003059387
0.4030075
0.3102036
-0.2861938
-1.158424
-1.983093
-2.547867
-2.811234
-2.883141
-2.880409
-2.887718
-2.93959
-3.085747
-3.479195
-4.26828
-5.524872
-7.16333
-8.878525
-10.26105
-10.97347
-10.86993
-10.05875
-8.812111
-7.462708
-6.218796
-5.143875
-4.16674
-3.16497
-2.062431
-0.861824
0.365799
1.53035
2.539803
3.343109
3.915497
4.305901
4.574615
4.806366
5.076271
5.453003
5.960876
6.569366
7.183891
7.652206
7.881317
7.838898
7.575676
7.217896
6.846313
6.476898
6.071098
5.54364
4.872223
4.098465
3.347908
2.720695
2.285698
1.99424
1.705482
1.293625
0.6666946
-0.1484985
-1.035385
-1.866333
-2.551765
-3.044365
-3.355858
-3.523399
-3.584717
-3.635948
-3.805428
-4.217171
-4.994759
-6.194595
-7.719025
-9.402786
-11.02159
-12.30437
-13.00497
-12.89474
-11.82677
-9.754753
-6.855759
-3.510994
-0.266098
2.340828
3.973534
4.565094
4.358971
3.741165
3.079155
2.617691
2.446915
2.527451
2.77533
3.168312
3.666557
4.24218
4.780777
5.085403
4.975975
4.384552
3.448654
2.483917
1.884972
1.874695
2.433258
3.3153
4.14267
4.589699
4.499481
3.913795
3.01532
2.082825
1.323502
0.8531036
0.6319427
0.5253601
0.3434143
-0.05375671
-0.6448822
-1.294868
-1.78112
-1.972672
-1.945709
-1.955086
-2.283012
-3.033386
-4.11541
-5.274315
-6.301842
-7.13044
-7.851707
-8.565704
-9.220268
-9.56237
-9.235252
-8.012367
-5.958694
-3.413177
-0.8876114
1.202316
2.694527
3.655838
4.239433
4.554245
4.614326
4.406502
3.947113
3.336563
2.679512
2.076195
1.554695
1.104248
0.7573013
0.6116104
0.8238297
1.50444
2.634483
4.065338
5.566238
6.856171
7.698883
7.942551
7.523636
6.499489
5.069077
3.500885
2.111214
1.14373
0.6520157
0.5458679
0.5918808
0.5417557
0.2463608
-0.3312073
-1.127319
-2.025459
-2.944466
-3.860901
-4.794975
-5.768318
-6.758698
-7.666077
-8.355164
-8.751038
-8.825714
-8.697571
-8.539063
-8.453163
-8.404472
-8.204308
-7.628372
-6.525688
-4.955818
-3.128754
-1.369118
0.04364777
1.017876
1.638428
2.120506
2.68248
3.431747
4.302673
5.114548
5.689659
5.965385
6.020073
5.991379
6.002602
6.069038
6.099083
5.97702
5.627754
5.101051
4.516792
4.018066
3.649437
3.411377
3.245483
3.08374
2.873169
2.536781
2.030685
1.309547
0.4299927
-0.4791489
-1.225983
-1.678596
-1.786201
-1.582413
-1.213539
-0.8348923
-0.5929718
-0.6010971
-0.9461594
-1.638039
-2.64389
-3.854034
-5.094498
-6.231079
-7.203384
-8.030205
-8.775124
-9.45887
-10.00967
-10.25884
-10.04832
-9.249916
-7.885223
-6.086189
-4.043129
-1.954407
-0.007217407
1.675339
3.020241
3.988014
4.602577
4.921303
5.026909
4.971512
4.800995
4.560493
4.308701
4.116577
4.056892
4.166779
4.386406
4.62722
4.77356
4.757263
4.593254
4.386742
4.207031
4.081367
3.935669
3.677734
3.22377
2.598442
1.89312
1.199898
0.6032486
0.04756165
-0.5412064
-1.218857
-1.9739
-2.676872
-3.184273
-3.427704
-3.48098
-3.519554
-3.750526
-4.324883
-5.289444
-6.593391
-8.106606
-9.630257
-10.8966
-11.59542
-11.47673
-10.43246
-8.570202
-6.159138
-3.584366
-1.120064
1.058739
2.88916
4.357883
5.440819
6.060749
6.221573
6.024834
5.651123
5.334
5.200195
5.2906
5.519588
5.76086
5.903
5.868984
5.640484
5.245426
4.788475
4.408581
4.220997
4.270844
4.507751
4.789875
4.96788
4.962921
4.7453
4.35799
3.823421
3.163994
2.40398
1.610905
0.8678246
0.2181816
-0.3691216
-1.010983
-1.797009
-2.756802
-3.795265
-4.77467
-5.574474
-6.219093
-6.871387
-7.707428
-8.834358
-10.18587
-11.5566
-12.67808
-13.31201
-13.28568
-12.56503
-11.19683
-9.318985
-7.129528
-4.803955
-2.530163
-0.4104576
1.510426
3.228779
4.719254
5.894909
6.66581
6.98217
6.934879
6.734081
6.624802
6.760838
7.13567
7.573742
7.878735
7.955219
7.857994
7.765785
7.830757
8.089916
8.479034
8.865852
9.125324
9.199524
9.002525
8.408718
7.324074
5.748009
3.893959
2.132906
0.8332043
0.1534328
-0.03248787
-0.05943108
-0.2890472
-0.8684673
-1.703714
-2.543367
-3.184761
-3.600279
-3.922865
-4.322313
-4.896421
-5.630768
-6.445089
-7.296608
-8.17951
-9.108786
-10.0417
-10.82681
-11.22457
-11.00957
-10.03284
-8.296511
-6.008114
-3.506046
-1.210083
0.5438881
1.633858
2.162054
2.418522
2.699795
3.174063
3.757435
4.235188
4.40242
4.234135
3.917337
3.695457
3.727449
4.001921
4.342129
4.573805
4.625023
4.594585
4.662226
4.960505
5.463331
5.986841
6.268778
6.082026
5.377281
4.33131
3.233339
2.388777
2.008268
2.088381
2.45768
2.817688
2.858885
2.38607
1.386793
0.02514839
-1.426283
-2.707125
-3.656378
-4.206738
-4.439932
-4.529001
-4.670717
-5.051682
-5.765002
-6.758331
-7.890642
-8.915839
-9.597969
-9.721553
-9.155117
-7.884086
-6.009349
-3.731506
-1.298491
1.001225
2.920692
4.299463
5.086077
5.320597
5.153091
4.754524
4.298344
3.964748
3.889887
4.126734
4.596851
5.141995
5.583637
5.815888
5.868318
5.873337
5.973807
6.209668
6.510489
6.693203
6.591839
6.136929
5.392429
4.537386
3.715299
3.023582
2.502438
2.141986
1.920114
1.751261
1.540693
1.211185
0.7391911
0.1421013
-0.51686
-1.178461
-1.844276
-2.52354
-3.246364
-4.022666
-4.879183
-5.88369
-7.187855
-8.869349
-10.87393
-12.90108
-14.45681
-15.0886
-14.55405
-12.95744
-10.62258
-7.947572
-5.182508
-2.449021
0.1728101
2.585917
4.596861
6.050963
6.894493
7.233212
7.245474
7.099266
6.86502
6.560541
6.226796
5.932558
5.712827
5.551887
5.375321
5.118082
4.798741
4.552359
4.533466
4.828962
5.352014
5.914794
6.280174
6.334929
6.137381
5.852437
5.626512
5.510845
5.453567
5.334816
5.055017
4.593639
3.917529
3.007071
1.87266
0.5871086
-0.7573442
-2.02565
-3.170658
-4.22111
-5.21974
-6.187459
-7.059804
-7.675932
-7.895018
-7.772672
-7.56216
-7.628361
-8.28332
-9.556355
-11.08957
-12.33489
-12.73576
-11.99478
-10.21078
-7.791802
-5.236853
-2.950769
-1.127677
0.274086
1.383786
2.357299
3.236349
4.022872
4.715199
5.334245
5.900073
6.41759
6.845792
7.106489
7.179451
7.066108
6.846098
6.615899
6.398564
6.141488
5.82573
5.479616
5.20203
5.135476
5.358249
5.78375
6.262949
6.58532
6.613375
6.331757
5.811934
5.111429
4.30598
3.451833
2.614636
1.877437
1.273258
0.8014069
0.399725
0.01721764
-0.359642
-0.6685934
-0.8660698
-0.9916639
-1.17507
-1.584883
-2.284787
-3.179076
-4.053047
-4.684909
-4.97637
-5.051921
-5.188385
-5.659782
-6.590761
-7.885317
-9.291994
-10.51171
-11.32042
-11.614
-11.38576
-10.6698
-9.450023
-7.73962
-5.597281
-3.181785
-0.7339096
1.472218
3.203441
4.342005
4.891367
4.979347
4.798271
4.596392
4.542842
4.700785
4.991639
5.244162
5.300677
5.098135
4.703842
4.257519
3.920158
3.755285
3.731798
3.762674
3.803217
3.902782
4.12899
4.506432
4.947412
5.275723
5.30739
4.97776
4.393429
3.776308
3.330935
3.137449
3.078892
2.940691
2.544142
1.86384
1.052568
0.3032951
-0.3078842
-0.8568268
-1.464453
-2.213009
-3.000046
-3.643084
-4.017984
-4.160555
-4.282282
-4.642076
-5.348263
-6.304251
-7.287672
-8.125845
-8.81893
-9.470697
-10.16129
-10.79497
-11.07442
-10.61475
-9.190033
-6.86027
-4.034243
-1.276621
0.9119949
2.313217
2.988827
3.212049
3.294443
3.443052
3.688927
3.911669
3.968033
3.758768
3.32353
2.751705
2.173676
1.660423
1.233782
0.9106808
0.7294674
0.7870026
1.159861
1.881058
2.842697
3.861948
4.668472
5.039701
4.919224
4.417374
3.775476
3.218138
2.847939
2.600679
2.315594
1.856247
1.20606
0.49757
-0.140831
-0.6376896
-1.06288
-1.55801
-2.196224
-2.909348
-3.533133
-3.916197
-4.02985
-4.04571
-4.206749
-4.753845
-5.793312
-7.249931
-8.899822
-10.4397
-11.55387
-11.9555
-11.48922
-10.14794
-8.137012
-5.820866
-3.550327
-1.576311
0.06201935
1.441439
2.688072
3.817818
4.708578
5.162786
5.061749
4.502626
3.740814
3.138786
2.936481
3.168184
3.662079
4.154686
4.438526
4.432222
4.22617
3.956051
3.732826
3.607265
3.550148
3.516401
3.482901
3.465885
3.45076
3.412956
3.301113
3.082428
2.792885
2.472481
2.167803
1.874844
1.548752
1.129484
0.5550022
-0.2170086
-1.216354
-2.439772
-3.86462
-5.430779
-7.045324
-8.541334
-9.760059
-10.61061
-11.12219
-11.41495
-11.5966
-11.66568
-11.50982
-10.93151
-9.819315
-8.212017
-6.334936
-4.481239
-2.862383
-1.507809
-0.3010941
0.9089146
2.224142
3.550865
4.741999
5.628672
6.120024
6.204357
5.90222
5.263416
4.346828
3.324414
2.426715
1.906431
1.961506
2.618261
3.717034
4.999467
6.195256
7.095514
7.590355
7.607826
7.147942
6.303085
5.231104
4.139493
3.219727
2.533582
2.016891
1.492077
0.7822847
-0.2205744
-1.473146
-2.828171
-4.110823
-5.179066
-5.958565
-6.437073
-6.627753
-6.578751
-6.353827
-6.046633
-5.806512
-5.804762
-6.180958
-6.97836
-8.049929
-9.073365
-9.644938
-9.418047
-8.252688
-6.281787
-3.869031
-1.489431
0.4824343
1.872026
2.737863
3.27691
3.707992
4.161312
4.690823
5.245398
5.773006
6.205284
6.487245
6.572094
6.432599
6.076023
5.567671
5.010643
4.533593
4.247411
4.212412
4.400727
4.70445
4.963564
5.020258
4.836445
4.493155
4.162959
4.045123
4.205046
4.551337
4.881601
4.980877
4.709457
4.064357
3.113782
1.956493
0.6669788
-0.6966243
-2.077877
-3.345375
-4.372332
-5.05763
-5.415441
-5.602265
-5.854963
-6.384565
-7.316234
-8.591885
-10.00241
-11.28071
-12.20084
-12.61911
-12.49907
-11.85119
-10.709
-9.13158
-7.193138
-5.007922
-2.7181
-0.4640064
1.643848
3.48292
4.920924
5.794827
5.984736
5.525837
4.636597
3.67919
2.987049
2.775456
3.05216
3.686558
4.472119
5.243991
5.886537
6.296339
6.4077
6.208141
5.762501
5.201485
4.672985
4.257612
3.934183
3.619781
3.245825
2.823612
2.391331
1.985703
1.56665
0.999733
0.1888008
-0.8593655
-2.003399
-3.046255
-3.846556
-4.442125
-4.99769
-5.662254
-6.468159
-7.305399
-8.041706
-8.621645
-9.110126
-9.642996
-10.28124
-10.91627
-11.27331
-11.03523
-9.991158
-8.162794
-5.788696
-3.25132
-0.9065971
1.011093
2.48344
3.62994
4.637691
5.646961
6.61055
7.345581
7.666195
7.481972
6.952911
6.387115
6.083099
6.165203
6.54266
6.976227
7.239185
7.241577
7.051929
6.814636
6.655476
6.612949
6.665337
6.733978
6.758923
6.680103
6.470116
6.107174
5.602016
4.990818
4.263535
3.414509
2.452785
1.438889
0.5244484
-0.1209526
-0.4289398
-0.5186272
-0.6924553
-1.297115
-2.520615
-4.289795
-6.220959
-7.884884
-9.007511
-9.593254
-9.911152
-10.26756
-10.83221
-11.55485
-12.20034
-12.54074
-12.40881
-11.78244
-10.72283
-9.324772
-7.675926
-5.837307
-3.838516
-1.704926
0.5200233
2.774635
4.887093
6.659382
7.903339
8.565254
8.773598
8.77409
8.813526
8.96273
9.138634
9.179867
8.992661
8.609451
8.192616
7.880013
7.699425
7.560932
7.329967
6.948872
6.456078
5.978424
5.63126
5.430111
5.309017
5.155163
4.914303
4.603714
4.296032
4.029575
3.779274
3.430023
2.856411
2.029774
1.001312
-0.09073639
-1.157272
-2.206692
-3.324017
-4.599598
-6.03339
-7.52549
-8.886074
-9.962273
-10.69174
-11.14529
-11.46733
-11.8146
-12.25297
-12.7347
-13.0811
-13.02351
-12.34064
-10.89032
-8.743847
-6.142002
-3.395428
-0.7769508
1.603725
3.743195
5.650921
7.243839
8.377613
8.890194
8.734291
8.042725
7.058613
6.071716
5.337223
4.994827
5.114292
5.708015
6.667236
7.804741
8.844666
9.489887
9.535114
8.984772
8.016899
6.916588
5.953995
5.249401
4.789532
4.486763
4.236282
3.987541
3.729141
3.481529
3.224331
2.884979
2.356606
1.57988
0.5393753
-0.680172
-1.923203
-3.014641
-3.839218
-4.384224
-4.788246
-5.27504
-6.020176
-7.10939
-8.469597
-9.922569
-11.30785
-12.5108
-13.49982
-14.22724
-14.61479
-14.47917
-13.65858
-12.07717
-9.802467
-7.088737
-4.28714
-1.723518
0.4140701
2.115677
3.49482
4.678421
5.725739
6.589119
7.151566
7.371536
7.302528
7.107399
6.977638
7.045227
7.289619
7.611122
7.891251
8.093742
8.283859
8.570854
9.033844
9.659866
10.34195
10.94641
11.33597
11.40605
11.10279
10.47063
9.603935
8.63015
7.669449
6.749702
5.800537
4.723488
3.462143
2.04805
0.6530762
-0.5676346
-1.496658
-2.115948
-2.496956
-2.730179
-2.858612
-2.908512
-2.913181
-2.911564
-3.009789
-3.273304
-3.758362
-4.481384
-5.443226
-6.64579
-8.073818
-9.677395
-11.3263
-12.83582
-13.94835
-14.41568
-14.04585
-12.74448
-10.57442
-7.720024
-4.497032
-1.245731
1.686337
4.085999
5.87719
7.10355
7.911983
8.440624
8.739731
8.78548
8.555737
8.046947
7.363571
6.658188
6.054913
5.63562
5.374428
5.187416
4.993919
4.79493
4.634686
4.59787
4.725712
4.983601
5.287159
5.551033
5.701454
5.735012
5.704838
5.683289
5.724754
5.858307
6.052399
6.211731
6.191612
5.879539
5.22654
4.250996
3.032944
1.687996
0.2898674
-1.114822
-2.492271
-3.820999
-5.057034
-6.119972
-6.986172
-7.674454
-8.219345
-8.68
-9.099033
-9.507072
-9.989616
-10.65689
-11.56889
-12.66831
-13.76575
-14.52382
-14.62762
-13.89764
-12.34536
-10.1618
-7.645674
-5.084723
-2.676983
-0.5824261
1.11536
2.372192
3.207266
3.698847
3.969818
4.0912
4.101995
3.983948
3.74851
3.507723
3.399315
3.544243
3.952446
4.466579
4.845707
4.933159
4.759535
4.533607
4.561073
5.003319
5.777287
6.62517
7.209618
7.294399
6.848814
5.97016
4.837563
3.639009
2.485308
1.452009
0.6128407
-0.003686905
-0.4417572
-0.8141193
-1.297052
-2.017775
-2.977703
-4.086491
-5.166059
-6.064013
-6.747881
-7.315958
-7.953648
-8.874432
-10.1591
-11.70359
-13.26336
-14.49924
-15.06796
-14.79354
-13.66563
-11.85831
-9.662382
-7.370874
-5.182997
-3.180954
-1.328997
0.4555206
2.168004
3.753323
5.06956
6.007202
6.509212
6.630217
6.496519
6.286991
6.146017
6.149472
6.309153
6.587075
6.919658
7.236905
7.467494
7.544811
7.442877
7.147259
6.659422
6.043447
5.392732
4.798172
4.338149
4.041291
3.888972
3.848417
3.881576
3.926682
3.917306
3.72689
3.16821
2.099838
0.5224619
-1.363149
-3.210366
-4.622005
-5.369576
-5.492696
-5.262233
-5.060895
-5.143074
-5.557761
-6.152267
-6.755054
-7.313367
-7.955597
-8.846566
-10.05673
-11.39312
-12.44939
-12.7953
-12.20671
-10.76906
-8.77946
-6.616405
-4.522509
-2.554297
-0.6123524
1.424103
3.568415
5.679056
7.465371
8.630363
8.941109
8.406212
7.287881
6.02152
5.068903
4.716484
4.948677
5.484744
5.980433
6.201952
6.108882
5.867847
5.691188
5.708556
5.889676
6.097391
6.148468
5.948556
5.497819
4.91952
4.382977
4.012856
3.880147
3.903279
3.913163
3.690197
3.08661
2.067216
0.7613239
-0.6278729
-1.905728
-2.965844
-3.797993
-4.491598
-5.10947
-5.692675
-6.24731
-6.784073
-7.371326
-8.148941
-9.249296
-10.66098
-12.20877
-13.52897
-14.23051
-14.01607
-12.86588
-11.02002
-8.888423
-6.863479
-5.148498
-3.736417
-2.428258
-1.029693
0.5523378
2.205275
3.692124
4.761221
5.258825
5.192884
4.738878
4.170889
3.735074
3.569988
3.728367
4.116438
4.602034
5.038812
5.317697
5.425873
5.404172
5.358021
5.374376
5.515883
5.752704
5.989176
6.056419
5.838346
5.280646
4.436133
3.44839
2.489679
1.69232
1.104377
0.6662183
0.2419398
-0.3000293
-1.057118
-2.09219
-3.386258
-4.881987
-6.475082
-8.046534
-9.44332
-10.54092
-11.3172
-11.79421
-12.10059
-12.29504
-12.36664
-12.16088
-11.4245
-9.961559
-7.735777
-4.973131
-2.080777
0.4899747
2.422708
3.614382
4.200105
4.398819
4.39426
4.234877
3.900894
3.384715
2.799852
2.336668
2.146237
2.272375
2.618583
3.036158
3.429211
3.791993
4.188904
4.654242
5.144406
5.579119
5.920141
6.163082
6.313457
6.360652
6.215895
5.751452
4.876018
3.602189
2.091171
0.6194121
-0.5719842
-1.324333
-1.591306
-1.47269
-1.166357
-0.9301925
-1.004677
-1.561732
-2.630404
-4.146679
-5.930729
-7.783507
-9.558962
-11.13124
-12.3957
-13.2155
-13.4555
-13.0071
-11.86419
-10.13166
-8.057984
-5.94032
-4.013091
-2.397943
-1.084898
0.01274824
1.025874
2.025367
2.981021
3.81173
4.454356
4.945359
5.433835
6.042488
6.79867
7.559916
8.095684
8.190973
7.802551
7.078943
6.284473
5.671638
5.352537
5.293321
5.402749
5.566253
5.704133
5.798242
5.818923
5.740562
5.582042
5.405741
5.317451
5.39372
5.610333
5.837051
5.856512
5.443794
4.492209
3.132133
1.635736
0.3507214
-0.4826341
-0.9111881
-1.210766
-1.749005
-2.759361
-4.210572
-5.755855
-6.997966
-7.714465
-8.001987
-8.236277
-8.7533
-9.645184
-10.67348
-11.37583
-11.33811
-10.44074
-8.862528
-6.97521
-5.108191
-3.389597
-1.75967
-0.1043859
1.601981
3.230906
4.584107
5.509958
5.989233
6.148601
6.150475
6.111335
6.035359
5.866657
5.547792
5.082683
4.575195
4.159319
3.929056
3.902805
4.008965
4.164742
4.276219
4.267857
4.114245
3.826969
3.465609
3.116846
2.843146
2.626447
2.382661
1.987622
1.355348
0.5172539
-0.3824959
-1.158291
-1.660549
-1.908866
-2.017478
-2.159806
-2.471498
-2.961114
-3.576252
-4.226292
-4.861254
-5.493618
-6.185919
-6.988657
-7.878531
-8.790374
-9.538512
-9.896059
-9.655821
-8.696879
-7.031213
-4.843095
-2.402166
0.02851677
2.245006
4.183979
5.850861
7.24268
8.261555
8.756074
8.556153
7.64827
6.26277
4.814183
3.784446
3.470779
3.884465
4.736073
5.611368
6.17301
6.270331
5.989955
5.568871
5.23965
5.129953
5.2049
5.347899
5.388641
5.229762
4.885648
4.430103
3.97019
3.558205
3.145034
2.623319
1.940024
1.07435
0.1081126
-0.842088
-1.69612
-2.4627
-3.204728
-4.016528
-4.940821
-5.916463
-6.851369
-7.642784
-8.293344
-8.931138
-9.716757
-10.77268
-12.01832
-13.13758
-13.65635
-13.15861
-11.49849
-8.912686
-5.917897
-3.049353
-0.6459675
1.253222
2.806391
4.166821
5.343986
6.188614
6.523355
6.28754
5.634158
4.842124
4.183143
3.820973
3.780486
4.009007
4.469424
5.167732
6.111623
7.243045
8.403184
9.351314
9.865011
9.817734
9.249376
8.347537
7.366955
6.5262
5.940745
5.596081
5.411177
5.266356
5.063103
4.758475
4.306865
3.679521
2.8556
1.850195
0.7354832
-0.3812084
-1.42239
-2.368563
-3.242773
-4.070139
-4.864143
-5.594688
-6.217615
-6.663954
-6.888042
-6.892649
-6.729523
-6.566584
-6.616268
-7.090921
-8.041447
-9.322508
-10.57209
-11.36645
-11.38799
-10.57355
-9.118334
-7.321095
-5.454214
-3.623714
-1.859911
-0.1657772
1.368261
2.593952
3.399239
3.775723
3.894516
3.974007
4.181688
4.531279
4.893734
5.08321
4.998425
4.712095
4.40715
4.288712
4.457367
4.828384
5.206856
5.402462
5.330036
5.053223
4.737011
4.522861
4.437592
4.37722
4.216251
3.874695
3.373241
2.791489
2.164356
1.492588
0.7363319
-0.07847595
-0.8339348
-1.351192
-1.544682
-1.485451
-1.414219
-1.595726
-2.182228
-3.101551
-4.126945
-5.017044
-5.653442
-6.073528
-6.391266
-6.728687
-7.124432
-7.570068
-8.025791
-8.435562
-8.71228
-8.697212
-8.213497
-7.139668
-5.5172
-3.618183
-1.790241
-0.3704453
0.5291367
1.058933
1.488968
2.061897
2.822395
3.591942
4.116383
4.253433
4.019783
3.657063
3.432682
3.511818
3.934631
4.6185
5.430855
6.239502
6.909748
7.319202
7.379814
7.067387
6.474674
5.785122
5.172207
4.72818
4.402763
4.074749
3.622967
3.017185
2.304604
1.51215
0.6781883
-0.1919899
-1.094093
-1.958042
-2.630672
-2.972061
-2.916889
-2.575726
-2.179142
-2.018517
-2.337982
-3.199459
-4.452896
-5.843178
-7.09137
-8.054417
-8.713966
-9.165627
-9.496895
-9.729042
-9.82515
-9.707962
-9.336227
-8.687057
-7.749832
-6.484238
-4.869682
-2.966652
-0.9413986
0.9007034
2.307724
3.133659
3.479256
3.593285
3.736099
4.044479
4.464462
4.866226
5.115273
5.154922
5.043419
4.883057
4.746002
4.623863
4.451828
4.168877
3.793915
3.417595
3.158989
3.074738
3.168999
3.375908
3.622932
3.834457
3.924484
3.843613
3.527748
2.95192
2.149284
1.237778
0.4361572
-0.04718781
-0.08509064
0.2315292
0.6579971
0.8594437
0.5518494
-0.3498535
-1.689529
-3.130005
-4.296661
-4.947342
-5.07119
-4.907776
-4.822433
-5.121658
-5.905914
-7.022141
-8.169563
-9.018837
-9.35321
-9.130768
-8.417442
-7.346329
-6.02137
-4.512917
-2.932816
-1.459999
-0.300972
0.3881073
0.6080322
0.5359039
0.4843369
0.7444839
1.454704
2.527824
3.713043
4.706314
5.297249
5.40136
5.124458
4.684502
4.35656
4.31076
4.57338
4.990585
5.261406
5.154915
4.550003
3.550629
2.387436
1.294571
0.4172592
-0.2120209
-0.6170197
-0.819931
-0.8588333
-0.7805557
-0.6709518
-0.6437073
-0.8008575
-1.123909
-1.517784
-1.883522
-2.1875
-2.49189
-2.906326
-3.499321
-4.189484
-4.861694
-5.39473
-5.804123
-6.222702
-6.843201
-7.762535
-8.92794
-10.10116
-10.92477
-11.10008
-10.45204
-9.039597
-7.11422
-5.05143
-3.190742
-1.742355
-0.7354889
-0.01926422
0.6126251
1.303047
2.08226
2.896019
3.67836
4.37677
4.968002
5.428543
5.688583
5.667709
5.344879
4.768906
4.067436
3.414528
2.927673
2.661644
2.612656
2.752457
3.029785
3.401527
3.777504
4.040543
4.108925
3.991829
3.775215
3.560196
3.362694
3.0718
2.55854
1.766693
0.7722015
-0.2390518
-1.029373
-1.499008
-1.708771
-1.86779
-2.190231
-2.786301
-3.6539
-4.683929
-5.74427
-6.753616
-7.658348
-8.403145
-8.877747
-8.933693
-8.465363
-7.464157
-6.047104
-4.386467
-2.67347
-1.0252
0.5170364
1.941727
3.154228
3.974678
4.251862
3.957993
3.30703
2.665268
2.38726
2.593811
3.11338
3.555305
3.588898
3.113266
2.312988
1.526848
1.068199
1.044777
1.359291
1.803139
2.188278
2.446808
2.606094
2.742249
2.911095
3.095551
3.214569
3.166328
2.817337
2.139977
1.220993
0.2306213
-0.6166306
-1.164795
-1.447853
-1.641449
-1.966248
-2.578262
-3.47422
-4.523056
-5.5177
-6.290245
-6.779465
-7.063553
-7.249718
-7.432526
-7.634964
-7.800926
-7.787949
-7.473122
-6.789276
-5.742622
-4.486404
-3.188507
-1.981163
-0.9217377
0.05027771
1.002365
1.920364
2.72625
3.300339
3.581177
3.621841
3.503258
3.29351
3.01918
2.658272
2.256554
1.935104
1.865829
2.164772
2.78817
3.576088
4.307938
4.876808
5.282188
5.571472
5.762321
5.78804
5.554665
5.045868
4.340202
3.574394
2.879623
2.288048
1.731445
1.163475
0.5493698
-0.07466888
-0.6248016
-1.03788
-1.27684
-1.347374
-1.287552
-1.177284
-1.13176
-1.336693
-1.973564
-3.151726
-4.832306
-6.786095
-8.627098
-9.932358
-10.40433
-9.919342
-8.64959
-6.926697
-5.100693
-3.406342
-1.890129
-0.4574966
0.993187
2.426125
3.676842
4.531616
4.865334
4.750725
4.411201
4.08889
3.94648
3.986824
4.124252
4.282272
4.403412
4.50808
4.625519
4.718582
4.734818
4.591415
4.271759
3.846664
3.42321
3.059822
2.745026
2.396957
1.948318
1.448708
1.042793
0.8480988
0.8863754
1.012505
0.9841309
0.6410446
0.03227234
-0.6313705
-1.103745
-1.292976
-1.35257
-1.550758
-2.093102
-3.013023
-4.107361
-5.114616
-5.918709
-6.523872
-7.054787
-7.560486
-7.970772
-8.087776
-7.764412
-6.964218
-5.813286
-4.544136
-3.312851
-2.213722
-1.166908
-0.09519958
1.066162
2.242867
3.285164
3.974281
4.166252
3.908325
3.444344
3.124352
3.260918
3.965569
5.045441
6.101982
6.670906
6.467522
5.5457
4.199142
2.850876
1.869858
1.44416
1.563202
2.070023
2.736786
3.30706
3.577003
3.400002
2.760094
1.759827
0.5718384
-0.6238632
-1.726791
-2.697556
-3.536858
-4.216072
-4.67971
-4.886185
-4.884033
-4.858681
-5.044006
-5.589836
-6.450729
-7.342293
-7.876686
-7.747238
-6.866226
-5.405739
-3.667801
-1.92202
-0.3256531
1.108841
2.41272
3.574272
4.53376
5.207352
5.553093
5.617104
5.475334
5.20031
4.821312
4.348709
3.797646
3.245331
2.812729
2.621964
2.759918
3.241699
4.029083
4.997345
5.989914
6.758926
7.048073
6.681084
5.64286
4.165977
2.638885
1.441071
0.7509842
0.4610291
0.21315
-0.3534088
-1.419785
-2.868118
-4.31311
-5.35643
-5.747574
-5.537888
-5.029945
-4.639328
-4.707001
-5.330635
-6.371735
-7.494102
-8.352715
-8.697937
-8.486198
-7.80912
-6.86573
-5.860085
-4.885742
-4.010818
-3.197922
-2.438026
-1.70153
-0.9584656
-0.1698532
0.6728287
1.531227
2.326141
2.905579
3.198093
3.203476
3.036209
2.858376
2.7658
2.753532
2.718918
2.585011
2.347919
2.142372
2.196712
2.634487
3.439228
4.399986
5.178596
5.436039
5.019939
3.968197
2.527195
1.031487
-0.2483673
-1.161064
-1.757717
-2.163651
-2.563457
-3.060982
-3.645134
-4.212608
-4.643005
-4.937531
-5.180069
-5.553116
-6.153805
-6.899849
-7.502136
-7.581291
-6.8974
-5.419582
-3.432789
-1.340881
0.5411148
2.060429
3.257931
4.231403
5.008514
5.556316
5.824924
5.812786
5.631653
5.438618
5.353569
5.373634
5.425869
5.419601
5.34034
5.272301
5.35146
5.622753
6.008141
6.28027
6.160187
5.450169
4.16473
2.554626
1.003578
-0.1228714
-0.6726341
-0.6995277
-0.4931335
-0.3440399
-0.4653053
-0.8717308
-1.457405
-2.106319
-2.767967
-3.502422
-4.379913
-5.440834
-6.622589
-7.825462
-8.881439
-9.656029
-9.996914
-9.81694
-9.089359
-7.883923
-6.398365
-4.898846
-3.622543
-2.669376
-1.987587
-1.346638
-0.5263367
0.579834
1.92643
3.330002
4.591015
5.545071
6.104641
6.232918
5.969166
5.425625
4.735363
4.098454
3.644108
3.412125
3.355759
3.373981
3.399624
3.438263
3.578403
3.882919
4.366444
4.937332
5.43372
5.718884
5.714886
5.406925
4.824348
3.997719
2.947105
1.735886
0.4798851
-0.6936493
-1.69149
-2.502785
-3.202183
-3.888725
-4.592182
-5.286339
-5.886078
-6.372849
-6.84568
-7.471481
-8.394474
-9.547134
-10.62658
-11.19717
-10.92901
-9.760052
-7.958176
-5.989807
-4.270977
-3.007492
-2.099689
-1.247608
-0.1855736
1.159142
2.613136
3.844692
4.574287
4.745407
4.593864
4.454117
4.618008
5.107754
5.708485
6.102058
6.082115
5.685112
5.156311
4.795773
4.762615
5.003212
5.302135
5.436001
5.33432
5.040882
4.645733
4.183174
3.587345
2.734175
1.609245
0.3489246
-0.7600822
-1.450075
-1.607479
-1.349548
-0.9453354
-0.7247372
-0.9002514
-1.5172
-2.467768
-3.627476
-4.872679
-6.154886
-7.419075
-8.598724
-9.615175
-10.41043
-10.93551
-11.12807
-10.88924
-10.07891
-8.612011
-6.520437
-4.026684
-1.495901
0.7319756
2.46946
3.683992
4.47801
4.962442
5.159523
5.061495
4.704025
4.249113
3.915462
3.914831
4.24971
4.729649
5.065022
5.025599
4.59458
3.967012
3.42028
3.192797
3.351744
3.775129
4.255661
4.592588
4.645756
4.380289
3.8423
3.143682
2.421522
1.807055
1.36133
1.021591
0.6310291
0.02563477
-0.8958321
-2.07269
-3.341821
-4.480046
-5.297872
-5.737464
-5.872229
-5.867807
-5.932189
-6.244591
-6.855092
-7.67288
-8.468575
-8.951011
-8.86643
-8.069461
-6.588518
-4.581044
-2.298979
-0.015522
2.018981
3.612627
4.640779
5.093946
5.054914
4.696906
4.232524
3.804504
3.498439
3.325831
3.254259
3.327055
3.574311
4.040085
4.674763
5.364366
5.964285
6.36915
6.538225
6.485143
6.272851
5.922297
5.442425
4.845801
4.144514
3.36644
2.517568
1.559488
0.4444056
-0.8299608
-2.149565
-3.332335
-4.171723
-4.567502
-4.549205
-4.276561
-3.981065
-3.93564
-4.35497
-5.362697
-6.918442
-8.766739
-10.49117
-11.61318
-11.79196
-10.90685
-9.168691
-6.946157
-4.65692
-2.572813
-0.7975211
0.6962848
1.955214
2.947925
3.589007
3.82352
3.668334
3.275505
2.901521
2.784746
3.081355
3.740674
4.551039
5.22511
5.561891
5.527244
5.291767
5.100197
5.114069
5.307822
5.487662
5.45704
5.13918
4.643382
4.204351
4.033593
4.166912
4.432611
4.547516
4.285669
3.604823
2.685754
1.789249
1.126976
0.7625027
0.6267843
0.5503492
0.4327936
0.1885033
-0.2013559
-0.7739153
-1.598231
-2.738026
-4.217468
-5.96413
-7.80681
-9.516003
-10.90721
-11.83946
-12.25057
-12.14189
-11.53452
-10.48836
-9.072935
-7.390713
-5.552254
-3.684893
-1.899115
-0.2496262
1.219723
2.528492
3.712202
4.784594
5.721027
6.465971
6.935181
7.046768
6.784382
6.197767
5.43915
4.754957
4.391047
4.495293
5.034964
5.748083
6.277033
6.28804
5.658915
4.556229
3.345646
2.373222
1.83
1.647205
1.57181
1.352861
0.885397
0.2558784
-0.3492699
-0.7421036
-0.8922672
-0.8908596
-0.9257755
-1.177681
-1.726522
-2.529066
-3.451517
-4.34581
-5.085445
-5.666904
-6.158165
-6.650051
-7.218788
-7.873951
-8.564346
-9.194283
-9.661411
-9.854122
-9.664177
-8.981575
-7.748898
-5.980732
-3.784245
-1.422314
0.7787361
2.501953
3.587433
4.04781
4.082817
3.989952
3.991646
4.171551
4.462242
4.747143
4.946526
5.103065
5.338772
5.777069
6.429279
7.14642
7.696999
7.879627
7.655102
7.139484
6.579979
6.213543
6.161343
6.391041
6.730118
6.969971
6.900517
6.403164
5.404408
3.922138
2.063805
0.001724243
-1.996956
-3.696037
-4.933743
-5.750851
-6.37458
-7.108475
-8.132008
-9.432911
-10.80521
-11.96586
-12.68678
-12.84418
-12.41908
-11.42508
-9.910042
-7.951572
-5.714104
-3.466839
-1.501392
0.006832123
1.1008
2.019119
3.042862
4.279438
5.606342
6.672306
7.124378
6.808769
5.799477
4.486954
3.317654
2.66275
2.672909
3.254749
4.111145
4.917046
5.46204
5.648117
5.557537
5.32452
5.076183
4.863174
4.668339
4.434334
4.108551
3.695374
3.196342
2.64534
2.024162
1.314613
0.5136337
-0.3444748
-1.180634
-1.904037
-2.442513
-2.835793
-3.174248
-3.601509
-4.250664
-5.18924
-6.457794
-7.944466
-9.475731
-10.79492
-11.63282
-11.75931
-11.07392
-9.628868
-7.572548
-5.156578
-2.5905
-0.02448273
2.433777
4.63736
6.419899
7.619934
8.162521
8.141266
7.705383
7.049561
6.272568
5.423477
4.552948
3.782852
3.312134
3.28299
3.71949
4.426193
5.136429
5.587952
5.690269
5.516441
5.231781
5.020081
4.991905
5.170296
5.494186
5.858757
6.092972
5.989777
5.401855
4.314117
2.888809
1.411682
0.1518173
-0.7704315
-1.406578
-1.945824
-2.565247
-3.353859
-4.303566
-5.325836
-6.338806
-7.2798
-8.133621
-8.910011
-9.626854
-10.26115
-10.76052
-11.05733
-11.089
-10.79673
-10.11455
-9.062653
-7.718933
-6.225243
-4.697838
-3.17598
-1.607269
0.09331512
1.916275
3.715103
5.197174
6.091713
6.263214
5.838966
5.126373
4.516075
4.281075
4.478203
4.960846
5.464188
5.793045
5.871368
5.783943
5.671158
5.686096
5.884766
6.207077
6.56028
6.810898
6.89917
6.768272
6.401901
5.764679
4.866188
3.763878
2.56369
1.411865
0.3776245
-0.5409317
-1.453499
-2.472588
-3.628967
-4.854767
-6.000679
-6.989159
-7.824577
-8.64772
-9.585144
-10.65012
-11.62326
-12.14005
-11.81759
-10.46377
-8.189087
-5.375923
-2.538879
-0.0663681
1.874626
3.406387
4.732979
5.96772
7.040291
7.718658
7.848572
7.421509
6.692383
6.012589
5.671791
5.731888
6.026688
6.300667
6.363167
6.229126
6.046913
5.987984
6.109795
6.312241
6.407928
6.229523
5.733139
5.019554
4.29216
3.731865
3.402687
3.21019
2.969345
2.500053
1.759605
0.8281937
-0.1673965
-1.114243
-1.963432
-2.714699
-3.404312
-4.11879
-4.967041
-6.088875
-7.601517
-9.523262
-11.71267
-13.84554
-15.45929
-16.16481
-15.79885
-14.48026
-12.57458
-10.50765
-8.573685
-6.814247
-5.085365
-3.143768
-0.8779297
1.623772
4.066635
6.073448
7.357056
7.904007
7.915794
7.683052
7.453018
7.260498
7.062302
6.792114
6.499657
6.324486
6.420647
6.774025
7.205803
7.457809
7.335213
6.83149
6.135696
5.513535
5.175316
5.169937
5.375801
5.622238
5.771614
5.6996
5.313179
4.543152
3.347237
1.742233
-0.1501694
-2.105568
-3.86557
-5.215614
-6.114746
-6.6716
-7.143097
-7.777473
-8.679741
-9.736038
-10.68836
-11.32485
-11.6155
-11.82088
-12.26396
-13.1845
-14.49787
-15.75349
-16.3353
-15.75348
-13.8614
-10.92305
-7.460457
-3.998528
-0.920311
1.592972
3.532562
4.961426
5.930809
6.49498
6.750343
6.792747
6.739357
6.67849
6.66198
6.680969
6.702415
6.671234
6.500389
6.162491
5.62532
4.982254
4.430344
4.23526
4.630363
5.696045
7.267372
8.992363
10.44941
11.30236
11.43338
10.90427
9.858398
8.416977
6.638565
4.530502
2.178329
-0.16819
-2.19355
-3.546082
-4.0672
-3.876579
-3.295296
-2.752617
-2.64241
-3.19178
-4.417313
-6.170738
-8.152832
-9.959991
-11.20963
-11.5269
-10.68932
-8.700592
-5.809074
-2.484802
0.6919861
3.23349
4.876968
5.614525
5.68013
5.37989
5.001251
4.757324
4.740791
4.917801
5.19381
5.411919
5.431343
5.208481
4.756348
4.189171
3.651314
3.234436
2.956078
2.764854
2.613518
2.468597
2.372604
2.331741
2.281921
2.135201
1.779617
1.202995
0.53022
-0.06060028
-0.4460907
-0.6215439
-0.7016678
-0.8286209
-1.025368
-1.221535
-1.250237
-1.022057
-0.6282043
-0.295784
-0.2997131
-0.8195724
-1.821716
-3.070183
-4.24913
-5.072075
-5.369774
-5.045242
-4.050575
-2.369324
-0.08634186
2.580582
5.306694
7.704048
9.491257
10.51913
10.75912
10.27216
9.152664
7.567879
5.798462
4.199577
3.10743
2.702377
2.877907
3.280151
3.520432
3.330666
2.745567
2.016068
1.370102
0.8734589
0.3796158
-0.3249207
-1.401993
-2.790276
-4.291336
-5.677238
-6.831947
-7.760834
-8.549362
-9.278412
-10.00169
-10.78229
-11.65532
-12.65605
-13.68684
-14.50878
-14.75876
-14.10651
-12.42982
-9.91259
-6.989861
-4.178276
-1.897003
-0.2946091
0.7062378
1.325668
1.796333
2.258598
2.755257
3.226997
3.540962
3.558754
3.186737
2.448456
1.498299
0.5889664
-0.02584076
-0.1793976
0.1455383
0.8173218
1.623817
2.325882
2.779648
2.905991
2.772202
2.522667
2.314377
2.248535
2.314049
2.386665
2.274445
1.817734
0.9280548
-0.3347092
-1.858063
-3.467598
-5.001762
-6.312881
-7.291252
-7.843857
-7.87188
-7.309349
-6.111008
-4.342529
-2.166901
0.1557159
2.324921
4.12059
5.447868
6.35527
6.988472
7.496208
7.916153
8.153488
8.051926
7.4739
6.450905
5.157921
3.869637
2.830917
2.162643
1.817162
1.654297
1.538132
1.404922
1.282387
1.191895
1.094765
0.8475266
0.2975998
-0.5977936
-1.697792
-2.762848
-3.581963
-4.139862
-4.627312
-5.331093
-6.413475
-7.80574
-9.212387
-10.27652
-10.78362
-10.74091
-10.26865
-9.463875
-8.306656
-6.698509
-4.622856
-2.21273
0.2099228
2.309319
3.845947
4.811699
5.384499
5.756416
6.012428
6.109818
5.961105
5.560371
5.016922
4.508545
4.170593
4.007263
3.949493
3.883102
3.790192
3.706619
3.714081
3.820816
3.93544
3.888855
3.515839
2.774124
1.710831
0.4984436
-0.710968
-1.771133
-2.638428
-3.343292
-3.983292
-4.689987
-5.602036
-6.785706
-8.179123
-9.640823
-10.94548
-11.87251
-12.28101
-12.10487
-11.38214
-10.12695
-8.383713
-6.188904
-3.674118
-1.084229
1.286148
3.185318
4.529968
5.404465
6.017014
6.547577
7.053146
7.450577
7.602768
7.479401
7.159683
6.852982
6.693405
6.696335
6.719238
6.56546
6.148453
5.538742
4.947266
4.565704
4.472473
4.53624
4.526123
4.209
3.488815
2.442932
1.262543
0.1600494
-0.7389069
-1.411118
-1.922287
-2.367218
-2.800323
-3.258087
-3.745285
-4.261017
-4.807724
-5.395081
-6.042542
-6.783371
-7.672394
-8.724884
-9.9095
-11.04613
-11.84424
-11.95741
-11.1575
-9.46904
-7.184448
-4.760071
-2.569321
-0.769455
0.7359009
2.123871
3.486664
4.674927
5.4543
5.665039
5.409134
5.063629
5.051498
5.619858
6.651901
7.747375
8.462418
8.572754
8.184525
7.628326
7.257797
7.21846
7.442596
7.707352
7.810257
7.670334
7.352142
6.965805
6.559952
6.109482
5.537064
4.8349
4.087463
3.394897
2.824783
2.315887
1.72139
0.8848724
-0.2297516
-1.514313
-2.766327
-3.787598
-4.5159
-5.039093
-5.578094
-6.322006
-7.425781
-8.903015
-10.60963
-12.26968
-13.46892
-13.81287
-13.00058
-10.99806
-8.050995
-4.623474
-1.220474
1.768051
4.184555
6.063385
7.505203
8.532791
9.072876
9.043152
8.4729
7.589783
6.76651
6.331131
6.422989
6.921646
7.533646
7.948608
8.031158
7.838898
7.550507
7.308868
7.067734
6.710846
6.133835
5.362671
4.567505
3.943527
3.595383
3.477173
3.450745
3.37851
3.183929
2.84993
2.37059
1.68486
0.7110901
-0.5998688
-2.16481
-3.784042
-5.188339
-6.167892
-6.68103
-6.896255
-7.098862
-7.583954
-8.486496
-9.753357
-11.12091
-12.22662
-12.74005
-12.47931
-11.42397
-9.669067
-7.428925
-4.910507
-2.327515
0.1394653
2.328979
4.116547
5.426514
6.209412
6.501144
6.382355
6.009903
5.564346
5.227478
5.115326
5.224289
5.454575
5.672775
5.78746
5.775894
5.705536
5.690994
5.823822
6.131805
6.590164
7.118195
7.59259
7.852402
7.761826
7.273773
6.460205
5.521103
4.708374
4.204132
4.033112
4.045334
3.99585
3.675766
2.994705
2.070526
1.110123
0.3235931
-0.1659698
-0.382019
-0.4635773
-0.5940704
-0.9462128
-1.658554
-2.83078
-4.53833
-6.774887
-9.405502
-12.12384
-14.49728
-16.08189
-16.57188
-15.89639
-14.21521
-11.8261
-9.05368
-6.165375
-3.388641
-0.9235229
1.084503
2.552689
3.532333
4.164764
4.61412
4.955475
5.133087
5.032272
4.597565
3.871201
2.999725
2.18663
1.578781
1.256073
1.230087
1.443985
1.829803
2.300522
2.763824
3.100006
3.199493
2.990921
2.466812
1.700775
0.819397
-0.02310181
-0.7233582
-1.256866
-1.687866
-2.119324
-2.632614
-3.232315
-3.762177
-4.057747
-3.976372
-3.541107
-2.930023
-2.439941
-2.326187
-2.68618
-3.432129
-4.331444
-5.160423
-5.779274
-6.146805
-6.232376
-5.948029
-5.157753
-3.727104
-1.672943
0.8073273
3.3424
5.54792
7.171928
8.168671
8.666283
8.806549
8.676468
8.284668
7.653358
6.89772
6.252411
5.936539
6.050346
6.504646
7.029205
7.321014
7.195381
6.675514
5.96106
5.356506
5.066711
5.129105
5.3815
5.550041
5.365898
4.708214
3.684731
2.578705
1.711128
1.236656
1.098648
1.016464
0.6845398
-0.08026123
-1.225578
-2.526497
-3.713707
-4.600861
-5.143097
-5.459213
-5.736053
-6.182297
-6.924828
-8.012444
-9.363998
-10.83138
-12.24789
-13.48846
-14.48832
-15.19296
-15.55135
-15.40861
-14.59721
-13.00607
-10.6955
-7.929604
-5.089279
-2.501717
-0.3444748
1.406143
2.891151
4.192307
5.328697
6.224838
6.783463
6.979675
6.912788
6.711647
6.508987
6.346001
6.183975
5.98555
5.762856
5.577911
5.507446
5.583534
5.728622
5.827293
5.768005
5.552116
5.24601
5.013618
4.965836
5.073456
5.221428
5.201164
4.87487
4.237122
3.412483
2.570793
1.832268
1.211273
0.6056976
-0.0743866
-0.8656006
-1.647171
-2.257149
-2.583252
-2.659027
-2.682503
-2.854469
-3.233757
-3.715523
-4.070435
-4.133392
-3.973228
-3.868942
-4.164238
-5.090218
-6.637787
-8.548805
-10.42509
-11.88148
-12.61026
-12.43464
-11.34644
-9.507393
-7.243141
-4.979195
-3.079697
-1.705475
-0.7660217
0.02231598
0.919075
2.008438
3.168205
4.189148
4.909012
5.30191
5.492004
5.620056
5.715714
5.704414
5.497635
5.115143
4.717499
4.529259
4.667564
5.066689
5.465302
5.565269
5.221333
4.515022
3.704433
3.082813
2.837437
2.921185
3.141094
3.25061
3.089546
2.677052
2.1185
1.544331
1.006786
0.5196228
0.04037094
-0.4567184
-1.001095
-1.618378
-2.335239
-3.222107
-4.290974
-5.501289
-6.710693
-7.74641
-8.49366
-8.937336
-9.184002
-9.385151
-9.704086
-10.224
-10.91769
-11.71823
-12.45332
-12.94075
-12.96213
-12.36341
-11.07092
-9.16988
-6.848457
-4.355923
-1.950016
0.2007713
2.003643
3.438263
4.524574
5.284283
5.738407
5.89986
5.7966
5.492111
5.114605
4.793377
4.683479
4.823383
5.123058
5.408894
5.495182
5.322956
4.992413
4.694519
4.558361
4.559559
4.559441
4.347168
3.853233
3.141529
2.399765
1.790272
1.390705
1.148476
0.9679108
0.7881279
0.5772896
0.3564377
0.07683182
-0.3870201
-1.149532
-2.274143
-3.703789
-5.279079
-6.827805
-8.228138
-9.416019
-10.40398
-11.22285
-11.90676
-12.50626
-13.05323
-13.52325
-13.8282
-13.77837
-13.1566
-11.82666
-9.865231
-7.541176
-5.272182
-3.397717
-2.054768
-1.105537
-0.2839127
0.664196
1.82605
3.131714
4.415077
5.522102
6.395798
7.035011
7.440285
7.628719
7.641445
7.550152
7.481487
7.581062
7.871494
8.26553
8.581722
8.648033
8.413685
7.942619
7.35244
6.700867
5.976097
5.123425
4.17535
3.260502
2.554485
2.137695
1.905052
1.561295
0.7962646
-0.4918633
-2.153763
-3.836639
-5.22279
-6.189865
-6.858936
-7.457687
-8.134941
-8.880623
-9.546455
-10.07351
-10.53962
-11.163
-12.11382
-13.32413
-14.50338
-15.24818
-15.22179
-14.29102
-12.51991
-10.0734
-7.134338
-3.892914
-0.6188126
2.294205
4.435936
5.527016
5.606293
5.016182
4.287918
3.86911
3.964043
4.471825
5.125473
5.662186
5.919014
5.875954
5.615242
5.283028
5.029045
4.98819
5.222412
5.679115
6.178497
6.505226
6.484291
6.107803
5.552872
5.044434
4.743805
4.67289
4.706329
4.680176
4.469078
4.022057
3.355247
2.523994
1.582047
0.5783005
-0.428215
-1.421684
-2.408852
-3.492874
-4.75708
-6.241096
-7.892471
-9.577843
-11.15431
-12.54811
-13.75341
-14.78035
-15.59812
-16.07668
-15.96996
-15.03547
-13.14064
-10.36285
-6.98732
-3.475471
-0.2578888
2.343445
4.210182
5.458733
6.309319
6.979393
7.577744
8.073105
8.318527
8.201698
7.766014
7.172768
6.69622
6.534096
6.812904
7.480095
8.387184
9.348907
10.1771
10.75349
11.01318
10.9659
10.62031
10.0326
9.296745
8.449677
7.536133
6.543259
5.49778
4.430153
3.453835
2.606743
1.877533
1.155235
0.2952576
-0.793335
-2.12159
-3.552399
-4.939178
-6.120033
-7.025261
-7.668678
-8.125816
-8.498566
-8.909142
-9.484703
-10.32019
-11.45982
-12.80547
-14.10027
-15.0218
-15.27934
-14.73101
-13.36933
-11.31066
-8.727486
-5.796318
-2.753456
0.1397781
2.588463
4.347839
5.309326
5.57756
5.444183
5.208496
5.09539
5.178062
5.394714
5.622696
5.80114
5.925613
6.011864
6.105476
6.195938
6.300446
6.473961
6.766457
7.198296
7.714119
8.171341
8.364021
8.135704
7.429993
6.346878
5.12085
4.001694
3.174683
2.656906
2.303009
1.848694
1.041748
-0.1938934
-1.73703
-3.260483
-4.427505
-5.044678
-5.192307
-5.191895
-5.448898
-6.244293
-7.633224
-9.412994
-11.21107
-12.67816
-13.51602
-13.60918
-12.97563
-11.75171
-10.11284
-8.216446
-6.179352
-4.052643
-1.888321
0.2420349
2.248734
4.039642
5.564163
6.831528
7.879471
8.708252
9.273087
9.504837
9.380417
8.974609
8.432266
7.885544
7.420288
7.011841
6.65538
6.381744
6.257935
6.353745
6.637787
6.981293
7.174667
7.068314
6.616943
5.912109
5.106903
4.313446
3.534348
2.716431
1.766876
0.6544495
-0.566391
-1.795685
-2.953033
-3.994675
-4.939758
-5.80127
-6.536636
-7.108047
-7.529266
-7.94342
-8.567093
-9.63739
-11.18823
-12.96774
-14.47838
-15.14482
-14.56042
-12.67848
-9.816193
-6.509872
-3.306152
-0.5375519
1.723892
3.603378
5.277359
6.840927
8.218033
9.261963
9.811844
9.821045
9.417755
8.838394
8.285156
7.884705
7.634995
7.501495
7.424698
7.384521
7.378021
7.396255
7.41687
7.362579
7.217133
7.009369
6.818161
6.744873
6.802429
6.886887
6.788315
6.279526
5.223511
3.674393
1.876846
0.1698761
-1.143417
-1.938263
-2.290115
-2.430984
-2.605789
-2.994904
-3.67511
-4.668823
-5.972412
-7.55162
-9.296112
-11.08321
-12.76758
-14.18903
-15.21548
-15.71326
-15.5481
-14.62433
-12.94841
-10.66563
-8.058441
-5.45108
-3.062103
-0.9796143
0.857666
2.54538
4.123901
5.46933
6.424042
6.877869
6.855347
6.559723
6.301605
6.361435
6.862976
7.744476
8.766891
9.641266
10.1548
10.24402
10.01639
9.676041
9.425278
9.34198
9.386917
9.426682
9.345642
9.102814
8.727036
8.27742
7.782211
7.240479
6.65152
6.019806
5.386414
4.765732
4.108765
3.292282
2.212799
0.8308258
-0.7111053
-2.169815
-3.311172
-4.053543
-4.488953
-4.79184
-5.137985
-5.63501
-6.344208
-7.324997
-8.674057
-10.47957
-12.71548
-15.1109
-17.18832
-18.4413
-18.50339
-17.30659
-15.04362
-12.08186
-8.787872
-5.475235
-2.377502
0.294342
2.365677
3.735092
4.469711
4.788727
5.006958
5.383835
6.024429
6.834015
7.630768
8.279678
8.770905
9.187408
9.589447
9.96965
10.25566
10.36894
10.32098
10.21657
10.22331
10.43277
10.78221
11.09178
11.1516
10.81596
10.08061
9.018265
7.730713
6.33165
4.923859
3.633682
2.588272
1.860306
1.392761
0.9850464
0.4065857
-0.5228271
-1.777115
-3.167526
-4.456528
-5.492584
-6.348694
-7.205688
-8.223236
-9.357483
-10.39781
-11.06721
-11.25764
-11.16441
-11.1597
-11.62502
-12.63884
-13.91739
-14.91635
-15.08606
-14.14384
-12.16481
-9.475616
-6.450943
-3.391617
-0.4497986
2.264328
4.652405
6.558075
7.871902
8.589981
8.823639
8.771851
8.630371
8.52623
8.500519
8.557648
8.712906
8.971832
9.351334
9.812042
10.24368
10.51277
10.51872
10.23204
9.749863
9.248947
8.913635
8.891876
9.212708
9.744415
10.30785
10.70126
10.79709
10.61157
10.21068
9.661758
8.942337
7.950134
6.581314
4.832855
2.804443
0.6999969
-1.27887
-3.008698
-4.462006
-5.658676
-6.630508
-7.418381
-8.044586
-8.590179
-9.122482
-9.724411
-10.45166
-11.28505
-12.20319
-13.14
-14.00406
-14.61441
-14.77747
-14.29961
-13.09897
-11.26874
-9.007538
-6.582947
-4.228699
-2.089798
-0.234726
1.286636
2.455734
3.291748
3.84874
4.208878
4.424103
4.481659
4.33313
3.952576
3.385986
2.788422
2.346909
2.157623
2.212219
2.378204
2.542694
2.631088
2.654144
2.668121
2.668747
2.628677
2.437424
2.017929
1.363235
0.5261688
-0.4165802
-1.408432
-2.41452
-3.48259
-4.655136
-5.997345
-7.491501
-9.051025
-10.55875
-11.8923
-12.96736
-13.76093
-14.26749
-14.49261
-14.45071
-14.18033
-13.79417
-13.44193
-13.25986
-13.28712
-13.41269
-13.41544
-13.048
-12.14854
-10.67636
-8.726212
-6.434219
-3.883102
-1.151886
1.613144
4.223923
6.428864
8.035248
8.965286
9.326691
9.274353
8.977615
8.522095
7.913071
7.183365
6.474243
6.041672
6.181061
7.028229
8.444107
10.04115
11.28905
11.7664
11.36328
10.25517
8.862549
7.624634
6.866562
6.670166
6.899139
7.258881
7.476318
7.390015
6.972916
6.302887
5.452911
4.421036
3.155334
1.610062
-0.2046967
-2.202026
-4.253326
-6.276703
-8.206131
-9.973862
-11.40298
-12.16437
-11.84518
-10.15205
-7.036697
-2.844391
1.774902
6.072495
9.421402
11.43028
12.10344
11.70969
10.65092
9.333374
8.049911
6.944656
6.078094
5.514221
5.337616
5.62915
6.344101
7.283157
8.131546
8.608307
8.566238
8.054092
7.247055
6.328598
5.433914
4.586624
3.795113
3.070564
2.465096
2.039063
1.810493
1.72805
1.665703
1.463509
0.9996719
0.2393723
-0.7592468
-1.87278
-2.95726
-3.976662
-5.010475
-6.233536
-7.80072
-9.720871
-11.82288
-13.80828
-15.35387
-16.21185
-16.2371
-15.36116
-13.58878
-11.03893
-7.967827
-4.775925
-1.863083
0.526886
2.426041
4.076805
5.741516
7.470779
9.026543
10.03539
10.18373
9.458717
8.115868
6.53318
5.007874
3.692024
2.616913
1.831596
1.497246
1.751778
2.640045
4.004402
5.480759
6.679855
7.321945
7.292603
6.657951
5.556969
4.109146
2.38485
0.4572983
-1.63858
-3.825325
-5.987572
-7.998802
-9.744316
-11.18383
-12.37496
-13.44276
-14.45834
-15.3905
-16.01151
-16.01649
-15.16951
-13.47897
-11.19128
-8.689369
-6.295586
-4.136642
-2.178452
-0.3144302
1.447281
2.940338
3.914268
4.210602
3.850708
3.097961
2.36657
1.996262
2.143196
2.721802
3.466156
4.060974
4.322075
4.206505
3.825333
3.358315
2.92572
2.575974
2.256767
1.876915
1.370987
0.7425537
0.0758667
-0.553421
-1.078545
-1.544312
-2.083603
-2.851952
-3.957016
-5.398888
-7.054611
-8.704918
-10.13168
-11.14251
-11.63511
-11.56439
-10.94963
-9.864311
-8.371796
-6.505692
-4.248505
-1.619537
1.310936
4.285637
6.940269
8.897003
9.936302
10.07985
9.581673
8.77887
7.919472
7.112534
6.336563
5.571335
4.890022
4.43441
4.316231
4.523102
4.898071
5.191742
5.218941
4.904556
4.293968
3.483322
2.545738
1.471504
0.2402115
-1.147507
-2.602394
-3.965446
-5.1091
-5.993492
-6.632568
-7.101517
-7.445297
-7.659401
-7.728722
-7.644478
-7.369804
-6.838341
-5.954803
-4.609573
-2.76741
-0.5452652
1.800827
3.929947
5.594589
6.738503
7.466522
7.956253
8.392548
8.81794
9.167107
9.356277
9.30143
9.011627
8.526711
7.887356
7.138859
6.293388
5.373199
4.42054
3.521637
2.7407
2.111958
1.613369
1.207462
0.8629799
0.550396
0.239727
-0.1362534
-0.6039429
-1.216198
-1.975071
-2.871555
-3.923454
-5.150124
-6.589748
-8.195793
-9.780903
-10.98469
-11.44083
-10.87765
-9.294891
-6.980881
-4.416061
-2.10973
-0.3913612
0.684185
1.286854
1.706562
2.205246
2.879581
3.637589
4.278282
4.595528
4.565773
4.359264
4.217907
4.33609
4.681435
5.029449
5.095219
4.763577
4.107597
3.399624
2.943027
2.829128
2.967041
3.105099
3.015095
2.574734
1.827206
0.8610764
-0.2100868
-1.334064
-2.476421
-3.561783
-4.522995
-5.306557
-5.944134
-6.56649
-7.411228
-8.662266
-10.38581
-12.40654
-14.2749
-15.4766
-15.57541
-14.41267
-12.15675
-9.205025
-6.018299
-2.924915
-0.1122475
2.38044
4.501785
6.119194
7.095127
7.398401
7.19977
6.821875
6.631802
6.813215
7.289171
7.784479
7.99214
7.76186
7.217304
6.665163
6.398922
6.570917
7.083145
7.693672
8.151022
8.329336
8.244301
7.958433
7.546797
7.005457
6.330641
5.564049
4.810356
4.198011
3.750463
3.377203
2.88394
2.108248
1.006727
-0.3125057
-1.688393
-2.970118
-4.121773
-5.246875
-6.516282
-8.050595
-9.852855
-11.71902
-13.27389
-14.13292
-14.0443
-12.98414
-11.18697
-9.01006
-6.807392
-4.821888
-3.159193
-1.813168
-0.7572479
0.01021338
0.5029199
0.7511911
0.825871
0.8042505
0.724401
0.5507565
0.2552482
-0.1392919
-0.5251248
-0.7460834
-0.6791966
-0.2775034
0.4242976
1.364599
2.474286
3.682692
4.855951
5.782273
6.215717
5.995583
5.155629
3.979146
2.860043
2.185506
2.10167
2.477664
2.973851
3.167578
2.809887
1.854857
0.4772625
-1.048531
-2.420462
-3.466858
-4.137924
-4.487122
-4.668557
-4.85283
-5.230658
-5.949091
-7.047976
-8.408617
-9.785084
-10.82999
-11.19342
-10.66516
-9.221625
-7.091161
-4.633412
-2.248102
-0.2405539
1.227551
2.156887
2.642431
2.772358
2.650928
2.335068
1.941383
1.661463
1.683289
2.142086
3.052591
4.289907
5.640112
6.917068
8.015394
8.875065
9.449511
9.631672
9.284184
8.36471
7.003344
5.506023
4.228642
3.420036
3.105982
3.09955
3.108768
2.902334
2.419548
1.75588
1.091757
0.5780773
0.2480545
0.07785416
-0.01948547
-0.09350014
-0.13941
-0.1485901
-0.1644115
-0.2975082
-0.6905479
-1.461086
-2.625694
-4.083469
-5.62101
-6.995636
-7.998234
-8.52306
-8.548359
-8.115791
-7.295406
-6.1698
-4.815918
-3.289116
-1.676327
-0.0694809
1.417229
2.701794
3.737553
4.529663
5.108162
5.470882
5.575356
5.36499
4.804195
3.975544
2.998562
2.015667
1.142094
0.4349899
-0.06448746
-0.2919731
-0.2156181
0.1721573
0.7760963
1.378742
1.70583
1.569912
0.921711
-0.08526993
-1.152832
-1.974586
-2.311329
-2.092922
-1.409599
-0.5027237
0.3190651
0.7453194
0.5691452
-0.2221794
-1.445049
-2.773922
-3.89603
-4.642101
-5.062962
-5.391022
-5.943932
-6.907471
-8.252731
-9.77829
-11.12426
-11.9628
-12.05907
-11.29568
-9.745644
-7.622368
-5.215958
-2.848015
-0.8250885
0.7273636
1.824081
2.568764
3.082787
3.416946
3.548279
3.458481
3.190758
2.867241
2.659424
2.694626
2.979065
3.395615
3.754608
3.901329
3.768471
3.432091
3.073265
2.926926
3.143234
3.673447
4.325829
4.764908
4.754761
4.250427
3.459312
2.704964
2.258011
2.133385
2.112671
1.924591
1.366882
0.4743958
-0.5269165
-1.396843
-2.026703
-2.498657
-3.013412
-3.752617
-4.721581
-5.815857
-6.889252
-7.874146
-8.796028
-9.697464
-10.55768
-11.26775
-11.6926
-11.74066
-11.41534
-10.81702
-10.02054
-9.070053
-7.934586
-6.566299
-4.937675
-3.09436
-1.134163
0.7685394
2.420441
3.660583
4.376518
4.585739
4.418106
4.082993
3.815491
3.738922
3.811447
3.859558
3.727196
3.352165
2.87735
2.571129
2.717354
3.451828
4.666718
6.038979
7.152679
7.667244
7.418144
6.463913
5.052277
3.448868
1.913811
0.6314392
-0.283432
-0.8032913
-0.9946594
-1.050148
-1.201752
-1.656914
-2.511368
-3.667114
-4.915329
-6.025436
-6.868774
-7.49276
-8.063171
-8.733643
-9.544403
-10.41463
-11.16008
-11.63119
-11.77474
-11.63698
-11.24548
-10.57153
-9.503014
-7.931587
-5.855499
-3.420235
-0.9288025
1.284538
2.984238
4.086876
4.681068
4.922409
4.938049
4.796638
4.531845
4.195801
3.897217
3.761688
3.883842
4.252205
4.776772
5.324387
5.802071
6.161308
6.368752
6.418526
6.315353
6.059387
5.650238
5.101036
4.419678
3.617355
2.740326
1.843109
1.019905
0.337616
-0.1849976
-0.5908279
-0.9843063
-1.473946
-2.099007
-2.857235
-3.720921
-4.648632
-5.616001
-6.578484
-7.475021
-8.312103
-9.134842
-10.07527
-11.1988
-12.42664
-13.43697
-13.81905
-13.2177
-11.48964
-8.827625
-5.641453
-2.438107
0.3686256
2.537083
4.027794
4.903042
5.321159
5.48003
5.568188
5.762581
6.100361
6.499752
6.822739
6.967388
6.906364
6.695953
6.432583
6.142307
5.850842
5.536976
5.239342
5.057018
5.064262
5.278751
5.591171
5.802265
5.670864
5.108383
4.159321
3.007446
1.883293
0.9397087
0.2401772
-0.2793579
-0.6840324
-1.028183
-1.287342
-1.444035
-1.502262
-1.546204
-1.750771
-2.242413
-3.08028
-4.178967
-5.381622
-6.538792
-7.58762
-8.569538
-9.571518
-10.66785
-11.79882
-12.81521
-13.52158
-13.74413
-13.38045
-12.39441
-10.77481
-8.55917
-5.863518
-2.902447
0.01941681
2.595716
4.601973
6.000601
6.909128
7.554457
8.110594
8.642416
9.092688
9.348673
9.357616
9.189583
9.013369
8.988247
9.189951
9.532267
9.846249
9.944862
9.72646
9.222628
8.55599
7.876804
7.238483
6.620527
5.899147
4.948694
3.743837
2.383575
1.106207
0.154583
-0.3329945
-0.4330997
-0.4287357
-0.6641216
-1.39267
-2.599663
-4.080591
-5.505928
-6.675821
-7.534762
-8.184111
-8.747357
-9.272615
-9.757949
-10.18944
-10.6526
-11.27741
-12.13006
-13.04991
-13.67865
-13.57537
-12.4361
-10.27341
-7.402987
-4.350528
-1.577621
0.6602373
2.353949
3.642113
4.666514
5.487635
6.042769
6.239559
6.081511
5.676044
5.230092
4.932972
4.872965
4.991295
5.186941
5.346234
5.452119
5.598383
5.89326
6.375626
6.95215
7.418281
7.590175
7.37724
6.839766
6.148578
5.467473
4.866674
4.311565
3.728497
3.095935
2.448205
1.835393
1.249418
0.5953975
-0.2587614
-1.354034
-2.603752
-3.803289
-4.782337
-5.490659
-6.079708
-6.785376
-7.797507
-9.14925
-10.70229
-12.25546
-13.57976
-14.52722
-14.9786
-14.83249
-13.98308
-12.36243
-10.01641
-7.125261
-3.998722
-0.96595
1.70117
3.844107
5.429159
6.508045
7.173113
7.522923
7.632206
7.516724
7.204008
6.721144
6.146757
5.619892
5.292557
5.264168
5.5298
5.989742
6.466114
6.788048
6.851866
6.626987
6.205873
5.707157
5.266003
4.966133
4.844158
4.886429
5.009445
5.097286
4.977406
4.574863
3.875004
2.937122
1.868919
0.7414093
-0.3896523
-1.512024
-2.600582
-3.637302
-4.540916
-5.246891
-5.738113
-6.092293
-6.494972
-7.177731
-8.309242
-9.866825
-11.64342
-13.22275
-14.15359
-14.1055
-12.94662
-10.80249
-7.987503
-4.91391
-1.930378
0.6942673
2.863117
4.578655
5.901787
6.890282
7.495983
7.622543
7.186787
6.253712
5.074986
4.028374
3.463402
3.507198
4.035076
4.700943
5.197021
5.399544
5.419071
5.451229
5.619591
5.862625
5.940739
5.646927
4.86198
3.646473
2.217476
0.789093
-0.493782
-1.594337
-2.512985
-3.306709
-4.004929
-4.666405
-5.328812
-6.000832
-6.648087
-7.2285
-7.737656
-8.244202
-8.862892
-9.676498
-10.68367
-11.74852
-12.6266
-13.11152
-13.06216
-12.46136
-11.38272
-9.916748
-8.057457
-5.766418
-3.020042
0.08909607
3.268539
6.092484
8.165886
9.240921
9.356613
8.845718
8.161293
7.671486
7.560692
7.756233
8.086632
8.432091
8.734337
9.0187
9.28331
9.466522
9.474487
9.256027
8.900757
8.567284
8.430389
8.498108
8.63427
8.569695
8.069923
7.130775
5.940994
4.783043
3.854324
3.160118
2.505173
1.666771
0.5354538
-0.8252335
-2.192986
-3.352005
-4.22683
-4.933426
-5.651451
-6.545403
-7.615211
-8.759544
-9.849785
-10.76569
-11.45393
-11.81481
-11.72539
-11.01839
-9.607948
-7.57106
-5.143669
-2.637947
-0.3112564
1.713989
3.478149
5.045334
6.437637
7.627159
8.570435
9.264854
9.769882
10.13064
10.33144
10.3259
10.07038
9.567749
8.928413
8.299606
7.802422
7.436661
7.120461
6.707603
6.127518
5.424286
4.738724
4.235207
3.959579
3.853775
3.722488
3.375671
2.7453
1.920265
1.067551
0.378952
-0.1075211
-0.496582
-0.9694595
-1.655113
-2.524567
-3.404427
-4.08136
-4.478104
-4.690643
-4.985878
-5.637894
-6.791733
-8.344505
-9.998848
-11.34334
-12.00329
-11.76672
-10.61005
-8.688942
-6.265633
-3.640343
-1.066147
1.25386
3.214172
4.789337
6.001892
6.930069
7.624023
8.096558
8.312042
8.245697
7.934692
7.492905
7.125
6.981735
7.104172
7.382095
7.623703
7.682022
7.57515
7.415665
7.325287
7.305405
7.190674
6.770691
5.925308
4.732269
3.446243
2.369522
1.689453
1.417679
1.403931
1.432739
1.363037
1.14888
0.7941742
0.2901764
-0.4175415
-1.428131
-2.805984
-4.520966
-6.506393
-8.64209
-10.77664
-12.78062
-14.47821
-15.66481
-16.12946
-15.70166
-14.29524
-12.00379
-9.06929
-5.860031
-2.805504
-0.2147522
1.75856
3.185944
4.269257
5.273575
6.368744
7.596725
8.846428
9.915085
10.63771
10.89713
10.69624
10.13756
9.421181
8.753052
8.318367
8.200012
8.315521
8.495773
8.527145
8.279152
7.821953
7.349411
7.070206
7.064247
7.23793
7.381912
7.300667
6.911606
6.278809
5.574135
4.930679
4.381172
3.815277
3.045502
1.934708
0.4722977
-1.199928
-2.842659
-4.244736
-5.317162
-6.070427
-6.63752
-7.172432
-7.836243
-8.729858
-9.901581
-11.26416
-12.60108
-13.63091
-13.98638
-13.43993
-11.94969
-9.723076
-7.12838
-4.524857
-2.15493
-0.09321594
1.6847
3.22377
4.480988
5.4077
5.985313
6.28273
6.445396
6.599632
6.794746
6.988976
7.131569
7.213776
7.322144
7.563934
8.000954
8.53347
8.925468
8.947876
8.508415
7.74942
6.935318
6.325111
6.009026
5.85968
5.680183
5.326401
4.84272
4.38401
4.119637
4.091698
4.189613
4.202477
3.947235
3.396385
2.636932
1.816338
0.9981995
0.1660385
-0.7372513
-1.760376
-2.852287
-3.960464
-5.054497
-6.177483
-7.403831
-8.813583
-10.3409
-11.84043
-13.10685
-13.95726
-14.28941
-14.07578
-13.3455
-12.11057
-10.43146
-8.398415
-6.15934
-3.935127
-1.920914
-0.2528915
1.013367
1.913551
2.525658
2.912842
3.095169
3.104309
3.001419
2.915531
3.01527
3.460728
4.315914
5.466522
6.660221
7.557564
7.901642
7.608723
6.834583
5.89975
5.153938
4.804581
4.841465
5.034821
5.052231
4.662643
3.810329
2.711327
1.707294
1.077419
0.8870468
0.9531174
0.9757957
0.7071571
0.1032104
-0.6781693
-1.422703
-2.016598
-2.564259
-3.275307
-4.302803
-5.606045
-6.972782
-8.151329
-9.040127
-9.716385
-10.39231
-11.18009
-11.97627
-12.43089
-12.14668
-10.87959
-8.701591
-5.968243
-3.150764
-0.6420994
1.371281
2.911602
4.092024
5.017355
5.673767
6.031048
6.068647
5.84831
5.529863
5.269041
5.162134
5.188156
5.298506
5.416195
5.548008
5.739309
6.004395
6.296701
6.53561
6.646862
6.618383
6.558839
6.542627
6.610093
6.666224
6.543472
6.109891
5.398371
4.50725
3.585246
2.693089
1.765634
0.7016225
-0.5307493
-1.859627
-3.068748
-3.984998
-4.553722
-4.914916
-5.320444
-5.98987
-6.940145
-7.944702
-8.685925
-8.898888
-8.579564
-7.993348
-7.529896
-7.490758
-7.942143
-8.666595
-9.293891
-9.506884
-9.163846
-8.324832
-7.163526
-5.81258
-4.308318
-2.608434
-0.693202
1.314896
3.14764
4.473822
5.046598
4.84968
4.129055
3.301844
2.791048
2.812681
3.328487
4.092859
4.790529
5.184492
5.196966
4.914345
4.50543
4.154764
4.001324
4.084219
4.390051
4.874104
5.458742
6.029861
6.441521
6.564247
6.299763
5.644592
4.692833
3.637878
2.645344
1.871124
1.347397
1.017101
0.7971725
0.600853
0.3534279
0.004142761
-0.485817
-1.144508
-1.93042
-2.741989
-3.440468
-3.912678
-4.127632
-4.182003
-4.241058
-4.471058
-4.986412
-5.805817
-6.906307
-8.219536
-9.663261
-11.10235
-12.30425
-13.00645
-12.91059
-11.86563
-9.907303
-7.361137
-4.696976
-2.406033
-0.8346481
-0.003448486
0.3049011
0.4323959
0.6249313
0.9316406
1.243881
1.460915
1.616859
1.884964
2.446503
3.281982
4.150322
4.649376
4.523422
3.835648
2.977112
2.433304
2.47406
3.031441
3.718437
4.151627
4.094688
3.594345
2.880188
2.14521
1.499123
0.9138718
0.3680954
-0.1338272
-0.5184402
-0.7431259
-0.8496933
-0.9589767
-1.236565
-1.784561
-2.621231
-3.66481
-4.756134
-5.730309
-6.470497
-6.937454
-7.242462
-7.580139
-8.090401
-8.777222
-9.485008
-9.938599
-9.898209
-9.280426
-8.172485
-6.767769
-5.257851
-3.726799
-2.216827
-0.763031
0.5743332
1.687729
2.487564
2.957275
3.153183
3.167007
3.089821
2.954102
2.791916
2.653381
2.603218
2.717545
3.037521
3.501328
3.992165
4.358208
4.48391
4.391258
4.210693
4.086807
4.141457
4.365479
4.602501
4.635826
4.310394
3.600433
2.638466
1.621109
0.7185974
0.05083466
-0.3449097
-0.4874191
-0.437355
-0.2816315
-0.1949844
-0.3144455
-0.7105865
-1.329773
-2.01786
-2.591507
-2.942993
-3.077003
-3.129524
-3.298462
-3.742233
-4.547447
-5.69059
-7.025047
-8.325935
-9.358276
-9.913521
-9.91758
-9.45562
-8.730667
-7.958282
-7.247238
-6.521423
-5.590836
-4.28817
-2.572868
-0.6119003
1.280617
2.798561
3.773315
4.229538
4.369019
4.394203
4.392044
4.31292
4.056007
3.600533
3.075462
2.736343
2.821594
3.384842
4.233383
5.026337
5.45298
5.393593
4.97274
4.435081
4.034637
3.898605
4.012856
4.287209
4.5877
4.786499
4.745529
4.353157
3.568436
2.461609
1.21978
0.1040955
-0.6687317
-1.035324
-1.119858
-1.170242
-1.381393
-1.811935
-2.348129
-2.824081
-3.147217
-3.384644
-3.711319
-4.320526
-5.248779
-6.423721
-7.697113
-8.928329
-10.06218
-11.06914
-11.85652
-12.26949
-12.1279
-11.35023
-10.07526
-8.574982
-7.151627
-5.997498
-5.118103
-4.336868
-3.428833
-2.221069
-0.690094
0.9832306
2.484879
3.490662
3.791275
3.427429
2.727066
2.115662
1.950592
2.328354
3.052139
3.795776
4.324432
4.550018
4.606247
4.640274
4.725266
4.825577
4.863617
4.763046
4.4888
4.049469
3.42157
2.607422
1.64827
0.5867004
-0.4960632
-1.524048
-2.452759
-3.208969
-3.703949
-3.859344
-3.677963
-3.307816
-3.015793
-3.032761
-3.482101
-4.306992
-5.312256
-6.297668
-7.128174
-7.708084
-7.959763
-7.76445
-7.005005
-5.721848
-4.116882
-2.554901
-1.372574
-0.7359619
-0.492157
-0.289978
0.2273254
1.219254
2.560364
3.931396
5.00885
5.619019
5.785065
5.680405
5.506088
5.382263
5.326843
5.31575
5.357422
5.491913
5.743362
6.087296
6.436783
6.646118
6.557617
6.121597
5.363281
4.403717
3.388107
2.450562
1.656387
1.025894
0.4992523
0.02740479
-0.4093018
-0.8113098
-1.159821
-1.444611
-1.652786
-1.782547
-1.836166
-1.864426
-1.950546
-2.17157
-2.598938
-3.233185
-3.974335
-4.645355
-5.085526
-5.208221
-5.041183
-4.696976
-4.282883
-3.884644
-3.51619
-3.145767
-2.785049
-2.449402
-2.177353
-1.987228
-1.872787
-1.785797
-1.699127
-1.570602
-1.396332
-1.192108
-0.9955902
-0.8367157
-0.7318573
-0.6748657
-0.6422882
-0.607193
-0.5470276
-0.4574585
-0.3492432
-0.2433472
-0.1582489
-0.1053619
-0.08097839
-0.07417297
-0.07014465
-0.05427551
-0.02351379
0.01667786
0.05708313
0.08851624
0.1062317
0.1105957
0.1078339
0.1033478
0.1036224
0.1098938
0.1210785
0.1322632
0.1411591
0.1450958
0.1448288
0.1418839
0.1383362
0.1352463
0.1327972
0.131752
0.1302719
0.1298904
0.1289749
0.1281662
0.1282883
0.1278381
0.1277542
0.1278839
0.1278305
0.1269684
0.127121
0.1268311
0.1268082
0.1268692
0.1267014
0.1263733
0.1261444
0.1262207
0.1259766
0.1263504
0.1257858
0.125473
0.1249847
0.1254959
0.1251068
0.1242371
0.1240845
0.1238174
0.12397
0.1233368
0.1236649
0.1233139
0.1229019
0.1227951
0.1229324
0.1225586
0.1222076
0.1220779
0.1216202
0.1215591
0.1214218
0.12117
0.1210785
0.1210709
0.1206741
0.1208191
0.1211166
0.1201706
0.1200485
0.1200027
0.1202164
0.1196136
0.1190796
0.1191025
0.1188583
0.1185913
0.1187057
0.1186905
0.1181183
0.1179123
0.1178818
0.1179733
0.1175537
0.1173248
0.1170731
0.1172791
0.1168671
0.1168289
0.1166382
0.1165237
0.1158905
0.1159668
0.1158524
0.1163254
0.1158295
0.1153717
0.1149597
0.1150131
0.1150208
0.11483
0.1145172
0.1144714
0.1138077
0.1141663
0.1140137
0.1135864
0.1134872
0.113205
0.1131897
0.1126862
0.1126633
0.1123276
0.1124954
0.111702
0.1117935
0.1118774
0.1118774
0.1115036
0.1113968
0.1110153
0.1108551
0.1106567
0.1109009
0.1105042
0.1097565
0.1101074
0.1094894
0.1098862
0.1095734
0.1096725
0.1092072
0.1089935
0.1084442
0.1087875
0.1089325
0.1087952
0.1084137
0.1079407
0.1078796
0.1079559
0.1075058
0.1073837
0.1074219
0.1066437
0.1066208
0.1069107
0.1067276
0.1064453
0.1058807
0.1059036
0.1053772
0.1056137
0.105423
0.104248
0.1034698
0.1016769
0.100563
0.09999847
0.1013718
0.1041183
0.1084518
0.1125107
0.1152725
0.1138611
0.1086197
0.1009521
0.09201813
0.08506775
0.08210754
0.08340454
0.08441925
0.0827179
0.07444763
0.05957794
0.04070282
0.02266693
0.01116943
0.008125305
0.013237
0.01985931
0.02172852
0.0121994
-0.009994507
-0.04013824
-0.06762695
-0.08244324
-0.07833862
-0.0573349
-0.03446198
-0.02622223
-0.04853821
-0.1078873
-0.1909943
-0.2705688
-0.320076
-0.3222885
-0.2810669
-0.2277679
-0.2035828
-0.2441788
-0.3603287
-0.5272751
-0.6925201
-0.8034973
-0.8302155
-0.7814636
-0.7088394
-0.6827621
-0.7548904
-0.9454346
-1.212982
-1.474266
-1.653992
-1.693039
-1.585518
-1.383377
-1.168213
-1.036156
-1.086754
-1.396584
-1.974594
-2.773102
-3.652496
-4.39209
-4.768074
-4.624672
-3.956978
-2.9487
-1.86512
-0.9406204
-0.2489319
0.3071594
0.9562683
1.890709
3.168671
4.65995
6.140495
7.385719
8.299225
8.90139
9.301559
9.589134
9.737846
9.674042
9.321472
8.709274
7.9879
7.349358
6.940033
6.784157
6.828751
6.989899
7.269814
7.71344
8.320503
8.974617
9.416496
9.357307
8.650993
7.383942
5.824936
4.305969
3.050117
2.07962
1.338348
0.7946396
0.5240479
0.5982437
1.017632
1.592628
2.008972
1.986732
1.414581
0.4861526
-0.4880905
-1.222099
-1.673477
-2.03479
-2.624512
-3.723396
-5.381004
-7.43647
-9.522804
-11.23206
-12.22182
-12.27421
-11.35043
-9.587387
-7.303436
-4.908478
-2.854301
-1.450729
-0.8056641
-0.7531281
-0.9591751
-1.084862
-0.9288788
-0.5153275
-0.005172729
0.3903656
0.5831146
0.6547394
0.7945023
1.192772
1.889572
2.785912
3.68856
4.456833
5.05352
5.531189
5.937439
6.254463
6.43779
6.428268
6.274048
6.084068
5.943237
5.86425
5.756691
5.501236
5.050446
4.486664
3.913857
3.41423
2.962257
2.446472
1.782829
0.9943161
0.2184677
-0.3767242
-0.7073517
-0.8833389
-1.121086
-1.611755
-2.406288
-3.370239
-4.303444
-5.066826
-5.638062
-6.055382
-6.377785
-6.550262
-6.451103
-5.984283
-5.158051
-4.086502
-2.964081
-1.932465
-1.040909
-0.2788849
0.3815002
0.920166
1.292343
1.543655
1.7957
2.200012
2.798416
3.445938
3.841736
3.737991
3.088394
2.08725
1.119888
0.4794464
0.2780304
0.3997498
0.618866
0.7911377
0.9238281
1.12587
1.486038
2.013519
2.560471
2.933578
2.998596
2.738113
2.252869
1.732101
1.356628
1.223785
1.354523
1.602676
1.780136
1.719498
1.355209
0.7331238
-0.05207825
-0.9193115
-1.864761
-2.888519
-3.951462
-4.901016
-5.507874
-5.54303
-4.908722
-3.737106
-2.30014
-0.9136505
0.2162323
1.033539
1.58049
1.916977
2.043945
1.912308
1.481995
0.7758636
-0.07424927
-0.8638916
-1.403702
-1.591934
-1.450928
-1.095612
-0.6753082
-0.3193512
-0.09013367
0.006362915
0.02952576
0.08540344
0.282196
0.6900635
1.291229
1.950439
2.489777
2.772781
2.744904
2.433685
1.913284
1.209793
0.2899628
-0.8398743
-2.092026
-3.283844
-4.213776
-4.758865
-4.951874
-4.927429
-4.830582
-4.730621
-4.621826
-4.526093
-4.55928
-4.873886
-5.558823
-6.503387
-7.376907
-7.735703
-7.309387
-6.123825
-4.536148
-3.03035
-1.991974
-1.542618
-1.513321
-1.608917
-1.521393
-1.113876
-0.4128113
0.3948517
1.06813
1.407974
1.312469
0.8326111
0.1611633
-0.4505463
-0.8182373
-0.8601379
-0.6584015
-0.3744507
-0.1449585
-0.008987427
0.1173553
0.3526001
0.7528229
1.28273
1.881805
2.490479
3.087082
3.665176
4.159302
4.441635
4.349182
3.805191
2.874344
1.781219
0.8160095
0.1789246
-0.05259705
0.06442261
0.3817596
0.7004089
0.8042908
0.4701843
-0.4569702
-2.006241
-4.003372
-6.052689
-7.703064
-8.591721
-8.602844
-7.886978
-6.744141
-5.463745
-4.186188
-2.934509
-1.673569
-0.4425049
0.6095428
1.339005
1.657486
1.620316
1.366104
1.062027
0.7877045
0.5826263
0.4210205
0.3121796
0.3154144
0.4812775
0.7935028
1.148178
1.410095
1.437469
1.167496
0.6278076
-0.04919434
-0.6735992
-1.077209
-1.173798
-0.9707642
-0.5806122
-0.1518707
0.2003479
0.4385681
0.6065521
0.7816315
1.011276
1.2603
1.444275
1.442932
1.151642
0.5135956
-0.4442139
-1.609909
-2.803131
-3.816162
-4.492737
-4.813797
-4.883728
-4.866379
-4.885666
-4.942963
-4.924118
-4.717545
-4.258163
-3.617111
-2.930862
-2.306412
-1.797577
-1.342804
-0.8677063
-0.3307037
0.2265472
0.7075806
1.03096
1.189545
1.267029
1.372269
1.616058
2.015839
2.49678
2.936523
3.178757
3.104111
2.652832
1.893204
0.9551849
0.09083557
-0.4893036
-0.6657104
-0.4884491
-0.1676483
0.0488739
0.006713867
-0.2425079
-0.5176849
-0.5499268
-0.1923218
0.4873505
1.263199
1.808105
1.886108
1.436798
0.5896149
-0.4377136
-1.40274
-2.182587
-2.752182
-3.210083
-3.708801
-4.360809
-5.243362
-6.345551
-7.607162
-8.857117
-9.852081
-10.3326
-10.09053
-9.12088
-7.626907
-6.00795
-4.675217
-3.923676
-3.748703
-3.898178
-4.020645
-3.838837
-3.296799
-2.491699
-1.580124
-0.6705475
0.2266541
1.103806
1.90274
2.478592
2.667435
2.39328
1.765396
1.052261
0.6065521
0.6552887
1.198944
2.057129
2.917923
3.563385
3.881714
3.914124
3.755814
3.482849
3.143906
2.775818
2.45134
2.25473
2.263412
2.402832
2.489243
2.267105
1.584717
0.4799957
-0.8456573
-2.098953
-3.054123
-3.637192
-3.897446
-3.944199
-3.861923
-3.666794
-3.364639
-2.988708
-2.607986
-2.325745
-2.166733
-2.08786
-1.983932
-1.773544
-1.453003
-1.088623
-0.7346649
-0.4072571
-0.03163147
0.4429626
0.9957428
1.483154
1.707062
1.549164
1.051498
0.4289398
-0.05981445
-0.2691193
-0.2481995
-0.1665344
-0.1826477
-0.3106537
-0.40065
-0.2372589
0.2872925
1.091034
1.960663
2.621445
2.897812
2.76767
2.37851
1.918961
1.5298
1.242493
1.01384
0.7460175
0.3796692
-0.06433105
-0.5064697
-0.865448
-1.069
-1.161301
-1.262833
-1.536331
-2.110382
-3.022079
-4.207031
-5.551392
-6.937836
-8.279953
-9.575302
-10.84305
-12.06653
-13.1722
-14.04442
-14.56924
-14.68173
-14.37016
-13.65762
-12.55836
-11.06035
-9.170105
-6.965057
-4.636185
-2.447067
-0.6653137
0.6076813
1.416199
1.925415
2.334396
2.757584
3.19989
3.615234
3.980133
4.315552
4.683472
5.134552
5.623474
6.040161
6.236816
6.12088
5.690018
5.038681
4.288239
3.522141
2.766052
2.005569
1.237831
0.4978638
-0.1325989
-0.5584488
-0.7070694
-0.6360779
-0.4926605
-0.482132
-0.7353973
-1.250237
-1.906563
-2.558075
-3.129509
-3.680771
-4.362885
-5.327728
-6.606659
-8.089554
-9.546005
-10.71236
-11.39946
-11.47113
-10.86302
-9.542137
-7.566795
-5.041046
-2.208199
0.6006546
3.078224
4.958122
6.168083
6.757187
6.892746
6.796303
6.664352
6.652428
6.792404
7.041527
7.297974
7.476204
7.559509
7.589928
7.66967
7.842522
8.048553
8.144928
8.022934
7.701981
7.390465
7.405548
7.958664
9.04842
10.36685
11.43773
11.81509
11.33358
10.10047
8.441513
6.683952
5.012222
3.459213
1.951263
0.4807091
-0.8863487
-2.005951
-2.796764
-3.332928
-3.794189
-4.425537
-5.373661
-6.625389
-7.992195
-9.208912
-10.07623
-10.52998
-10.65533
-10.62915
-10.58889
-10.48697
-10.10844
-9.172924
-7.473841
-5.052086
-2.180868
0.7172089
3.294075
5.401978
7.109268
8.59339
9.944534
11.10889
11.90279
12.19451
11.98413
11.41626
10.68764
9.948925
9.262894
8.672781
8.231474
8.009493
8.021035
8.166613
8.269143
8.161861
7.800318
7.278741
6.849975
6.719106
6.953843
7.418918
7.875315
8.07404
7.90769
7.387943
6.623588
5.728909
4.792521
3.894191
3.104723
2.486575
2.043318
1.717771
1.329132
0.6705709
-0.3770771
-1.790009
-3.337715
-4.695474
-5.641234
-6.161196
-6.479978
-6.935514
-7.778336
-8.980895
-10.27092
-11.26191
-11.62473
-11.25575
-10.28589
-8.946295
-7.440217
-5.847161
-4.141727
-2.322527
-0.4108213
1.503477
3.324258
4.969081
6.383193
7.484722
8.178009
8.393353
8.107742
7.443151
6.635431
5.925966
5.483013
5.353239
5.490198
5.825163
6.303176
6.908542
7.587808
