1569662772.1888
1569662772.20442
1569662772.22005
1569662772.23567
1569662772.2513
1569662772.26693
1569662772.28255
1569662772.29818
1569662772.3138
1569662772.32943
1569662772.34505
1569662772.36068
1569662772.37631
1569662772.39193
1569662772.40756
1569662772.42318
1569662772.43881
1569662772.45443
1569662772.47006
1569662772.48569
1569662772.50131
1569662772.51694
1569662772.53256
1569662772.54819
1569662772.56381
1569662772.57944
1569662772.59507
1569662772.61069
1569662772.62632
1569662772.64194
1569662772.65757
1569662772.67319
1569662772.68882
1569662772.70445
1569662772.72007
1569662772.7357
1569662772.75132
1569662772.76695
1569662772.78258
1569662772.7982
1569662772.81383
1569662772.82945
1569662772.84508
1569662772.8607
1569662772.87633
1569662772.89196
1569662772.90758
1569662772.92321
1569662772.93883
1569662772.95446
1569662772.97008
1569662772.98571
1569662773.00134
1569662773.01696
1569662773.03259
1569662773.04821
1569662773.06384
1569662773.07946
1569662773.09509
1569662773.11072
1569662773.12634
1569662773.14197
1569662773.15759
1569662773.17322
1569662773.18884
1569662773.20447
1569662773.2201
1569662773.23572
1569662773.25135
1569662773.26697
1569662773.2826
1569662773.29822
1569662773.31385
1569662773.32948
1569662773.3451
1569662773.36073
1569662773.37635
1569662773.39198
1569662773.4076
1569662773.42323
1569662773.43886
1569662773.45448
1569662773.47011
1569662773.48573
1569662773.50136
1569662773.51698
1569662773.53261
1569662773.54824
1569662773.56386
1569662773.57949
1569662773.59511
1569662773.61074
1569662773.62636
1569662773.64199
1569662773.65762
1569662773.67324
1569662773.68887
1569662773.70449
1569662773.72012
1569662773.73574
1569662773.75137
1569662773.767
1569662773.78262
1569662773.79825
1569662773.81387
1569662773.8295
1569662773.84512
1569662773.86075
1569662773.87638
1569662773.892
1569662773.90763
1569662773.92325
1569662773.93888
1569662773.9545
1569662773.97013
1569662773.98576
1569662774.00138
1569662774.01701
1569662774.03263
1569662774.04826
1569662774.06388
1569662774.07951
1569662774.09514
1569662774.11076
1569662774.12639
1569662774.14201
1569662774.15764
1569662774.17326
1569662774.18889
1569662774.20452
1569662774.22014
1569662774.23577
1569662774.25139
1569662774.26702
1569662774.28264
1569662774.29827
1569662774.3139
1569662774.32952
1569662774.34515
1569662774.36077
1569662774.3764
1569662774.39202
1569662774.40765
1569662774.42328
1569662774.4389
1569662774.45453
1569662774.47015
1569662774.48578
1569662774.5014
1569662774.51703
1569662774.53266
1569662774.54828
1569662774.56391
1569662774.57953
1569662774.59516
1569662774.61078
1569662774.62641
1569662774.64204
1569662774.65766
1569662774.67329
1569662774.68891
1569662774.70454
1569662774.72016
1569662774.73579
1569662774.75142
1569662774.76704
1569662774.78267
1569662774.79829
1569662774.81392
1569662774.82954
1569662774.84517
1569662774.8608
1569662774.87642
1569662774.89205
1569662774.90767
1569662774.9233
1569662774.93893
1569662774.95455
1569662774.97018
1569662774.9858
1569662775.00143
1569662775.01705
1569662775.03268
1569662775.04831
1569662775.06393
1569662775.07956
1569662775.09518
1569662775.11081
1569662775.12643
1569662775.14206
1569662775.15769
1569662775.17331
1569662775.18894
1569662775.20456
1569662775.22019
1569662775.23581
1569662775.25144
1569662775.26707
1569662775.28269
1569662775.29832
1569662775.31394
1569662775.32957
1569662775.34519
1569662775.36082
1569662775.37645
1569662775.39207
1569662775.4077
1569662775.42332
1569662775.43895
1569662775.45457
1569662775.4702
1569662775.48583
1569662775.50145
1569662775.51708
1569662775.5327
1569662775.54833
1569662775.56395
1569662775.57958
1569662775.59521
1569662775.61083
1569662775.62646
1569662775.64208
1569662775.65771
1569662775.67333
1569662775.68896
1569662775.70459
1569662775.72021
1569662775.73584
1569662775.75146
1569662775.76709
1569662775.78271
1569662775.79834
1569662775.81397
1569662775.82959
1569662775.84522
1569662775.86084
1569662775.87647
1569662775.89209
1569662775.90772
1569662775.92335
1569662775.93897
1569662775.9546
1569662775.97022
1569662775.98585
1569662776.00147
1569662776.0171
1569662776.03273
1569662776.04835
1569662776.06398
1569662776.0796
1569662776.09523
1569662776.11085
1569662776.12648
1569662776.14211
1569662776.15773
1569662776.17336
1569662776.18898
1569662776.20461
1569662776.22023
1569662776.23586
1569662776.25149
1569662776.26711
1569662776.28274
1569662776.29836
1569662776.31399
1569662776.32961
1569662776.34524
1569662776.36087
1569662776.37649
1569662776.39212
1569662776.40774
1569662776.42337
1569662776.43899
1569662776.45462
1569662776.47025
1569662776.48587
1569662776.5015
1569662776.51712
1569662776.53275
1569662776.54837
1569662776.564
1569662776.57963
1569662776.59525
1569662776.61088
1569662776.6265
1569662776.64213
1569662776.65775
1569662776.67338
1569662776.68901
1569662776.70463
1569662776.72026
1569662776.73588
1569662776.75151
1569662776.76713
1569662776.78276
1569662776.79839
1569662776.81401
1569662776.82964
1569662776.84526
1569662776.86089
1569662776.87651
1569662776.89214
1569662776.90777
1569662776.92339
1569662776.93902
1569662776.95464
1569662776.97027
1569662776.98589
1569662777.00152
1569662777.01715
1569662777.03277
1569662777.0484
1569662777.06402
1569662777.07965
1569662777.09527
1569662777.1109
1569662777.12653
1569662777.14215
1569662777.15778
1569662777.1734
1569662777.18903
1569662777.20465
1569662777.22028
1569662777.23591
1569662777.25153
1569662777.26716
1569662777.28278
1569662777.29841
1569662777.31403
1569662777.32966
1569662777.34529
1569662777.36091
1569662777.37654
1569662777.39216
1569662777.40779
1569662777.42341
1569662777.43904
1569662777.45467
1569662777.47029
1569662777.48592
1569662777.50154
1569662777.51717
1569662777.53279
1569662777.54842
1569662777.56405
1569662777.57967
1569662777.5953
1569662777.61092
1569662777.62655
1569662777.64218
1569662777.6578
1569662777.67343
1569662777.68905
1569662777.70468
1569662777.7203
1569662777.73593
1569662777.75156
1569662777.76718
1569662777.78281
1569662777.79843
1569662777.81406
1569662777.82968
1569662777.84531
1569662777.86094
1569662777.87656
1569662777.89219
1569662777.90781
1569662777.92344
1569662777.93906
1569662777.95469
1569662777.97032
1569662777.98594
1569662778.00157
1569662778.01719
1569662778.03282
1569662778.04844
1569662778.06407
1569662778.0797
1569662778.09532
1569662778.11095
1569662778.12657
1569662778.1422
1569662778.15782
1569662778.17345
1569662778.18908
1569662778.2047
1569662778.22033
1569662778.23595
1569662778.25158
1569662778.2672
1569662778.28283
1569662778.29846
1569662778.31408
1569662778.32971
1569662778.34533
1569662778.36096
1569662778.37658
1569662778.39221
1569662778.40784
1569662778.42346
1569662778.43909
1569662778.45471
1569662778.47034
1569662778.48596
1569662778.50159
1569662778.51722
1569662778.53284
1569662778.54847
1569662778.56409
1569662778.57972
1569662778.59534
1569662778.61097
1569662778.6266
1569662778.64222
1569662778.65785
1569662778.67347
1569662778.6891
1569662778.70472
1569662778.72035
1569662778.73598
1569662778.7516
1569662778.76723
1569662778.78285
1569662778.79848
1569662778.8141
1569662778.82973
1569662778.84536
1569662778.86098
1569662778.87661
1569662778.89223
1569662778.90786
1569662778.92348
1569662778.93911
1569662778.95474
1569662778.97036
1569662778.98599
1569662779.00161
1569662779.01724
1569662779.03286
1569662779.04849
1569662779.06412
1569662779.07974
1569662779.09537
1569662779.11099
1569662779.12662
1569662779.14224
1569662779.15787
1569662779.1735
1569662779.18912
1569662779.20475
1569662779.22037
1569662779.236
1569662779.25162
1569662779.26725
1569662779.28288
1569662779.2985
1569662779.31413
1569662779.32975
1569662779.34538
1569662779.361
1569662779.37663
1569662779.39226
1569662779.40788
1569662779.42351
1569662779.43913
1569662779.45476
1569662779.47038
1569662779.48601
1569662779.50164
1569662779.51726
1569662779.53289
1569662779.54851
1569662779.56414
1569662779.57976
1569662779.59539
1569662779.61102
1569662779.62664
1569662779.64227
1569662779.65789
1569662779.67352
1569662779.68914
1569662779.70477
1569662779.7204
1569662779.73602
1569662779.75165
1569662779.76727
1569662779.7829
1569662779.79853
1569662779.81415
1569662779.82978
1569662779.8454
1569662779.86103
1569662779.87665
1569662779.89228
1569662779.90791
1569662779.92353
1569662779.93916
1569662779.95478
1569662779.97041
1569662779.98603
1569662780.00166
1569662780.01729
1569662780.03291
1569662780.04854
1569662780.06416
1569662780.07979
1569662780.09541
1569662780.11104
1569662780.12667
1569662780.14229
1569662780.15792
1569662780.17354
1569662780.18917
1569662780.20479
1569662780.22042
1569662780.23605
1569662780.25167
1569662780.2673
1569662780.28292
1569662780.29855
1569662780.31417
1569662780.3298
1569662780.34543
1569662780.36105
1569662780.37668
1569662780.3923
1569662780.40793
1569662780.42355
1569662780.43918
1569662780.45481
1569662780.47043
1569662780.48606
1569662780.50168
1569662780.51731
1569662780.53293
1569662780.54856
1569662780.56419
1569662780.57981
1569662780.59544
1569662780.61106
1569662780.62669
1569662780.64231
1569662780.65794
1569662780.67357
1569662780.68919
1569662780.70482
1569662780.72044
1569662780.73607
1569662780.75169
1569662780.76732
1569662780.78295
1569662780.79857
1569662780.8142
1569662780.82982
1569662780.84545
1569662780.86107
1569662780.8767
1569662780.89233
1569662780.90795
1569662780.92358
1569662780.9392
1569662780.95483
1569662780.97045
1569662780.98608
1569662781.00171
1569662781.01733
1569662781.03296
1569662781.04858
1569662781.06421
1569662781.07983
1569662781.09546
1569662781.11109
1569662781.12671
1569662781.14234
1569662781.15796
1569662781.17359
1569662781.18921
1569662781.20484
1569662781.22047
1569662781.23609
1569662781.25172
1569662781.26734
1569662781.28297
1569662781.29859
1569662781.31422
1569662781.32985
1569662781.34547
1569662781.3611
1569662781.37672
1569662781.39235
1569662781.40797
1569662781.4236
1569662781.43923
1569662781.45485
1569662781.47048
1569662781.4861
1569662781.50173
1569662781.51735
1569662781.53298
1569662781.54861
1569662781.56423
1569662781.57986
1569662781.59548
1569662781.61111
1569662781.62673
1569662781.64236
1569662781.65799
1569662781.67361
1569662781.68924
1569662781.70486
1569662781.72049
1569662781.73611
1569662781.75174
1569662781.76737
1569662781.78299
1569662781.79862
1569662781.81424
1569662781.82987
1569662781.84549
1569662781.86112
1569662781.87675
1569662781.89237
1569662781.908
1569662781.92362
1569662781.93925
1569662781.95487
1569662781.9705
1569662781.98613
1569662782.00175
1569662782.01738
1569662782.033
1569662782.04863
1569662782.06426
1569662782.07988
1569662782.09551
1569662782.11113
1569662782.12676
1569662782.14238
1569662782.15801
1569662782.17364
1569662782.18926
1569662782.20489
1569662782.22051
1569662782.23614
1569662782.25176
1569662782.26739
1569662782.28302
1569662782.29864
1569662782.31427
1569662782.32989
1569662782.34552
1569662782.36114
1569662782.37677
1569662782.3924
1569662782.40802
1569662782.42365
1569662782.43927
1569662782.4549
1569662782.47052
1569662782.48615
1569662782.50178
1569662782.5174
1569662782.53303
1569662782.54865
1569662782.56428
1569662782.5799
1569662782.59553
1569662782.61116
1569662782.62678
1569662782.64241
1569662782.65803
1569662782.67366
1569662782.68928
1569662782.70491
1569662782.72054
1569662782.73616
1569662782.75179
1569662782.76741
1569662782.78304
1569662782.79866
1569662782.81429
1569662782.82992
1569662782.84554
1569662782.86117
1569662782.87679
1569662782.89242
1569662782.90804
1569662782.92367
1569662782.9393
1569662782.95492
1569662782.97055
1569662782.98617
1569662783.0018
1569662783.01742
1569662783.03305
1569662783.04868
1569662783.0643
1569662783.07993
1569662783.09555
1569662783.11118
1569662783.1268
1569662783.14243
1569662783.15806
1569662783.17368
1569662783.18931
1569662783.20493
1569662783.22056
1569662783.23618
1569662783.25181
1569662783.26744
1569662783.28306
1569662783.29869
1569662783.31431
1569662783.32994
1569662783.34556
1569662783.36119
1569662783.37682
1569662783.39244
1569662783.40807
1569662783.42369
1569662783.43932
1569662783.45494
1569662783.47057
1569662783.4862
1569662783.50182
1569662783.51745
1569662783.53307
1569662783.5487
1569662783.56432
1569662783.57995
1569662783.59558
1569662783.6112
1569662783.62683
1569662783.64245
1569662783.65808
1569662783.6737
1569662783.68933
1569662783.70496
1569662783.72058
1569662783.73621
1569662783.75183
1569662783.76746
1569662783.78308
1569662783.79871
1569662783.81434
1569662783.82996
1569662783.84559
1569662783.86121
1569662783.87684
1569662783.89246
1569662783.90809
1569662783.92372
1569662783.93934
1569662783.95497
1569662783.97059
1569662783.98622
1569662784.00184
1569662784.01747
1569662784.0331
1569662784.04872
1569662784.06435
1569662784.07997
1569662784.0956
1569662784.11122
1569662784.12685
1569662784.14248
1569662784.1581
1569662784.17373
1569662784.18935
1569662784.20498
1569662784.2206
1569662784.23623
1569662784.25186
1569662784.26748
1569662784.28311
1569662784.29873
1569662784.31436
1569662784.32998
1569662784.34561
1569662784.36124
1569662784.37686
1569662784.39249
1569662784.40811
1569662784.42374
1569662784.43936
1569662784.45499
1569662784.47062
1569662784.48624
1569662784.50187
1569662784.51749
1569662784.53312
1569662784.54874
1569662784.56437
1569662784.58
1569662784.59562
1569662784.61125
1569662784.62687
1569662784.6425
1569662784.65813
1569662784.67375
1569662784.68938
1569662784.705
1569662784.72063
1569662784.73625
1569662784.75188
1569662784.76751
1569662784.78313
1569662784.79876
1569662784.81438
1569662784.83001
1569662784.84563
1569662784.86126
1569662784.87689
1569662784.89251
1569662784.90814
1569662784.92376
1569662784.93939
1569662784.95501
1569662784.97064
1569662784.98627
1569662785.00189
1569662785.01752
1569662785.03314
1569662785.04877
1569662785.06439
1569662785.08002
1569662785.09565
1569662785.11127
1569662785.1269
1569662785.14252
1569662785.15815
1569662785.17377
1569662785.1894
1569662785.20503
1569662785.22065
1569662785.23628
1569662785.2519
1569662785.26753
1569662785.28315
1569662785.29878
1569662785.31441
1569662785.33003
1569662785.34566
1569662785.36128
1569662785.37691
1569662785.39253
1569662785.40816
1569662785.42379
1569662785.43941
1569662785.45504
1569662785.47066
1569662785.48629
1569662785.50191
1569662785.51754
1569662785.53317
1569662785.54879
1569662785.56442
1569662785.58004
1569662785.59567
1569662785.61129
1569662785.62692
1569662785.64255
1569662785.65817
1569662785.6738
1569662785.68942
1569662785.70505
1569662785.72067
1569662785.7363
1569662785.75193
1569662785.76755
1569662785.78318
1569662785.7988
1569662785.81443
1569662785.83005
1569662785.84568
1569662785.86131
1569662785.87693
1569662785.89256
1569662785.90818
1569662785.92381
1569662785.93943
1569662785.95506
1569662785.97069
1569662785.98631
1569662786.00194
1569662786.01756
1569662786.03319
1569662786.04881
1569662786.06444
1569662786.08007
1569662786.09569
1569662786.11132
1569662786.12694
1569662786.14257
1569662786.15819
1569662786.17382
1569662786.18945
1569662786.20507
1569662786.2207
1569662786.23632
1569662786.25195
1569662786.26757
1569662786.2832
1569662786.29883
1569662786.31445
1569662786.33008
1569662786.3457
1569662786.36133
1569662786.37695
1569662786.39258
1569662786.40821
1569662786.42383
1569662786.43946
1569662786.45508
1569662786.47071
1569662786.48633
1569662786.50196
1569662786.51759
1569662786.53321
1569662786.54884
1569662786.56446
1569662786.58009
1569662786.59571
1569662786.61134
1569662786.62697
1569662786.64259
1569662786.65822
1569662786.67384
1569662786.68947
1569662786.70509
1569662786.72072
1569662786.73635
1569662786.75197
1569662786.7676
1569662786.78322
1569662786.79885
1569662786.81447
1569662786.8301
1569662786.84573
1569662786.86135
1569662786.87698
1569662786.8926
1569662786.90823
1569662786.92386
1569662786.93948
1569662786.95511
1569662786.97073
1569662786.98636
1569662787.00198
1569662787.01761
1569662787.03324
1569662787.04886
1569662787.06449
1569662787.08011
1569662787.09574
1569662787.11136
1569662787.12699
1569662787.14262
1569662787.15824
1569662787.17387
1569662787.18949
1569662787.20512
1569662787.22074
1569662787.23637
1569662787.252
1569662787.26762
1569662787.28325
1569662787.29887
1569662787.3145
1569662787.33012
1569662787.34575
1569662787.36138
1569662787.377
1569662787.39263
1569662787.40825
1569662787.42388
1569662787.4395
1569662787.45513
1569662787.47076
1569662787.48638
1569662787.50201
1569662787.51763
1569662787.53326
1569662787.54888
1569662787.56451
1569662787.58014
1569662787.59576
1569662787.61139
1569662787.62701
1569662787.64264
1569662787.65826
1569662787.67389
1569662787.68952
1569662787.70514
1569662787.72077
1569662787.73639
1569662787.75202
1569662787.76764
1569662787.78327
1569662787.7989
1569662787.81452
1569662787.83015
1569662787.84577
1569662787.8614
1569662787.87702
1569662787.89265
1569662787.90828
1569662787.9239
1569662787.93953
1569662787.95515
1569662787.97078
1569662787.9864
1569662788.00203
1569662788.01766
1569662788.03328
1569662788.04891
1569662788.06453
1569662788.08016
1569662788.09578
1569662788.11141
1569662788.12704
1569662788.14266
1569662788.15829
1569662788.17391
1569662788.18954
1569662788.20516
1569662788.22079
1569662788.23642
1569662788.25204
1569662788.26767
1569662788.28329
1569662788.29892
1569662788.31454
1569662788.33017
1569662788.3458
1569662788.36142
1569662788.37705
1569662788.39267
1569662788.4083
1569662788.42392
1569662788.43955
1569662788.45518
1569662788.4708
1569662788.48643
1569662788.50205
1569662788.51768
1569662788.5333
1569662788.54893
1569662788.56456
1569662788.58018
1569662788.59581
1569662788.61143
1569662788.62706
1569662788.64268
1569662788.65831
1569662788.67394
1569662788.68956
1569662788.70519
1569662788.72081
1569662788.73644
1569662788.75206
1569662788.76769
1569662788.78332
1569662788.79894
1569662788.81457
1569662788.83019
1569662788.84582
1569662788.86144
1569662788.87707
1569662788.8927
1569662788.90832
1569662788.92395
1569662788.93957
1569662788.9552
1569662788.97082
1569662788.98645
1569662789.00208
1569662789.0177
1569662789.03333
1569662789.04895
1569662789.06458
1569662789.0802
1569662789.09583
1569662789.11146
1569662789.12708
1569662789.14271
1569662789.15833
1569662789.17396
1569662789.18958
1569662789.20521
1569662789.22084
1569662789.23646
1569662789.25209
1569662789.26771
1569662789.28334
1569662789.29896
1569662789.31459
1569662789.33022
1569662789.34584
1569662789.36147
1569662789.37709
1569662789.39272
1569662789.40834
1569662789.42397
1569662789.4396
1569662789.45522
1569662789.47085
1569662789.48647
1569662789.5021
1569662789.51773
1569662789.53335
1569662789.54898
1569662789.5646
1569662789.58023
1569662789.59585
1569662789.61148
1569662789.62711
1569662789.64273
1569662789.65836
1569662789.67398
1569662789.68961
1569662789.70523
1569662789.72086
1569662789.73649
1569662789.75211
1569662789.76774
1569662789.78336
1569662789.79899
1569662789.81461
1569662789.83024
1569662789.84587
1569662789.86149
1569662789.87712
1569662789.89274
1569662789.90837
1569662789.92399
1569662789.93962
1569662789.95525
1569662789.97087
1569662789.9865
1569662790.00212
1569662790.01775
1569662790.03337
1569662790.049
1569662790.06463
1569662790.08025
1569662790.09588
1569662790.1115
1569662790.12713
1569662790.14275
1569662790.15838
1569662790.17401
1569662790.18963
1569662790.20526
1569662790.22088
1569662790.23651
1569662790.25213
1569662790.26776
1569662790.28339
1569662790.29901
1569662790.31464
1569662790.33026
1569662790.34589
1569662790.36151
1569662790.37714
1569662790.39277
1569662790.40839
1569662790.42402
1569662790.43964
1569662790.45527
1569662790.47089
1569662790.48652
1569662790.50215
1569662790.51777
1569662790.5334
1569662790.54902
1569662790.56465
1569662790.58027
1569662790.5959
1569662790.61153
1569662790.62715
1569662790.64278
1569662790.6584
1569662790.67403
1569662790.68965
1569662790.70528
1569662790.72091
1569662790.73653
1569662790.75216
1569662790.76778
1569662790.78341
1569662790.79903
1569662790.81466
1569662790.83029
1569662790.84591
1569662790.86154
1569662790.87716
1569662790.89279
1569662790.90841
1569662790.92404
1569662790.93967
1569662790.95529
1569662790.97092
1569662790.98654
1569662791.00217
1569662791.01779
1569662791.03342
1569662791.04905
1569662791.06467
1569662791.0803
1569662791.09592
1569662791.11155
1569662791.12717
1569662791.1428
1569662791.15843
1569662791.17405
1569662791.18968
1569662791.2053
1569662791.22093
1569662791.23655
1569662791.25218
1569662791.26781
1569662791.28343
1569662791.29906
1569662791.31468
1569662791.33031
1569662791.34593
1569662791.36156
1569662791.37719
1569662791.39281
1569662791.40844
1569662791.42406
1569662791.43969
1569662791.45531
1569662791.47094
1569662791.48657
1569662791.50219
1569662791.51782
1569662791.53344
1569662791.54907
1569662791.56469
1569662791.58032
1569662791.59595
1569662791.61157
1569662791.6272
1569662791.64282
1569662791.65845
1569662791.67407
1569662791.6897
1569662791.70533
1569662791.72095
1569662791.73658
1569662791.7522
1569662791.76783
1569662791.78346
1569662791.79908
1569662791.81471
1569662791.83033
1569662791.84596
1569662791.86158
1569662791.87721
1569662791.89284
1569662791.90846
1569662791.92409
1569662791.93971
1569662791.95534
1569662791.97096
1569662791.98659
1569662792.00222
1569662792.01784
1569662792.03347
1569662792.04909
1569662792.06472
1569662792.08034
1569662792.09597
1569662792.1116
1569662792.12722
1569662792.14285
1569662792.15847
1569662792.1741
1569662792.18972
1569662792.20535
1569662792.22098
1569662792.2366
1569662792.25223
1569662792.26785
1569662792.28348
1569662792.2991
1569662792.31473
1569662792.33036
1569662792.34598
1569662792.36161
1569662792.37723
1569662792.39286
1569662792.40848
1569662792.42411
1569662792.43974
1569662792.45536
1569662792.47099
1569662792.48661
1569662792.50224
1569662792.51786
1569662792.53349
1569662792.54912
1569662792.56474
1569662792.58037
1569662792.59599
1569662792.61162
1569662792.62724
1569662792.64287
1569662792.6585
1569662792.67412
1569662792.68975
1569662792.70537
1569662792.721
1569662792.73662
1569662792.75225
1569662792.76788
1569662792.7835
1569662792.79913
1569662792.81475
1569662792.83038
1569662792.846
1569662792.86163
1569662792.87726
1569662792.89288
1569662792.90851
1569662792.92413
1569662792.93976
1569662792.95538
1569662792.97101
1569662792.98664
1569662793.00226
1569662793.01789
1569662793.03351
1569662793.04914
1569662793.06476
1569662793.08039
1569662793.09602
1569662793.11164
1569662793.12727
1569662793.14289
1569662793.15852
1569662793.17414
1569662793.18977
1569662793.2054
1569662793.22102
1569662793.23665
1569662793.25227
1569662793.2679
1569662793.28352
1569662793.29915
1569662793.31478
1569662793.3304
1569662793.34603
1569662793.36165
1569662793.37728
1569662793.3929
1569662793.40853
1569662793.42416
1569662793.43978
1569662793.45541
1569662793.47103
1569662793.48666
1569662793.50228
1569662793.51791
1569662793.53354
1569662793.54916
1569662793.56479
1569662793.58041
1569662793.59604
1569662793.61166
1569662793.62729
1569662793.64292
1569662793.65854
1569662793.67417
1569662793.68979
1569662793.70542
1569662793.72104
1569662793.73667
1569662793.7523
1569662793.76792
1569662793.78355
1569662793.79917
1569662793.8148
1569662793.83042
1569662793.84605
1569662793.86168
1569662793.8773
1569662793.89293
1569662793.90855
1569662793.92418
1569662793.93981
1569662793.95543
1569662793.97106
1569662793.98668
1569662794.00231
1569662794.01793
1569662794.03356
1569662794.04919
1569662794.06481
1569662794.08044
1569662794.09606
1569662794.11169
1569662794.12731
1569662794.14294
1569662794.15857
1569662794.17419
1569662794.18982
1569662794.20544
1569662794.22107
1569662794.23669
1569662794.25232
1569662794.26795
1569662794.28357
1569662794.2992
1569662794.31482
1569662794.33045
1569662794.34607
1569662794.3617
1569662794.37733
1569662794.39295
1569662794.40858
1569662794.4242
1569662794.43983
1569662794.45545
1569662794.47108
1569662794.48671
1569662794.50233
1569662794.51796
1569662794.53358
1569662794.54921
1569662794.56483
1569662794.58046
1569662794.59609
1569662794.61171
1569662794.62734
1569662794.64296
1569662794.65859
1569662794.67421
1569662794.68984
1569662794.70547
1569662794.72109
1569662794.73672
1569662794.75234
1569662794.76797
1569662794.78359
1569662794.79922
1569662794.81485
1569662794.83047
1569662794.8461
1569662794.86172
1569662794.87735
1569662794.89297
1569662794.9086
1569662794.92423
1569662794.93985
1569662794.95548
1569662794.9711
1569662794.98673
1569662795.00235
1569662795.01798
1569662795.03361
1569662795.04923
1569662795.06486
1569662795.08048
1569662795.09611
1569662795.11173
1569662795.12736
1569662795.14299
1569662795.15861
1569662795.17424
1569662795.18986
1569662795.20549
1569662795.22111
1569662795.23674
1569662795.25237
1569662795.26799
1569662795.28362
1569662795.29924
1569662795.31487
1569662795.33049
1569662795.34612
1569662795.36175
1569662795.37737
1569662795.393
1569662795.40862
1569662795.42425
1569662795.43987
1569662795.4555
1569662795.47113
1569662795.48675
1569662795.50238
1569662795.518
1569662795.53363
1569662795.54925
1569662795.56488
1569662795.58051
1569662795.59613
1569662795.61176
1569662795.62738
1569662795.64301
1569662795.65863
1569662795.67426
1569662795.68989
1569662795.70551
1569662795.72114
1569662795.73676
1569662795.75239
1569662795.76801
1569662795.78364
1569662795.79927
1569662795.81489
1569662795.83052
1569662795.84614
1569662795.86177
1569662795.87739
1569662795.89302
1569662795.90865
1569662795.92427
1569662795.9399
1569662795.95552
1569662795.97115
1569662795.98677
1569662796.0024
1569662796.01803
1569662796.03365
1569662796.04928
1569662796.0649
1569662796.08053
1569662796.09615
1569662796.11178
1569662796.12741
1569662796.14303
1569662796.15866
1569662796.17428
1569662796.18991
1569662796.20553
1569662796.22116
1569662796.23679
1569662796.25241
1569662796.26804
1569662796.28366
1569662796.29929
1569662796.31491
1569662796.33054
1569662796.34617
1569662796.36179
1569662796.37742
1569662796.39304
1569662796.40867
1569662796.42429
1569662796.43992
1569662796.45555
1569662796.47117
1569662796.4868
1569662796.50242
1569662796.51805
1569662796.53367
1569662796.5493
1569662796.56493
1569662796.58055
1569662796.59618
1569662796.6118
1569662796.62743
1569662796.64306
1569662796.65868
1569662796.67431
1569662796.68993
1569662796.70556
1569662796.72118
1569662796.73681
1569662796.75244
1569662796.76806
1569662796.78369
1569662796.79931
1569662796.81494
1569662796.83056
1569662796.84619
1569662796.86182
1569662796.87744
1569662796.89307
1569662796.90869
1569662796.92432
1569662796.93994
1569662796.95557
1569662796.9712
1569662796.98682
1569662797.00245
1569662797.01807
1569662797.0337
1569662797.04932
1569662797.06495
1569662797.08058
1569662797.0962
1569662797.11183
1569662797.12745
1569662797.14308
1569662797.1587
1569662797.17433
1569662797.18996
1569662797.20558
1569662797.22121
1569662797.23683
1569662797.25246
1569662797.26808
1569662797.28371
1569662797.29934
1569662797.31496
1569662797.33059
1569662797.34621
1569662797.36184
1569662797.37746
1569662797.39309
1569662797.40872
1569662797.42434
1569662797.43997
1569662797.45559
1569662797.47122
1569662797.48684
1569662797.50247
1569662797.5181
1569662797.53372
1569662797.54935
1569662797.56497
1569662797.5806
1569662797.59622
1569662797.61185
1569662797.62748
1569662797.6431
1569662797.65873
1569662797.67435
1569662797.68998
1569662797.7056
1569662797.72123
1569662797.73686
1569662797.75248
1569662797.76811
1569662797.78373
1569662797.79936
1569662797.81498
1569662797.83061
1569662797.84624
1569662797.86186
1569662797.87749
1569662797.89311
1569662797.90874
1569662797.92436
1569662797.93999
1569662797.95562
1569662797.97124
1569662797.98687
1569662798.00249
1569662798.01812
1569662798.03374
1569662798.04937
1569662798.065
1569662798.08062
1569662798.09625
1569662798.11187
1569662798.1275
1569662798.14312
1569662798.15875
1569662798.17438
1569662798.19
1569662798.20563
1569662798.22125
1569662798.23688
1569662798.2525
1569662798.26813
1569662798.28376
1569662798.29938
1569662798.31501
1569662798.33063
1569662798.34626
1569662798.36188
1569662798.37751
1569662798.39314
1569662798.40876
1569662798.42439
1569662798.44001
1569662798.45564
1569662798.47126
1569662798.48689
1569662798.50252
1569662798.51814
1569662798.53377
1569662798.54939
1569662798.56502
1569662798.58064
1569662798.59627
1569662798.6119
1569662798.62752
1569662798.64315
1569662798.65877
1569662798.6744
1569662798.69002
1569662798.70565
1569662798.72128
1569662798.7369
1569662798.75253
1569662798.76815
1569662798.78378
1569662798.79941
1569662798.81503
1569662798.83066
1569662798.84628
1569662798.86191
1569662798.87753
1569662798.89316
1569662798.90879
1569662798.92441
1569662798.94004
1569662798.95566
1569662798.97129
1569662798.98691
1569662799.00254
1569662799.01817
1569662799.03379
1569662799.04942
1569662799.06504
1569662799.08067
1569662799.09629
1569662799.11192
1569662799.12755
1569662799.14317
1569662799.1588
1569662799.17442
1569662799.19005
1569662799.20567
1569662799.2213
1569662799.23693
1569662799.25255
1569662799.26818
1569662799.2838
1569662799.29943
1569662799.31505
1569662799.33068
1569662799.34631
1569662799.36193
1569662799.37756
1569662799.39318
1569662799.40881
1569662799.42443
1569662799.44006
1569662799.45569
1569662799.47131
1569662799.48694
1569662799.50256
1569662799.51819
1569662799.53381
1569662799.54944
1569662799.56507
1569662799.58069
1569662799.59632
1569662799.61194
1569662799.62757
1569662799.64319
1569662799.65882
1569662799.67445
1569662799.69007
1569662799.7057
1569662799.72132
1569662799.73695
1569662799.75257
1569662799.7682
1569662799.78383
1569662799.79945
1569662799.81508
1569662799.8307
1569662799.84633
1569662799.86195
1569662799.87758
1569662799.89321
1569662799.90883
1569662799.92446
1569662799.94008
1569662799.95571
1569662799.97133
1569662799.98696
1569662800.00259
1569662800.01821
1569662800.03384
1569662800.04946
1569662800.06509
1569662800.08071
1569662800.09634
1569662800.11197
1569662800.12759
1569662800.14322
1569662800.15884
1569662800.17447
1569662800.19009
1569662800.20572
1569662800.22135
1569662800.23697
1569662800.2526
1569662800.26822
1569662800.28385
1569662800.29947
1569662800.3151
1569662800.33073
1569662800.34635
1569662800.36198
1569662800.3776
1569662800.39323
1569662800.40885
1569662800.42448
1569662800.44011
1569662800.45573
1569662800.47136
1569662800.48698
1569662800.50261
1569662800.51823
1569662800.53386
1569662800.54949
1569662800.56511
1569662800.58074
1569662800.59636
1569662800.61199
1569662800.62761
1569662800.64324
1569662800.65887
1569662800.67449
1569662800.69012
1569662800.70574
1569662800.72137
1569662800.73699
1569662800.75262
1569662800.76825
1569662800.78387
1569662800.7995
1569662800.81512
1569662800.83075
1569662800.84637
1569662800.862
1569662800.87763
1569662800.89325
1569662800.90888
1569662800.9245
1569662800.94013
1569662800.95575
1569662800.97138
1569662800.98701
1569662801.00263
1569662801.01826
1569662801.03388
1569662801.04951
1569662801.06514
1569662801.08076
1569662801.09639
1569662801.11201
1569662801.12764
1569662801.14326
1569662801.15889
1569662801.17452
1569662801.19014
1569662801.20577
1569662801.22139
1569662801.23702
1569662801.25264
1569662801.26827
1569662801.2839
1569662801.29952
1569662801.31515
1569662801.33077
1569662801.3464
1569662801.36202
1569662801.37765
1569662801.39328
1569662801.4089
1569662801.42453
1569662801.44015
1569662801.45578
1569662801.4714
1569662801.48703
1569662801.50266
1569662801.51828
1569662801.53391
1569662801.54953
1569662801.56516
1569662801.58078
1569662801.59641
1569662801.61204
1569662801.62766
1569662801.64329
1569662801.65891
1569662801.67454
1569662801.69016
1569662801.70579
1569662801.72142
1569662801.73704
1569662801.75267
1569662801.76829
1569662801.78392
1569662801.79954
1569662801.81517
1569662801.8308
1569662801.84642
1569662801.86205
1569662801.87767
1569662801.8933
1569662801.90892
1569662801.92455
1569662801.94018
1569662801.9558
1569662801.97143
1569662801.98705
1569662802.00268
1569662802.0183
1569662802.03393
1569662802.04956
1569662802.06518
1569662802.08081
1569662802.09643
1569662802.11206
1569662802.12768
1569662802.14331
1569662802.15894
1569662802.17456
1569662802.19019
1569662802.20581
1569662802.22144
1569662802.23706
1569662802.25269
1569662802.26832
1569662802.28394
1569662802.29957
1569662802.31519
1569662802.33082
1569662802.34644
1569662802.36207
1569662802.3777
1569662802.39332
1569662802.40895
1569662802.42457
1569662802.4402
1569662802.45582
1569662802.47145
1569662802.48708
1569662802.5027
1569662802.51833
1569662802.53395
1569662802.54958
1569662802.5652
1569662802.58083
1569662802.59646
1569662802.61208
1569662802.62771
1569662802.64333
1569662802.65896
1569662802.67458
1569662802.69021
1569662802.70584
1569662802.72146
1569662802.73709
1569662802.75271
1569662802.76834
1569662802.78396
1569662802.79959
1569662802.81522
1569662802.83084
1569662802.84647
1569662802.86209
1569662802.87772
1569662802.89334
1569662802.90897
1569662802.9246
1569662802.94022
1569662802.95585
1569662802.97147
1569662802.9871
1569662803.00272
1569662803.01835
1569662803.03398
1569662803.0496
1569662803.06523
1569662803.08085
1569662803.09648
1569662803.1121
1569662803.12773
1569662803.14336
1569662803.15898
1569662803.17461
1569662803.19023
1569662803.20586
1569662803.22148
1569662803.23711
1569662803.25274
1569662803.26836
1569662803.28399
1569662803.29961
1569662803.31524
1569662803.33086
1569662803.34649
1569662803.36212
1569662803.37774
1569662803.39337
1569662803.40899
1569662803.42462
1569662803.44024
1569662803.45587
1569662803.4715
1569662803.48712
1569662803.50275
1569662803.51837
1569662803.534
1569662803.54962
1569662803.56525
1569662803.58088
1569662803.5965
1569662803.61213
1569662803.62775
1569662803.64338
1569662803.659
1569662803.67463
1569662803.69026
1569662803.70588
1569662803.72151
1569662803.73713
1569662803.75276
1569662803.76839
1569662803.78401
1569662803.79964
1569662803.81526
1569662803.83089
1569662803.84651
1569662803.86214
1569662803.87777
1569662803.89339
1569662803.90902
1569662803.92464
1569662803.94027
1569662803.95589
1569662803.97152
1569662803.98715
1569662804.00277
1569662804.0184
1569662804.03402
1569662804.04965
1569662804.06527
1569662804.0809
1569662804.09653
1569662804.11215
1569662804.12778
1569662804.1434
1569662804.15903
1569662804.17465
1569662804.19028
1569662804.20591
1569662804.22153
1569662804.23716
1569662804.25278
1569662804.26841
1569662804.28403
1569662804.29966
1569662804.31529
1569662804.33091
1569662804.34654
1569662804.36216
1569662804.37779
1569662804.39341
1569662804.40904
1569662804.42467
1569662804.44029
1569662804.45592
1569662804.47154
1569662804.48717
1569662804.50279
1569662804.51842
1569662804.53405
1569662804.54967
1569662804.5653
1569662804.58092
1569662804.59655
1569662804.61217
1569662804.6278
1569662804.64343
1569662804.65905
1569662804.67468
1569662804.6903
1569662804.70593
1569662804.72155
1569662804.73718
1569662804.75281
1569662804.76843
1569662804.78406
1569662804.79968
1569662804.81531
1569662804.83093
1569662804.84656
1569662804.86219
1569662804.87781
1569662804.89344
1569662804.90906
1569662804.92469
1569662804.94031
1569662804.95594
1569662804.97157
1569662804.98719
1569662805.00282
1569662805.01844
1569662805.03407
1569662805.04969
1569662805.06532
1569662805.08095
1569662805.09657
1569662805.1122
1569662805.12782
1569662805.14345
1569662805.15907
1569662805.1747
1569662805.19033
1569662805.20595
1569662805.22158
1569662805.2372
1569662805.25283
1569662805.26845
1569662805.28408
1569662805.29971
1569662805.31533
1569662805.33096
1569662805.34658
1569662805.36221
1569662805.37783
1569662805.39346
1569662805.40909
1569662805.42471
1569662805.44034
1569662805.45596
1569662805.47159
1569662805.48721
1569662805.50284
1569662805.51847
1569662805.53409
1569662805.54972
1569662805.56534
1569662805.58097
1569662805.59659
1569662805.61222
1569662805.62785
1569662805.64347
1569662805.6591
1569662805.67472
1569662805.69035
1569662805.70597
1569662805.7216
1569662805.73723
1569662805.75285
1569662805.76848
1569662805.7841
1569662805.79973
1569662805.81535
1569662805.83098
1569662805.84661
1569662805.86223
1569662805.87786
1569662805.89348
1569662805.90911
1569662805.92474
1569662805.94036
1569662805.95599
1569662805.97161
1569662805.98724
1569662806.00286
1569662806.01849
1569662806.03412
1569662806.04974
1569662806.06537
1569662806.08099
1569662806.09662
1569662806.11224
1569662806.12787
1569662806.1435
1569662806.15912
1569662806.17475
1569662806.19037
1569662806.206
1569662806.22162
1569662806.23725
1569662806.25288
1569662806.2685
1569662806.28413
1569662806.29975
1569662806.31538
1569662806.331
1569662806.34663
1569662806.36226
1569662806.37788
1569662806.39351
1569662806.40913
1569662806.42476
1569662806.44038
1569662806.45601
1569662806.47164
1569662806.48726
1569662806.50289
1569662806.51851
1569662806.53414
1569662806.54976
1569662806.56539
1569662806.58102
1569662806.59664
1569662806.61227
1569662806.62789
1569662806.64352
1569662806.65914
1569662806.67477
1569662806.6904
1569662806.70602
1569662806.72165
1569662806.73727
1569662806.7529
1569662806.76852
1569662806.78415
1569662806.79978
1569662806.8154
1569662806.83103
1569662806.84665
1569662806.86228
1569662806.8779
1569662806.89353
1569662806.90916
1569662806.92478
1569662806.94041
1569662806.95603
1569662806.97166
1569662806.98728
1569662807.00291
1569662807.01854
1569662807.03416
1569662807.04979
1569662807.06541
1569662807.08104
1569662807.09666
1569662807.11229
1569662807.12792
1569662807.14354
1569662807.15917
1569662807.17479
1569662807.19042
1569662807.20604
1569662807.22167
1569662807.2373
1569662807.25292
1569662807.26855
1569662807.28417
1569662807.2998
1569662807.31542
1569662807.33105
1569662807.34668
1569662807.3623
1569662807.37793
1569662807.39355
1569662807.40918
1569662807.4248
1569662807.44043
1569662807.45606
1569662807.47168
1569662807.48731
1569662807.50293
1569662807.51856
1569662807.53418
1569662807.54981
1569662807.56544
1569662807.58106
1569662807.59669
1569662807.61231
1569662807.62794
1569662807.64356
1569662807.65919
1569662807.67482
1569662807.69044
1569662807.70607
1569662807.72169
1569662807.73732
1569662807.75294
1569662807.76857
1569662807.7842
1569662807.79982
1569662807.81545
1569662807.83107
1569662807.8467
1569662807.86232
1569662807.87795
1569662807.89358
1569662807.9092
1569662807.92483
1569662807.94045
1569662807.95608
1569662807.9717
1569662807.98733
1569662808.00296
1569662808.01858
1569662808.03421
1569662808.04983
1569662808.06546
1569662808.08108
1569662808.09671
1569662808.11234
1569662808.12796
1569662808.14359
1569662808.15921
1569662808.17484
1569662808.19046
1569662808.20609
1569662808.22172
1569662808.23734
1569662808.25297
1569662808.26859
1569662808.28422
1569662808.29984
1569662808.31547
1569662808.3311
1569662808.34672
1569662808.36235
1569662808.37797
1569662808.3936
1569662808.40922
1569662808.42485
1569662808.44048
1569662808.4561
1569662808.47173
1569662808.48735
1569662808.50298
1569662808.5186
1569662808.53423
1569662808.54986
1569662808.56548
1569662808.58111
1569662808.59673
1569662808.61236
1569662808.62799
1569662808.64361
1569662808.65924
1569662808.67486
1569662808.69049
1569662808.70611
1569662808.72174
1569662808.73737
1569662808.75299
1569662808.76862
1569662808.78424
1569662808.79987
1569662808.81549
1569662808.83112
1569662808.84675
1569662808.86237
1569662808.878
1569662808.89362
1569662808.90925
1569662808.92487
1569662808.9405
1569662808.95613
1569662808.97175
1569662808.98738
1569662809.003
1569662809.01863
1569662809.03425
1569662809.04988
1569662809.06551
1569662809.08113
1569662809.09676
1569662809.11238
1569662809.12801
1569662809.14363
1569662809.15926
1569662809.17489
1569662809.19051
1569662809.20614
1569662809.22176
1569662809.23739
1569662809.25301
1569662809.26864
1569662809.28427
1569662809.29989
1569662809.31552
1569662809.33114
1569662809.34677
1569662809.36239
1569662809.37802
1569662809.39365
1569662809.40927
1569662809.4249
1569662809.44052
1569662809.45615
1569662809.47177
1569662809.4874
1569662809.50303
1569662809.51865
1569662809.53428
1569662809.5499
1569662809.56553
1569662809.58115
1569662809.59678
1569662809.61241
1569662809.62803
1569662809.64366
1569662809.65928
1569662809.67491
1569662809.69053
1569662809.70616
1569662809.72179
1569662809.73741
1569662809.75304
1569662809.76866
1569662809.78429
1569662809.79991
1569662809.81554
1569662809.83117
1569662809.84679
1569662809.86242
1569662809.87804
1569662809.89367
1569662809.90929
1569662809.92492
1569662809.94055
1569662809.95617
1569662809.9718
1569662809.98742
1569662810.00305
1569662810.01867
1569662810.0343
1569662810.04993
1569662810.06555
1569662810.08118
1569662810.0968
1569662810.11243
1569662810.12805
1569662810.14368
1569662810.15931
1569662810.17493
1569662810.19056
1569662810.20618
1569662810.22181
1569662810.23743
1569662810.25306
1569662810.26869
1569662810.28431
1569662810.29994
1569662810.31556
1569662810.33119
1569662810.34681
1569662810.36244
1569662810.37807
1569662810.39369
1569662810.40932
1569662810.42494
1569662810.44057
1569662810.45619
1569662810.47182
1569662810.48745
1569662810.50307
1569662810.5187
1569662810.53432
1569662810.54995
1569662810.56557
1569662810.5812
1569662810.59683
1569662810.61245
1569662810.62808
1569662810.6437
1569662810.65933
1569662810.67495
1569662810.69058
1569662810.70621
1569662810.72183
1569662810.73746
1569662810.75308
1569662810.76871
1569662810.78434
1569662810.79996
1569662810.81559
1569662810.83121
1569662810.84684
1569662810.86246
1569662810.87809
1569662810.89372
1569662810.90934
1569662810.92497
1569662810.94059
1569662810.95622
1569662810.97184
1569662810.98747
1569662811.0031
1569662811.01872
1569662811.03435
1569662811.04997
1569662811.0656
1569662811.08122
1569662811.09685
1569662811.11248
1569662811.1281
1569662811.14373
1569662811.15935
1569662811.17498
1569662811.1906
1569662811.20623
1569662811.22186
1569662811.23748
1569662811.25311
1569662811.26873
1569662811.28436
1569662811.29998
1569662811.31561
1569662811.33124
1569662811.34686
1569662811.36249
1569662811.37811
1569662811.39374
1569662811.40936
1569662811.42499
1569662811.44062
1569662811.45624
1569662811.47187
1569662811.48749
1569662811.50312
1569662811.51874
1569662811.53437
1569662811.55
1569662811.56562
1569662811.58125
1569662811.59687
1569662811.6125
1569662811.62812
1569662811.64375
1569662811.65938
1569662811.675
1569662811.69063
1569662811.70625
1569662811.72188
1569662811.7375
1569662811.75313
1569662811.76876
1569662811.78438
1569662811.80001
1569662811.81563
1569662811.83126
1569662811.84688
1569662811.86251
1569662811.87814
1569662811.89376
1569662811.90939
1569662811.92501
1569662811.94064
1569662811.95626
1569662811.97189
1569662811.98752
1569662812.00314
1569662812.01877
1569662812.03439
1569662812.05002
1569662812.06564
1569662812.08127
1569662812.0969
1569662812.11252
1569662812.12815
1569662812.14377
1569662812.1594
1569662812.17502
1569662812.19065
1569662812.20628
1569662812.2219
1569662812.23753
1569662812.25315
1569662812.26878
1569662812.2844
1569662812.30003
1569662812.31566
1569662812.33128
1569662812.34691
1569662812.36253
1569662812.37816
1569662812.39378
1569662812.40941
1569662812.42504
1569662812.44066
1569662812.45629
1569662812.47191
1569662812.48754
1569662812.50316
1569662812.51879
1569662812.53442
1569662812.55004
1569662812.56567
1569662812.58129
1569662812.59692
1569662812.61254
1569662812.62817
1569662812.6438
1569662812.65942
1569662812.67505
1569662812.69067
1569662812.7063
1569662812.72192
1569662812.73755
1569662812.75318
1569662812.7688
1569662812.78443
1569662812.80005
1569662812.81568
1569662812.8313
1569662812.84693
1569662812.86256
1569662812.87818
1569662812.89381
1569662812.90943
1569662812.92506
1569662812.94068
1569662812.95631
1569662812.97194
1569662812.98756
1569662813.00319
1569662813.01881
1569662813.03444
1569662813.05007
1569662813.06569
1569662813.08132
1569662813.09694
1569662813.11257
1569662813.12819
1569662813.14382
1569662813.15945
1569662813.17507
1569662813.1907
1569662813.20632
1569662813.22195
1569662813.23757
1569662813.2532
1569662813.26883
1569662813.28445
1569662813.30008
1569662813.3157
1569662813.33133
1569662813.34695
1569662813.36258
1569662813.37821
1569662813.39383
1569662813.40946
1569662813.42508
1569662813.44071
1569662813.45633
1569662813.47196
1569662813.48759
1569662813.50321
1569662813.51884
1569662813.53446
1569662813.55009
1569662813.56571
1569662813.58134
1569662813.59697
1569662813.61259
1569662813.62822
1569662813.64384
1569662813.65947
1569662813.67509
1569662813.69072
1569662813.70635
1569662813.72197
1569662813.7376
1569662813.75322
1569662813.76885
1569662813.78447
1569662813.8001
1569662813.81573
1569662813.83135
1569662813.84698
1569662813.8626
1569662813.87823
1569662813.89385
1569662813.90948
1569662813.92511
1569662813.94073
1569662813.95636
1569662813.97198
1569662813.98761
1569662814.00323
1569662814.01886
1569662814.03449
1569662814.05011
1569662814.06574
1569662814.08136
1569662814.09699
1569662814.11261
1569662814.12824
1569662814.14387
1569662814.15949
1569662814.17512
1569662814.19074
1569662814.20637
1569662814.22199
1569662814.23762
1569662814.25325
1569662814.26887
1569662814.2845
1569662814.30012
1569662814.31575
1569662814.33137
1569662814.347
1569662814.36263
1569662814.37825
1569662814.39388
1569662814.4095
1569662814.42513
1569662814.44075
1569662814.45638
1569662814.47201
1569662814.48763
1569662814.50326
1569662814.51888
1569662814.53451
1569662814.55013
1569662814.56576
1569662814.58139
1569662814.59701
1569662814.61264
1569662814.62826
1569662814.64389
1569662814.65951
1569662814.67514
1569662814.69077
1569662814.70639
1569662814.72202
1569662814.73764
1569662814.75327
1569662814.76889
1569662814.78452
1569662814.80015
1569662814.81577
1569662814.8314
1569662814.84702
1569662814.86265
1569662814.87827
1569662814.8939
1569662814.90953
1569662814.92515
1569662814.94078
1569662814.9564
1569662814.97203
1569662814.98765
1569662815.00328
1569662815.01891
1569662815.03453
1569662815.05016
1569662815.06578
1569662815.08141
1569662815.09703
1569662815.11266
1569662815.12829
1569662815.14391
1569662815.15954
1569662815.17516
1569662815.19079
1569662815.20641
1569662815.22204
1569662815.23767
1569662815.25329
1569662815.26892
1569662815.28454
1569662815.30017
1569662815.31579
1569662815.33142
1569662815.34705
1569662815.36267
1569662815.3783
1569662815.39392
1569662815.40955
1569662815.42517
1569662815.4408
1569662815.45643
1569662815.47205
1569662815.48768
1569662815.5033
1569662815.51893
1569662815.53455
1569662815.55018
1569662815.56581
1569662815.58143
1569662815.59706
1569662815.61268
1569662815.62831
1569662815.64394
1569662815.65956
1569662815.67519
1569662815.69081
1569662815.70644
1569662815.72206
1569662815.73769
1569662815.75332
1569662815.76894
1569662815.78457
1569662815.80019
1569662815.81582
1569662815.83144
1569662815.84707
1569662815.8627
1569662815.87832
1569662815.89395
1569662815.90957
1569662815.9252
1569662815.94082
1569662815.95645
1569662815.97208
1569662815.9877
1569662816.00333
1569662816.01895
1569662816.03458
1569662816.0502
1569662816.06583
1569662816.08146
1569662816.09708
1569662816.11271
1569662816.12833
1569662816.14396
1569662816.15958
1569662816.17521
1569662816.19084
1569662816.20646
1569662816.22209
1569662816.23771
1569662816.25334
1569662816.26896
1569662816.28459
1569662816.30022
1569662816.31584
1569662816.33147
1569662816.34709
1569662816.36272
1569662816.37834
1569662816.39397
1569662816.4096
1569662816.42522
1569662816.44085
1569662816.45647
1569662816.4721
1569662816.48772
1569662816.50335
1569662816.51898
1569662816.5346
1569662816.55023
1569662816.56585
1569662816.58148
1569662816.5971
1569662816.61273
1569662816.62836
1569662816.64398
1569662816.65961
1569662816.67523
1569662816.69086
1569662816.70648
1569662816.72211
1569662816.73774
1569662816.75336
1569662816.76899
1569662816.78461
1569662816.80024
1569662816.81586
1569662816.83149
1569662816.84712
1569662816.86274
1569662816.87837
1569662816.89399
1569662816.90962
1569662816.92524
1569662816.94087
1569662816.9565
1569662816.97212
1569662816.98775
1569662817.00337
1569662817.019
1569662817.03462
1569662817.05025
1569662817.06588
1569662817.0815
1569662817.09713
1569662817.11275
1569662817.12838
1569662817.144
1569662817.15963
1569662817.17526
1569662817.19088
1569662817.20651
1569662817.22213
1569662817.23776
1569662817.25338
1569662817.26901
1569662817.28464
1569662817.30026
1569662817.31589
1569662817.33151
1569662817.34714
1569662817.36276
1569662817.37839
1569662817.39402
1569662817.40964
1569662817.42527
1569662817.44089
1569662817.45652
1569662817.47214
1569662817.48777
1569662817.5034
1569662817.51902
1569662817.53465
1569662817.55027
1569662817.5659
1569662817.58152
1569662817.59715
1569662817.61278
1569662817.6284
1569662817.64403
1569662817.65965
1569662817.67528
1569662817.6909
1569662817.70653
1569662817.72216
1569662817.73778
1569662817.75341
1569662817.76903
1569662817.78466
1569662817.80028
1569662817.81591
1569662817.83154
1569662817.84716
1569662817.86279
1569662817.87841
1569662817.89404
1569662817.90967
1569662817.92529
1569662817.94092
1569662817.95654
1569662817.97217
1569662817.98779
1569662818.00342
1569662818.01905
1569662818.03467
1569662818.0503
1569662818.06592
1569662818.08155
1569662818.09717
1569662818.1128
1569662818.12843
1569662818.14405
1569662818.15968
1569662818.1753
1569662818.19093
1569662818.20655
1569662818.22218
1569662818.23781
1569662818.25343
1569662818.26906
1569662818.28468
1569662818.30031
1569662818.31593
1569662818.33156
1569662818.34719
1569662818.36281
1569662818.37844
1569662818.39406
1569662818.40969
1569662818.42531
1569662818.44094
1569662818.45657
1569662818.47219
1569662818.48782
1569662818.50344
1569662818.51907
1569662818.53469
1569662818.55032
1569662818.56595
1569662818.58157
1569662818.5972
1569662818.61282
1569662818.62845
1569662818.64407
1569662818.6597
1569662818.67533
1569662818.69095
1569662818.70658
1569662818.7222
1569662818.73783
1569662818.75345
1569662818.76908
1569662818.78471
1569662818.80033
1569662818.81596
1569662818.83158
1569662818.84721
1569662818.86283
1569662818.87846
1569662818.89409
1569662818.90971
1569662818.92534
1569662818.94096
1569662818.95659
1569662818.97221
1569662818.98784
1569662819.00347
1569662819.01909
1569662819.03472
1569662819.05034
1569662819.06597
1569662819.08159
1569662819.09722
1569662819.11285
1569662819.12847
1569662819.1441
1569662819.15972
1569662819.17535
1569662819.19097
1569662819.2066
1569662819.22223
1569662819.23785
1569662819.25348
1569662819.2691
1569662819.28473
1569662819.30035
1569662819.31598
1569662819.33161
1569662819.34723
1569662819.36286
1569662819.37848
1569662819.39411
1569662819.40973
1569662819.42536
1569662819.44099
1569662819.45661
1569662819.47224
1569662819.48786
1569662819.50349
1569662819.51911
1569662819.53474
1569662819.55037
1569662819.56599
1569662819.58162
1569662819.59724
1569662819.61287
1569662819.62849
1569662819.64412
1569662819.65975
1569662819.67537
1569662819.691
1569662819.70662
1569662819.72225
1569662819.73787
1569662819.7535
1569662819.76913
1569662819.78475
1569662819.80038
1569662819.816
1569662819.83163
1569662819.84725
1569662819.86288
1569662819.87851
1569662819.89413
1569662819.90976
1569662819.92538
1569662819.94101
1569662819.95663
1569662819.97226
1569662819.98789
1569662820.00351
1569662820.01914
1569662820.03476
1569662820.05039
1569662820.06602
1569662820.08164
1569662820.09727
1569662820.11289
1569662820.12852
1569662820.14414
1569662820.15977
1569662820.1754
1569662820.19102
1569662820.20665
1569662820.22227
1569662820.2379
1569662820.25352
1569662820.26915
1569662820.28478
1569662820.3004
1569662820.31603
1569662820.33165
1569662820.34728
1569662820.3629
1569662820.37853
1569662820.39416
1569662820.40978
1569662820.42541
1569662820.44103
1569662820.45666
1569662820.47228
1569662820.48791
1569662820.50354
1569662820.51916
1569662820.53479
1569662820.55041
1569662820.56604
1569662820.58166
1569662820.59729
1569662820.61292
1569662820.62854
1569662820.64417
1569662820.65979
1569662820.67542
1569662820.69104
1569662820.70667
1569662820.7223
1569662820.73792
1569662820.75355
1569662820.76917
1569662820.7848
1569662820.80042
1569662820.81605
1569662820.83168
1569662820.8473
1569662820.86293
1569662820.87855
1569662820.89418
1569662820.9098
1569662820.92543
1569662820.94106
1569662820.95668
1569662820.97231
1569662820.98793
1569662821.00356
1569662821.01918
1569662821.03481
1569662821.05044
1569662821.06606
1569662821.08169
1569662821.09731
1569662821.11294
1569662821.12856
1569662821.14419
1569662821.15982
1569662821.17544
1569662821.19107
1569662821.20669
1569662821.22232
1569662821.23794
1569662821.25357
1569662821.2692
1569662821.28482
1569662821.30045
1569662821.31607
1569662821.3317
1569662821.34732
1569662821.36295
1569662821.37858
1569662821.3942
1569662821.40983
1569662821.42545
1569662821.44108
1569662821.4567
1569662821.47233
1569662821.48796
1569662821.50358
1569662821.51921
1569662821.53483
1569662821.55046
1569662821.56608
1569662821.58171
1569662821.59734
1569662821.61296
1569662821.62859
1569662821.64421
1569662821.65984
1569662821.67546
1569662821.69109
1569662821.70672
1569662821.72234
1569662821.73797
1569662821.75359
1569662821.76922
1569662821.78484
1569662821.80047
1569662821.8161
1569662821.83172
1569662821.84735
1569662821.86297
1569662821.8786
1569662821.89422
1569662821.90985
1569662821.92548
1569662821.9411
1569662821.95673
1569662821.97235
1569662821.98798
1569662822.0036
1569662822.01923
1569662822.03486
1569662822.05048
1569662822.06611
1569662822.08173
1569662822.09736
1569662822.11298
1569662822.12861
1569662822.14424
1569662822.15986
1569662822.17549
1569662822.19111
1569662822.20674
1569662822.22236
1569662822.23799
1569662822.25362
1569662822.26924
1569662822.28487
1569662822.30049
1569662822.31612
1569662822.33174
1569662822.34737
1569662822.363
1569662822.37862
1569662822.39425
1569662822.40987
1569662822.4255
1569662822.44112
1569662822.45675
1569662822.47238
1569662822.488
1569662822.50363
1569662822.51925
1569662822.53488
1569662822.5505
1569662822.56613
1569662822.58176
1569662822.59738
1569662822.61301
1569662822.62863
1569662822.64426
1569662822.65988
1569662822.67551
1569662822.69114
1569662822.70676
1569662822.72239
1569662822.73801
1569662822.75364
1569662822.76927
1569662822.78489
1569662822.80052
1569662822.81614
1569662822.83177
1569662822.84739
1569662822.86302
1569662822.87865
1569662822.89427
1569662822.9099
1569662822.92552
1569662822.94115
1569662822.95677
1569662822.9724
1569662822.98803
1569662823.00365
1569662823.01928
1569662823.0349
1569662823.05053
1569662823.06615
1569662823.08178
1569662823.09741
1569662823.11303
1569662823.12866
1569662823.14428
1569662823.15991
1569662823.17553
1569662823.19116
1569662823.20679
1569662823.22241
1569662823.23804
1569662823.25366
1569662823.26929
1569662823.28491
1569662823.30054
1569662823.31617
1569662823.33179
1569662823.34742
1569662823.36304
1569662823.37867
1569662823.39429
1569662823.40992
1569662823.42555
1569662823.44117
1569662823.4568
1569662823.47242
1569662823.48805
1569662823.50367
1569662823.5193
1569662823.53493
1569662823.55055
1569662823.56618
1569662823.5818
1569662823.59743
1569662823.61305
1569662823.62868
1569662823.64431
1569662823.65993
1569662823.67556
1569662823.69118
1569662823.70681
1569662823.72243
1569662823.73806
1569662823.75369
1569662823.76931
1569662823.78494
1569662823.80056
1569662823.81619
1569662823.83181
1569662823.84744
1569662823.86307
1569662823.87869
1569662823.89432
1569662823.90994
1569662823.92557
1569662823.94119
1569662823.95682
1569662823.97245
1569662823.98807
1569662824.0037
1569662824.01932
1569662824.03495
1569662824.05057
1569662824.0662
1569662824.08183
1569662824.09745
1569662824.11308
1569662824.1287
1569662824.14433
1569662824.15995
1569662824.17558
1569662824.19121
1569662824.20683
1569662824.22246
1569662824.23808
1569662824.25371
1569662824.26933
1569662824.28496
1569662824.30059
1569662824.31621
1569662824.33184
1569662824.34746
1569662824.36309
1569662824.37871
1569662824.39434
1569662824.40997
1569662824.42559
1569662824.44122
1569662824.45684
1569662824.47247
1569662824.48809
1569662824.50372
1569662824.51935
1569662824.53497
1569662824.5506
1569662824.56622
1569662824.58185
1569662824.59747
1569662824.6131
1569662824.62873
1569662824.64435
1569662824.65998
1569662824.6756
1569662824.69123
1569662824.70685
1569662824.72248
1569662824.73811
1569662824.75373
1569662824.76936
1569662824.78498
1569662824.80061
1569662824.81623
1569662824.83186
1569662824.84749
1569662824.86311
1569662824.87874
1569662824.89436
1569662824.90999
1569662824.92562
1569662824.94124
1569662824.95687
1569662824.97249
1569662824.98812
1569662825.00374
1569662825.01937
1569662825.035
1569662825.05062
1569662825.06625
1569662825.08187
1569662825.0975
1569662825.11312
1569662825.12875
1569662825.14438
1569662825.16
1569662825.17563
1569662825.19125
1569662825.20688
1569662825.2225
1569662825.23813
1569662825.25376
1569662825.26938
1569662825.28501
1569662825.30063
1569662825.31626
1569662825.33188
1569662825.34751
1569662825.36314
1569662825.37876
1569662825.39439
1569662825.41001
1569662825.42564
1569662825.44126
1569662825.45689
1569662825.47252
1569662825.48814
1569662825.50377
1569662825.51939
1569662825.53502
1569662825.55064
1569662825.56627
1569662825.5819
1569662825.59752
1569662825.61315
1569662825.62877
1569662825.6444
1569662825.66002
1569662825.67565
1569662825.69128
1569662825.7069
1569662825.72253
1569662825.73815
1569662825.75378
1569662825.7694
1569662825.78503
1569662825.80066
1569662825.81628
1569662825.83191
1569662825.84753
1569662825.86316
1569662825.87878
1569662825.89441
1569662825.91004
1569662825.92566
1569662825.94129
1569662825.95691
1569662825.97254
1569662825.98816
1569662826.00379
1569662826.01942
1569662826.03504
1569662826.05067
1569662826.06629
1569662826.08192
1569662826.09754
1569662826.11317
1569662826.1288
1569662826.14442
1569662826.16005
1569662826.17567
1569662826.1913
1569662826.20692
1569662826.22255
1569662826.23818
1569662826.2538
1569662826.26943
1569662826.28505
1569662826.30068
1569662826.3163
1569662826.33193
1569662826.34756
1569662826.36318
1569662826.37881
1569662826.39443
1569662826.41006
1569662826.42568
1569662826.44131
1569662826.45694
1569662826.47256
1569662826.48819
1569662826.50381
1569662826.51944
1569662826.53506
1569662826.55069
1569662826.56632
1569662826.58194
1569662826.59757
1569662826.61319
1569662826.62882
1569662826.64444
1569662826.66007
1569662826.6757
1569662826.69132
1569662826.70695
1569662826.72257
1569662826.7382
1569662826.75382
1569662826.76945
1569662826.78508
1569662826.8007
1569662826.81633
1569662826.83195
1569662826.84758
1569662826.8632
1569662826.87883
1569662826.89446
1569662826.91008
1569662826.92571
1569662826.94133
1569662826.95696
1569662826.97258
1569662826.98821
1569662827.00384
1569662827.01946
1569662827.03509
1569662827.05071
1569662827.06634
1569662827.08196
1569662827.09759
1569662827.11322
1569662827.12884
1569662827.14447
1569662827.16009
1569662827.17572
1569662827.19134
1569662827.20697
1569662827.2226
1569662827.23822
1569662827.25385
1569662827.26947
1569662827.2851
1569662827.30072
1569662827.31635
1569662827.33198
1569662827.3476
1569662827.36323
1569662827.37885
1569662827.39448
1569662827.4101
1569662827.42573
1569662827.44136
1569662827.45698
1569662827.47261
1569662827.48823
1569662827.50386
1569662827.51949
1569662827.53511
1569662827.55074
1569662827.56636
1569662827.58199
1569662827.59761
1569662827.61324
1569662827.62887
1569662827.64449
1569662827.66012
1569662827.67574
1569662827.69137
1569662827.70699
1569662827.72262
1569662827.73825
1569662827.75387
1569662827.7695
1569662827.78512
1569662827.80075
1569662827.81637
1569662827.832
1569662827.84763
1569662827.86325
1569662827.87888
1569662827.8945
1569662827.91013
1569662827.92575
1569662827.94138
1569662827.95701
1569662827.97263
1569662827.98826
1569662828.00388
1569662828.01951
1569662828.03513
1569662828.05076
1569662828.06639
1569662828.08201
1569662828.09764
1569662828.11326
1569662828.12889
1569662828.14451
1569662828.16014
1569662828.17577
1569662828.19139
1569662828.20702
1569662828.22264
1569662828.23827
1569662828.25389
1569662828.26952
1569662828.28515
1569662828.30077
1569662828.3164
1569662828.33202
1569662828.34765
1569662828.36327
1569662828.3789
1569662828.39453
1569662828.41015
1569662828.42578
1569662828.4414
1569662828.45703
1569662828.47265
1569662828.48828
1569662828.50391
1569662828.51953
1569662828.53516
1569662828.55078
1569662828.56641
1569662828.58203
1569662828.59766
1569662828.61329
1569662828.62891
1569662828.64454
1569662828.66016
1569662828.67579
1569662828.69141
1569662828.70704
1569662828.72267
1569662828.73829
1569662828.75392
1569662828.76954
1569662828.78517
1569662828.80079
1569662828.81642
1569662828.83205
1569662828.84767
1569662828.8633
1569662828.87892
1569662828.89455
1569662828.91017
1569662828.9258
1569662828.94143
1569662828.95705
1569662828.97268
1569662828.9883
1569662829.00393
1569662829.01955
1569662829.03518
1569662829.05081
1569662829.06643
1569662829.08206
1569662829.09768
1569662829.11331
1569662829.12893
1569662829.14456
1569662829.16019
1569662829.17581
1569662829.19144
1569662829.20706
1569662829.22269
1569662829.23831
1569662829.25394
1569662829.26957
1569662829.28519
1569662829.30082
1569662829.31644
1569662829.33207
1569662829.34769
1569662829.36332
1569662829.37895
1569662829.39457
1569662829.4102
1569662829.42582
1569662829.44145
1569662829.45707
1569662829.4727
1569662829.48833
1569662829.50395
1569662829.51958
1569662829.5352
1569662829.55083
1569662829.56645
1569662829.58208
1569662829.59771
1569662829.61333
1569662829.62896
1569662829.64458
1569662829.66021
1569662829.67583
1569662829.69146
1569662829.70709
1569662829.72271
1569662829.73834
1569662829.75396
1569662829.76959
1569662829.78521
1569662829.80084
1569662829.81647
1569662829.83209
1569662829.84772
1569662829.86334
1569662829.87897
1569662829.8946
1569662829.91022
1569662829.92585
1569662829.94147
1569662829.9571
1569662829.97272
1569662829.98835
1569662830.00398
1569662830.0196
1569662830.03523
1569662830.05085
1569662830.06648
1569662830.0821
1569662830.09773
1569662830.11336
1569662830.12898
1569662830.14461
1569662830.16023
1569662830.17586
1569662830.19148
1569662830.20711
1569662830.22274
1569662830.23836
1569662830.25399
1569662830.26961
1569662830.28524
1569662830.30086
1569662830.31649
1569662830.33212
1569662830.34774
1569662830.36337
1569662830.37899
1569662830.39462
1569662830.41024
1569662830.42587
1569662830.4415
1569662830.45712
1569662830.47275
1569662830.48837
1569662830.504
1569662830.51962
1569662830.53525
1569662830.55088
1569662830.5665
1569662830.58213
1569662830.59775
1569662830.61338
1569662830.629
1569662830.64463
1569662830.66026
1569662830.67588
1569662830.69151
1569662830.70713
1569662830.72276
1569662830.73838
1569662830.75401
1569662830.76964
1569662830.78526
1569662830.80089
1569662830.81651
1569662830.83214
1569662830.84776
1569662830.86339
1569662830.87902
1569662830.89464
1569662830.91027
1569662830.92589
1569662830.94152
1569662830.95714
1569662830.97277
1569662830.9884
1569662831.00402
1569662831.01965
1569662831.03527
1569662831.0509
1569662831.06652
1569662831.08215
1569662831.09778
1569662831.1134
1569662831.12903
1569662831.14465
1569662831.16028
1569662831.1759
1569662831.19153
1569662831.20716
1569662831.22278
1569662831.23841
1569662831.25403
1569662831.26966
1569662831.28528
1569662831.30091
1569662831.31654
1569662831.33216
1569662831.34779
1569662831.36341
1569662831.37904
1569662831.39466
1569662831.41029
1569662831.42592
1569662831.44154
1569662831.45717
1569662831.47279
1569662831.48842
1569662831.50404
1569662831.51967
1569662831.5353
1569662831.55092
1569662831.56655
1569662831.58217
1569662831.5978
1569662831.61342
1569662831.62905
1569662831.64468
1569662831.6603
1569662831.67593
1569662831.69155
1569662831.70718
1569662831.7228
1569662831.73843
1569662831.75406
1569662831.76968
1569662831.78531
1569662831.80093
1569662831.81656
1569662831.83218
1569662831.84781
1569662831.86344
1569662831.87906
1569662831.89469
1569662831.91031
1569662831.92594
1569662831.94156
1569662831.95719
1569662831.97282
1569662831.98844
1569662832.00407
1569662832.01969
1569662832.03532
1569662832.05095
1569662832.06657
1569662832.0822
1569662832.09782
1569662832.11345
1569662832.12907
1569662832.1447
1569662832.16033
1569662832.17595
1569662832.19158
1569662832.2072
1569662832.22283
1569662832.23845
1569662832.25408
1569662832.26971
1569662832.28533
1569662832.30096
1569662832.31658
1569662832.33221
1569662832.34783
1569662832.36346
1569662832.37909
1569662832.39471
1569662832.41034
1569662832.42596
1569662832.44159
1569662832.45721
1569662832.47284
1569662832.48847
1569662832.50409
1569662832.51972
1569662832.53534
1569662832.55097
1569662832.56659
1569662832.58222
1569662832.59785
1569662832.61347
1569662832.6291
1569662832.64472
1569662832.66035
1569662832.67597
1569662832.6916
1569662832.70723
1569662832.72285
1569662832.73848
1569662832.7541
1569662832.76973
1569662832.78535
1569662832.80098
1569662832.81661
1569662832.83223
1569662832.84786
1569662832.86348
1569662832.87911
1569662832.89473
1569662832.91036
1569662832.92599
1569662832.94161
1569662832.95724
1569662832.97286
1569662832.98849
1569662833.00411
1569662833.01974
1569662833.03537
1569662833.05099
1569662833.06662
1569662833.08224
1569662833.09787
1569662833.11349
1569662833.12912
1569662833.14475
1569662833.16037
1569662833.176
1569662833.19162
1569662833.20725
1569662833.22287
1569662833.2385
1569662833.25413
1569662833.26975
1569662833.28538
1569662833.301
1569662833.31663
1569662833.33225
1569662833.34788
1569662833.36351
1569662833.37913
1569662833.39476
1569662833.41038
1569662833.42601
1569662833.44163
1569662833.45726
1569662833.47289
1569662833.48851
1569662833.50414
1569662833.51976
1569662833.53539
1569662833.55101
1569662833.56664
1569662833.58227
1569662833.59789
1569662833.61352
1569662833.62914
1569662833.64477
1569662833.66039
1569662833.67602
1569662833.69165
1569662833.70727
1569662833.7229
1569662833.73852
1569662833.75415
1569662833.76977
1569662833.7854
1569662833.80103
1569662833.81665
1569662833.83228
1569662833.8479
1569662833.86353
1569662833.87915
1569662833.89478
1569662833.91041
1569662833.92603
1569662833.94166
1569662833.95728
1569662833.97291
1569662833.98853
1569662834.00416
1569662834.01979
1569662834.03541
1569662834.05104
1569662834.06666
1569662834.08229
1569662834.09791
1569662834.11354
1569662834.12917
1569662834.14479
1569662834.16042
1569662834.17604
1569662834.19167
1569662834.20729
1569662834.22292
1569662834.23855
1569662834.25417
1569662834.2698
1569662834.28542
1569662834.30105
1569662834.31667
1569662834.3323
1569662834.34793
1569662834.36355
1569662834.37918
1569662834.3948
1569662834.41043
1569662834.42605
1569662834.44168
1569662834.45731
1569662834.47293
1569662834.48856
1569662834.50418
1569662834.51981
1569662834.53543
1569662834.55106
1569662834.56669
1569662834.58231
1569662834.59794
1569662834.61356
1569662834.62919
1569662834.64481
1569662834.66044
1569662834.67607
1569662834.69169
1569662834.70732
1569662834.72294
1569662834.73857
1569662834.7542
1569662834.76982
1569662834.78545
1569662834.80107
1569662834.8167
1569662834.83232
1569662834.84795
1569662834.86358
1569662834.8792
1569662834.89483
1569662834.91045
1569662834.92608
1569662834.9417
1569662834.95733
1569662834.97296
1569662834.98858
1569662835.00421
1569662835.01983
1569662835.03546
1569662835.05108
1569662835.06671
1569662835.08234
1569662835.09796
1569662835.11359
1569662835.12921
1569662835.14484
1569662835.16046
1569662835.17609
1569662835.19172
1569662835.20734
1569662835.22297
1569662835.23859
1569662835.25422
1569662835.26984
1569662835.28547
1569662835.3011
1569662835.31672
1569662835.33235
1569662835.34797
1569662835.3636
1569662835.37922
1569662835.39485
1569662835.41048
1569662835.4261
1569662835.44173
1569662835.45735
1569662835.47298
1569662835.4886
1569662835.50423
1569662835.51986
1569662835.53548
1569662835.55111
1569662835.56673
1569662835.58236
1569662835.59798
1569662835.61361
1569662835.62924
1569662835.64486
1569662835.66049
1569662835.67611
1569662835.69174
1569662835.70736
1569662835.72299
1569662835.73862
1569662835.75424
1569662835.76987
1569662835.78549
1569662835.80112
1569662835.81674
1569662835.83237
1569662835.848
1569662835.86362
1569662835.87925
1569662835.89487
1569662835.9105
1569662835.92612
1569662835.94175
1569662835.95738
1569662835.973
1569662835.98863
1569662836.00425
1569662836.01988
1569662836.0355
1569662836.05113
1569662836.06676
1569662836.08238
1569662836.09801
1569662836.11363
1569662836.12926
1569662836.14488
1569662836.16051
1569662836.17614
1569662836.19176
1569662836.20739
1569662836.22301
1569662836.23864
1569662836.25426
1569662836.26989
1569662836.28552
1569662836.30114
1569662836.31677
1569662836.33239
1569662836.34802
1569662836.36364
1569662836.37927
1569662836.3949
1569662836.41052
1569662836.42615
1569662836.44177
1569662836.4574
1569662836.47302
1569662836.48865
1569662836.50428
1569662836.5199
1569662836.53553
1569662836.55115
1569662836.56678
1569662836.5824
1569662836.59803
1569662836.61366
1569662836.62928
1569662836.64491
1569662836.66053
1569662836.67616
1569662836.69178
1569662836.70741
1569662836.72304
1569662836.73866
1569662836.75429
1569662836.76991
1569662836.78554
1569662836.80116
1569662836.81679
1569662836.83242
1569662836.84804
1569662836.86367
1569662836.87929
1569662836.89492
1569662836.91055
1569662836.92617
1569662836.9418
1569662836.95742
1569662836.97305
1569662836.98867
1569662837.0043
1569662837.01993
1569662837.03555
1569662837.05118
1569662837.0668
1569662837.08243
1569662837.09805
1569662837.11368
1569662837.12931
1569662837.14493
1569662837.16056
1569662837.17618
1569662837.19181
1569662837.20743
1569662837.22306
1569662837.23869
1569662837.25431
1569662837.26994
1569662837.28556
1569662837.30119
1569662837.31681
1569662837.33244
1569662837.34807
1569662837.36369
1569662837.37932
1569662837.39494
1569662837.41057
1569662837.42619
1569662837.44182
1569662837.45745
1569662837.47307
1569662837.4887
1569662837.50432
1569662837.51995
1569662837.53557
1569662837.5512
1569662837.56683
1569662837.58245
1569662837.59808
1569662837.6137
1569662837.62933
1569662837.64495
1569662837.66058
1569662837.67621
1569662837.69183
1569662837.70746
1569662837.72308
1569662837.73871
1569662837.75433
1569662837.76996
1569662837.78559
1569662837.80121
1569662837.81684
1569662837.83246
1569662837.84809
1569662837.86371
1569662837.87934
1569662837.89497
1569662837.91059
1569662837.92622
1569662837.94184
1569662837.95747
1569662837.97309
1569662837.98872
1569662838.00435
1569662838.01997
1569662838.0356
1569662838.05122
1569662838.06685
1569662838.08247
1569662838.0981
1569662838.11373
1569662838.12935
1569662838.14498
1569662838.1606
1569662838.17623
1569662838.19185
1569662838.20748
1569662838.22311
1569662838.23873
1569662838.25436
1569662838.26998
1569662838.28561
1569662838.30123
1569662838.31686
1569662838.33249
1569662838.34811
1569662838.36374
1569662838.37936
1569662838.39499
1569662838.41061
1569662838.42624
1569662838.44187
1569662838.45749
1569662838.47312
1569662838.48874
1569662838.50437
1569662838.51999
1569662838.53562
1569662838.55125
1569662838.56687
1569662838.5825
1569662838.59812
1569662838.61375
1569662838.62937
1569662838.645
1569662838.66063
1569662838.67625
1569662838.69188
1569662838.7075
1569662838.72313
1569662838.73875
1569662838.75438
1569662838.77001
1569662838.78563
1569662838.80126
1569662838.81688
1569662838.83251
1569662838.84813
1569662838.86376
1569662838.87939
1569662838.89501
1569662838.91064
1569662838.92626
1569662838.94189
1569662838.95751
1569662838.97314
1569662838.98877
1569662839.00439
1569662839.02002
1569662839.03564
1569662839.05127
1569662839.06689
1569662839.08252
1569662839.09815
1569662839.11377
1569662839.1294
1569662839.14502
1569662839.16065
1569662839.17628
1569662839.1919
1569662839.20753
1569662839.22315
1569662839.23878
1569662839.2544
1569662839.27003
1569662839.28566
1569662839.30128
1569662839.31691
1569662839.33253
1569662839.34816
1569662839.36378
1569662839.37941
1569662839.39504
1569662839.41066
1569662839.42629
1569662839.44191
1569662839.45754
1569662839.47316
1569662839.48879
1569662839.50442
1569662839.52004
1569662839.53567
1569662839.55129
1569662839.56692
1569662839.58254
1569662839.59817
1569662839.6138
1569662839.62942
1569662839.64505
1569662839.66067
1569662839.6763
1569662839.69192
1569662839.70755
1569662839.72318
1569662839.7388
1569662839.75443
1569662839.77005
1569662839.78568
1569662839.8013
1569662839.81693
1569662839.83256
1569662839.84818
1569662839.86381
1569662839.87943
1569662839.89506
1569662839.91068
1569662839.92631
1569662839.94194
1569662839.95756
1569662839.97319
1569662839.98881
1569662840.00444
1569662840.02006
1569662840.03569
1569662840.05132
1569662840.06694
1569662840.08257
1569662840.09819
1569662840.11382
1569662840.12944
1569662840.14507
1569662840.1607
1569662840.17632
1569662840.19195
1569662840.20757
1569662840.2232
1569662840.23882
1569662840.25445
1569662840.27008
1569662840.2857
1569662840.30133
1569662840.31695
1569662840.33258
1569662840.3482
1569662840.36383
1569662840.37946
1569662840.39508
1569662840.41071
1569662840.42633
1569662840.44196
1569662840.45758
1569662840.47321
1569662840.48884
1569662840.50446
1569662840.52009
1569662840.53571
1569662840.55134
1569662840.56696
1569662840.58259
1569662840.59822
1569662840.61384
1569662840.62947
1569662840.64509
1569662840.66072
1569662840.67634
1569662840.69197
1569662840.7076
1569662840.72322
1569662840.73885
1569662840.75447
1569662840.7701
1569662840.78572
1569662840.80135
1569662840.81698
1569662840.8326
1569662840.84823
1569662840.86385
1569662840.87948
1569662840.8951
1569662840.91073
1569662840.92636
1569662840.94198
1569662840.95761
1569662840.97323
1569662840.98886
1569662841.00448
1569662841.02011
1569662841.03574
1569662841.05136
1569662841.06699
1569662841.08261
1569662841.09824
1569662841.11386
1569662841.12949
1569662841.14512
1569662841.16074
1569662841.17637
1569662841.19199
1569662841.20762
1569662841.22324
1569662841.23887
1569662841.2545
1569662841.27012
1569662841.28575
1569662841.30137
1569662841.317
1569662841.33262
1569662841.34825
1569662841.36388
1569662841.3795
1569662841.39513
1569662841.41075
1569662841.42638
1569662841.442
1569662841.45763
1569662841.47326
1569662841.48888
1569662841.50451
1569662841.52013
1569662841.53576
1569662841.55138
1569662841.56701
1569662841.58264
1569662841.59826
1569662841.61389
1569662841.62951
1569662841.64514
1569662841.66076
1569662841.67639
1569662841.69202
1569662841.70764
1569662841.72327
1569662841.73889
1569662841.75452
1569662841.77015
1569662841.78577
1569662841.8014
1569662841.81702
1569662841.83265
1569662841.84827
1569662841.8639
1569662841.87953
1569662841.89515
1569662841.91078
1569662841.9264
1569662841.94203
1569662841.95765
1569662841.97328
1569662841.98891
1569662842.00453
1569662842.02016
1569662842.03578
1569662842.05141
1569662842.06703
1569662842.08266
1569662842.09829
1569662842.11391
1569662842.12954
1569662842.14516
1569662842.16079
1569662842.17641
1569662842.19204
1569662842.20767
1569662842.22329
1569662842.23892
1569662842.25454
1569662842.27017
1569662842.28579
1569662842.30142
1569662842.31705
1569662842.33267
1569662842.3483
1569662842.36392
1569662842.37955
1569662842.39517
1569662842.4108
1569662842.42643
1569662842.44205
1569662842.45768
1569662842.4733
1569662842.48893
1569662842.50455
1569662842.52018
1569662842.53581
1569662842.55143
1569662842.56706
1569662842.58268
1569662842.59831
1569662842.61393
1569662842.62956
1569662842.64519
1569662842.66081
1569662842.67644
1569662842.69206
1569662842.70769
1569662842.72331
1569662842.73894
1569662842.75457
1569662842.77019
1569662842.78582
1569662842.80144
1569662842.81707
1569662842.83269
1569662842.84832
1569662842.86395
1569662842.87957
1569662842.8952
1569662842.91082
1569662842.92645
1569662842.94207
1569662842.9577
1569662842.97333
1569662842.98895
1569662843.00458
1569662843.0202
1569662843.03583
1569662843.05145
1569662843.06708
1569662843.08271
1569662843.09833
1569662843.11396
1569662843.12958
1569662843.14521
1569662843.16083
1569662843.17646
1569662843.19209
1569662843.20771
1569662843.22334
1569662843.23896
1569662843.25459
1569662843.27021
1569662843.28584
1569662843.30147
1569662843.31709
1569662843.33272
1569662843.34834
1569662843.36397
1569662843.37959
1569662843.39522
1569662843.41085
1569662843.42647
1569662843.4421
1569662843.45772
1569662843.47335
1569662843.48897
1569662843.5046
1569662843.52023
1569662843.53585
1569662843.55148
1569662843.5671
1569662843.58273
1569662843.59835
1569662843.61398
1569662843.62961
1569662843.64523
1569662843.66086
1569662843.67648
1569662843.69211
1569662843.70773
1569662843.72336
1569662843.73899
1569662843.75461
1569662843.77024
1569662843.78586
1569662843.80149
1569662843.81711
1569662843.83274
1569662843.84837
1569662843.86399
1569662843.87962
1569662843.89524
1569662843.91087
1569662843.92649
1569662843.94212
1569662843.95775
1569662843.97337
1569662843.989
1569662844.00462
1569662844.02025
1569662844.03588
1569662844.0515
1569662844.06713
1569662844.08275
1569662844.09838
1569662844.114
1569662844.12963
1569662844.14526
1569662844.16088
1569662844.17651
1569662844.19213
1569662844.20776
1569662844.22338
1569662844.23901
1569662844.25464
1569662844.27026
1569662844.28589
1569662844.30151
1569662844.31714
1569662844.33276
1569662844.34839
1569662844.36402
1569662844.37964
1569662844.39527
1569662844.41089
1569662844.42652
1569662844.44214
1569662844.45777
1569662844.4734
1569662844.48902
1569662844.50465
1569662844.52027
1569662844.5359
1569662844.55152
1569662844.56715
1569662844.58278
1569662844.5984
1569662844.61403
1569662844.62965
1569662844.64528
1569662844.6609
1569662844.67653
1569662844.69216
1569662844.70778
1569662844.72341
1569662844.73903
1569662844.75466
1569662844.77028
1569662844.78591
1569662844.80154
1569662844.81716
1569662844.83279
1569662844.84841
1569662844.86404
1569662844.87966
1569662844.89529
1569662844.91092
1569662844.92654
1569662844.94217
1569662844.95779
1569662844.97342
1569662844.98904
1569662845.00467
1569662845.0203
1569662845.03592
1569662845.05155
1569662845.06717
1569662845.0828
1569662845.09842
1569662845.11405
1569662845.12968
1569662845.1453
1569662845.16093
1569662845.17655
1569662845.19218
1569662845.2078
1569662845.22343
1569662845.23906
1569662845.25468
1569662845.27031
1569662845.28593
1569662845.30156
1569662845.31718
1569662845.33281
1569662845.34844
1569662845.36406
1569662845.37969
1569662845.39531
1569662845.41094
1569662845.42656
1569662845.44219
1569662845.45782
1569662845.47344
1569662845.48907
1569662845.50469
1569662845.52032
1569662845.53594
1569662845.55157
1569662845.5672
1569662845.58282
1569662845.59845
1569662845.61407
1569662845.6297
1569662845.64532
1569662845.66095
1569662845.67658
1569662845.6922
1569662845.70783
1569662845.72345
1569662845.73908
1569662845.7547
1569662845.77033
1569662845.78596
1569662845.80158
1569662845.81721
1569662845.83283
1569662845.84846
1569662845.86408
1569662845.87971
1569662845.89534
1569662845.91096
1569662845.92659
1569662845.94221
1569662845.95784
1569662845.97346
1569662845.98909
1569662846.00472
1569662846.02034
1569662846.03597
1569662846.05159
1569662846.06722
1569662846.08284
1569662846.09847
1569662846.1141
1569662846.12972
1569662846.14535
1569662846.16097
1569662846.1766
1569662846.19222
1569662846.20785
1569662846.22348
1569662846.2391
1569662846.25473
1569662846.27035
1569662846.28598
1569662846.3016
1569662846.31723
1569662846.33286
1569662846.34848
1569662846.36411
1569662846.37973
1569662846.39536
1569662846.41098
1569662846.42661
1569662846.44224
1569662846.45786
1569662846.47349
1569662846.48911
1569662846.50474
1569662846.52037
1569662846.53599
1569662846.55162
1569662846.56724
1569662846.58287
1569662846.59849
1569662846.61412
1569662846.62975
1569662846.64537
1569662846.661
1569662846.67662
1569662846.69225
1569662846.70787
1569662846.7235
1569662846.73913
1569662846.75475
1569662846.77038
1569662846.786
1569662846.80163
1569662846.81725
1569662846.83288
1569662846.84851
1569662846.86413
1569662846.87976
1569662846.89538
1569662846.91101
1569662846.92663
1569662846.94226
1569662846.95789
1569662846.97351
1569662846.98914
1569662847.00476
1569662847.02039
1569662847.03601
1569662847.05164
1569662847.06727
1569662847.08289
1569662847.09852
1569662847.11414
1569662847.12977
1569662847.14539
1569662847.16102
1569662847.17665
1569662847.19227
1569662847.2079
1569662847.22352
1569662847.23915
1569662847.25477
1569662847.2704
1569662847.28603
1569662847.30165
1569662847.31728
1569662847.3329
1569662847.34853
1569662847.36415
1569662847.37978
1569662847.39541
1569662847.41103
1569662847.42666
1569662847.44228
1569662847.45791
1569662847.47353
1569662847.48916
1569662847.50479
1569662847.52041
1569662847.53604
1569662847.55166
1569662847.56729
1569662847.58291
1569662847.59854
1569662847.61417
1569662847.62979
1569662847.64542
1569662847.66104
1569662847.67667
1569662847.69229
1569662847.70792
1569662847.72355
1569662847.73917
1569662847.7548
1569662847.77042
1569662847.78605
1569662847.80167
1569662847.8173
1569662847.83293
1569662847.84855
1569662847.86418
1569662847.8798
1569662847.89543
1569662847.91105
1569662847.92668
1569662847.94231
1569662847.95793
1569662847.97356
1569662847.98918
1569662848.00481
1569662848.02043
1569662848.03606
1569662848.05169
1569662848.06731
1569662848.08294
1569662848.09856
1569662848.11419
1569662848.12981
1569662848.14544
1569662848.16107
1569662848.17669
1569662848.19232
1569662848.20794
1569662848.22357
1569662848.23919
1569662848.25482
1569662848.27045
1569662848.28607
1569662848.3017
1569662848.31732
1569662848.33295
1569662848.34857
1569662848.3642
1569662848.37983
1569662848.39545
1569662848.41108
1569662848.4267
1569662848.44233
1569662848.45795
1569662848.47358
1569662848.48921
1569662848.50483
1569662848.52046
1569662848.53608
1569662848.55171
1569662848.56733
1569662848.58296
1569662848.59859
1569662848.61421
1569662848.62984
1569662848.64546
1569662848.66109
1569662848.67671
1569662848.69234
1569662848.70797
1569662848.72359
1569662848.73922
1569662848.75484
1569662848.77047
1569662848.78609
1569662848.80172
1569662848.81735
1569662848.83297
1569662848.8486
1569662848.86422
1569662848.87985
1569662848.89548
1569662848.9111
1569662848.92673
1569662848.94235
1569662848.95798
1569662848.9736
1569662848.98923
1569662849.00486
1569662849.02048
1569662849.03611
1569662849.05173
1569662849.06736
1569662849.08298
1569662849.09861
1569662849.11424
1569662849.12986
1569662849.14549
1569662849.16111
1569662849.17674
1569662849.19236
1569662849.20799
1569662849.22362
1569662849.23924
1569662849.25487
1569662849.27049
1569662849.28612
1569662849.30174
1569662849.31737
1569662849.333
1569662849.34862
1569662849.36425
1569662849.37987
1569662849.3955
1569662849.41112
1569662849.42675
1569662849.44238
1569662849.458
1569662849.47363
1569662849.48925
1569662849.50488
1569662849.5205
1569662849.53613
1569662849.55176
1569662849.56738
1569662849.58301
1569662849.59863
1569662849.61426
1569662849.62988
1569662849.64551
1569662849.66114
1569662849.67676
1569662849.69239
1569662849.70801
1569662849.72364
1569662849.73926
1569662849.75489
1569662849.77052
1569662849.78614
1569662849.80177
1569662849.81739
1569662849.83302
1569662849.84864
1569662849.86427
1569662849.8799
1569662849.89552
1569662849.91115
1569662849.92677
1569662849.9424
1569662849.95802
1569662849.97365
1569662849.98928
1569662850.0049
1569662850.02053
1569662850.03615
1569662850.05178
1569662850.0674
1569662850.08303
1569662850.09866
1569662850.11428
1569662850.12991
1569662850.14553
1569662850.16116
1569662850.17678
1569662850.19241
1569662850.20804
1569662850.22366
1569662850.23929
1569662850.25491
1569662850.27054
1569662850.28616
1569662850.30179
1569662850.31742
1569662850.33304
1569662850.34867
1569662850.36429
1569662850.37992
1569662850.39554
1569662850.41117
1569662850.4268
1569662850.44242
1569662850.45805
1569662850.47367
1569662850.4893
1569662850.50492
1569662850.52055
1569662850.53618
1569662850.5518
1569662850.56743
1569662850.58305
1569662850.59868
1569662850.6143
1569662850.62993
1569662850.64556
1569662850.66118
1569662850.67681
1569662850.69243
1569662850.70806
1569662850.72368
1569662850.73931
1569662850.75494
1569662850.77056
1569662850.78619
1569662850.80181
1569662850.81744
1569662850.83306
1569662850.84869
1569662850.86432
1569662850.87994
1569662850.89557
1569662850.91119
1569662850.92682
1569662850.94244
1569662850.95807
1569662850.9737
1569662850.98932
1569662851.00495
1569662851.02057
1569662851.0362
1569662851.05183
1569662851.06745
1569662851.08308
1569662851.0987
1569662851.11433
1569662851.12995
1569662851.14558
1569662851.16121
1569662851.17683
1569662851.19246
1569662851.20808
1569662851.22371
1569662851.23933
1569662851.25496
1569662851.27059
1569662851.28621
1569662851.30184
1569662851.31746
1569662851.33309
1569662851.34871
1569662851.36434
1569662851.37997
1569662851.39559
1569662851.41122
1569662851.42684
1569662851.44247
1569662851.45809
1569662851.47372
1569662851.48935
1569662851.50497
1569662851.5206
1569662851.53622
1569662851.55185
1569662851.56747
1569662851.5831
1569662851.59873
1569662851.61435
1569662851.62998
1569662851.6456
1569662851.66123
1569662851.67685
1569662851.69248
1569662851.70811
1569662851.72373
1569662851.73936
1569662851.75498
1569662851.77061
1569662851.78623
1569662851.80186
1569662851.81749
1569662851.83311
1569662851.84874
1569662851.86436
1569662851.87999
1569662851.89561
1569662851.91124
1569662851.92687
1569662851.94249
1569662851.95812
1569662851.97374
1569662851.98937
1569662852.00499
1569662852.02062
1569662852.03625
1569662852.05187
1569662852.0675
1569662852.08312
1569662852.09875
1569662852.11437
1569662852.13
1569662852.14563
1569662852.16125
1569662852.17688
1569662852.1925
1569662852.20813
1569662852.22375
1569662852.23938
1569662852.25501
1569662852.27063
1569662852.28626
1569662852.30188
1569662852.31751
1569662852.33313
1569662852.34876
1569662852.36439
1569662852.38001
1569662852.39564
1569662852.41126
1569662852.42689
1569662852.44251
1569662852.45814
1569662852.47377
1569662852.48939
1569662852.50502
1569662852.52064
1569662852.53627
1569662852.55189
1569662852.56752
1569662852.58315
1569662852.59877
1569662852.6144
1569662852.63002
1569662852.64565
1569662852.66127
1569662852.6769
1569662852.69253
1569662852.70815
1569662852.72378
1569662852.7394
1569662852.75503
1569662852.77065
1569662852.78628
1569662852.80191
1569662852.81753
1569662852.83316
1569662852.84878
1569662852.86441
1569662852.88003
1569662852.89566
1569662852.91129
1569662852.92691
1569662852.94254
1569662852.95816
1569662852.97379
1569662852.98941
1569662853.00504
1569662853.02067
1569662853.03629
1569662853.05192
1569662853.06754
1569662853.08317
1569662853.09879
1569662853.11442
1569662853.13005
1569662853.14567
1569662853.1613
1569662853.17692
1569662853.19255
1569662853.20817
1569662853.2238
1569662853.23943
1569662853.25505
1569662853.27068
1569662853.2863
1569662853.30193
1569662853.31755
1569662853.33318
1569662853.34881
1569662853.36443
1569662853.38006
1569662853.39568
1569662853.41131
1569662853.42693
1569662853.44256
1569662853.45819
1569662853.47381
1569662853.48944
1569662853.50506
1569662853.52069
1569662853.53631
1569662853.55194
1569662853.56757
1569662853.58319
1569662853.59882
1569662853.61444
1569662853.63007
1569662853.64569
1569662853.66132
1569662853.67695
1569662853.69257
1569662853.7082
1569662853.72382
1569662853.73945
1569662853.75508
1569662853.7707
1569662853.78633
1569662853.80195
1569662853.81758
1569662853.8332
1569662853.84883
1569662853.86446
1569662853.88008
1569662853.89571
1569662853.91133
1569662853.92696
1569662853.94258
1569662853.95821
1569662853.97384
1569662853.98946
1569662854.00509
1569662854.02071
1569662854.03634
1569662854.05196
1569662854.06759
1569662854.08322
1569662854.09884
1569662854.11447
1569662854.13009
1569662854.14572
1569662854.16134
1569662854.17697
1569662854.1926
1569662854.20822
1569662854.22385
1569662854.23947
1569662854.2551
1569662854.27072
1569662854.28635
1569662854.30198
1569662854.3176
1569662854.33323
1569662854.34885
1569662854.36448
1569662854.3801
1569662854.39573
1569662854.41136
1569662854.42698
1569662854.44261
1569662854.45823
1569662854.47386
1569662854.48948
1569662854.50511
1569662854.52074
1569662854.53636
1569662854.55199
1569662854.56761
1569662854.58324
1569662854.59886
1569662854.61449
1569662854.63012
1569662854.64574
1569662854.66137
1569662854.67699
1569662854.69262
1569662854.70824
1569662854.72387
1569662854.7395
1569662854.75512
1569662854.77075
1569662854.78637
1569662854.802
1569662854.81762
1569662854.83325
1569662854.84888
1569662854.8645
1569662854.88013
1569662854.89575
1569662854.91138
1569662854.927
1569662854.94263
1569662854.95826
1569662854.97388
1569662854.98951
1569662855.00513
1569662855.02076
1569662855.03638
1569662855.05201
1569662855.06764
1569662855.08326
1569662855.09889
1569662855.11451
1569662855.13014
1569662855.14576
1569662855.16139
1569662855.17702
1569662855.19264
1569662855.20827
1569662855.22389
1569662855.23952
1569662855.25514
1569662855.27077
1569662855.2864
1569662855.30202
1569662855.31765
1569662855.33327
1569662855.3489
1569662855.36452
1569662855.38015
1569662855.39578
1569662855.4114
1569662855.42703
1569662855.44265
1569662855.45828
1569662855.4739
1569662855.48953
1569662855.50516
1569662855.52078
1569662855.53641
1569662855.55203
1569662855.56766
1569662855.58328
1569662855.59891
1569662855.61454
1569662855.63016
1569662855.64579
1569662855.66141
1569662855.67704
1569662855.69266
1569662855.70829
1569662855.72392
1569662855.73954
1569662855.75517
1569662855.77079
1569662855.78642
1569662855.80204
1569662855.81767
1569662855.8333
1569662855.84892
1569662855.86455
1569662855.88017
1569662855.8958
1569662855.91143
1569662855.92705
1569662855.94268
1569662855.9583
1569662855.97393
1569662855.98955
1569662856.00518
1569662856.02081
1569662856.03643
1569662856.05206
1569662856.06768
1569662856.08331
1569662856.09893
1569662856.11456
1569662856.13019
1569662856.14581
1569662856.16144
1569662856.17706
1569662856.19269
1569662856.20831
1569662856.22394
1569662856.23957
1569662856.25519
1569662856.27082
1569662856.28644
1569662856.30207
1569662856.31769
1569662856.33332
1569662856.34895
1569662856.36457
1569662856.3802
1569662856.39582
1569662856.41145
1569662856.42707
1569662856.4427
1569662856.45833
1569662856.47395
1569662856.48958
1569662856.5052
1569662856.52083
1569662856.53645
1569662856.55208
1569662856.56771
1569662856.58333
1569662856.59896
1569662856.61458
1569662856.63021
1569662856.64583
1569662856.66146
1569662856.67709
1569662856.69271
1569662856.70834
1569662856.72396
1569662856.73959
1569662856.75521
1569662856.77084
1569662856.78647
1569662856.80209
1569662856.81772
1569662856.83334
1569662856.84897
1569662856.86459
1569662856.88022
1569662856.89585
1569662856.91147
1569662856.9271
1569662856.94272
1569662856.95835
1569662856.97397
1569662856.9896
1569662857.00523
1569662857.02085
1569662857.03648
1569662857.0521
1569662857.06773
1569662857.08335
1569662857.09898
1569662857.11461
1569662857.13023
1569662857.14586
1569662857.16148
1569662857.17711
1569662857.19273
1569662857.20836
1569662857.22399
1569662857.23961
1569662857.25524
1569662857.27086
1569662857.28649
1569662857.30211
1569662857.31774
1569662857.33337
1569662857.34899
1569662857.36462
1569662857.38024
1569662857.39587
1569662857.41149
1569662857.42712
1569662857.44275
1569662857.45837
1569662857.474
1569662857.48962
1569662857.50525
1569662857.52087
1569662857.5365
1569662857.55213
1569662857.56775
1569662857.58338
1569662857.599
1569662857.61463
1569662857.63025
1569662857.64588
1569662857.66151
1569662857.67713
1569662857.69276
1569662857.70838
1569662857.72401
1569662857.73963
1569662857.75526
1569662857.77089
1569662857.78651
1569662857.80214
1569662857.81776
1569662857.83339
1569662857.84901
1569662857.86464
1569662857.88027
1569662857.89589
1569662857.91152
1569662857.92714
1569662857.94277
1569662857.95839
1569662857.97402
1569662857.98965
1569662858.00527
1569662858.0209
1569662858.03652
1569662858.05215
1569662858.06777
1569662858.0834
1569662858.09903
1569662858.11465
1569662858.13028
1569662858.1459
1569662858.16153
1569662858.17716
1569662858.19278
1569662858.20841
1569662858.22403
1569662858.23966
1569662858.25528
1569662858.27091
1569662858.28654
1569662858.30216
1569662858.31779
1569662858.33341
1569662858.34904
1569662858.36466
1569662858.38029
1569662858.39592
1569662858.41154
1569662858.42717
1569662858.44279
1569662858.45842
1569662858.47404
1569662858.48967
1569662858.5053
1569662858.52092
1569662858.53655
1569662858.55217
1569662858.5678
1569662858.58342
1569662858.59905
1569662858.61468
1569662858.6303
1569662858.64593
1569662858.66155
1569662858.67718
1569662858.6928
1569662858.70843
1569662858.72406
1569662858.73968
1569662858.75531
1569662858.77093
1569662858.78656
1569662858.80218
1569662858.81781
1569662858.83344
1569662858.84906
1569662858.86469
1569662858.88031
1569662858.89594
1569662858.91156
1569662858.92719
1569662858.94282
1569662858.95844
1569662858.97407
1569662858.98969
1569662859.00532
1569662859.02094
1569662859.03657
1569662859.0522
1569662859.06782
1569662859.08345
1569662859.09907
1569662859.1147
1569662859.13032
1569662859.14595
1569662859.16158
1569662859.1772
1569662859.19283
1569662859.20845
1569662859.22408
1569662859.2397
1569662859.25533
1569662859.27096
1569662859.28658
1569662859.30221
1569662859.31783
1569662859.33346
1569662859.34908
1569662859.36471
1569662859.38034
1569662859.39596
1569662859.41159
1569662859.42721
1569662859.44284
1569662859.45846
1569662859.47409
1569662859.48972
1569662859.50534
1569662859.52097
1569662859.53659
1569662859.55222
1569662859.56784
1569662859.58347
1569662859.5991
1569662859.61472
1569662859.63035
1569662859.64597
1569662859.6616
1569662859.67722
1569662859.69285
1569662859.70848
1569662859.7241
1569662859.73973
1569662859.75535
1569662859.77098
1569662859.7866
1569662859.80223
1569662859.81786
1569662859.83348
1569662859.84911
1569662859.86473
1569662859.88036
1569662859.89598
1569662859.91161
1569662859.92724
1569662859.94286
1569662859.95849
1569662859.97411
1569662859.98974
1569662860.00536
1569662860.02099
1569662860.03662
1569662860.05224
1569662860.06787
1569662860.08349
1569662860.09912
1569662860.11474
1569662860.13037
1569662860.146
1569662860.16162
1569662860.17725
1569662860.19287
1569662860.2085
1569662860.22412
1569662860.23975
1569662860.25538
1569662860.271
1569662860.28663
1569662860.30225
1569662860.31788
1569662860.3335
1569662860.34913
1569662860.36476
1569662860.38038
1569662860.39601
1569662860.41163
1569662860.42726
1569662860.44288
1569662860.45851
1569662860.47414
1569662860.48976
1569662860.50539
1569662860.52101
1569662860.53664
1569662860.55226
1569662860.56789
1569662860.58352
1569662860.59914
1569662860.61477
1569662860.63039
1569662860.64602
1569662860.66164
1569662860.67727
1569662860.6929
1569662860.70852
1569662860.72415
1569662860.73977
1569662860.7554
1569662860.77102
1569662860.78665
1569662860.80228
1569662860.8179
1569662860.83353
1569662860.84915
1569662860.86478
1569662860.88041
1569662860.89603
1569662860.91166
1569662860.92728
1569662860.94291
1569662860.95853
1569662860.97416
1569662860.98979
1569662861.00541
1569662861.02104
1569662861.03666
1569662861.05229
1569662861.06791
1569662861.08354
1569662861.09917
1569662861.11479
1569662861.13042
1569662861.14604
1569662861.16167
1569662861.17729
1569662861.19292
1569662861.20855
1569662861.22417
1569662861.2398
1569662861.25542
1569662861.27105
1569662861.28667
1569662861.3023
1569662861.31793
1569662861.33355
1569662861.34918
1569662861.3648
1569662861.38043
1569662861.39605
1569662861.41168
1569662861.42731
1569662861.44293
1569662861.45856
1569662861.47418
1569662861.48981
1569662861.50543
1569662861.52106
1569662861.53669
1569662861.55231
1569662861.56794
1569662861.58356
1569662861.59919
1569662861.61481
1569662861.63044
1569662861.64607
1569662861.66169
1569662861.67732
1569662861.69294
1569662861.70857
1569662861.72419
1569662861.73982
1569662861.75545
1569662861.77107
1569662861.7867
1569662861.80232
1569662861.81795
1569662861.83357
1569662861.8492
1569662861.86483
1569662861.88045
1569662861.89608
1569662861.9117
1569662861.92733
1569662861.94295
1569662861.95858
1569662861.97421
1569662861.98983
1569662862.00546
1569662862.02108
1569662862.03671
1569662862.05233
1569662862.06796
1569662862.08359
1569662862.09921
1569662862.11484
1569662862.13046
1569662862.14609
1569662862.16171
1569662862.17734
1569662862.19297
1569662862.20859
1569662862.22422
1569662862.23984
1569662862.25547
1569662862.27109
1569662862.28672
1569662862.30235
1569662862.31797
1569662862.3336
1569662862.34922
1569662862.36485
1569662862.38047
1569662862.3961
1569662862.41173
1569662862.42735
1569662862.44298
1569662862.4586
1569662862.47423
1569662862.48985
1569662862.50548
1569662862.52111
1569662862.53673
1569662862.55236
1569662862.56798
1569662862.58361
1569662862.59923
1569662862.61486
1569662862.63049
1569662862.64611
1569662862.66174
1569662862.67736
1569662862.69299
1569662862.70861
1569662862.72424
1569662862.73987
1569662862.75549
1569662862.77112
1569662862.78674
1569662862.80237
1569662862.81799
1569662862.83362
1569662862.84925
1569662862.86487
1569662862.8805
1569662862.89612
1569662862.91175
1569662862.92737
1569662862.943
1569662862.95863
1569662862.97425
1569662862.98988
1569662863.0055
1569662863.02113
1569662863.03676
1569662863.05238
1569662863.06801
1569662863.08363
1569662863.09926
1569662863.11488
1569662863.13051
1569662863.14614
1569662863.16176
1569662863.17739
1569662863.19301
1569662863.20864
1569662863.22426
1569662863.23989
1569662863.25552
1569662863.27114
1569662863.28677
1569662863.30239
1569662863.31802
1569662863.33364
1569662863.34927
1569662863.3649
1569662863.38052
1569662863.39615
1569662863.41177
1569662863.4274
1569662863.44302
1569662863.45865
1569662863.47428
1569662863.4899
1569662863.50553
1569662863.52115
1569662863.53678
1569662863.5524
1569662863.56803
1569662863.58366
1569662863.59928
1569662863.61491
1569662863.63053
1569662863.64616
1569662863.66178
1569662863.67741
1569662863.69304
1569662863.70866
1569662863.72429
1569662863.73991
1569662863.75554
1569662863.77116
1569662863.78679
1569662863.80242
1569662863.81804
1569662863.83367
1569662863.84929
1569662863.86492
1569662863.88054
1569662863.89617
1569662863.9118
1569662863.92742
1569662863.94305
1569662863.95867
1569662863.9743
1569662863.98992
1569662864.00555
1569662864.02118
1569662864.0368
1569662864.05243
1569662864.06805
1569662864.08368
1569662864.0993
1569662864.11493
1569662864.13056
1569662864.14618
1569662864.16181
1569662864.17743
1569662864.19306
1569662864.20868
1569662864.22431
1569662864.23994
1569662864.25556
1569662864.27119
1569662864.28681
1569662864.30244
1569662864.31806
1569662864.33369
1569662864.34932
1569662864.36494
1569662864.38057
1569662864.39619
1569662864.41182
1569662864.42744
1569662864.44307
1569662864.4587
1569662864.47432
1569662864.48995
1569662864.50557
1569662864.5212
1569662864.53682
1569662864.55245
1569662864.56808
1569662864.5837
1569662864.59933
1569662864.61495
1569662864.63058
1569662864.6462
1569662864.66183
1569662864.67746
1569662864.69308
1569662864.70871
1569662864.72433
1569662864.73996
1569662864.75558
1569662864.77121
1569662864.78684
1569662864.80246
1569662864.81809
1569662864.83371
1569662864.84934
1569662864.86496
1569662864.88059
1569662864.89622
1569662864.91184
1569662864.92747
1569662864.94309
1569662864.95872
1569662864.97434
1569662864.98997
1569662865.0056
1569662865.02122
1569662865.03685
1569662865.05247
1569662865.0681
1569662865.08372
1569662865.09935
1569662865.11498
1569662865.1306
1569662865.14623
1569662865.16185
1569662865.17748
1569662865.1931
1569662865.20873
1569662865.22436
1569662865.23998
1569662865.25561
1569662865.27123
1569662865.28686
1569662865.30248
1569662865.31811
1569662865.33374
1569662865.34936
1569662865.36499
1569662865.38061
1569662865.39624
1569662865.41187
1569662865.42749
1569662865.44312
1569662865.45874
1569662865.47437
1569662865.48999
1569662865.50562
1569662865.52125
1569662865.53687
1569662865.5525
1569662865.56812
1569662865.58375
1569662865.59937
1569662865.615
1569662865.63063
1569662865.64625
1569662865.66188
1569662865.6775
1569662865.69313
1569662865.70875
1569662865.72438
1569662865.74001
1569662865.75563
1569662865.77126
1569662865.78688
1569662865.80251
1569662865.81813
1569662865.83376
1569662865.84939
1569662865.86501
1569662865.88064
1569662865.89626
1569662865.91189
1569662865.92751
1569662865.94314
1569662865.95877
1569662865.97439
1569662865.99002
1569662866.00564
1569662866.02127
1569662866.03689
1569662866.05252
1569662866.06815
1569662866.08377
1569662866.0994
1569662866.11502
1569662866.13065
1569662866.14627
1569662866.1619
1569662866.17753
1569662866.19315
1569662866.20878
1569662866.2244
1569662866.24003
1569662866.25565
1569662866.27128
1569662866.28691
1569662866.30253
1569662866.31816
1569662866.33378
1569662866.34941
1569662866.36503
1569662866.38066
1569662866.39629
1569662866.41191
1569662866.42754
1569662866.44316
1569662866.45879
1569662866.47441
1569662866.49004
1569662866.50567
1569662866.52129
1569662866.53692
1569662866.55254
1569662866.56817
1569662866.58379
1569662866.59942
1569662866.61505
1569662866.63067
1569662866.6463
1569662866.66192
1569662866.67755
1569662866.69317
1569662866.7088
1569662866.72443
1569662866.74005
1569662866.75568
1569662866.7713
1569662866.78693
1569662866.80255
1569662866.81818
1569662866.83381
1569662866.84943
1569662866.86506
1569662866.88068
1569662866.89631
1569662866.91193
1569662866.92756
1569662866.94319
1569662866.95881
1569662866.97444
1569662866.99006
1569662867.00569
1569662867.02131
1569662867.03694
1569662867.05257
1569662867.06819
1569662867.08382
1569662867.09944
1569662867.11507
1569662867.13069
1569662867.14632
1569662867.16195
1569662867.17757
1569662867.1932
1569662867.20882
1569662867.22445
1569662867.24007
1569662867.2557
1569662867.27133
1569662867.28695
1569662867.30258
1569662867.3182
1569662867.33383
1569662867.34945
1569662867.36508
1569662867.38071
1569662867.39633
1569662867.41196
1569662867.42758
1569662867.44321
1569662867.45883
1569662867.47446
1569662867.49009
1569662867.50571
1569662867.52134
1569662867.53696
1569662867.55259
1569662867.56821
1569662867.58384
1569662867.59947
1569662867.61509
1569662867.63072
1569662867.64634
1569662867.66197
1569662867.67759
1569662867.69322
1569662867.70885
1569662867.72447
1569662867.7401
1569662867.75572
1569662867.77135
1569662867.78697
1569662867.8026
1569662867.81823
1569662867.83385
1569662867.84948
1569662867.8651
1569662867.88073
1569662867.89636
1569662867.91198
1569662867.92761
1569662867.94323
1569662867.95886
1569662867.97448
1569662867.99011
1569662868.00574
1569662868.02136
1569662868.03699
1569662868.05261
1569662868.06824
1569662868.08386
1569662868.09949
1569662868.11512
1569662868.13074
1569662868.14637
1569662868.16199
1569662868.17762
1569662868.19324
1569662868.20887
1569662868.2245
1569662868.24012
1569662868.25575
1569662868.27137
1569662868.287
1569662868.30262
1569662868.31825
1569662868.33388
1569662868.3495
1569662868.36513
1569662868.38075
1569662868.39638
1569662868.412
1569662868.42763
1569662868.44326
1569662868.45888
1569662868.47451
1569662868.49013
1569662868.50576
1569662868.52138
1569662868.53701
1569662868.55264
1569662868.56826
1569662868.58389
1569662868.59951
1569662868.61514
1569662868.63076
1569662868.64639
1569662868.66202
1569662868.67764
1569662868.69327
1569662868.70889
1569662868.72452
1569662868.74014
1569662868.75577
1569662868.7714
1569662868.78702
1569662868.80265
1569662868.81827
1569662868.8339
1569662868.84952
1569662868.86515
1569662868.88078
1569662868.8964
1569662868.91203
1569662868.92765
1569662868.94328
1569662868.9589
1569662868.97453
1569662868.99016
1569662869.00578
1569662869.02141
1569662869.03703
1569662869.05266
1569662869.06828
1569662869.08391
1569662869.09954
1569662869.11516
1569662869.13079
1569662869.14641
1569662869.16204
1569662869.17766
1569662869.19329
1569662869.20892
1569662869.22454
1569662869.24017
1569662869.25579
1569662869.27142
1569662869.28704
1569662869.30267
1569662869.3183
1569662869.33392
1569662869.34955
1569662869.36517
1569662869.3808
1569662869.39642
1569662869.41205
1569662869.42768
1569662869.4433
1569662869.45893
1569662869.47455
1569662869.49018
1569662869.5058
1569662869.52143
1569662869.53706
1569662869.55268
1569662869.56831
1569662869.58393
1569662869.59956
1569662869.61518
1569662869.63081
1569662869.64644
1569662869.66206
1569662869.67769
1569662869.69331
1569662869.70894
1569662869.72456
1569662869.74019
1569662869.75582
1569662869.77144
1569662869.78707
1569662869.80269
1569662869.81832
1569662869.83394
1569662869.84957
1569662869.8652
1569662869.88082
1569662869.89645
1569662869.91207
1569662869.9277
1569662869.94332
1569662869.95895
1569662869.97458
1569662869.9902
1569662870.00583
1569662870.02145
1569662870.03708
1569662870.0527
1569662870.06833
1569662870.08396
1569662870.09958
1569662870.11521
1569662870.13083
1569662870.14646
1569662870.16209
1569662870.17771
1569662870.19334
1569662870.20896
1569662870.22459
1569662870.24021
1569662870.25584
1569662870.27147
1569662870.28709
1569662870.30272
1569662870.31834
1569662870.33397
1569662870.34959
1569662870.36522
1569662870.38085
1569662870.39647
1569662870.4121
1569662870.42772
1569662870.44335
1569662870.45897
1569662870.4746
1569662870.49023
1569662870.50585
1569662870.52148
1569662870.5371
1569662870.55273
1569662870.56835
1569662870.58398
1569662870.59961
1569662870.61523
1569662870.63086
1569662870.64648
1569662870.66211
1569662870.67773
1569662870.69336
1569662870.70899
1569662870.72461
1569662870.74024
1569662870.75586
1569662870.77149
1569662870.78711
1569662870.80274
1569662870.81837
1569662870.83399
1569662870.84962
1569662870.86524
1569662870.88087
1569662870.89649
1569662870.91212
1569662870.92775
1569662870.94337
1569662870.959
1569662870.97462
1569662870.99025
1569662871.00587
1569662871.0215
1569662871.03713
1569662871.05275
1569662871.06838
1569662871.084
1569662871.09963
1569662871.11525
1569662871.13088
1569662871.14651
1569662871.16213
1569662871.17776
1569662871.19338
1569662871.20901
1569662871.22463
1569662871.24026
1569662871.25589
1569662871.27151
1569662871.28714
1569662871.30276
1569662871.31839
1569662871.33401
1569662871.34964
1569662871.36527
1569662871.38089
1569662871.39652
1569662871.41214
1569662871.42777
1569662871.44339
1569662871.45902
1569662871.47465
1569662871.49027
1569662871.5059
1569662871.52152
1569662871.53715
1569662871.55277
1569662871.5684
1569662871.58403
1569662871.59965
1569662871.61528
1569662871.6309
1569662871.64653
1569662871.66215
1569662871.67778
1569662871.69341
1569662871.70903
1569662871.72466
1569662871.74028
1569662871.75591
1569662871.77153
1569662871.78716
1569662871.80279
1569662871.81841
1569662871.83404
1569662871.84966
1569662871.86529
1569662871.88091
1569662871.89654
1569662871.91217
1569662871.92779
1569662871.94342
1569662871.95904
1569662871.97467
1569662871.99029
1569662872.00592
1569662872.02155
1569662872.03717
1569662872.0528
1569662872.06842
1569662872.08405
1569662872.09967
1569662872.1153
1569662872.13093
1569662872.14655
1569662872.16218
1569662872.1778
1569662872.19343
1569662872.20905
1569662872.22468
1569662872.24031
1569662872.25593
1569662872.27156
1569662872.28718
1569662872.30281
1569662872.31843
1569662872.33406
1569662872.34969
1569662872.36531
1569662872.38094
1569662872.39656
1569662872.41219
1569662872.42781
1569662872.44344
1569662872.45907
1569662872.47469
1569662872.49032
1569662872.50594
1569662872.52157
1569662872.53719
1569662872.55282
1569662872.56845
1569662872.58407
1569662872.5997
1569662872.61532
1569662872.63095
1569662872.64657
1569662872.6622
1569662872.67783
1569662872.69345
1569662872.70908
1569662872.7247
1569662872.74033
1569662872.75596
1569662872.77158
1569662872.78721
1569662872.80283
1569662872.81846
1569662872.83408
1569662872.84971
1569662872.86534
1569662872.88096
1569662872.89659
1569662872.91221
1569662872.92784
1569662872.94346
1569662872.95909
1569662872.97472
1569662872.99034
1569662873.00597
1569662873.02159
1569662873.03722
1569662873.05284
1569662873.06847
1569662873.0841
1569662873.09972
1569662873.11535
1569662873.13097
1569662873.1466
1569662873.16222
1569662873.17785
1569662873.19348
1569662873.2091
1569662873.22473
1569662873.24035
1569662873.25598
1569662873.2716
1569662873.28723
1569662873.30286
1569662873.31848
1569662873.33411
1569662873.34973
1569662873.36536
1569662873.38098
1569662873.39661
1569662873.41224
1569662873.42786
1569662873.44349
1569662873.45911
1569662873.47474
1569662873.49036
1569662873.50599
1569662873.52162
1569662873.53724
1569662873.55287
1569662873.56849
1569662873.58412
1569662873.59974
1569662873.61537
1569662873.631
1569662873.64662
1569662873.66225
1569662873.67787
1569662873.6935
1569662873.70912
1569662873.72475
1569662873.74038
1569662873.756
1569662873.77163
1569662873.78725
1569662873.80288
1569662873.8185
1569662873.83413
1569662873.84976
1569662873.86538
1569662873.88101
1569662873.89663
1569662873.91226
1569662873.92788
1569662873.94351
1569662873.95914
1569662873.97476
1569662873.99039
1569662874.00601
1569662874.02164
1569662874.03726
1569662874.05289
1569662874.06852
1569662874.08414
1569662874.09977
1569662874.11539
1569662874.13102
1569662874.14664
1569662874.16227
1569662874.1779
1569662874.19352
1569662874.20915
1569662874.22477
1569662874.2404
1569662874.25602
1569662874.27165
1569662874.28728
1569662874.3029
1569662874.31853
1569662874.33415
1569662874.34978
1569662874.3654
1569662874.38103
1569662874.39666
1569662874.41228
1569662874.42791
1569662874.44353
1569662874.45916
1569662874.47478
1569662874.49041
1569662874.50604
1569662874.52166
1569662874.53729
1569662874.55291
1569662874.56854
1569662874.58416
1569662874.59979
1569662874.61542
1569662874.63104
1569662874.64667
1569662874.66229
1569662874.67792
1569662874.69354
1569662874.70917
1569662874.7248
1569662874.74042
1569662874.75605
1569662874.77167
1569662874.7873
1569662874.80292
1569662874.81855
1569662874.83418
1569662874.8498
1569662874.86543
1569662874.88105
1569662874.89668
1569662874.9123
1569662874.92793
1569662874.94356
1569662874.95918
1569662874.97481
1569662874.99043
1569662875.00606
1569662875.02169
1569662875.03731
1569662875.05294
1569662875.06856
1569662875.08419
1569662875.09981
1569662875.11544
1569662875.13107
1569662875.14669
1569662875.16232
1569662875.17794
1569662875.19357
1569662875.20919
1569662875.22482
1569662875.24045
1569662875.25607
1569662875.2717
1569662875.28732
1569662875.30295
1569662875.31857
1569662875.3342
1569662875.34983
1569662875.36545
1569662875.38108
1569662875.3967
1569662875.41233
1569662875.42795
1569662875.44358
1569662875.45921
1569662875.47483
1569662875.49046
1569662875.50608
1569662875.52171
1569662875.53733
1569662875.55296
1569662875.56859
1569662875.58421
1569662875.59984
1569662875.61546
1569662875.63109
1569662875.64671
1569662875.66234
1569662875.67797
1569662875.69359
1569662875.70922
1569662875.72484
1569662875.74047
1569662875.75609
1569662875.77172
1569662875.78735
1569662875.80297
1569662875.8186
1569662875.83422
1569662875.84985
1569662875.86547
1569662875.8811
1569662875.89673
1569662875.91235
1569662875.92798
1569662875.9436
1569662875.95923
1569662875.97485
1569662875.99048
1569662876.00611
1569662876.02173
1569662876.03736
1569662876.05298
1569662876.06861
1569662876.08423
1569662876.09986
1569662876.11549
1569662876.13111
1569662876.14674
1569662876.16236
1569662876.17799
1569662876.19361
1569662876.20924
1569662876.22487
1569662876.24049
1569662876.25612
1569662876.27174
1569662876.28737
1569662876.30299
1569662876.31862
1569662876.33425
1569662876.34987
1569662876.3655
1569662876.38112
1569662876.39675
1569662876.41237
1569662876.428
1569662876.44363
1569662876.45925
1569662876.47488
1569662876.4905
1569662876.50613
1569662876.52175
1569662876.53738
1569662876.55301
1569662876.56863
1569662876.58426
1569662876.59988
1569662876.61551
1569662876.63113
1569662876.64676
1569662876.66239
1569662876.67801
1569662876.69364
1569662876.70926
1569662876.72489
1569662876.74051
1569662876.75614
1569662876.77177
1569662876.78739
1569662876.80302
1569662876.81864
1569662876.83427
1569662876.84989
1569662876.86552
1569662876.88115
1569662876.89677
1569662876.9124
1569662876.92802
1569662876.94365
1569662876.95927
1569662876.9749
1569662876.99053
1569662877.00615
1569662877.02178
1569662877.0374
1569662877.05303
1569662877.06865
1569662877.08428
1569662877.09991
1569662877.11553
1569662877.13116
1569662877.14678
1569662877.16241
1569662877.17804
1569662877.19366
1569662877.20929
1569662877.22491
1569662877.24054
1569662877.25616
1569662877.27179
1569662877.28742
1569662877.30304
1569662877.31867
1569662877.33429
1569662877.34992
1569662877.36554
1569662877.38117
1569662877.3968
1569662877.41242
1569662877.42805
1569662877.44367
1569662877.4593
1569662877.47492
1569662877.49055
1569662877.50618
1569662877.5218
1569662877.53743
1569662877.55305
1569662877.56868
1569662877.5843
1569662877.59993
1569662877.61556
1569662877.63118
1569662877.64681
1569662877.66243
1569662877.67806
1569662877.69368
1569662877.70931
1569662877.72494
1569662877.74056
1569662877.75619
1569662877.77181
1569662877.78744
1569662877.80306
1569662877.81869
1569662877.83432
1569662877.84994
1569662877.86557
1569662877.88119
1569662877.89682
1569662877.91244
1569662877.92807
1569662877.9437
1569662877.95932
1569662877.97495
1569662877.99057
1569662878.0062
1569662878.02182
1569662878.03745
1569662878.05308
1569662878.0687
1569662878.08433
1569662878.09995
1569662878.11558
1569662878.1312
1569662878.14683
1569662878.16246
1569662878.17808
1569662878.19371
1569662878.20933
1569662878.22496
1569662878.24058
1569662878.25621
1569662878.27184
1569662878.28746
1569662878.30309
1569662878.31871
1569662878.33434
1569662878.34996
1569662878.36559
1569662878.38122
1569662878.39684
1569662878.41247
1569662878.42809
1569662878.44372
1569662878.45934
1569662878.47497
1569662878.4906
1569662878.50622
1569662878.52185
1569662878.53747
1569662878.5531
1569662878.56872
1569662878.58435
1569662878.59998
1569662878.6156
1569662878.63123
1569662878.64685
1569662878.66248
1569662878.6781
1569662878.69373
1569662878.70936
1569662878.72498
1569662878.74061
1569662878.75623
1569662878.77186
1569662878.78748
1569662878.80311
1569662878.81874
1569662878.83436
1569662878.84999
1569662878.86561
1569662878.88124
1569662878.89686
1569662878.91249
1569662878.92812
1569662878.94374
1569662878.95937
1569662878.97499
1569662878.99062
1569662879.00624
1569662879.02187
1569662879.0375
1569662879.05312
1569662879.06875
1569662879.08437
1569662879.1
1569662879.11562
1569662879.13125
1569662879.14688
1569662879.1625
1569662879.17813
1569662879.19375
1569662879.20938
1569662879.225
1569662879.24063
1569662879.25626
1569662879.27188
1569662879.28751
1569662879.30313
1569662879.31876
1569662879.33438
1569662879.35001
1569662879.36564
1569662879.38126
1569662879.39689
1569662879.41251
1569662879.42814
1569662879.44376
1569662879.45939
1569662879.47502
1569662879.49064
1569662879.50627
1569662879.52189
1569662879.53752
1569662879.55314
1569662879.56877
1569662879.5844
1569662879.60002
1569662879.61565
1569662879.63127
1569662879.6469
1569662879.66252
1569662879.67815
1569662879.69378
1569662879.7094
1569662879.72503
1569662879.74065
1569662879.75628
1569662879.7719
1569662879.78753
1569662879.80316
1569662879.81878
1569662879.83441
1569662879.85003
1569662879.86566
1569662879.88129
1569662879.89691
1569662879.91254
1569662879.92816
1569662879.94379
1569662879.95941
1569662879.97504
1569662879.99067
1569662880.00629
1569662880.02192
1569662880.03754
1569662880.05317
1569662880.06879
1569662880.08442
1569662880.10005
1569662880.11567
1569662880.1313
1569662880.14692
1569662880.16255
1569662880.17817
1569662880.1938
1569662880.20943
1569662880.22505
1569662880.24068
1569662880.2563
1569662880.27193
1569662880.28755
1569662880.30318
1569662880.31881
1569662880.33443
1569662880.35006
1569662880.36568
1569662880.38131
1569662880.39693
1569662880.41256
1569662880.42819
1569662880.44381
1569662880.45944
1569662880.47506
1569662880.49069
1569662880.50631
1569662880.52194
1569662880.53757
1569662880.55319
1569662880.56882
1569662880.58444
1569662880.60007
1569662880.61569
1569662880.63132
1569662880.64695
1569662880.66257
1569662880.6782
1569662880.69382
1569662880.70945
1569662880.72507
1569662880.7407
1569662880.75633
1569662880.77195
1569662880.78758
1569662880.8032
1569662880.81883
1569662880.83445
1569662880.85008
1569662880.86571
1569662880.88133
1569662880.89696
1569662880.91258
1569662880.92821
1569662880.94383
1569662880.95946
1569662880.97509
1569662880.99071
1569662881.00634
1569662881.02196
1569662881.03759
1569662881.05321
1569662881.06884
1569662881.08447
1569662881.10009
1569662881.11572
1569662881.13134
1569662881.14697
1569662881.16259
1569662881.17822
1569662881.19385
1569662881.20947
1569662881.2251
1569662881.24072
1569662881.25635
1569662881.27197
1569662881.2876
1569662881.30323
1569662881.31885
1569662881.33448
1569662881.3501
1569662881.36573
1569662881.38135
1569662881.39698
1569662881.41261
1569662881.42823
1569662881.44386
1569662881.45948
1569662881.47511
1569662881.49073
1569662881.50636
1569662881.52199
1569662881.53761
1569662881.55324
1569662881.56886
1569662881.58449
1569662881.60011
1569662881.61574
1569662881.63137
1569662881.64699
1569662881.66262
1569662881.67824
1569662881.69387
1569662881.70949
1569662881.72512
1569662881.74075
1569662881.75637
1569662881.772
1569662881.78762
1569662881.80325
1569662881.81887
1569662881.8345
1569662881.85013
1569662881.86575
1569662881.88138
1569662881.897
1569662881.91263
1569662881.92825
1569662881.94388
1569662881.95951
1569662881.97513
1569662881.99076
1569662882.00638
1569662882.02201
1569662882.03764
1569662882.05326
1569662882.06889
1569662882.08451
1569662882.10014
1569662882.11576
1569662882.13139
1569662882.14702
1569662882.16264
1569662882.17827
1569662882.19389
1569662882.20952
1569662882.22514
1569662882.24077
1569662882.2564
1569662882.27202
1569662882.28765
1569662882.30327
1569662882.3189
1569662882.33452
1569662882.35015
1569662882.36578
1569662882.3814
1569662882.39703
1569662882.41265
1569662882.42828
1569662882.4439
1569662882.45953
1569662882.47516
1569662882.49078
1569662882.50641
1569662882.52203
1569662882.53766
1569662882.55328
1569662882.56891
1569662882.58454
1569662882.60016
1569662882.61579
1569662882.63141
1569662882.64704
1569662882.66266
1569662882.67829
1569662882.69392
1569662882.70954
1569662882.72517
1569662882.74079
1569662882.75642
1569662882.77204
1569662882.78767
1569662882.8033
1569662882.81892
1569662882.83455
1569662882.85017
1569662882.8658
1569662882.88142
1569662882.89705
1569662882.91268
1569662882.9283
1569662882.94393
1569662882.95955
1569662882.97518
1569662882.9908
1569662883.00643
1569662883.02206
1569662883.03768
1569662883.05331
1569662883.06893
1569662883.08456
1569662883.10018
1569662883.11581
1569662883.13144
1569662883.14706
1569662883.16269
1569662883.17831
1569662883.19394
