-9.981857
-10.00551
-11.20146
-13.7242
-17.22188
-20.68575
-22.79712
-22.29994
-18.50395
-11.59712
-2.606049
6.975357
15.71573
22.68666
27.66275
30.93063
32.91341
33.99086
34.26923
33.71286
32.23546
29.90576
26.93762
23.6929
20.51653
17.57483
14.92238
12.40797
9.919861
7.424957
5.040619
2.933289
1.265167
0.03970337
-0.8313904
-1.422012
-1.825989
-2.030304
-2.073105
-2.047226
-2.119705
-2.434982
-3.069489
-3.981857
-5.078339
-6.286942
-7.585754
-8.991241
-10.53412
-12.10664
-13.5247
-14.54691
-15.01753
-14.91972
-14.43724
-13.92485
-13.78804
-14.35623
-15.73471
-17.81702
-20.3035
-22.87776
-25.23796
-27.21594
-28.74907
-29.89484
-30.90404
-32.10954
-33.97884
-36.79179
-40.47725
-44.35007
-47.18459
-47.57558
-44.38348
-37.23087
-26.74886
-14.35353
-1.85553
9.108276
17.47708
22.92947
25.76242
26.64156
26.32253
25.3622
24.12538
22.8107
21.53546
20.37013
19.39186
18.60921
17.95242
17.30687
16.56734
15.71527
14.92513
14.49193
14.62996
15.39636
16.54962
17.6617
18.25214
18.0549
17.09273
15.59814
13.92972
12.4476
11.3615
10.74033
10.56621
10.70288
10.89761
10.80562
10.05643
8.355804
5.735519
2.531616
-0.7359161
-3.532806
-5.641663
-7.205734
-8.657669
-10.47992
-12.97342
-16.11339
-19.54427
-22.83308
-25.64183
-27.85698
-29.61511
-31.18068
-32.92087
-35.16171
-38.21718
-42.17267
-46.77478
-51.30707
-54.55731
-55.17894
-52.08337
-44.92636
-34.34375
-21.82834
-9.183456
2.015427
10.86443
17.25689
21.63459
24.63152
26.75819
28.29451
29.29206
29.78439
29.81721
29.48624
28.91612
28.12566
27.10446
25.81557
24.30211
22.68646
21.2184
20.17356
19.76201
20.06452
20.96633
22.21564
23.49249
24.46741
24.89965
24.68633
23.86061
22.59051
21.0789
19.48748
17.925
16.41364
14.9752
13.58591
12.26579
11.00631
9.782356
8.534309
7.101707
5.430779
3.456551
1.242569
-1.118011
-3.584557
-6.20961
-9.1511
-12.56931
-16.46923
-20.58561
-24.50919
-27.78308
-30.14131
-31.63496
-32.60339
-33.59273
-35.11723
-37.54519
-40.95022
-45.06282
-49.14686
-52.036
-52.41323
-49.10091
-41.55611
-30.13609
-16.16628
-1.47007
12.12132
23.3339
31.75342
37.61414
41.61427
44.41248
46.48546
47.98088
48.91294
49.252
49.04386
48.36773
47.31675
46.00464
44.53912
42.96708
41.33246
39.65265
37.90439
36.1012
34.26712
32.366
30.41237
28.43482
26.37181
24.19988
21.90379
19.45399
16.89878
14.33972
11.81015
9.31942
6.850914
4.34938
1.711349
-1.191444
-4.447884
-8.033348
-11.77804
-15.38519
-18.55064
-21.03785
-22.80653
-23.99328
-24.86585
-25.70624
-26.6693
-27.75031
-28.85732
-29.89117
-30.7989
-31.60584
-32.34301
-33.15827
-34.27946
-35.9605
-38.37907
-41.42476
-44.57494
-46.82146
-46.8695
-43.56226
-36.3407
-25.60399
-12.64619
0.690773
12.64003
21.98498
28.30838
31.95291
33.62424
34.07289
33.81809
33.10413
31.99738
30.60493
29.08029
27.64166
26.44528
25.50937
24.71667
23.81022
22.51937
20.71751
18.54987
16.31621
14.39912
13.02452
12.1412
11.50311
10.74244
9.578903
8.000275
6.282394
4.791435
3.824104
3.454895
3.45797
3.454895
3.058548
1.992432
0.2505798
-1.964111
-4.355408
-6.629562
-8.640335
-10.48488
-12.39079
-14.60547
-17.29605
-20.37872
-23.62117
-26.7182
-29.34721
-31.41174
-33.00992
-34.42088
-36.05275
-38.29628
-41.40195
-45.37697
-49.89641
-54.14812
-57.0276
-57.29175
-53.91722
-46.54054
-35.72307
-22.84702
-9.830688
1.471436
9.830048
14.95195
17.36443
18.10623
18.19656
18.25555
18.49208
18.78598
18.93622
18.88101
18.66748
18.3456
17.90667
17.23012
16.16859
14.70695
13.06919
11.64792
10.82462
10.77905
11.36365
12.20039
12.82893
12.91334
12.32041
11.16689
9.720276
8.273201
6.966927
5.759575
4.451164
2.792946
0.5787277
-2.238411
-5.468269
-8.848946
-12.06519
-14.91528
-17.34464
-19.41631
-21.22721
-22.84965
-24.29112
-25.54934
-26.78281
-28.23657
-30.25166
-33.21317
-37.35931
-42.64983
-48.55807
-54.02149
-57.56807
-57.70459
-53.41151
-44.53136
-32.03734
-17.70791
-3.675583
8.410194
17.7121
24.36004
29.05233
32.5958
35.53129
37.93782
39.71781
40.6208
40.57405
39.62616
37.92973
35.6627
33.0011
30.14816
27.28917
24.71806
22.61441
21.10884
20.18891
19.72099
19.45857
19.13976
18.52222
17.47873
16.04862
14.38901
12.77901
11.41444
10.33065
9.375973
8.24618
6.731004
4.720221
2.387613
0.01073647
-2.120975
-3.923189
-5.613712
-7.548577
-10.18275
-13.77026
-18.27981
-23.34318
-28.45507
-33.06528
-36.86587
-39.86318
-42.35918
-44.97628
-48.3616
-53.04281
-59.03052
-65.73438
-71.75864
-75.28707
-74.52766
-68.37557
-56.98788
-41.75468
-25.03484
-9.132828
4.219624
14.42188
21.85953
27.39772
31.91217
35.83599
39.25386
41.97173
43.87342
44.96684
45.41111
45.37173
44.97449
44.34267
43.61003
43.01319
42.77043
43.05611
43.894
45.07524
46.29916
47.16604
47.41988
46.95314
45.86735
44.35292
42.70857
41.12
39.60202
38.05885
36.17487
33.67033
30.3667
26.31042
21.72985
17.08848
12.77267
8.968353
5.614822
2.309822
-1.404602
-5.90332
-11.27341
-17.24632
-23.27798
-28.84081
-33.62636
-37.65519
-41.3289
-45.22189
-49.88879
-55.68848
-62.45567
-69.49297
-75.5263
-78.96865
-78.29613
-72.65745
-62.14344
-47.90665
-31.90647
-16.24811
-2.585793
8.234917
16.28642
22.25188
26.842
30.62776
33.83764
36.40737
38.25873
39.33074
39.60963
39.15874
38.00816
36.12585
33.61188
30.69761
27.70956
25.09357
23.23386
22.34669
22.50852
23.52578
24.98294
26.34248
27.07323
26.73383
25.22057
22.68709
19.45135
16.00002
12.68236
9.692276
7.042053
4.564354
2.065331
-0.5102234
-3.15036
-5.716835
-8.016403
-9.992096
-11.73213
-13.54808
-15.90171
-19.17422
-23.47858
-28.60966
-34.08143
-39.29097
-43.77255
-47.36494
-50.1535
-52.51945
-54.97305
-57.95285
-61.69099
-65.98952
-70.07486
-72.66731
-72.26775
-67.65952
-58.47154
-45.39644
-30.06099
-14.50464
-0.4870148
10.96925
19.7289
26.27167
31.32175
35.43118
38.90334
41.73367
43.86629
45.30005
46.15308
46.61307
46.86884
46.99884
46.9205
46.56079
45.82213
44.75027
43.51381
42.27802
41.10567
39.88113
38.33757
36.20082
33.37662
29.92938
26.1237
22.29883
18.7617
15.76289
13.42497
11.75656
10.60034
9.666382
8.509399
6.745499
4.15033
0.7761536
-3.006119
-6.684387
-9.820648
-12.26114
-14.10114
-15.78596
-17.75226
-20.29399
-23.50336
-27.10367
-30.66194
-33.78242
-36.22949
-38.04482
-39.63658
-41.50815
-44.25151
-48.31726
-53.74283
-60.07268
-66.25542
-70.80132
-72.14195
-69.14058
-61.41235
-49.55183
-34.99866
-19.50281
-4.682648
8.436417
19.46484
28.5959
36.17432
42.55835
47.93761
52.33669
55.7757
58.315
60.06816
61.13829
61.58919
61.41501
60.6526
59.45747
58.09637
56.98523
56.45023
56.63637
57.41995
58.42354
59.17636
59.18465
58.13345
55.95003
52.87726
49.34216
45.84282
42.77594
40.25302
38.10538
35.92673
33.38281
30.30972
26.85437
23.32541
19.95779
16.77669
13.61406
10.15938
6.165298
1.580109
-3.486267
-8.753281
-13.93546
-18.86636
-23.45694
-27.75282
-31.83507
-35.70241
-39.26355
-42.39709
-44.99931
-47.0729
-48.8429
-50.64912
-52.88466
-55.86946
-59.73135
-64.41965
-69.63467
-74.70625
-78.49792
-79.59181
-76.56245
-68.60197
-56.01093
-40.17002
-23.21167
-7.296425
6.053215
16.38681
24.12397
30.14402
35.21394
39.66016
43.47121
46.44062
48.38162
49.25306
49.12271
48.15099
46.65606
44.96865
43.43767
42.32932
41.70338
41.39454
41.12353
40.55924
39.50674
37.95731
35.95411
33.58481
30.89589
27.83332
24.34812
20.518
16.46885
12.41111
8.537064
4.902987
1.390197
-2.185362
-6.012628
-10.16665
-14.44316
-18.52958
-22.02777
-24.61916
-26.26631
-27.22443
-27.93621
-28.93235
-30.58532
-33.0087
-36.08325
-39.48896
-42.86427
-45.99279
-48.76257
-51.23899
-53.5821
-55.99839
-58.72027
-62.04382
-66.11909
-70.75462
-75.22948
-78.23175
-78.21937
-73.91939
-64.90688
-51.87627
-36.56834
-21.06818
-7.192829
4.052261
12.62559
19.04094
23.96786
27.76343
30.50787
32.01635
32.21083
31.28575
29.6546
27.87649
26.3207
25.13561
24.18295
23.28148
22.27007
21.20785
20.34412
19.87998
19.94473
20.39656
20.93058
21.14904
20.82353
19.92064
18.60432
17.22827
16.04134
15.2409
14.73026
14.27488
13.4968
12.07423
9.805641
6.699036
3.041634
-0.8369293
-4.533867
-7.855679
-10.85141
-13.84012
-17.32977
-21.83875
-27.6277
-34.47213
-41.77055
-48.58982
-54.12607
-57.95802
-60.14639
-61.15579
-61.72697
-62.60335
-64.30314
-67.15116
-71.03806
-75.30334
-78.70708
-79.54199
-76.18721
-67.80328
-54.74789
-38.581
-21.50239
-5.594453
7.826278
18.44939
26.71944
33.35962
38.85102
43.28486
46.50258
48.37674
48.9948
48.66792
47.77686
46.5984
45.24768
43.67666
41.86736
39.87506
37.91143
36.31947
35.42469
35.30948
35.78619
36.47298
36.91293
36.83577
36.13366
34.90069
33.33141
31.59763
29.84356
28.11685
26.52107
25.06077
23.74032
22.46548
21.03796
19.35738
17.35323
15.09109
12.64676
10.11757
7.518066
4.813519
1.965214
-1.11264
-4.486797
-8.267548
-12.58173
-17.53727
-23.06129
-28.87356
-34.49523
-39.44918
-43.47428
-46.6357
-49.41522
-52.48038
-56.51974
-61.85551
-68.24805
-74.7448
-79.84246
-81.84567
-79.33531
-71.71508
-59.4746
-44.1047
-27.68881
-12.24048
0.8238754
11.00853
18.68843
24.71174
30.03147
35.25803
40.5482
45.61175
49.88498
52.85541
54.21826
54.02421
52.5829
50.3805
47.87754
45.42574
43.27625
41.5526
40.33416
39.62827
39.37878
39.4313
39.56018
39.5149
39.10124
38.32433
37.31599
36.30338
35.50877
34.98522
34.60368
34.11186
33.19706
31.66097
29.49686
26.86769
23.96351
20.92993
17.76967
14.37064
10.61477
6.459793
1.994926
-2.47229
-6.614067
-10.11882
-12.80423
-14.77557
-16.36995
-18.03448
-20.18204
-22.98893
-26.26756
-29.62389
-32.59349
-34.86806
-36.52172
-37.95837
-39.75838
-42.48749
-46.43681
-51.50176
-57.00842
-61.75034
-64.12579
-62.61192
-56.31421
-45.28448
-30.80621
-14.89182
0.2530212
12.9247
22.39783
28.90857
33.24971
36.23479
38.40715
39.92311
40.76493
40.94516
40.5831
39.9296
39.11197
38.05338
36.48356
34.13099
30.91052
27.11478
23.33207
20.18674
18.14861
17.32145
17.47544
18.14561
18.92573
19.43585
19.53596
19.21873
18.55273
17.6843
16.64433
15.41974
13.87638
11.90813
9.431875
6.557577
3.588276
0.845644
-1.409485
-3.172606
-4.707827
-6.409899
-8.648457
-11.60183
-15.10595
-18.78881
-22.20668
-25.04264
-27.25004
-29.05208
-30.86395
-33.14042
-36.21829
-40.15729
-44.73446
-49.51648
-54.02588
-57.94827
-61.22956
-64.10332
-66.91918
-70.06104
-73.74205
-77.88501
-82.00295
-85.09834
-85.79723
-82.64968
-74.64132
-61.69728
-44.92458
-26.42596
-8.765558
5.915998
16.51546
23.14556
26.88293
29.12449
31.02555
33.19959
35.6692
38.17917
40.44063
42.303
43.80286
45.002
45.86269
46.27515
46.10574
45.26479
43.87937
42.22731
40.67241
39.5073
38.83005
38.53088
38.27398
37.70964
36.52979
34.73165
32.54825
30.39865
28.70034
27.66894
27.16069
26.64602
25.43034
22.92634
18.96872
13.85167
8.211315
2.840263
-1.606201
-4.8218
-6.920712
-8.335045
-9.580406
-11.1198
-13.15873
-15.61866
-18.17988
-20.49499
-22.39182
-23.98147
-25.6066
-27.78143
-31.03793
-35.71923
-41.88496
-49.19828
-56.9304
-63.90371
-68.67437
-69.80109
-66.33472
-58.2467
-46.49208
-32.76838
-19.00244
-6.727749
3.257107
10.9313
16.76962
21.26035
24.69405
27.10529
28.4073
28.62942
27.98278
26.83844
25.53275
24.27912
23.08894
21.88235
20.56945
19.1359
17.78764
16.8897
16.79889
17.66163
19.31441
21.32137
23.12555
24.33674
24.80553
24.69087
24.32788
24.01944
23.84729
23.63469
23.06942
21.83187
19.83903
17.25916
14.46077
11.83632
9.605404
7.725483
5.807148
3.407555
0.1045914
-4.205326
-9.305534
-14.6952
-19.828
-24.33343
-28.09962
-31.39034
-34.66634
-38.38247
-42.85529
-48.15364
-54.02121
-59.83936
-64.72606
-67.60732
-67.3799
-63.29878
-55.26906
-43.9885
-30.80524
-17.30351
-4.757832
6.084824
15.04053
22.30317
28.16423
32.81493
36.39184
39.03397
40.90554
42.19053
42.92947
43.05743
42.4395
41.04205
39.03203
36.78269
34.71299
33.21972
32.53165
32.66438
33.39161
34.19282
34.35436
33.20811
30.41031
26.10397
20.99618
16.04721
12.0573
9.326244
7.413471
5.398136
2.26762
-2.646828
-9.378487
-17.36298
-25.66011
-33.41185
-40.07219
-45.64626
-50.57574
-55.48473
-60.84496
-66.56296
-71.82115
-75.17318
-75.11078
-70.59598
-61.72349
-49.78412
-37.07877
-26.21681
-19.33665
-17.49628
-20.43176
-26.6686
-33.86694
-39.46514
-41.23289
-37.91978
-29.53451
-17.27382
-3.127075
10.82162
22.96566
32.50504
39.42821
44.1789
47.3879
49.55416
51.12254
52.42435
53.70296
55.08548
56.49424
57.65596
58.19995
57.84729
56.54799
54.59612
52.45882
50.73502
49.89838
50.08004
50.97807
51.95864
52.16875
50.88069
47.70095
42.79518
36.86279
30.94232
26.01591
22.67265
20.88514
20.05713
19.28574
17.71907
14.85902
10.71233
5.715446
0.4432068
-4.598511
-9.199707
-13.45036
-17.60342
-21.94613
-26.56829
-31.35479
-36.00029
-40.21907
-43.77637
-46.6309
-48.85096
-50.65458
-52.33334
-54.33807
-57.1384
-61.01313
-65.78854
-70.55678
-73.70836
-73.30867
-67.7833
-56.63438
-40.84849
-22.59672
-4.486561
11.23545
23.4334
32.03002
37.7304
41.43917
43.88111
45.42863
46.22385
46.35829
45.91902
44.9881
43.54121
41.426
38.52943
34.85755
30.6457
26.30909
22.34725
19.21031
17.19567
16.35818
16.49506
17.20105
17.92778
18.18501
17.65424
16.29575
14.29803
12.07369
10.07384
8.596325
7.739943
7.325011
7.013429
6.438498
5.348104
3.590942
1.187208
-1.694073
-4.847174
-7.968365
-10.77867
-13.11193
-14.95802
-16.58257
-18.42901
-20.94399
-24.49343
-29.03132
-34.23481
-39.46852
-44.07555
-47.54367
-49.64629
-50.52534
-50.66334
-50.81251
-51.71936
-53.78573
-56.75637
-59.55652
-60.51283
-57.8793
-50.58093
-38.65395
-23.48921
-7.270779
7.648525
19.64235
28.11913
33.46625
36.59083
38.39073
39.50705
40.17622
40.48071
40.44784
40.1767
39.8031
39.33867
38.67945
37.59785
35.97555
33.8437
31.45066
29.23702
27.59729
26.73549
26.51383
26.5134
26.15131
24.97808
22.84499
19.8975
16.479
12.95127
9.577908
6.369465
3.337437
0.4767342
-2.065014
-4.030437
-5.209873
-5.593544
-5.490234
-5.420006
-5.997124
-7.616226
-10.41164
-14.19163
-18.50329
-22.81841
-26.66756
-29.82861
-32.33914
-34.55595
-37.04469
-40.45426
-45.3623
-51.84883
-59.3007
-66.34619
-71.15935
-71.92227
-67.47182
-57.76877
-44.05009
-28.44949
-13.25395
-0.2664032
9.624977
16.45507
20.82328
23.47252
24.98759
25.70577
25.83004
25.617
25.23669
24.82719
24.36615
23.70456
22.68787
21.24497
19.4964
17.62646
15.85671
14.33114
13.0649
12.07381
11.31824
10.74219
10.1897
9.474091
8.327309
6.56781
4.190376
1.433029
-1.301682
-3.674271
-5.520103
-6.997314
-8.494377
-10.47414
-13.32428
-17.18549
-21.89038
-27.10471
-32.42284
-37.48543
-42.10483
-46.28542
-50.14513
-53.98032
-58.15923
-63.08106
-68.98567
-75.6852
-82.33788
-87.38762
-88.92255
-85.2804
-75.80536
-61.24638
-43.7265
-25.94955
-10.27008
2.045687
11.06795
17.81663
23.59955
29.28991
35.16151
40.85931
45.85017
49.72558
52.31334
53.67854
53.99747
53.43267
52.08025
50.05987
47.66757
45.32805
43.57055
42.78983
43.08988
44.16512
45.37968
46.0131
45.54646
43.86175
41.23673
38.25626
35.44039
33.21161
31.65389
30.49942
29.29972
27.56357
24.89598
21.20089
16.7606
11.97106
7.384289
3.235046
-0.5656891
-4.413284
-8.779747
-13.99918
-20.0844
-26.67151
-33.27195
-39.34035
-44.5275
-48.70485
-51.98892
-54.71423
-57.42995
-60.82658
-65.54928
-71.98338
-79.77612
-87.70347
-93.72461
-95.49854
-91.25938
-80.5488
-64.50366
-45.53838
-26.54571
-9.832375
3.462288
13.48741
21.23296
27.78937
33.90696
39.85276
45.56348
50.80545
55.384
59.08989
61.66234
62.87219
62.56273
60.81041
57.93803
54.4682
50.99672
48.08072
46.1241
45.29829
45.4619
46.24409
47.13176
47.57953
47.26118
46.11658
44.35545
42.26648
40.07635
37.8472
35.56923
33.23106
30.83331
28.42978
25.97688
23.31793
20.15266
16.29225
11.74722
6.803619
1.910034
-2.54216
-6.357849
-9.669281
-12.85393
-16.33888
-20.43663
-25.2285
-30.46432
-35.80164
-40.87883
-45.40314
-49.32773
-52.85826
-56.29147
-59.9966
-64.35474
-69.58957
-75.65034
-82.03261
-87.54768
-90.44916
-88.86752
-81.5132
-68.35123
-50.87466
-31.61826
-13.33722
1.985016
13.66234
22.2933
29.06656
35.0659
40.77344
46.08334
50.63818
54.16478
56.65164
58.20676
58.87195
58.55176
57.03549
54.21552
50.29736
45.89473
41.79785
38.73706
37.06386
36.59578
36.81184
37.0661
36.88206
36.1264
34.95087
33.6055
32.30193
31.08318
29.83308
28.40982
26.72729
24.76256
22.56874
20.19858
17.69052
15.05135
12.29762
9.444534
6.504089
3.531662
0.5816498
-2.393204
-5.53923
-9.070999
-13.18362
-17.9274
-23.09789
-28.32201
-33.13576
-37.1246
-40.14578
-42.40512
-44.3187
-46.41591
-49.14742
-52.78101
-57.31345
-62.30286
-66.81222
-69.48115
-68.72135
-63.28825
-52.75065
-37.91331
-20.63983
-3.351463
11.76913
23.37908
31.24227
36.06769
38.92679
40.73689
41.9835
42.71546
42.77933
42.03455
40.5509
38.49559
36.09349
33.46507
30.59827
27.4686
24.16248
20.95332
18.25555
16.49174
15.88042
16.36823
17.53307
18.77567
19.52014
19.36848
18.22137
16.23998
13.78898
11.27934
9.11097
7.585831
6.89299
7.116066
8.191422
9.89901
11.82076
13.44409
14.17465
13.61176
11.62434
8.431244
4.516968
0.4877167
-3.180752
-6.262711
-8.809464
-11.1625
-13.69212
-16.62607
-19.95992
-23.41868
-26.68709
-29.51064
-31.89557
-34.09363
-36.58105
-39.87049
-44.40107
-50.42759
-57.74599
-65.72436
-73.03139
-77.83916
-78.2372
-72.90095
-61.64201
-45.70478
-27.53186
-9.926624
4.722075
15.13782
21.27822
24.04797
24.64203
24.14596
23.23028
22.20718
21.2923
20.64061
20.45043
20.75683
21.41412
22.06247
22.31107
21.89967
20.88506
19.62212
18.53405
17.99953
18.12371
18.71675
19.40996
19.77974
19.53566
18.59899
17.13707
15.40358
13.67393
12.14231
10.90319
9.928043
9.143469
8.41251
7.506729
6.180536
4.204445
1.518236
-1.748344
-5.25976
-8.574594
-11.40751
-13.6078
-15.38546
-17.12619
-19.28029
-22.14902
-25.81145
-30.01079
-34.28977
-38.13657
-41.11874
-43.12037
-44.40554
-45.568
-47.368
-50.46942
-55.10657
-60.85129
-66.52618
-70.32237
-70.36552
-65.26942
-54.78828
-39.96165
-22.8517
-5.836033
9.103895
20.90632
29.55298
35.62507
39.90566
42.93329
44.92605
45.94012
46.04184
45.43742
44.44726
43.38968
42.4103
41.50411
40.52137
39.2751
37.66774
35.71671
33.5448
31.35143
29.33189
27.65574
26.44983
25.71751
25.33144
25.09729
24.71391
23.96153
22.74591
21.11019
19.18979
17.16882
15.14886
13.07851
10.88777
8.448502
5.721313
2.742725
-0.3164864
-3.207024
-5.709919
-7.745396
-9.45731
-11.17153
-13.31889
-16.1737
-19.78814
-23.95438
-28.23215
-32.23364
-35.7228
-38.62023
-41.12405
-43.58919
-46.40984
-49.97419
-54.62005
-60.39614
-66.91005
-73.14336
-77.42697
-77.8504
-72.87366
-62.03426
-46.27921
-27.79972
-9.320755
6.814243
19.30534
28.05087
33.87195
37.87142
40.90298
43.35984
45.28769
46.66579
47.54916
48.06989
48.35502
48.35071
47.86143
46.64646
44.54667
41.73733
38.74288
36.25394
34.82533
34.6664
35.52578
36.81543
37.8814
38.26326
37.87673
36.81487
35.30101
33.46531
31.32082
28.87358
26.18993
23.50128
21.09603
19.19097
17.75911
16.57129
15.21983
13.31596
10.62866
7.156055
3.143379
-1.080601
-5.182205
-9.038948
-12.70583
-16.3709
-20.25288
-24.44147
-28.84916
-33.24155
-37.34113
-40.92542
-43.94606
-46.54727
-49.09407
-52.10373
-56.06265
-61.26365
-67.64696
-74.53962
-80.66119
-84.30888
-83.74995
-77.79994
-66.3266
-50.45467
-32.27843
-14.35609
1.168962
13.04793
21.14184
26.12716
29.01561
30.67088
31.66209
32.27935
32.66044
32.97757
33.31741
33.69019
33.97022
33.94665
33.46012
32.53841
31.43056
30.52962
30.26768
30.92583
32.4826
34.70456
37.04544
38.87561
39.59507
38.88164
36.7643
33.60153
29.99743
26.48003
23.43715
20.90473
18.65627
16.32985
13.60663
10.25589
6.220911
1.632434
-3.297426
-8.224497
-12.87872
-17.05297
-20.74855
-24.16904
-27.69016
-31.62235
-36.09444
-40.95049
-45.79171
-50.13397
-53.58195
-55.96223
-57.4345
-58.48117
-59.74971
-61.90595
-65.45077
-70.43269
-76.24995
-81.57223
-84.52873
-83.18488
-76.22374
-63.47258
-46.17298
-26.7011
-7.763987
8.442043
20.79013
29.32211
34.86791
38.52638
41.14486
43.17282
44.74665
45.96898
46.94472
47.84669
48.73012
49.50818
50.0119
50.05639
49.61549
48.77103
47.8767
47.27312
47.29734
48.02566
49.20517
50.32318
50.74835
49.96685
47.72195
44.19016
39.79095
35.16192
30.79267
26.90042
23.36412
19.86045
16.11234
11.983
7.617771
3.314804
-0.5251389
-3.764074
-6.497952
-9.072216
-11.88355
-15.13782
-18.72394
-22.31254
-25.60583
-28.43941
-30.99165
-33.63906
-36.70675
-40.37029
-44.44136
-48.54114
-52.25128
-55.35379
-57.86983
-60.07774
-62.42324
-65.28566
-69.05498
-73.82365
-79.36327
-84.88651
-89.11642
-90.34377
-86.92641
-77.86833
-63.26948
-44.63246
-24.34462
-5.041861
11.25899
23.64209
32.41565
38.54132
43.07704
46.75093
49.72562
51.96765
53.44453
54.31284
54.82006
55.19409
55.45179
55.45167
55.00286
53.98748
52.527
50.93895
49.55625
48.61596
48.15672
47.95887
47.72511
47.12326
45.846
43.85138
41.24344
38.2615
35.25476
32.43631
29.83823
27.36584
24.83253
22.03432
18.97811
15.77364
12.59747
9.629948
6.921379
4.386021
1.812145
-0.965023
-4.08181
-7.430683
-10.77597
-13.85489
-16.46187
-18.61901
-20.5973
-22.82235
-25.66546
-29.2668
-33.35609
-37.46193
-41.08403
-43.9095
-46.05758
-47.99172
-50.37669
-53.84221
-58.71243
-64.85454
-71.57729
-77.61345
-81.26887
-80.79765
-74.93688
-63.42765
-47.23008
-28.39346
-9.455107
7.273861
20.40568
29.67115
35.73113
39.62497
42.33747
44.42318
46.05022
47.15177
47.66807
47.67725
47.33215
46.80069
46.08604
45.12176
43.79154
41.98273
39.75388
37.33124
35.03622
33.1095
31.60432
30.26065
28.66041
26.42652
23.37665
19.68054
15.83306
12.41601
9.859763
8.310574
7.567297
7.199683
6.750618
5.803662
4.100771
1.56113
-1.74638
-5.595628
-9.606857
-13.35004
-16.46286
-18.80997
-20.57827
-22.19169
-24.13414
-26.76514
-30.07681
-33.75581
-37.33104
-40.44481
-43.00782
-45.27458
-47.66823
-50.57008
-54.26024
-58.8129
-64.05232
-69.59354
-74.65284
-78.00091
-78.11753
-73.59771
-63.71219
-48.90723
-30.85718
-11.95379
5.392169
19.55303
30.04408
37.37286
42.48272
46.20659
48.88264
50.42115
50.66855
49.72651
48.02119
46.2526
45.00198
44.49135
44.55459
44.71796
44.51778
43.75041
42.49944
41.02663
39.60806
38.32266
37.0533
35.5752
33.64503
31.07581
27.75854
23.67895
18.93559
13.78583
8.573969
3.663887
-0.6399345
-4.218377
-7.119057
-9.539825
-11.68005
-13.73594
-15.78739
-17.89313
-20.2292
-23.07205
-26.72035
-31.34414
-36.8316
-42.72029
-48.34357
-53.0048
-56.30257
-58.29812
-59.4801
-60.6102
-62.45626
-65.58057
-70.21918
-76.1461
-82.54633
-87.94863
-90.47145
-88.14644
-79.69373
-65.04372
-45.58915
-23.89004
-2.829037
15.23717
29.15263
38.92694
45.46314
49.82277
52.75268
54.59509
55.44451
55.40103
54.75761
53.92603
53.15921
52.4469
51.48766
49.84702
47.38559
44.33535
41.3185
39.08588
38.1118
38.36893
39.34004
40.2862
40.50138
39.66937
37.75188
34.9938
31.76578
28.37065
25.07684
22.00665
19.17934
16.47437
13.76989
10.87354
7.716553
4.406212
1.122864
-1.850967
-4.349152
-6.390251
-8.21199
-10.15844
-12.64515
-16.01121
-20.32068
-25.41266
-30.89342
-36.31953
-41.36101
-45.91261
-50.07867
-54.17258
-58.586
-63.69929
-69.79698
-76.74162
-83.8685
-89.79897
-92.60852
-90.41328
-82.0117
-67.52706
-48.52986
-27.66228
-7.63147
9.561676
23.14751
33.51709
41.58629
48.22846
53.88587
58.56023
62.05212
64.31643
65.58803
66.24825
66.63432
66.83701
66.65224
65.79053
64.04375
61.48059
58.48862
55.59048
53.23349
51.59693
50.51756
49.63869
48.54307
46.98638
44.95211
42.65086
40.34696
38.26388
36.46775
34.88717
33.28029
31.34565
28.84674
25.69545
22.05016
18.22305
14.52127
11.09789
7.911041
4.72731
1.295692
-2.446594
-6.351585
-10.09025
-13.40852
-16.29282
-19.04427
-22.11171
-25.92518
-30.61611
-35.94966
-41.44976
-46.5494
-50.86683
-54.29197
-57.04041
-59.51109
-62.21059
-65.63242
-70.08641
-75.65602
-81.89919
-87.6736
-91.30144
-90.86999
-84.92375
-73.15706
-56.71362
-37.86184
-19.39921
-3.602669
8.388592
16.57765
21.80128
25.08759
27.20225
28.52168
29.22619
29.45936
29.52899
29.7269
30.23024
30.92254
31.49227
31.60961
31.1031
30.15815
29.1722
28.61728
28.75049
29.5121
30.54613
31.39031
31.63932
31.16971
30.10531
28.63787
26.91442
24.95265
22.62081
19.7888
16.41178
12.52587
8.296034
3.880445
-0.5556622
-4.950161
-9.186712
-13.16672
-16.77853
-19.90225
-22.4942
-24.6234
-26.49807
-28.4209
-30.73539
-33.60594
-37.04963
-40.82668
-44.58342
-47.94639
-50.7703
-53.17684
-55.56028
-58.46585
-62.39289
-67.55975
-73.73251
-80.02802
-84.92932
-86.57394
-83.19897
-73.88095
-58.96225
-40.12909
-19.8616
-0.6889648
15.58942
28.24093
37.49184
44.02291
48.51124
51.39726
52.92739
53.38227
53.15079
52.69312
52.28625
51.90205
51.19183
49.74781
47.37941
44.21177
40.70327
37.43439
34.90483
33.33857
32.64284
32.58631
32.85215
33.21709
33.48
33.4965
33.12627
32.28253
30.98601
29.3166
27.42158
25.36613
23.10922
20.44007
17.18945
13.20612
8.558662
3.472145
-1.659981
-6.418144
-10.62199
-14.3071
-17.8381
-21.64991
-26.1018
-31.33607
-37.06381
-42.75974
-47.83082
-51.88145
-54.85452
-57.06998
-59.09283
-61.59428
-65.16189
-70.05338
-76.06508
-82.40544
-87.67368
-90.09396
-87.91714
-80.03168
-66.43568
-48.38207
-28.03757
-7.866112
10.12607
24.92036
36.52244
45.66145
53.21415
59.84292
65.7432
70.77538
74.65314
77.19266
78.45789
78.62964
77.98494
76.68333
74.87024
72.65192
70.17827
67.71326
65.508
63.71819
62.23042
60.69608
58.69731
55.93387
52.47398
48.7122
45.23676
42.53728
40.8093
39.76704
38.80929
37.25158
34.51935
30.44087
25.28481
19.63764
14.19564
9.499893
5.823738
3.126801
1.189087
-0.3185196
-1.71006
-3.270737
-5.249893
-7.933815
-11.56738
-16.21999
-21.77836
-27.85117
-33.91484
-39.37921
-43.80573
-47.04087
-49.33083
-51.31944
-53.81947
-57.67287
-63.33818
-70.77509
-79.19736
-87.19555
-92.93654
-94.56505
-90.70531
-80.83083
-65.66335
-46.97503
-27.27669
-9.15148
5.471672
15.64071
21.47473
23.91084
24.21114
23.53828
22.79603
22.53157
22.96142
24.04878
25.49734
26.83957
27.52512
27.12745
25.42547
22.60492
19.17997
15.82219
13.27661
12.00636
12.15765
13.44623
15.29444
16.93321
17.75287
17.36224
15.7222
13.15453
10.03075
6.72128
3.395623
0.07968521
-3.270674
-6.58204
-9.706342
-12.4617
-14.64646
-16.29475
-17.67928
-19.25875
-21.59612
-25.07173
-29.6947
-35.13857
-40.83595
-46.15179
-50.63084
-54.16922
-56.92133
-59.33931
-61.95158
-65.29597
-69.72469
-75.29008
-81.42259
-86.88055
-89.80277
-88.2254
-80.7919
-67.29781
-49.00391
-28.28935
-7.918587
9.948521
24.12501
34.62647
42.2001
47.6968
51.73205
54.57166
56.24878
56.85163
56.69569
56.15984
55.53535
54.91581
54.10509
52.80133
50.78951
48.06822
44.88992
41.68315
38.83141
36.49963
34.62622
32.9352
31.12336
28.98878
26.52993
23.90829
21.36571
19.14879
17.42177
16.23168
15.37474
14.49898
13.0369
10.50622
6.690094
1.800011
-3.542145
-8.506371
-12.41551
-15.08816
-16.85811
-18.41286
-20.51121
-23.58643
-27.70157
-32.50597
-37.48553
-42.16889
-46.30038
-49.92777
-53.40684
-57.28983
-62.20671
-68.72691
-77.00554
-86.54057
-95.99184
-103.2195
-105.8113
-101.823
-90.51126
-72.74586
-50.87131
-27.90413
-6.629425
11.17284
25.00244
35.38286
43.3082
49.64978
54.91208
59.18712
62.41638
64.55788
65.68283
65.96356
65.55119
64.63142
63.30426
61.65375
59.79704
57.8956
56.13716
54.70992
53.73611
53.14705
52.69528
51.97942
50.59645
48.26657
45.02689
41.17644
37.23721
33.76831
31.12189
29.31215
28.047
26.85381
25.19849
22.74197
19.37314
15.24683
10.72328
6.20314
2.008789
-1.74231
-5.185501
-8.636093
-12.50844
-17.08347
-22.40614
-28.19151
-33.96573
-39.27594
-43.89809
-47.9471
-51.82198
-56.01903
-60.99034
-66.97118
-73.82014
-80.99998
-87.40962
-91.48305
-91.44089
-85.82179
-74.0399
-56.88644
-36.43443
-15.38297
3.744598
19.46141
31.58615
40.91882
48.55316
55.27925
61.24171
66.09291
69.47615
71.26907
71.71469
71.30278
70.41026
69.19899
67.58948
65.44942
62.76822
59.83261
57.08255
54.93002
53.56076
52.72935
51.9575
50.6685
48.49681
45.41554
41.7312
37.89046
34.29575
31.16672
28.50455
26.16615
23.94908
21.67239
19.17273
16.38634
13.27551
9.836288
6.157745
2.307327
-1.575348
-5.292374
-8.660507
-11.62505
-14.30821
-17.05238
-20.29037
-24.31178
-29.11374
-34.4109
-39.68456
-44.53772
-48.79536
-52.6792
-56.62524
-61.10289
-66.41977
-72.57022
-79.17505
-85.36328
-89.83771
-90.96391
-87.26726
-77.94143
-63.35622
-45.14127
-25.76984
-7.866837
6.716339
17.29042
24.28004
28.79284
31.88726
34.20839
35.88972
36.81154
36.85772
36.11037
34.82358
33.26329
31.58349
29.74542
27.68327
25.34164
22.82852
20.37134
18.20145
16.43742
15.02926
13.80437
12.53957
11.16734
9.702499
8.287224
7.071518
6.059166
5.120316
4.022827
2.624519
0.8440094
-1.221367
-3.465034
-5.863373
-8.49659
-11.56271
-15.26898
-19.68692
-24.65173
-29.82085
-34.74294
-39.01436
-42.47002
-45.21132
-47.66869
-50.51305
-54.46438
-60.02058
-67.18577
-75.18074
-82.42904
-86.87663
-86.49519
-80.05264
-67.62254
-50.66807
-31.567
-12.8941
3.454926
16.62241
26.71804
34.4119
40.35392
44.89234
48.08553
49.89366
50.40018
49.98736
49.1497
48.31474
47.6857
47.16918
46.48967
45.45979
44.03948
42.31104
40.52773
38.79168
37.00316
34.83926
31.96357
28.18068
23.63722
18.78987
14.14925
10.12478
6.850197
4.081993
1.414139
-1.557175
-5.035416
-8.922394
-12.93554
-16.75843
-20.20824
-23.3418
-26.46896
-29.93555
-33.98613
-38.54929
-43.27076
-47.61281
-51.10915
-53.60825
-55.40047
-57.22337
-59.92726
-64.30167
-70.64928
-78.58768
-86.83812
-93.42894
-96.10077
-92.96361
-83.1987
-67.4007
-47.51297
-26.24016
-6.181473
10.88324
24.36446
34.66435
42.68866
49.27602
54.87137
59.54332
63.13187
65.54988
66.92111
67.43982
67.32164
66.69331
65.57327
63.98595
62.09529
60.17377
58.6179
57.75674
57.68671
58.20847
58.86746
59.10405
58.41396
56.61801
53.84644
50.53094
47.1922
44.18575
41.642
39.36159
36.95526
34.03568
30.39503
26.09091
21.40797
16.72801
12.35341
8.480286
5.028885
1.676514
-1.958252
-6.313751
-11.63094
-17.83704
-24.52779
-31.12453
-37.02927
-41.8998
-45.85216
-49.36263
-53.16769
-58.0045
-64.44781
-72.60962
-82.07817
-91.64941
-99.44301
-103.2243
-100.9699
-91.75763
-76.16351
-56.2822
-35.07991
-15.42403
0.8268127
13.20981
22.4267
29.67157
35.87286
41.36858
45.89029
48.96834
50.30122
50.04663
48.68039
46.78235
44.79376
42.87538
41.00056
39.12338
37.36313
35.95773
35.22302
35.24725
35.77339
36.21332
35.88571
34.31462
31.44981
27.70415
23.75668
20.29474
17.70531
15.95757
14.6232
13.10066
10.85031
7.619446
3.567749
-0.8217316
-4.945618
-8.426178
-11.25745
-13.8907
-17.01378
-21.21423
-26.71292
-33.19405
-40.00391
-46.36858
-51.73032
-55.91599
-59.20816
-62.15205
-65.40288
-69.55219
-74.9519
-81.54181
-88.56145
-94.4422
-96.98544
-93.98515
-84.09258
-67.49292
-46.12186
-23.12556
-1.772354
15.62546
28.36366
37.13242
43.31023
48.08415
52.03151
55.03566
56.80852
57.23882
56.60107
55.42162
54.13361
52.94032
51.72621
50.3398
48.66714
46.86031
45.20345
44.00584
43.43608
43.41805
43.66969
43.72429
43.15407
41.58786
38.91528
35.32248
31.22049
27.19179
23.71078
21.01222
18.90164
16.83458
14.15105
10.37459
5.467331
-0.1930542
-5.925659
-11.11125
-15.35802
-18.72322
-21.58487
-24.47162
-27.79317
-31.67589
-36.01334
-40.44368
-44.67757
-48.4561
-51.73698
-54.69156
-57.66325
-61.11264
-65.50133
-71.18834
-78.06984
-85.40042
-91.63222
-94.59485
-92.18767
-83.06474
-67.36546
-46.84323
-24.35321
-2.88533
15.27139
29.19159
39.19727
46.32825
51.70934
56.03021
59.45625
61.79878
62.8766
62.64886
61.37453
59.38232
57.02028
54.56248
52.13185
49.79921
47.66508
45.90399
44.66243
44.05751
43.98607
44.09731
43.95348
43.18881
41.59415
39.25821
36.453
33.42737
30.4449
27.63049
24.94414
22.32414
19.65337
16.78352
13.57213
9.89785
5.666435
0.968689
-3.938126
-8.724609
-13.02048
-16.69413
-19.78651
-22.6702
-25.76785
-29.43997
-33.72849
-38.33556
-42.78023
-46.60944
-49.72276
-52.37328
-55.07129
-58.34782
-62.58704
-67.93352
-74.27579
-81.20475
-87.80047
-92.6304
-93.86346
-89.78696
-79.55458
-63.67612
-44.0725
-23.47679
-4.494316
11.25006
23.42638
32.72053
40.19082
46.53226
51.86491
55.78346
57.83846
57.84835
56.12418
53.29929
50.06383
46.94286
44.12225
41.58633
39.29204
37.32442
35.8952
35.26649
35.57313
36.65894
38.07646
39.19121
39.4342
38.46462
36.35239
33.52102
30.58306
28.0937
26.28463
24.99085
23.74474
22.02341
19.48136
16.05744
12.00272
7.715309
3.562866
-0.1892319
-3.494049
-6.490173
-9.454914
-12.73638
-16.63644
-21.20842
-26.22147
-31.25012
-35.79179
-39.50589
-42.35026
-44.63246
-46.87261
-49.67457
-53.5624
-58.86119
-65.50562
-72.82308
-79.40396
-83.25084
-82.3764
-75.47704
-62.58231
-45.1824
-25.75902
-6.959541
9.308926
22.31264
32.33007
40.0651
46.11847
50.71239
53.77187
55.25766
55.3213
54.38827
52.92378
51.22699
49.34758
47.19638
44.66001
41.80789
38.92336
36.43055
34.73632
34.06821
34.34111
35.14204
35.89013
35.98858
35.04295
33.03778
30.28422
27.2675
24.45286
22.0873
20.09671
18.22667
16.06523
13.30017
9.861065
5.94965
1.932217
-1.754475
-4.826519
-7.227703
-9.20126
-11.21649
-13.79334
-17.28408
-21.67892
-26.66286
-31.73248
-36.44549
-40.53228
-44.01662
-47.17622
-50.39361
-54.10848
-58.71395
-64.42918
-70.98428
-77.41782
-82.03579
-82.84058
-78.18914
-67.57418
-51.94298
-33.53966
-15.10704
1.00589
13.53121
22.39268
28.36193
32.39612
35.22392
37.12862
38.06296
37.92377
36.7618
34.83643
32.51535
30.16016
27.98112
26.06414
24.33323
22.73513
21.34657
20.37105
20.04705
20.46313
21.49451
22.71894
23.57954
23.59171
22.54077
20.64977
18.48784
16.63622
15.46669
14.88048
14.32117
13.0939
10.63722
6.890213
2.359177
-2.140839
-5.8461
-8.447174
-10.25461
-12.05721
-14.74593
-18.86868
-24.35176
-30.53436
-36.46333
-41.31465
-44.69258
-46.81563
-48.39149
-50.31505
-53.38914
-58.08614
-64.37527
-71.62323
-78.44659
-82.86658
-82.83282
-76.90266
-64.87254
-48.10197
-29.12473
-10.81894
4.487503
15.70514
22.9613
27.17976
29.41391
30.43692
30.58986
30.02774
28.95168
27.69356
26.62784
25.97078
25.64821
25.32512
24.62793
23.3046
21.44617
19.44289
17.78593
16.83023
16.6134
16.74141
16.57817
15.48228
13.13754
9.663071
5.603699
1.693771
-1.463654
-3.622192
-4.999252
-6.136322
-7.604019
-9.736099
-12.4799
-15.43539
-18.09293
-20.0701
-21.36757
-22.37808
-23.70859
-25.90575
-29.19359
-33.35194
-37.85741
-42.08086
-45.55174
-48.12283
-50.0351
-51.73996
-53.86032
-56.97729
-61.56995
-67.74042
-74.91589
-81.70273
-85.93593
-85.35214
-78.34692
-64.77261
-46.13369
-25.16509
-4.892433
12.3833
25.71413
35.43725
42.60026
48.27348
53.00465
56.81351
59.41564
60.65599
60.65749
59.81226
58.59019
57.27985
55.9286
54.38001
52.48927
50.31588
48.23239
46.71253
46.13821
46.60568
47.74166
48.91203
49.33443
48.48465
46.20495
42.74891
38.64607
34.47842
30.67267
27.34078
24.30797
21.17415
17.57448
13.33759
8.607582
3.764431
-0.6846619
-4.333286
-7.089607
-9.192963
-11.18156
-13.67867
-17.12763
-21.63918
-26.94201
-32.50253
-37.71962
-42.18796
-45.77223
-48.69936
-51.4524
-54.6122
-58.7234
-64.08696
-70.70325
-78.05726
-85.03798
-89.89877
-90.6602
-85.64524
-74.21904
-57.16319
-36.59292
-15.29949
4.187982
20.28259
32.71387
42.12305
49.5597
55.89691
61.51527
66.34171
70.1349
72.68333
73.90634
73.83659
72.588
70.33322
67.3111
63.84157
60.34132
57.28341
55.10367
54.04593
54.07558
54.78355
55.52723
55.62703
54.58893
52.30857
49.0326
45.24598
41.37537
37.68832
34.21544
30.82994
27.48642
24.22245
21.19137
18.5218
16.17846
13.90384
11.31092
8.071201
4.01098
-0.6815872
-5.533779
-9.992584
-13.65628
-16.53763
-19.03831
-21.82865
-25.5147
-30.3693
-36.1851
-42.34011
-48.0848
-52.79704
-56.26359
-58.71109
-60.7386
-63.14852
-66.75377
-72.11295
-79.2375
-87.36127
-94.76484
-99.09481
-98.00708
-90.04519
-75.36601
-55.8886
-34.7146
-15.05194
0.8164063
12.12444
19.47346
24.17872
27.52086
30.29097
32.8027
35.03102
36.93101
38.47496
39.60205
40.1495
39.88404
38.67916
36.58447
33.97014
31.35839
29.31501
28.25779
28.3395
29.46117
31.23676
33.08067
34.39581
34.68893
33.70629
31.59273
28.80589
25.94928
23.52612
21.72124
20.2613
18.63227
16.21976
12.66694
8.009186
2.675758
-2.742203
-7.711075
-11.92355
-15.40121
-18.40192
-21.35068
-24.67575
-28.69679
-33.49534
-38.86604
-44.32953
-49.25551
-53.10457
-55.5944
-56.95002
-57.81109
-59.05781
-61.59238
-65.97614
-72.16322
-79.24445
-85.52434
-88.70142
-86.58681
-77.93189
-62.97292
-43.63317
-22.8152
-3.531963
12.15625
23.53112
31.17559
36.31614
40.0865
43.13888
45.59048
47.29966
48.1419
48.16354
47.54733
46.49444
45.15175
43.58828
41.8133
39.87675
37.87081
35.98967
34.43461
33.34264
32.69862
32.33896
31.96519
31.29119
30.1091
28.39977
26.34454
24.1696
22.08791
20.16028
18.3347
16.45966
14.42944
12.17908
9.672407
6.887749
3.789558
0.3199596
-3.478876
-7.441336
-11.31511
-14.80873
-17.80008
-20.38135
-22.87971
-25.69089
-29.15227
-33.26952
-37.78435
-42.1841
-45.94657
-48.77964
-50.69718
-52.03188
-53.31612
-55.202
-58.24152
-62.76762
-68.54139
-74.54132
-78.97041
-79.6244
-74.50822
-62.73622
-45.04966
-23.7029
-1.77367
17.8996
33.62873
45.13
53.21941
59.15556
63.89635
67.84656
70.93759
72.97134
73.95397
74.12355
73.81475
73.24709
72.37083
70.9537
68.73507
65.61789
61.76361
57.56294
53.47101
49.86568
46.8992
44.52797
42.53289
40.66037
38.71406
36.54053
34.0843
31.43638
28.74225
26.16112
23.85112
21.77422
19.77706
17.5778
14.79222
11.13342
6.551003
1.254267
-4.29029
-9.489181
-13.91833
-17.45557
-20.28693
-22.9392
-25.96484
-29.71832
-34.25108
-39.30034
-44.39621
-49.12096
-53.23411
-56.71407
-59.799
-62.87939
-66.41808
-70.89598
-76.62988
-83.48804
-90.67523
-96.58411
-98.98333
-95.78913
-85.78583
-69.39199
-48.75133
-27.02968
-7.38435
8.055824
18.73954
25.46558
29.60397
32.43653
34.58374
36.08958
36.8033
36.68994
35.92968
34.91447
33.98797
33.24489
32.6105
31.86374
30.85806
29.63879
28.44761
27.56748
27.25224
27.52328
28.13473
28.7405
28.96827
28.58535
27.53871
25.92979
23.95237
21.90936
20.03273
18.48338
17.34099
16.51881
15.82402
15.00938
13.83513
12.19469
10.15511
7.978786
5.969685
4.415863
3.363247
2.59911
1.739685
0.3272781
-1.87397
-4.799191
-8.00713
-10.95696
-13.13261
-14.32978
-14.70464
-14.71705
-15.02964
-16.3527
-19.37795
-24.61989
-32.1865
-41.38967
-50.67309
-57.8396
-60.77405
-58.34458
-51.11195
-41.32493
-32.18299
-26.6077
-26.03671
-30.01327
-36.52679
-43.01332
-47.34231
-48.44268
-46.23063
-41.13315
-33.6642
-24.19462
-13.14729
-1.348545
9.980049
19.39116
25.70745
28.49842
28.28739
26.35329
24.21121
23.11677
23.59577
25.44127
27.8042
29.62166
29.95293
28.33876
24.87679
20.17674
15.0428
10.20118
6.06467
2.706518
0.05574608
-1.997979
-3.419601
-4.148399
-4.19984
-3.846608
-3.654695
-4.316952
-6.421351
-10.18812
-15.38533
-21.37015
-27.33332
-32.57263
-36.66261
-39.53633
-41.47353
-42.92226
-44.42005
-46.54299
-49.73889
-54.14652
-59.34669
-64.0685
-66.40465
-64.28932
-56.17276
-41.74991
-22.19014
0.1987991
22.68085
42.88303
59.3174
71.49202
79.63094
84.29269
86.16721
85.88933
84.14153
81.65465
79.12858
77.12424
75.9966
75.74139
76.09941
76.70001
77.09251
77.03914
76.51055
75.67033
74.87479
74.40804
74.37332
74.64311
74.91061
74.7853
74.01137
72.44014
70.09959
67.15572
63.73
59.81939
55.22886
49.68557
42.98971
35.26944
27.04015
19.06743
12.13842
6.660622
2.439944
-1.233658
-5.299439
-10.55786
-17.34932
-25.46864
-34.42345
-43.68047
-52.96539
-62.23872
-71.65965
-81.31121
-91.11327
-100.8312
-110.0477
-118.2714
-124.7204
-128.3215
-127.6806
-121.485
-108.9915
-90.61645
-68.13018
-44.25896
-22.00534
-3.714981
9.501564
17.84831
22.41013
24.61316
25.69826
26.49138
27.45522
28.75803
30.36243
32.0588
33.46503
34.12106
33.66969
32.01715
29.34519
26.10884
22.78117
19.71967
16.96912
14.23156
11.01569
6.896217
1.720566
-4.272697
-10.44437
-16.10458
-20.70264
-24.10383
-26.61904
-28.90268
-31.63069
-35.19141
-39.58857
-44.32898
-48.83955
-52.58286
-55.39185
-57.50103
-59.494
-62.08588
-65.68463
-70.13942
-74.44906
-76.89273
-75.46067
-68.53792
-55.61429
-37.6677
-16.98169
3.591843
21.51595
35.36332
45.03484
51.38681
55.56914
58.34444
59.90102
59.97063
58.31198
55.01898
50.64699
45.95644
41.56557
37.74502
34.31174
30.90039
27.1181
22.80617
18.00895
12.92375
7.817398
2.823685
-1.934288
-6.452911
-10.74638
-14.91491
-19.15535
-23.72313
-28.87967
-34.764
-41.29212
-48.12214
-54.76853
-60.75035
-65.73831
-69.7397
-73.04514
-76.28429
-80.23491
-85.59642
-92.57247
-100.4806
-107.5784
-111.2152
-108.776
-98.6002
-80.89226
-57.78537
-32.67696
-9.006239
10.88824
26.21913
37.57689
46.02168
52.5034
57.38969
60.66521
62.30877
62.53905
61.87963
60.87758
59.79509
58.51711
56.71407
54.04058
50.41613
46.14377
41.80779
38.05777
35.29958
33.44795
31.93555
29.85902
26.25213
20.5221
12.74078
3.570183
-5.811584
-14.26404
-21.07919
-26.21594
-30.33527
-34.54491
-39.9742
-47.35583
-56.80814
-67.60785
-78.13367
-86.14285
-89.14868
-85.20416
-73.60689
-55.24068
-32.48393
-8.493118
13.81407
32.56995
47.21317
58.31429
66.86826
73.73453
79.36343
83.70619
86.55568
87.84995
87.69633
86.3942
84.30725
81.66669
78.63139
75.33081
71.92751
68.75441
66.2394
64.68575
64.12279
64.23941
64.44797
64.11218
62.81335
60.37329
56.93607
52.77722
48.14828
43.25128
38.24358
33.24471
28.38957
23.78792
19.45502
15.29416
11.05679
6.435379
1.187912
-4.836792
-11.63301
-18.98839
-26.54587
-33.87981
-40.59731
-46.55144
-51.89648
-57.0647
-62.56647
-68.68723
-75.23688
-81.58478
-86.93982
-90.65596
-92.6678
-93.46416
-94.02876
-95.60916
-99.28621
-105.6363
-114.2811
-123.6148
-130.8375
-132.6286
-126.1353
-110.2328
-86.13629
-57.12354
-27.4225
-0.8097534
20.59854
36.56183
48.16058
56.91762
64.00809
69.95804
74.85742
78.71381
81.62036
83.77838
85.35007
86.30862
86.50159
85.7334
83.95874
81.45221
78.75122
76.50241
75.23639
75.11188
75.85248
76.83331
77.29837
76.58289
74.34195
70.63721
65.88315
60.7468
55.88654
51.73615
48.37689
45.4541
42.32291
38.33154
33.10233
26.70874
19.67902
12.72989
6.500458
1.250916
-3.169067
-7.27002
-11.69223
-16.9491
-23.23755
-30.33763
-37.72673
-44.69919
-50.70374
-55.46652
-59.17575
-62.36745
-65.84889
-70.45868
-76.81192
-85.0845
-94.73303
-104.291
-111.4381
-113.542
-108.4104
-95.25623
-75.19107
-51.06093
-26.55069
-5.023621
11.47505
22.64458
29.54184
33.7854
36.77863
39.16063
40.93953
41.82339
41.62991
40.45703
38.57932
36.33197
33.83875
31.15822
28.31746
25.53392
23.20549
21.84129
21.79955
23.00177
24.90816
26.65762
27.40065
26.65131
24.49779
21.51251
18.48439
16.03262
14.33188
13.01796
11.4706
9.100983
5.665558
1.400986
-3.110367
-7.241776
-10.5683
-13.01405
-14.93059
-16.86899
-19.38275
-22.81288
-27.18684
-32.19305
-37.37953
-42.26471
-46.51012
-50.08423
-53.18678
-56.28281
-59.97464
-64.73526
-70.58653
-76.86751
-82.04018
-83.95183
-80.51938
-70.39377
-53.70348
-32.19908
-8.804611
13.30713
31.69237
45.23953
54.25389
59.86598
63.38414
65.66913
66.85468
66.68944
64.8867
61.47987
56.93329
52.01605
47.45308
43.71552
40.80096
38.28252
35.62651
32.39146
28.41722
23.89734
19.23569
14.7276
10.52292
6.481857
2.256256
-2.43251
-7.822876
-13.98987
-20.83929
-28.01254
-34.87808
-40.27188
-42.61798
-40.28674
-32.1429
-18.14915
0.2849121
20.54391
39.35544
53.58499
61.04156
60.9381
53.90002
41.64946
26.43274
10.43332
-4.634583
-17.7894
-28.81897
-38.11494
-46.3994
-54.52643
-63.12509
-72.30986
-81.35776
-88.63733
-91.90234
-89.01535
-78.81038
-61.71947
-39.88205
-16.42978
5.423828
23.46375
36.84933
46.1048
52.41647
57.00658
60.62849
63.45563
65.28644
65.79872
64.83145
62.51556
59.27869
55.7177
52.40327
49.71527
47.78943
46.64859
46.24652
46.54892
47.45236
48.73425
50.02876
50.84422
50.82089
49.76424
47.7699
45.157
42.30977
39.54399
37.07031
34.97878
33.26288
31.84682
30.52626
29.02466
27.08168
24.54559
21.50529
18.19472
14.96742
12.08527
9.573914
7.226929
4.673157
1.649536
-1.973709
-6.010239
-10.1218
-13.98738
-17.43533
-20.57854
-23.73421
-27.31194
-31.61642
-36.89446
-43.21613
-50.52562
-58.40823
-65.84367
-71.24196
-72.67044
-68.56786
-58.5213
-43.63653
-26.34827
-9.588104
4.281208
14.20504
20.49446
24.22546
26.46792
27.69758
27.83471
26.64817
24.15916
20.85084
17.5026
14.83312
13.16191
12.38858
12.0607
11.70896
11.10541
10.28151
9.5313
9.139473
9.224102
9.690224
10.28821
10.70311
10.7236
10.37836
9.847412
9.482018
9.551346
10.12987
11.03929
11.87924
12.1034
11.24662
9.160477
6.020096
2.376007
-1.131165
-4.006897
-6.126297
-7.802246
-9.567825
-11.99324
-15.3279
-19.44724
-23.92886
-28.2085
-31.78232
-34.35138
-35.95656
-36.88808
-37.73479
-39.20711
-42.01129
-46.54243
-52.51006
-58.76469
-63.28825
-63.73647
-58.21596
-46.12465
-28.61555
-8.431396
10.916
26.29211
35.84641
39.46399
38.39958
34.61206
29.87863
25.3591
21.45978
18.11981
15.18744
12.51971
10.04947
7.696899
5.273224
2.512024
-0.8396912
-4.858337
-9.372406
-13.91336
-17.92792
-20.91235
-22.61185
-23.13428
-22.92844
-22.64996
-22.96487
-24.31955
-26.73041
-29.80103
-32.84332
-35.15137
-36.35141
-36.50717
-36.10922
-35.89099
-36.5098
-38.29453
-41.11017
-44.49457
-47.92624
-51.0202
-53.63431
-55.85507
-57.90921
-60.0481
-62.57953
-65.83929
-70.09344
-75.3067
-80.7829
-85.01428
-85.92804
-81.55438
-70.87616
-54.53897
-34.74109
-14.5809
3.065491
16.45239
25.33734
30.60599
33.53113
35.14478
35.85675
35.68655
34.63678
32.96017
31.1384
29.63754
28.65546
27.99387
27.21228
25.88722
23.92973
21.66466
19.7083
18.6066
18.60556
19.45609
20.56627
21.26442
21.07161
19.9528
18.23544
16.44701
15.05173
14.19737
13.66548
12.96509
11.55774
9.069489
5.534332
1.383942
-2.779877
-6.425491
-9.429123
-12.15402
-15.30241
-19.50208
-25.0177
-31.54414
-38.29826
-44.39851
-49.1917
-52.49802
-54.63971
-56.24651
-58.04002
-60.69534
-64.63074
-69.82172
-75.53973
-80.20107
-81.61352
-77.51825
-66.58152
-49.10152
-27.16197
-4.012871
17.04906
33.79809
45.71046
53.64102
59.09613
63.3611
66.96781
69.78953
71.49782
71.96835
71.41716
70.29829
68.90654
67.2894
65.23833
62.53152
59.161
55.50937
52.17876
49.72329
48.42082
48.09633
48.25853
48.29553
47.78145
46.55895
44.79205
42.75433
40.64552
38.5413
36.34197
33.90452
31.13487
28.05314
24.86862
21.83373
19.15993
16.93721
15.04016
13.18177
11.03881
8.353901
5.126768
1.624445
-1.842236
-5.078426
-8.170097
-11.47078
-15.42971
-20.32923
-26.09216
-32.27055
-38.26086
-43.52429
-47.79786
-51.17409
-53.99913
-56.87214
-60.4039
-65.18494
-71.52649
-79.21375
-87.17255
-93.41576
-95.42001
-90.97284
-79.1216
-60.74876
-38.46619
-15.70736
4.369172
19.85845
30.4795
37.18166
41.3242
44.04737
45.90087
46.98793
47.34128
47.0652
46.4398
45.76606
45.14897
44.47265
43.4721
41.91977
39.83686
37.61169
35.80435
34.9614
35.36264
36.79969
38.66632
40.21554
40.80127
40.15002
38.47126
36.26485
34.12297
32.39845
31.11362
29.96267
28.52669
26.50451
23.80831
20.66985
17.38726
14.25527
11.32406
8.507193
5.673859
2.778109
-0.04783916
-2.554805
-4.472664
-5.743807
-6.546967
-7.282141
-8.456906
-10.47023
-13.52164
-17.52781
-22.19172
-27.07577
-31.82312
-36.14335
-39.87574
-43.03877
-45.85875
-48.89254
-52.84443
-58.43176
-65.86174
-74.52688
-82.85922
-88.76441
-90.32719
-86.53991
-77.7458
-65.30006
-51.02231
-36.34371
-22.03011
-8.136953
5.426641
18.47593
30.36175
40.16297
47.07666
50.80524
51.74738
50.70581
48.66673
46.35441
44.13675
42.07667
40.09153
38.14127
36.32021
34.82819
33.84004
33.38153
33.25742
33.13046
32.63254
31.46024
29.58325
27.16768
24.54688
22.02394
19.81359
17.8982
16.11771
14.37744
12.59584
10.84358
9.181931
7.577055
5.81531
3.697176
1.05459
-2.093373
-5.443915
-8.564241
-11.08227
-12.85291
-14.07131
-15.24902
-16.92745
-19.52754
-23.10532
-27.33031
-31.64343
-35.46709
-38.486
-40.74589
-42.67245
-44.84092
-47.84979
-52.10707
-57.63114
-63.9268
-69.74414
-73.19037
-72.1583
-65.02945
-51.36538
-32.38968
-10.67844
10.67737
28.99232
42.82782
52.16888
57.96941
61.45516
63.60047
64.86758
65.3542
65.09085
64.19305
62.88542
61.37585
59.75016
57.90013
55.66656
52.91369
49.72825
46.41806
43.43159
41.12947
39.67139
38.91978
38.51167
38.03769
37.14999
35.69239
33.65761
31.11824
28.18234
24.98582
21.6467
18.29622
15.01192
11.72937
8.286217
4.441502
-0.01144791
-5.101421
-10.66204
-16.34686
-21.7047
-26.33474
-30.059
-32.94972
-35.33763
-37.692
-40.44728
-43.86703
-47.90768
-52.20948
-56.33133
-59.86844
-62.72854
-65.1578
-67.66548
-70.88206
-75.31877
-81.08025
-87.72654
-94.15083
-98.62933
-99.17355
-94.10439
-82.72695
-65.7267
-45.16856
-23.84678
-4.466087
11.17856
22.52339
30.03934
34.63197
37.1301
38.02384
37.55701
36.00006
33.77026
31.45909
29.64372
28.62887
28.35715
28.50691
28.53492
28.05837
26.9106
25.26192
23.5196
22.12775
21.33215
20.97964
20.61492
19.62125
17.58772
14.50116
10.77518
7.051662
3.910942
1.644878
0.1221809
-1.108139
-2.622456
-4.820793
-7.808186
-11.3323
-14.95202
-18.23975
-21.05827
-23.61531
-26.39342
-29.92552
-34.45835
-39.85237
-45.61039
-51.06514
-55.69281
-59.25834
-61.88157
-63.91788
-65.92757
-68.49426
-72.13913
-77.11324
-83.0303
-88.64546
-91.84264
-90.26711
-82.14946
-67.18564
-46.90645
-24.20808
-2.371786
16.0777
30.05674
39.93944
46.90535
52.22021
56.66499
60.50501
63.72241
66.2845
68.30118
69.9416
71.33218
72.42222
73.06792
73.07876
72.36879
71.06018
69.48536
68.13506
67.50311
67.87155
69.15161
70.83136
72.121
72.19128
70.55328
67.19025
62.51266
57.12091
51.50379
45.92644
40.48496
35.17209
30.04858
25.22503
20.80243
16.75462
12.93309
9.181038
5.409164
1.689926
-1.995842
-5.817085
-10.14391
-15.47884
-22.13047
-29.94617
-38.30407
-46.28107
-52.94977
-57.91363
-61.43793
-64.38606
-68.02605
-73.48887
-81.37467
-91.47508
-102.6537
-112.8525
-119.5789
-120.4037
-113.7263
-99.4284
-78.98737
-55.15405
-31.08286
-9.489189
8.183334
21.74579
31.98152
39.96335
46.47953
51.90305
56.22849
59.41582
61.55238
62.90965
63.78149
64.33186
64.50506
64.08583
62.96096
61.24848
59.4164
58.13785
57.96268
59.04578
60.93575
62.73824
63.42112
62.34084
59.44876
55.33625
50.92268
47.01578
43.93321
41.39008
38.75501
35.32417
30.72221
24.96839
18.50484
11.92212
5.76754
0.3323746
-4.509262
-9.128754
-14.05629
-19.68893
-26.03392
-32.69519
-39.02715
-44.40848
-48.52733
-51.63609
-54.3839
-57.6407
-62.17963
-68.44071
-76.38493
-85.37575
-94.07332
-100.4787
-102.3257
-97.71278
-85.90245
-67.75962
-45.70918
-22.98706
-2.649731
13.37646
24.61329
31.69651
35.75344
37.76534
38.31068
37.66804
36.05325
33.82189
31.45106
29.34721
27.68661
26.35091
25.03034
23.37184
21.29781
19.01296
16.93257
15.50116
14.92247
15.00704
15.2434
15.0696
14.13023
12.52698
10.8331
9.791382
10.01884
11.60533
14.07595
16.49869
17.8155
17.25089
14.54569
10.09008
4.667206
-0.8038826
-5.657925
-9.722561
-13.33131
-17.08707
-21.55722
-26.94404
-32.9511
-38.96809
-44.28364
-48.51134
-51.70907
-54.31586
-57.03421
-60.59325
-65.50524
-71.90717
-79.38791
-86.75916
-92.14072
-93.26665
-88.1887
-76.05939
-57.60472
-35.08845
-11.59693
9.886192
27.41161
40.38591
49.33719
55.27364
59.08974
61.27652
62.05652
61.61051
60.29245
58.61552
57.04926
55.82336
54.86265
53.86579
52.53831
50.78387
48.66152
46.4206
44.32698
42.52832
41.0732
39.87828
38.78842
37.60942
36.16907
34.35908
32.21327
29.89487
27.57866
25.34924
23.18719
20.88876
18.23608
15.11819
11.61034
7.863571
4.05883
0.2477875
-3.592529
-7.499687
-11.42831
-15.21184
-18.69188
-21.80352
-24.71731
-27.72408
-31.18504
-35.27986
-39.94274
-44.90547
-49.75568
-54.191
-58.0827
-61.50426
-64.7202
-68.17155
-72.37827
-77.85744
-84.8194
-92.68374
-99.90779
-104.0517
-102.4449
-93.2058
-76.19833
-53.3398
-28.0322
-4.006729
15.95963
30.70581
40.63108
47.05687
51.38459
54.55936
57.03297
58.94667
60.33313
61.30827
61.92046
62.09505
61.69099
60.51279
58.50937
55.85609
52.89799
50.09499
47.88678
46.52556
45.97147
45.94566
46.00993
45.74107
44.92764
43.57358
41.82957
39.81169
37.53646
34.88749
31.76659
28.2009
24.42322
20.85607
17.89998
15.77126
14.45562
13.65733
12.92828
11.85825
10.12356
7.664474
4.65229
1.374817
-1.910614
-5.126785
-8.47506
-12.32114
-16.94806
-22.34252
-28.13192
-33.73148
-38.6122
-42.57591
-45.88737
-49.14178
-53.05655
-58.20713
-64.83672
-72.68895
-80.87518
-87.78962
-91.34503
-89.46858
-80.77161
-65.25777
-44.53651
-21.41228
0.929245
19.98487
34.55752
44.75464
51.53677
56.02925
59.03383
60.86219
61.57403
61.18923
59.89369
57.97059
55.67532
53.09363
50.18084
46.83112
42.95268
38.74389
34.51392
30.70713
27.65755
25.47819
23.9559
22.70215
21.29399
19.38046
16.93419
14.08273
11.13322
8.349285
5.871902
3.705463
1.685226
-0.3461227
-2.566473
-4.985708
-7.601725
-10.42222
-13.50122
-16.93543
-20.79046
-24.96936
-29.17804
-33.1072
-36.45436
-39.22031
-41.66935
-44.22338
-47.25254
-50.84473
-54.74519
-58.3867
-61.26707
-63.06466
-63.86179
-64.16809
-64.65022
-66.05347
-68.96045
-73.61919
-79.66512
-86.0554
-90.91614
-91.98534
-87.257
-75.68343
-57.89766
-36.07101
-13.37128
7.213091
23.72816
35.71136
43.87249
49.37269
53.16825
55.65783
56.88739
56.83669
55.76188
54.1358
52.52526
51.19531
50.02311
48.68484
46.83367
44.45018
41.84558
39.52404
37.90492
37.13375
36.98825
36.95748
36.51538
35.26607
33.14774
30.35347
27.29308
24.42104
22.01839
20.12441
18.44506
16.47318
13.66407
9.758991
4.861984
-0.4253426
-5.340836
-9.356571
-12.36988
-14.84219
-17.54346
-21.2419
-26.15973
-32.02921
-38.09581
-43.54874
-47.89936
-51.12729
-53.63094
-56.01632
-58.92041
-62.80154
-67.94716
-74.14761
-80.61082
-85.72676
-87.35533
-83.38815
-72.59642
-55.29738
-33.45531
-10.10591
11.7151
29.91321
43.84093
54.12575
61.93217
68.30744
73.70754
78.06955
81.10625
82.67799
82.93254
82.15269
80.62579
78.4428
75.6274
72.23052
68.58335
65.20827
62.65042
61.24097
60.85112
60.95679
60.76247
59.61273
57.15602
53.54121
49.22414
44.73418
40.4379
36.3977
32.31414
27.74367
22.36476
16.13896
9.452412
2.967743
-2.768665
-7.558395
-11.68948
-15.86378
-20.80468
-26.93898
-34.12719
-41.74102
-48.90836
-54.91972
-59.43029
-62.60891
-65.01353
-67.41949
-70.65503
-75.34769
-81.75571
-89.45506
-97.10142
-102.5031
-103.0702
-96.68539
-82.65968
-62.19405
-38.17667
-14.18808
6.660664
22.66287
33.72681
40.93613
45.67616
48.94131
51.09512
52.08081
51.80504
50.40059
48.29218
45.98464
43.80514
41.81318
39.78857
37.43768
34.62373
31.44434
28.26213
25.52489
23.49545
22.11256
21.08553
19.94891
18.31988
15.98307
12.87141
9.102531
4.810837
0.2231979
-4.466572
-8.973789
-13.13555
-16.99657
-20.8845
-25.33233
-30.76181
-37.26966
-44.42404
-51.46783
-57.5681
-62.3103
-65.84589
-68.79191
-72.01704
-76.29086
-82.03471
-89.28879
-97.57912
-105.7778
-112.1173
-114.4117
-110.5501
-99.4746
-81.69247
-59.40561
-35.93599
-14.56094
2.51582
14.71595
22.87044
28.5617
33.11568
37.1778
40.63907
43.02728
43.97238
43.49871
42.04456
40.16537
38.34612
36.7037
35.11491
33.38406
31.41967
29.39548
27.65604
26.49124
25.91267
25.62481
25.10239
23.88725
21.76526
18.80884
15.34089
11.70706
8.198494
4.937473
1.975296
-0.6397705
-2.827965
-4.527046
-5.85424
-7.13353
-8.932571
-11.81979
-16.14537
-21.81176
-28.26516
-34.73318
-40.4739
-45.05569
-48.39223
-50.82705
-52.9022
-55.2771
-58.57671
-63.07425
-68.33646
-72.88554
-74.31798
-69.98791
-58.12857
-38.69992
-13.68613
13.61011
39.75563
62.42953
80.91978
95.91595
108.5976
119.894
129.9867
138.5206
144.9899
149.1473
151.0239
150.6934
148.1676
143.2739
135.9105
126.2317
114.9227
103.1786
92.49577
84.2616
79.22613
77.32146
77.59165
78.53496
78.49245
76.19744
70.98869
62.93611
52.64275
41.05257
29.26936
18.28356
8.862549
1.373346
-4.327557
-8.834322
-13.03683
-17.86275
-23.929
-31.29667
-39.58195
-48.01638
-55.78533
-62.38249
-67.67088
-71.93237
-75.60419
-78.98384
-82.01027
-84.35373
-85.56036
-85.3474
-83.94899
-82.00475
-80.46918
-80.3178
-82.32114
-86.86214
-93.73884
-101.7836
-108.8371
-112.0493
-108.5785
-96.77096
-76.98447
-51.64272
-24.48811
0.7608032
21.71198
37.73883
49.59137
58.60611
65.77583
71.43436
75.43646
77.54254
77.78227
76.57115
74.41963
71.69218
68.61584
65.22133
61.53699
57.75172
54.15602
51.06905
48.72757
47.06033
45.67073
44.0006
41.43695
37.5686
32.34254
26.08531
19.38322
12.96701
7.435959
3.118439
0.05725098
-2.104324
-3.882019
-5.837601
-8.356995
-11.50914
-15.00938
-18.38409
-21.17212
-23.19193
-24.71811
-26.36307
-28.89929
-32.89163
-38.45377
-45.12531
-52.07068
-58.32684
-63.18738
-66.36917
-68.04532
-68.70148
-69.03876
-69.80444
-71.69193
-75.28735
-80.83478
-87.81354
-94.71524
-99.07712
-98.04715
-89.52304
-73.03082
-50.2966
-24.71768
-0.2565613
19.8988
34.19843
42.80679
46.95355
48.04099
47.03946
44.35104
40.18137
34.92694
29.36368
24.49075
21.18567
19.84186
20.24033
21.6619
23.28458
24.43829
24.9184
24.90289
24.79858
24.96255
25.5661
26.4628
27.30429
27.69882
27.31812
26.09372
24.15573
21.84076
19.49033
17.31854
15.27927
13.09082
10.37726
6.843323
2.5177
-2.26181
-6.964905
-11.03925
-14.19937
-16.49652
-18.34741
-20.33752
-23.06
-26.86465
-31.74908
-37.34802
-43.03366
-48.22763
-52.57965
-56.15698
-59.35513
-62.86441
-67.4202
-73.60001
-81.56577
-90.73746
-99.65955
-106.0067
-107.169
-101.1091
-87.32233
-67.22513
-43.8623
-20.80371
-0.8650818
14.63297
26.0481
34.69522
41.95685
48.60339
54.65216
59.65082
63.09567
64.74075
64.66629
63.17252
60.62082
57.38498
53.82764
50.31436
47.24359
44.93338
43.63489
43.37119
43.91281
44.75711
45.3175
45.10858
43.88217
41.69574
38.80627
35.5079
32.00754
28.34021
24.39658
20.03607
15.29526
10.29245
5.298615
0.5317688
-3.901764
-8.071411
-12.22531
-16.60861
-21.37082
-26.40799
-31.4411
-36.11642
-40.33917
-44.30997
-48.44171
-53.13766
-58.43631
-63.94418
-68.99832
-73.01675
-75.81647
-77.77917
-79.61276
-82.01724
-85.49332
-90.15366
-95.7583
-101.7801
-107.1213
-110.0807
-108.5519
-100.6055
-85.31931
-63.43539
-37.37738
-10.52081
13.8266
33.56354
48.13223
58.31134
65.50589
71.02548
75.71063
79.89786
83.57626
86.55203
88.61633
89.52576
89.05627
87.14075
83.8598
79.54123
74.76379
70.23254
66.59009
64.27863
63.29233
63.12964
62.97067
61.84998
59.07388
54.496
48.57501
42.13086
36.017
30.80057
26.53265
22.88913
19.31146
15.21902
10.24118
4.345825
-2.177246
-8.766968
-14.80478
-19.71863
-23.2002
-25.37836
-26.77328
-28.18445
-30.39948
-33.9024
-38.60376
-43.95013
-49.08859
-53.21677
-55.94345
-57.38983
-58.17322
-59.15601
-61.2807
-65.24057
-71.30115
-78.95752
-86.77811
-92.436
-93.25345
-87.11264
-73.39279
-53.47061
-30.35474
-7.732391
11.37076
25.45154
34.77191
40.75214
45.09888
49.02191
52.92355
56.58771
59.50897
61.24754
61.59804
60.52486
58.13574
54.65852
50.36481
45.67963
41.13153
37.23975
34.44409
32.90419
32.46423
32.66907
32.88336
32.52911
31.25076
29.01181
26.05618
22.86311
19.89456
17.48842
15.73567
14.46812
13.32216
11.87273
9.860397
7.222641
4.12323
0.8391724
-2.425858
-5.579224
-8.612137
-11.52589
-14.23061
-16.54042
-18.36964
-19.80077
-21.23001
-23.21606
-26.20041
-30.30722
-35.18233
-40.16896
-44.49812
-47.74382
-49.91672
-51.50061
-53.32013
-56.19176
-60.78305
-67.26913
-75.09094
-82.79672
-88.25958
-89.13152
-83.69374
-71.66574
-54.40355
-34.6281
-15.41081
0.8474426
13.09299
21.61414
27.50047
31.91794
35.55417
38.6548
41.16513
43.04367
44.32092
45.10239
45.42215
45.31682
44.8362
44.04173
43.15955
42.38391
41.93021
41.84891
42.08197
42.44878
42.66873
42.40771
41.33397
39.35989
36.64418
33.65207
30.95775
28.97667
27.76022
26.96239
26.04832
24.53194
22.30484
19.53683
16.54944
13.5683
10.55247
7.18187
3.168121
-1.508392
-6.573288
-11.46744
-15.66011
-18.96359
-21.67807
-24.44655
-28.01512
-32.77454
-38.54312
-44.63557
-50.15948
-54.42052
-57.23682
-58.94276
-60.24532
-61.98274
-64.87883
-69.39186
-75.53455
-82.58496
-88.93188
-92.306
-90.24385
-81.12654
-64.95204
-43.58565
-20.22659
1.708786
19.81804
33.26891
42.64377
49.24599
54.22211
58.11469
60.95753
62.64174
63.21007
63.01118
62.41676
61.65985
60.65921
59.20918
57.14671
54.60519
51.98193
49.75183
48.22552
47.37076
46.84471
46.11211
44.75421
42.57333
39.68636
36.36998
32.94789
29.6868
26.72581
24.12862
21.86894
19.9129
18.20734
16.70844
15.38074
14.22058
13.22351
12.33952
11.44519
10.34915
8.860489
6.839478
4.248184
1.158905
-2.385666
-6.321793
-10.64453
-15.31258
-20.21602
-25.09201
-29.61732
-33.49414
-36.53333
-38.82857
-40.67725
-42.60156
-45.19293
-49.01048
-54.33372
-60.96149
-67.92059
-73.46043
-75.43628
-71.97055
-62.20889
-46.84074
-27.97589
-8.459564
8.990921
22.65678
32.11549
37.98685
41.36342
43.20338
44.00165
43.94801
43.03632
41.33652
39.08141
36.59842
34.16454
31.89417
29.73355
27.46121
24.93613
22.15616
19.36757
16.96324
15.31139
14.50363
14.28925
14.14091
13.42519
11.76489
9.149887
5.965775
2.84491
0.3289642
-1.316284
-2.157196
-2.501831
-2.77977
-3.292465
-4.255432
-5.642075
-7.266357
-8.89003
-10.24622
-11.20888
-11.94289
-12.8782
-14.56256
-17.45447
-21.59839
-26.51631
-31.41904
-35.49947
-38.27997
-39.8421
-40.74074
-41.74376
-43.63867
-47.01526
-52.1116
-58.73216
-65.96719
-72.14128
-75.03938
-72.51852
-63.31332
-47.78227
-27.98907
-7.116333
11.61316
26.03865
35.58037
41.04933
43.87569
45.25269
45.66444
45.02878
43.11777
39.99144
36.20377
32.52032
29.54121
27.37752
25.64571
23.67848
21.00932
17.65138
14.0601
10.92918
8.771973
7.68898
7.30069
6.928665
5.829239
3.527161
-0.03456116
-4.536591
-9.381241
-13.90468
-17.6273
-20.33224
-22.14563
-23.44048
-24.75487
-26.46465
-28.69968
-31.3055
-33.95644
-36.34845
-38.32635
-39.97597
-41.56703
-43.57178
-46.48689
-50.83543
-56.92702
-64.558
-72.79985
-79.82306
-83.2108
-80.62604
-70.78757
-54.06203
-32.5547
-9.434387
12.11003
29.80481
42.85928
51.77226
57.73116
61.91762
65.01199
67.15241
68.10841
67.70174
65.86655
62.80772
58.75657
53.94395
48.52815
42.62968
36.50901
30.53066
25.1946
20.90751
17.86607
15.82309
14.16766
12.21682
9.406197
5.580521
0.9702988
-3.853302
-8.342522
-12.20564
-15.53796
-18.69135
-21.98207
-25.50311
-28.94599
-31.77414
-33.40319
-33.53292
-32.20128
-29.75076
-26.647
-23.32916
-20.2221
-17.77304
-16.62911
-17.62102
-21.54377
-28.81367
-39.15097
-51.45361
-64.12251
-75.52126
-84.53001
-90.87595
-95.05152
-98.05329
-101.0817
-105.2356
-111.1785
-118.6465
-126.0346
-130.472
-128.5247
-117.492
-96.73551
-68.32585
-36.49402
-6.123009
19.14254
37.9842
51.48727
61.98364
71.76227
82.15695
93.35492
104.9511
116.4069
127.3848
137.5847
146.6239
153.8937
158.8211
161.1212
161.0388
159.2651
156.6705
153.8841
151.0193
147.7044
143.2855
137.1881
129.1653
119.3781
108.3715
96.80087
85.28706
74.32407
64.15222
54.81284
46.06876
37.57085
28.88155
19.73969
10.11072
0.199295
-9.638092
-19.04904
-27.79129
-35.71568
-42.74721
-48.78142
-53.67442
-57.34653
-59.92525
-61.75272
-63.27374
-64.80005
-66.2935
-67.37277
-67.54144
-66.39558
-63.98213
-60.81747
-57.70982
-55.57965
-55.1554
-56.86533
-60.57143
-65.37471
-69.55583
-70.77547
-66.79878
-56.28407
-39.57765
-18.70735
3.136505
22.74274
37.88904
47.87486
53.34055
55.62935
56.06908
55.50912
54.43726
53.10059
51.79619
50.78622
50.14122
49.61159
48.55096
46.14003
41.71205
35.1944
27.21234
19.03255
12.0968
7.419693
5.227455
4.742813
4.570038
3.360939
0.4170914
-4.022995
-8.9011
-12.94682
-15.40489
-16.35295
-16.71679
-17.71056
-20.23871
-24.44541
-29.70247
-34.86174
-38.82123
-41.02274
-41.51025
-40.99726
-40.30293
-40.13134
-40.83196
-42.354
-44.47084
-46.91384
-49.58813
-52.51703
-55.85581
-59.73697
-64.25952
-69.53851
-75.5191
-81.75406
-87.15369
-89.93791
-87.9734
-79.60245
-64.33415
-43.40901
-19.52251
4.039658
24.35114
39.77435
50.10826
56.23283
59.39818
60.67314
60.66714
59.6808
57.96413
55.7757
53.51062
51.48006
49.85544
48.63283
47.69919
46.94258
46.37875
46.13524
46.37125
47.2433
48.80356
50.90739
53.19286
55.11836
56.06406
55.52364
53.29558
49.56265
44.90646
40.00304
35.38246
31.28148
27.53407
23.7533
19.52419
14.62663
9.138809
3.397079
-2.189346
-7.290192
-11.75667
-15.71364
-19.46729
-23.49583
-28.24683
-33.99045
-40.66107
-47.84802
-54.87257
-60.98216
-65.65514
-68.79851
-70.79694
-72.39899
-74.54868
-78.08791
-83.51411
-90.67052
-98.51866
-105.1363
-107.9704
-104.592
-93.57414
-75.21805
-51.66591
-26.24242
-2.351028
17.57236
32.62569
43.32254
50.90517
56.6151
61.13582
64.56674
66.77028
67.67516
67.44807
66.44795
65.02637
63.39445
61.60098
59.62465
57.53088
55.63902
54.39899
54.19255
55.10065
56.74887
58.4308
59.36089
59.0018
57.25737
54.47841
51.22006
47.94519
44.85956
41.84929
38.63843
35.07027
31.19862
27.3015
23.75168
20.79274
18.42616
16.47281
14.56319
12.36998
9.722107
6.637436
3.296066
-0.04573059
-3.26825
-6.395798
-9.624527
-13.27425
-17.61029
-22.68024
-28.29074
-33.99521
-39.28908
-43.84312
-47.58728
-50.81076
-54.11189
-58.24062
-63.90854
-71.54706
-80.92734
-90.83217
-99.05728
-102.7981
-99.54385
-88.15657
-69.50314
-46.34962
-22.52217
-1.499023
14.65294
25.68542
32.74252
37.49461
41.23422
44.51895
47.29283
49.29892
50.45549
50.89268
50.86458
50.52138
49.91133
48.95383
47.62987
45.982
44.25289
42.74362
41.66317
41.12852
41.04455
41.15138
41.06073
40.42265
38.91133
36.43002
33.10352
29.23379
25.25021
21.53749
18.31876
15.58987
13.12418
10.56674
7.590553
4.040962
0.02042389
-4.135071
-7.960312
-11.11669
-13.52678
-15.52656
-17.75751
-20.95096
-25.57824
-31.64491
-38.54347
-45.37285
-51.23813
-55.60406
-58.56061
-60.7145
-62.93739
-66.09659
-70.91582
-77.66824
-86.0538
-94.95702
-102.3618
-105.6772
-102.5269
-91.64192
-73.59526
-50.82255
-26.89992
-5.307026
11.64779
23.28914
30.36783
34.23058
36.12781
36.82241
36.59359
35.52269
33.77677
31.64023
29.44692
27.4046
25.51932
23.64876
21.69706
19.72335
17.99901
16.8989
16.74102
17.62299
19.27739
21.11563
22.44003
22.70658
21.75781
19.87903
17.63536
15.61876
14.13478
13.06325
11.8833
9.979675
6.948864
2.875523
-1.723011
-6.135929
-9.8661
-12.85394
-15.53453
-18.61012
-22.72178
-28.09422
-34.40582
-40.85356
-46.54542
-50.84031
-53.62855
-55.4406
-57.22893
-60.04069
-64.72105
-71.60507
-80.15935
-88.92928
-95.57372
-97.37946
-92.06854
-78.66915
-58.13464
-33.20303
-7.664253
14.95954
32.42195
44.33714
51.78886
56.53813
60.11908
63.24496
65.89622
67.63574
68.11793
67.30907
65.51019
63.1297
60.44737
57.61767
54.6183
51.50305
48.48785
45.96243
44.25827
43.47996
43.3587
43.28814
42.62856
40.87794
37.93598
34.06304
29.74391
25.45716
21.60159
18.37039
15.73026
13.49249
11.32688
8.79744
5.57711
1.537422
-3.104294
-7.789536
-11.84428
-14.78943
-16.57021
-17.67397
-18.96291
-21.23471
-24.95193
-29.97446
-35.70839
-41.36252
-46.30502
-50.26997
-53.39759
-56.15717
-59.20546
-63.26385
-68.8493
-76.04001
-84.0618
-91.15503
-94.79803
-92.48048
-82.61803
-65.38049
-42.81787
-18.18875
5.10112
24.63365
39.43559
49.86824
57.02165
62.00002
65.53172
67.91801
69.28525
69.78035
69.64111
69.06354
68.08565
66.59636
64.33369
61.20198
57.36256
53.31039
49.74493
47.25894
46.05504
45.8524
45.91129
45.3246
43.38783
39.77023
34.6834
28.75366
22.7876
17.51877
13.42941
10.54117
8.404373
6.375809
3.789902
0.3019562
-3.982239
-8.569946
-12.80937
-16.19516
-18.57104
-20.22519
-21.69911
-23.70337
-26.77194
-31.15219
-36.70857
-42.96655
-49.30325
-55.18477
-60.34619
-64.83932
-69.13287
-73.77891
-79.4024
-86.3327
-94.24838
-101.9833
-107.495
-108.2942
-102.288
-88.75504
-68.71762
-44.89372
-20.77641
0.5609741
17.32106
29.27232
37.38242
42.97784
47.09676
50.22661
52.38158
53.44958
53.49005
52.73267
51.53003
50.18896
48.84253
47.48354
46.1468
44.97934
44.20383
44.03432
44.45586
45.16431
45.69296
45.56783
44.49055
42.44836
39.69991
36.57256
33.37971
30.35156
27.61063
25.17999
22.95515
20.68636
17.98422
14.45306
9.838226
4.220474
-1.943573
-7.972488
-13.18913
-17.18596
-19.99374
-22.08311
-24.20386
-27.06506
-31.03194
-35.96866
-41.31212
-46.28764
-50.23325
-52.93239
-54.65663
-56.05801
-58.02777
-61.37318
-66.67712
-74.00838
-82.60516
-90.73088
-95.86649
-95.35667
-87.35173
-71.74226
-50.34685
-26.44891
-3.607422
15.59596
30.14497
40.51971
48.01205
53.9021
58.93405
63.33258
67.07582
70.07896
72.35458
73.97856
74.92365
75.147
74.57755
73.24861
71.3606
69.36505
67.77263
67.11783
67.6758
69.32452
71.5493
73.49213
74.30475
73.42075
70.7916
66.85071
62.3461
58.00195
54.22458
51.0629
48.15289
45.03256
41.31009
36.83875
31.74066
26.40236
21.2471
16.5157
12.33371
8.543045
4.793785
0.6956863
-4.148209
-9.987137
-16.81607
-24.37518
-32.23761
-39.7959
-46.48325
-51.87822
-55.78863
-58.39977
-60.1942
-61.83596
-63.94048
-66.90891
-70.8071
-75.50835
-80.86195
-86.69067
-92.69758
-98.05531
-101.1609
-99.84607
-92.12136
-77.20111
-56.34075
-32.75003
-10.57499
6.570845
16.9091
20.9813
20.97363
19.59131
18.87159
19.60177
21.53316
23.89761
25.96837
27.31147
27.75329
27.13693
25.2306
21.84085
16.9512
10.96981
4.754969
-0.6533096
-4.288313
-5.591558
-4.630378
-2.005049
1.343525
4.374731
6.322227
6.786971
5.801237
3.720897
1.051999
-1.789944
-4.618999
-7.439234
-10.41206
-13.50836
-16.40535
-18.45122
-18.88209
-17.20016
-13.46456
-8.427409
-3.342904
0.3315048
1.517028
-0.2251577
-4.574101
-10.62643
-17.24581
-23.43881
-28.61005
-32.6448
-35.94283
-39.17303
-43.1783
-48.63436
-55.77901
-64.0458
-71.94228
-77.21998
-77.50798
-71.28799
-58.56586
-41.12714
-21.95757
-4.211412
9.938604
19.88105
26.49257
31.3841
35.99525
41.02542
46.22996
50.83281
54.01991
55.32142
54.67178
52.31554
48.64187
44.07908
39.09385
34.23551
30.15022
27.46094
26.66186
27.87709
30.76502
34.52954
38.01332
39.96428
39.34035
35.67107
29.24994
21.07411
12.58106
5.172352
-0.2134399
-3.357765
-4.680698
-4.984474
-5.032982
-5.364784
-6.242939
-7.696152
-9.628563
-11.90683
-14.48609
-17.33024
-20.47326
-23.9278
-27.73063
-31.84781
-36.12659
-40.37255
-44.35918
-48.02966
-51.47793
-54.996
-58.96344
-63.84051
-70.01962
-77.57077
-86.01909
-93.9862
-99.29878
-99.44288
-92.50096
-78.00508
-57.4588
-33.92715
-11.02619
8.26506
22.54185
32.02738
38.05795
42.16344
45.45827
48.41903
51.03744
53.2056
54.88643
56.13392
57.02592
57.5627
57.6978
57.38262
56.65127
55.64166
54.57704
53.66392
53.03769
52.67104
52.38174
51.89796
50.95273
49.44356
47.41133
45.0668
42.62793
40.32195
38.21782
36.26759
34.3315
32.30569
30.11592
27.75746
25.20293
22.31155
18.91383
14.84691
10.08618
4.823425
-0.5211792
-5.470078
-9.679871
-13.11177
-16.0661
-19.02365
-22.4478
-26.56183
-31.2206
-36.02803
-40.49808
-44.2921
-47.36951
-50.04974
-52.81299
-56.25146
-60.91357
-67.1616
-74.99068
-83.63493
-91.41954
-95.84786
-94.28627
-84.83287
-67.30338
-43.53606
-16.9804
8.408867
29.5248
44.86232
54.63173
60.15176
63.04397
64.66129
65.91122
67.38203
69.48445
72.49901
76.41868
80.8079
84.95061
87.9887
89.23987
88.43719
85.77935
81.75669
76.97847
71.91827
66.87172
61.95475
57.102
52.20201
47.188
42.04445
36.78632
31.40723
25.82816
19.97371
13.80859
7.385696
0.8796539
-5.403503
-11.13474
-16.05638
-20.07831
-23.28799
-25.88301
-28.06293
-29.9143
-31.44098
-32.63227
-33.64744
-34.81462
-36.55629
-39.21592
-42.74742
-46.66098
-50.12534
-52.29195
-52.71694
-51.57995
-49.65268
-48.00809
-47.74521
-49.63684
-53.97053
-60.33317
-67.51771
-73.57853
-76.24796
-73.59534
-64.74162
-50.47415
-33.00208
-15.32558
-0.1656303
10.8458
17.47042
20.45041
20.88153
19.66212
17.29165
14.09813
10.48664
7.101566
4.727682
3.978006
5.059969
7.724808
11.40961
15.39863
19.09384
22.12218
24.37732
25.97176
27.1631
28.22006
29.32123
30.52007
31.73815
32.85
33.8174
34.61285
35.36505
36.1564
36.94792
37.41491
37.01825
35.13832
31.45638
26.21048
20.09648
14.16762
9.331142
5.994621
3.818336
1.957466
-0.6886559
-4.894814
-10.82545
-18.0118
-25.42944
-31.93837
-36.65527
-39.21327
-39.77853
-38.96358
-37.63931
-36.68167
-36.81816
-38.43106
-41.31357
-44.4808
-46.18758
-44.36391
-37.42251
-25.08953
-8.75177
8.834908
24.56628
36.11803
42.66119
44.90485
44.40845
42.68526
40.63496
38.5455
36.35733
34.17825
32.37238
31.47055
31.88739
33.76547
36.96027
41.16905
46.13753
51.64334
57.51173
63.51608
69.38101
74.81648
79.58281
83.50597
86.35851
87.86217
87.57912
84.99825
79.60556
71.08334
59.36243
44.703
27.65123
9.00354
-10.20436
-28.83641
-45.80342
-60.35724
-72.28801
-82.09323
-90.66339
-98.96582
-107.5757
-116.3826
-124.7617
-131.8736
-137.1013
-140.3506
-142.0759
-143.1049
-144.4119
-146.8327
-150.6586
-155.3153
-159.1723
-159.7479
-154.3878
-141.2981
-120.4205
-93.68176
-64.45993
-36.38855
-12.21887
6.815002
20.94031
31.14066
38.4715
43.6366
46.98773
48.78192
49.36652
49.16754
48.52863
47.62216
46.37805
44.6655
42.41113
39.80034
37.24046
35.21913
34.13629
34.09041
34.8322
35.71098
35.93504
34.78554
31.90215
27.47133
22.064
16.45592
11.24365
6.617813
2.392609
-1.714966
-5.757706
-9.338608
-11.75851
-12.46878
-11.45509
-9.440735
-7.727798
-7.589676
-9.736923
-13.98398
-19.38792
-24.74869
-29.04655
-31.8109
-33.17303
-33.75063
-34.50174
-36.57895
-41.10428
-48.71159
-58.95213
-69.91106
-78.37988
-80.78256
-74.51704
-59.15863
-36.86591
-11.73215
11.72842
30.11257
42.11488
48.45515
51.05766
51.92377
52.38223
52.8179
53.03363
52.75626
51.91872
50.68797
49.25864
47.59959
45.505
42.75485
39.34592
35.67075
32.40401
30.21958
29.51041
30.24092
31.93991
33.92459
35.53401
36.28942
36.04899
34.93042
33.30251
31.6425
30.34958
29.60221
29.19283
28.62389
27.27914
24.74067
21.03368
16.65418
12.42224
9.077839
6.960449
5.782547
4.764355
2.937859
-0.2840271
-4.911205
-10.38997
-15.95826
-21.21899
-26.32433
-31.92162
-38.67815
-46.88175
-56.21455
-65.8718
-74.75548
-81.54105
-84.73331
-82.67506
-74.01537
-58.34882
-36.80469
-12.09883
12.13734
32.54227
47.14939
55.85655
60.04128
61.5905
61.9786
61.85908
61.16021
59.62888
57.16877
53.92368
50.18041
46.17076
41.97288
37.55984
33.01477
28.55872
24.65988
21.83899
20.48295
20.67803
22.16007
24.45047
26.99958
29.428
31.55571
33.36447
34.83923
35.80982
35.96825
34.95539
32.58327
29.00007
24.64554
20.08867
15.83446
12.14046
8.98584
6.197227
3.579071
1.014893
-1.443153
-3.675835
-5.557587
-7.047073
-8.210403
-9.266144
-10.63213
-12.86205
-16.5611
-22.13126
-29.34685
-37.09488
-43.39296
-45.81215
-42.38925
-32.46315
-17.12488
1.061325
18.89508
33.61119
43.65193
48.82875
49.86905
47.82779
43.59802
37.78522
30.96878
23.8011
17.10497
11.63623
7.788651
5.440414
4.032562
2.847137
1.332932
-0.6066589
-2.641159
-4.153091
-4.630417
-3.986176
-2.637115
-1.35434
-0.9067993
-1.668243
-3.46283
-5.656708
-7.503418
-8.580231
-8.980164
-9.332306
-10.42697
-12.92639
-17.0271
-22.4288
-28.50247
-34.51767
-39.97696
-44.74323
-49.09756
-53.58853
-58.95728
-65.82166
-74.33969
-83.81296
-92.51495
-97.96558
-97.59277
-89.69235
-74.22275
-53.01074
-29.285
-6.645477
12.04883
25.33337
33.15762
36.45309
36.4761
34.34695
30.96771
27.06827
23.38098
20.54871
18.95084
18.48926
18.62592
18.5575
17.56787
15.42798
12.52203
9.689606
7.755035
7.040466
7.211639
7.452148
6.870483
5.04538
2.232391
-0.7948608
-3.234192
-4.698944
-5.565491
-6.758209
-9.348053
-14.08096
-20.96722
-29.35577
-38.18814
-46.45248
-53.50732
-59.29977
-64.20627
-68.98346
-74.46301
-81.36835
-89.95084
-99.57346
-108.426
-113.6057
-111.8734
-100.7585
-79.79486
-50.99963
-18.43185
13.12048
39.76367
59.55447
72.70334
80.83081
85.91193
89.41248
91.93747
93.53201
94.04922
93.46182
91.83182
89.21091
85.491
80.49084
74.14725
66.60843
58.37836
50.07449
42.38007
35.68015
30.1347
25.54449
21.49792
17.55246
13.30615
8.591766
3.396454
-2.046265
-7.497925
-12.70905
-17.62564
-22.34467
-26.94818
-31.45715
-35.73593
-39.64856
-43.18713
-46.61859
-50.42755
-55.04077
-60.55725
-66.57294
-72.32755
-77.07043
-80.32446
-82.16946
-83.13675
-84.06903
-85.8027
-89.02933
-93.96255
-100.0669
-105.6783
-108.0894
-104.1762
-91.47089
-69.42325
-39.85928
-6.663025
25.5094
52.87781
73.61548
87.90942
97.21301
103.119
106.5733
107.8609
106.968
104.1358
100.0761
95.72058
91.77106
88.3858
85.24786
81.83011
77.81366
73.35898
69.00629
65.43604
63.10303
61.96649
61.49356
60.92029
59.46448
56.71524
52.71445
47.94986
43.16037
38.99805
35.74139
33.23917
30.9278
28.09738
24.27032
19.38492
13.77472
8.044769
2.752167
-1.850189
-5.886536
-9.844849
-14.36426
-19.93893
-26.66074
-34.23254
-41.99985
-49.22565
-55.43021
-60.51556
-64.87302
-69.15594
-73.9888
-79.65085
-85.8606
-91.63812
-95.40961
-95.31744
-89.74899
-77.94073
-60.39325
-38.94647
-16.33383
4.600067
21.69467
33.9747
41.59137
45.50653
46.89685
46.70602
45.57452
43.88882
41.96854
40.11401
38.55969
37.33124
36.29007
35.2023
33.77795
31.88962
29.58469
27.12851
24.82336
22.94962
21.55499
20.46341
19.28134
17.53793
14.90576
11.33719
7.15802
2.900024
-0.8768616
-3.887451
-6.163391
-8.102936
-10.24432
-13.0202
-16.64749
-21.06512
-25.96887
-31.01404
-35.86111
-40.2872
-44.23001
-47.78983
-51.19669
-54.74448
-58.64792
-62.84195
-66.91211
-70.08945
-71.39493
-69.90601
-64.99066
-56.53888
-45.10425
-31.7912
-18.00046
-5.162476
5.627319
13.78476
19.28302
22.54688
24.17484
24.73215
24.60632
24.00229
23.04114
21.83578
20.56622
19.40482
18.49631
17.82324
17.23914
16.569
15.66757
14.50192
13.16101
11.74261
10.30161
8.832245
7.201843
5.223236
2.73175
-0.4509277
-4.439972
-9.203369
-14.57355
-20.25281
-25.86914
-31.07639
-35.7132
-39.74619
-43.37891
-46.98138
-51.0072
-55.82019
-61.53064
-67.80127
-73.62656
-77.44281
-77.32184
-71.60297
-59.52628
-41.7092
-20.13403
2.402313
23.12579
40.06693
52.51303
60.80322
65.83655
68.47263
69.23477
68.33609
66.04193
62.86649
59.47726
56.50793
54.15472
52.08792
49.64755
46.24936
41.65817
36.19107
30.52332
25.29288
20.88162
17.18909
13.78824
10.15298
5.881744
0.8525696
-4.784485
-10.64023
-16.2612
-21.2366
-25.40268
-28.91083
-32.19843
-35.83255
-40.2236
-45.43463
-51.03778
-56.31659
-60.57257
-63.4838
-65.24915
-66.54678
-68.30859
-71.33691
-76.09366
-82.49265
-89.72998
-96.26379
-99.93143
-98.3378
-89.63577
-73.30527
-50.55353
-24.10477
2.60321
26.53995
45.83911
60.04407
69.70959
75.73938
78.86661
79.54074
78.21451
75.51501
72.38071
69.73514
68.15149
67.62927
67.59192
67.23224
65.90564
63.44702
60.16547
56.73364
53.75677
51.51181
49.84909
48.20697
45.99982
42.84012
38.75665
34.15036
29.5994
25.53662
22.09918
19.07312
15.97659
12.37177
7.98468
2.85788
-2.750305
-8.392883
-13.71054
-18.54227
-22.9639
-27.36041
-32.10617
-37.46823
-43.42285
-49.59033
-55.39444
-60.33212
-64.21466
-67.2543
-70.08771
-73.43564
-77.9166
-83.82965
-90.99463
-98.68713
-105.5906
-109.9158
-109.6005
-102.9233
-89.11597
-68.87393
-44.40961
-18.80743
4.878387
24.62811
39.86847
51.29703
60.17813
67.58075
73.91135
78.98172
82.45862
84.17567
84.47147
83.90536
82.97897
81.85172
80.33514
78.0827
74.85779
70.80403
66.35591
62.13112
58.5567
55.74243
53.46609
51.30511
48.94431
46.24471
43.30824
40.30682
37.30383
34.20726
30.80606
26.89496
22.41418
17.54771
12.58121
7.745071
3.093811
-1.5009
-6.248199
-11.17044
-16.06839
-20.60413
-24.45508
-27.57635
-30.27011
-33.11261
-36.69199
-41.31877
-46.86363
-52.80104
-58.49359
-63.4185
-67.39198
-70.6833
-73.84782
-77.5415
-82.29613
-88.32727
-95.37602
-102.6174
-108.5164
-111.0212
-108.0284
-97.97299
-80.6105
-57.30594
-30.85225
-4.673248
18.24648
36.18024
48.88301
57.29063
62.76407
66.42516
68.82582
70.03
69.99524
68.79543
66.77692
64.38989
62.04576
59.91727
57.95332
56.02173
54.06549
52.22305
50.73093
49.77443
49.31059
49.02658
48.41098
46.91159
44.1832
40.22935
35.31142
29.94783
24.66805
19.82227
15.55489
11.7706
8.200989
4.580307
0.6959229
-3.529755
-8.030746
-12.63268
-17.15804
-21.42841
-25.29683
-28.74657
-31.78508
-34.58505
-37.42563
-40.64223
-44.54514
-49.30392
-54.84761
-60.81062
-66.67488
-71.8596
-76.05121
-79.3477
-82.2908
-85.63112
-90.02432
-95.65692
-102.0137
-107.7712
-110.9456
-109.3419
-101.2345
-85.99957
-64.55952
-39.23042
-13.12515
10.74097
30.27705
44.77295
54.6371
60.9381
64.77487
66.91507
67.83766
67.90512
67.57402
67.31847
67.49426
68.12086
68.82733
69.09618
68.45634
66.73357
64.14546
61.17738
58.36789
56.06733
54.3819
53.16096
52.08661
50.88168
49.32581
47.32932
44.89498
42.14172
39.14176
36.03912
32.9661
30.00214
27.1886
24.4352
21.59055
18.48876
15.01419
11.20255
7.257149
3.437592
0.01290131
-2.858009
-5.248688
-7.387314
-9.671112
-12.49113
-16.07832
-20.36559
-25.03322
-29.56232
-33.46858
-36.63055
-39.35197
-42.23491
-45.95082
-50.92778
-57.10333
-64.00052
-70.74716
-76.05519
-78.41803
-76.23216
-68.22418
-54.09685
-34.81201
-12.64607
9.400986
28.48407
42.77605
51.85783
56.55342
58.28957
58.39079
57.73814
56.68715
55.30939
53.63213
51.76585
49.87837
48.09637
46.4409
44.72366
42.77486
40.47838
37.87697
35.19592
32.78716
30.85939
29.4516
28.3826
27.29129
25.90944
24.05287
21.71104
19.06647
16.35349
13.71167
11.22653
8.884537
6.610199
4.382706
2.159286
-0.08653259
-2.33963
-4.598709
-6.924942
-9.342636
-11.90056
-14.5771
-17.2851
-19.96603
-22.59782
-25.23793
-27.9978
-30.98552
-34.13612
-37.28123
-40.15596
-42.53908
-44.40681
-46.00282
-47.74611
-50.11172
-53.42116
-57.58856
-62.16959
-66.32056
-68.91248
-68.88884
-65.4492
-58.31233
-47.90805
-35.24734
-21.70459
-8.705841
2.62915
11.70837
18.41498
23.04831
26.0838
27.98077
29.14258
29.82635
30.19885
30.33011
30.2579
29.94446
29.37253
28.5694
27.57275
26.44797
25.2424
23.9386
22.54501
21.09937
19.62512
18.22876
16.96939
15.86188
14.88599
13.97226
13.02823
11.98257
10.78461
9.348938
7.624817
5.529633
3.047119
0.2544556
-2.690643
-5.633026
-8.409271
-10.95239
-13.38718
-15.91669
-18.81958
-22.31464
-26.40247
-30.81741
-35.19562
-39.10492
-42.32788
-44.97067
-47.40723
-50.19211
-53.81592
-58.4231
-63.67502
-68.76089
-72.46213
-73.42148
-70.49551
-63.04163
-51.21335
-36.09637
-19.37799
-3.025635
11.29935
22.61777
30.76096
36.19608
39.67776
41.83269
42.97641
43.22008
42.5838
41.21884
39.46367
37.75784
36.42482
35.54033
34.914
34.23006
33.26837
32.01596
30.68207
29.5361
28.64488
27.7924
26.54219
24.49501
21.56094
18.07765
14.66191
11.87233
9.920288
8.538193
7.133057
5.091415
2.120285
-1.685211
-5.909348
-10.01799
-13.63669
-16.64696
-19.16805
-21.52124
-24.07678
-27.17961
-31.06815
-35.71431
-40.83047
-45.94907
-50.58008
-54.47089
-57.76532
-60.96126
-64.74597
-69.68558
-75.88414
-82.8006
-89.18217
-93.19453
-92.80923
-86.44461
-73.49025
-54.72821
-32.32358
-9.202774
11.74263
28.46832
40.28232
47.67436
51.76959
53.82141
54.72986
54.9649
54.79903
54.39288
53.9696
53.6544
53.43492
53.15028
52.62044
51.75891
50.61609
49.41768
48.38167
47.63684
47.1507
46.75032
46.20187
45.34302
44.06166
42.28788
40.01227
37.23277
33.97939
30.40871
26.7129
23.15268
19.97973
17.27261
14.9557
12.88411
10.80578
8.525261
5.920425
2.986969
-0.200676
-3.552849
-6.947502
-10.34443
-13.69987
-17.08202
-20.62231
-24.4387
-28.5486
-32.82838
-37.02809
-40.87013
-44.21492
-47.1166
-49.93797
-53.1947
-57.35974
-62.77246
-69.35329
-76.4636
-82.851
-86.71246
-86.07727
-79.41322
-66.25916
-47.51691
-25.47746
-3.124489
16.78049
32.43156
43.27963
49.89784
53.37939
54.75867
54.80089
53.88288
52.22202
50.10104
47.84818
45.7254
43.8203
41.99043
39.87387
37.16665
33.72213
29.73077
25.6472
21.96161
18.98325
16.67917
14.7115
12.58123
10.01125
6.963852
3.769783
0.8722153
-1.432632
-3.112434
-4.478149
-5.997868
-8.081799
-10.80715
-13.98946
-17.22702
-20.10558
-22.41314
-24.23542
-25.88839
-27.72636
-30.0399
-32.81537
-35.86675
-38.89559
-41.67302
-44.17212
-46.57142
-49.25319
-52.65742
-57.19383
-63.11039
-70.33613
-78.28191
-85.66495
-90.57677
-90.76702
-84.42162
-70.85208
-50.98884
-27.28536
-2.960949
18.92699
36.41105
48.86399
56.87868
61.55864
63.94582
64.6814
64.05005
62.29884
59.79414
57.06321
54.60094
52.64594
51.14152
49.84079
48.46299
46.85551
45.1453
43.53752
42.21573
41.16928
40.16617
38.85719
36.98885
34.52277
31.61717
28.62341
25.88074
23.53442
21.49001
19.4264
16.9509
13.79887
9.984131
5.76651
1.509438
-2.548042
-6.48661
-10.67292
-15.59261
-21.54443
-28.39243
-35.55537
-42.28062
-47.99161
-52.54727
-56.32525
-59.99827
-64.28389
-69.68792
-76.37641
-84.09225
-92.03453
-98.80159
-102.4301
-100.7864
-92.20589
-76.30051
-54.40764
-29.27565
-4.356201
17.35008
34.12436
45.7709
53.22385
57.84703
60.85919
62.85817
64.06081
64.45889
64.08208
63.07054
61.56483
59.64198
57.3192
54.6252
51.57253
48.31508
45.05054
42.00774
39.37312
37.19463
35.42958
33.99239
32.79129
31.74068
30.72981
29.55524
27.95885
25.70792
22.59485
18.69653
14.23778
9.595444
5.11676
0.9374542
-3.031662
-7.138504
-11.70596
-17.0083
-23.09663
-29.7702
-36.64555
-43.30632
-49.40964
-54.77222
-59.53268
-63.99585
-68.70319
-74.2522
-81.14218
-89.34369
-97.95474
-105.0354
-107.8287
-103.6917
-91.10791
-70.51883
-44.38968
-16.48578
9.493134
31.08173
47.49591
59.40051
67.98367
74.17047
78.31012
80.34268
80.30701
78.65546
76.23773
73.93497
72.23117
71.0116
69.75583
67.75958
64.64426
60.55862
56.11682
52.18927
49.3884
47.78534
46.81662
45.60709
43.33005
39.63586
34.85693
29.84039
25.47491
22.26694
20.08392
18.16406
15.61862
11.83289
6.769806
0.9946594
-4.578705
-9.236786
-12.72391
-15.40991
-18.12097
-21.71213
-26.72681
-33.12994
-40.33463
-47.53186
-53.9744
-59.29279
-63.55798
-67.30096
-71.26205
-76.26974
-82.99619
-91.75702
-102.1223
-112.581
-120.5529
-122.8373
-116.6792
-100.8389
-76.40933
-46.60419
-15.75027
12.13245
34.51801
50.71939
61.55774
68.41174
72.5061
74.57428
75.02795
74.23871
72.67368
70.84097
69.02319
67.23648
65.2883
62.96872
60.20316
57.14587
54.1124
51.38617
49.15387
47.39871
45.92117
44.36188
42.3042
39.47845
35.8595
31.74625
27.62701
23.97714
20.99731
18.47095
15.86966
12.59973
8.371002
3.285858
-2.087128
-7.039185
-11.06482
-14.1496
-16.8085
-19.83734
-23.95844
-29.46664
-36.12271
-43.2662
-50.09265
-55.98727
-60.77066
-64.73074
-68.47211
-72.75732
-78.31561
-85.50858
-93.95251
-102.1587
-107.5658
-107.2001
-98.68625
-81.37958
-56.88281
-28.66666
-0.883667
23.06042
41.51239
54.70657
63.98526
70.81522
76.01205
79.60886
81.32281
81.07819
79.29654
76.77353
74.27167
72.16022
70.34006
68.44281
66.16479
63.59558
61.16104
59.38794
58.54703
58.45386
58.42026
57.63992
55.5076
51.89496
47.25266
42.28793
37.7338
34.00854
31.11325
28.62332
25.99945
22.70282
18.4856
13.53885
8.296204
3.338226
-1.002502
-4.771973
-8.459442
-12.70438
-18.01257
-24.39331
-31.38269
-38.22702
-44.29596
-49.3876
-53.82883
-58.36172
-63.80026
-70.83572
-79.80551
-90.48242
-101.8775
-112.1222
-118.553
-118.4162
-109.7128
-92.11761
-67.36411
-38.86609
-10.56436
14.21637
33.70453
47.70279
57.13507
63.25418
67.02362
68.99811
69.44711
68.70313
67.19962
65.38239
63.50662
61.55417
59.29309
56.44699
52.93445
48.95013
45.00079
41.66061
39.34097
38.0809
37.51575
37.03201
35.98276
33.9101
30.75824
26.83328
22.6564
18.71774
15.27261
12.16953
8.942932
5.071808
0.2739868
-5.272949
-10.9509
-16.04706
-20.05646
-23.01797
-25.52348
-28.45932
-32.5432
-37.97952
-44.39828
-51.0405
-57.11761
-62.09258
-65.89529
-68.86444
-71.60582
-74.81541
-79.15062
-84.963
-92.06065
-99.37946
-104.868
-105.8653
-99.93735
-85.82816
-64.26649
-38.01047
-10.95587
13.09639
31.69202
44.24866
51.68512
55.59056
57.31915
57.54741
56.40421
53.98477
50.61951
46.9397
43.60132
40.93915
38.86134
36.90265
34.58682
31.67178
28.29683
24.80176
21.55901
18.84987
16.74304
15.14539
13.86786
12.71352
11.41183
9.768021
7.538589
4.595413
1.042892
-2.849304
-6.624298
-9.847595
-12.28934
-14.11877
-15.85286
-18.26556
-21.97562
-27.17731
-33.53661
-40.2823
-46.51283
-51.57524
-55.3347
-58.14021
-60.70789
-63.89006
-68.48721
-75.03554
-83.55582
-93.14876
-101.8807
-106.9824
-105.5952
-95.83456
-77.66687
-53.13045
-25.77649
0.6077271
23.25108
41.00316
54.23155
64.05064
71.394
76.6403
79.65952
80.27162
78.71605
75.81255
72.58736
69.92822
68.1848
67.04419
65.84665
63.94127
61.03539
57.25905
53.05127
48.94769
45.30255
42.28612
39.76979
37.47931
34.98872
31.90659
27.89023
22.85092
17.02892
10.9211
5.143097
0.082901
-4.294113
-8.505981
-13.34286
-19.46808
-27.05205
-35.66716
-44.43935
-52.39005
-58.90802
-63.90205
-67.88995
-71.72961
-76.33208
-82.45038
-90.54706
-100.6
-111.7373
-122.1063
-128.8627
-128.8628
-119.7354
-100.9182
-74.15408
-43.12186
-12.23154
14.91028
36.46753
52.58212
64.61359
74.09976
81.93399
88.22711
92.63882
94.9422
95.34171
94.35513
92.61526
90.50259
88.05902
85.11902
81.55853
77.5025
73.38113
69.71545
66.84143
64.77139
63.08789
61.11124
58.23163
54.11105
48.8735
43.05417
37.32379
32.1153
27.58221
23.43732
19.16705
14.27704
8.478424
1.867737
-5.138031
-11.85703
-17.67737
-22.21747
-25.57388
-28.28273
-31.13907
-34.96283
-40.21794
-46.79738
-54.04054
-61.04303
-66.98917
-71.57491
-75.14787
-78.49495
-82.62726
-88.37698
-96.18684
-105.8831
-116.4391
-125.899
-131.4901
-130.2454
-119.928
-100.1208
-72.69864
-41.52109
-11.09888
14.86975
34.68866
48.86105
59.22246
67.75615
75.61104
82.82936
88.72995
92.62122
94.28273
94.04478
92.54938
90.32584
87.61227
84.42642
80.70532
76.56873
72.35997
68.52039
65.44455
63.31987
61.9742
60.94331
59.71246
57.83621
55.18948
51.92596
48.32512
44.68636
41.18733
37.78223
34.31427
30.6729
26.84222
22.95265
19.15785
15.47459
11.77089
7.834045
3.515945
-1.129242
-5.793304
-10.10345
-13.7635
-16.7874
-19.57065
-22.75568
-26.97314
-32.54773
-39.29628
-46.59972
-53.65971
-59.84338
-64.93304
-69.22867
-73.37154
-78.12502
-84.10683
-91.58368
-100.2914
-109.2668
-116.7794
-120.4866
-118.0353
-107.8107
-89.75235
-65.66396
-38.78054
-12.75636
9.475517
26.48504
38.41952
46.37189
51.61682
54.99469
56.84037
57.21745
56.29385
54.53455
52.49904
50.62709
48.97924
47.22019
44.87338
41.62761
37.62757
33.43877
29.82227
27.33567
26.13078
25.78255
25.50955
24.53776
22.42134
19.27608
15.61183
12.09901
9.224171
7.131639
5.542286
3.975199
1.92306
-0.9172354
-4.562828
-8.748658
-13.0519
-17.08648
-20.63034
-23.79817
-26.97518
-30.68826
-35.36741
-41.12507
-47.63561
-54.25478
-60.30513
-65.28928
-69.15704
-72.25237
-75.22529
-78.83088
-83.68165
-90.00796
-97.45079
-104.8481
-110.1809
-110.9666
-104.9735
-91.13068
-70.17178
-44.64713
-18.16485
5.718199
24.64917
37.94964
46.42746
51.56307
54.68496
56.48114
57.11128
56.57113
55.1357
53.40678
52.0976
51.66907
52.0302
52.64395
52.75539
51.83666
49.88433
47.43108
45.26197
44.06162
43.91615
44.33604
44.45547
43.35793
40.56327
36.21049
30.97774
25.74674
21.21853
17.59692
14.61385
11.71064
8.326094
4.148428
-0.7976112
-6.181135
-11.50374
-16.23776
-20.04631
-22.94945
-25.29888
-27.80015
-31.17342
-35.95506
-42.25097
-49.71726
-57.66761
-65.38139
-72.36301
-78.46544
-83.95972
-89.35632
-95.33704
-102.495
-111.0332
-120.3248
-128.6901
-133.5555
-132.1051
-122.2547
-103.6092
-77.87172
-48.40286
-19.15784
6.633507
27.2868
42.78185
54.1627
62.77495
69.60281
75.05807
79.22274
82.18556
84.13477
85.40358
86.27554
86.83466
86.96225
86.48386
85.31329
83.5841
81.64311
79.86182
78.48612
77.50905
76.68034
75.5325
73.67627
70.93813
67.49115
63.73742
60.12291
56.96326
54.27982
51.832
49.21051
46.06286
42.27826
38.03718
33.64633
29.31885
25.10898
20.86121
16.37364
11.5552
6.522522
1.576973
-2.961983
-6.944061
-10.50253
-14.01668
-17.92917
-22.58535
-28.02834
-33.98148
-39.9522
-45.4603
-50.19344
-54.20905
-57.89952
-61.94413
-67.0507
-73.74944
-82.13911
-91.58301
-100.6228
-107.0393
-108.3235
-102.4225
-88.58809
-67.89171
-43.04743
-17.6538
4.959206
22.74406
35.30042
43.51197
48.78218
52.30786
54.65054
55.87319
55.91579
54.86993
53.13026
51.17043
49.30127
47.51234
45.60046
43.28538
40.45834
37.30148
34.20441
31.60423
29.71876
28.48889
27.53282
26.34233
24.45307
21.63231
17.93896
13.66107
9.23165
5.064589
1.45689
-1.479226
-3.918213
-6.208049
-8.746331
-11.80075
-15.41424
-19.35022
-23.18349
-26.46969
-28.91085
-30.44794
-31.22278
-31.56973
-31.93092
-32.81896
-34.67759
-37.73791
-41.92133
-46.7759
-51.71027
-56.14556
-59.89114
-63.18526
-66.68752
-71.20482
-77.38641
-85.39776
-94.5494
-103.2458
-109.1489
-109.7109
-103.0356
-88.60704
-67.77636
-43.38992
-18.97927
2.436965
19.16977
31.04082
39.01716
44.44099
48.35189
51.26712
53.2937
54.40701
54.77055
54.71956
54.69035
54.97904
55.66277
56.62191
57.52541
58.09653
58.1104
57.57372
56.60686
55.39968
54.06579
52.56112
50.72969
48.34546
45.29937
41.61702
37.54189
33.40113
29.50608
26.02584
22.92261
20.00563
17.00786
13.68084
9.845005
5.401897
0.3494797
-5.247952
-11.28228
-17.64064
-24.24369
-31.06979
-38.11292
-45.3987
-52.90425
-60.36857
-67.34596
-73.23369
-77.65671
-80.57137
-82.51344
-84.4632
-87.57141
-92.82936
-100.6617
-110.6964
-121.452
-130.4719
-134.6797
-131.2993
-118.7922
-97.62003
-70.37386
-40.9044
-13.19363
10.0211
27.87081
41.11668
51.21672
59.43848
66.31506
71.72559
75.3633
77.18118
77.56
77.15889
76.5833
76.05174
75.40977
74.28676
72.38362
69.8015
67.00935
64.72762
63.56439
63.66673
64.59071
65.41742
65.0838
62.83582
58.59273
52.9055
46.74115
41.08435
36.51253
33.05849
30.16727
26.97375
22.61238
16.65443
9.19693
0.8679962
-7.472748
-15.06009
-21.54468
-27.13721
-32.49255
-38.45348
-45.59114
-54.14157
-63.82124
-74.0383
-83.96927
-92.68446
-99.37862
-103.5336
-105.2848
-105.5717
-106.0567
-108.3755
-113.2483
-119.7046
-125.0528
-125.8349
-119.3816
-105.1563
-85.1759
-63.28174
-43.53381
-28.78989
-20.03232
-16.47076
-16.33731
-17.56589
-18.10196
-15.95898
-9.299957
3.239044
21.93546
45.51898
71.43881
96.4295
117.6064
133.2153
143.0017
147.9203
149.5638
149.4948
148.7506
147.8007
146.5308
144.5509
141.4821
137.1339
131.594
125.2502
118.585
112.0597
105.9988
100.4362
95.21704
90.05511
84.63657
78.6752
72.05545
64.84494
57.25668
49.58548
42.00467
34.52847
26.92831
18.83545
9.857452
-0.1647644
-11.09457
-22.52924
-33.91565
-44.73935
-54.71121
-63.81091
-72.33734
-80.94296
-90.36365
-101.2245
-113.4066
-125.6264
-135.3311
-139.2659
-134.564
-120.0219
-96.82712
-68.34238
-39.02777
-12.90668
7.664154
22.31
32.11246
38.63571
43.11661
46.15843
47.92738
48.59497
48.64532
48.73868
49.33429
50.4554
51.55682
51.80457
50.45613
47.2885
42.69135
37.56645
32.91528
29.43571
27.34389
26.35776
25.94397
25.41872
24.22758
22.00156
18.58333
14.06934
8.763107
3.1474
-2.350952
-7.533295
-12.56137
-18.02513
-24.62299
-32.96408
-43.16037
-54.68016
-66.46028
-77.32628
-86.39131
-93.37859
-98.7576
-103.485
-108.696
-115.3104
-123.8392
-134.1151
-145.0984
-154.7071
-160.0523
-158.0723
-146.5777
-125.3148
-96.33777
-63.59448
-31.62677
-4.049866
17.48599
33.31996
45.01515
54.2818
62.11058
68.61037
73.45648
76.41312
77.70233
77.91516
77.60394
77.01285
75.95184
74.02603
71.00832
67.157
63.18211
59.9196
57.85107
56.76797
55.82832
53.8344
49.8242
43.5594
35.62646
27.21657
19.63399
13.73332
9.510086
6.177368
2.421478
-2.995758
-10.74101
-20.61726
-31.72362
-42.79227
-52.68564
-60.85049
-67.45901
-73.37357
-79.78387
-87.84933
-98.34198
-111.087
-124.6529
-136.2734
-142.351
-139.5119
-125.9517
-102.3195
-71.67596
-38.59558
-7.559601
18.47827
38.64236
53.82166
65.65796
75.51752
83.93484
90.82388
95.82062
98.82571
100.1022
100.0632
99.03952
97.07547
93.92313
89.30283
83.22235
76.11584
68.90411
62.64584
58.21713
55.9057
55.19943
54.90594
53.59384
50.12625
44.0997
36.03043
27.09921
18.63242
11.60464
6.261658
2.028412
-2.137909
-7.317383
-14.14313
-22.56906
-31.86948
-41.05719
-49.23758
-56.01288
-61.61758
-66.7067
-72.09033
-78.46445
-86.30435
-95.80618
-106.7138
-118.0125
-127.6035
-132.5134
-129.65
-117.0627
-94.99954
-66.17358
-34.92932
-5.707458
18.48889
36.78641
50.0722
60.02484
67.9613
74.35391
79.0394
81.7182
82.44467
81.67526
79.97223
77.67395
74.77643
71.06238
66.46085
61.41974
56.83524
53.79636
53.0961
54.74869
57.84335
60.88007
62.24368
60.83432
56.51315
49.96994
42.51904
35.51862
29.90424
25.89331
23.11203
20.68201
17.74844
13.76651
8.716187
3.05954
-2.457306
-7.247162
-11.16907
-14.57953
-18.26688
-23.02051
-29.30273
-37.0144
-45.47495
-53.71817
-60.88934
-66.62027
-71.16837
-75.31149
-80.13885
-86.69333
-95.69662
-107.1264
-119.8396
-131.4536
-138.5464
-137.6144
-126.3361
-104.7107
-75.34695
-42.759
-11.73102
14.28766
34.09271
48.5394
59.55585
68.80069
76.97806
83.90393
89.01501
92.12015
93.5336
93.92099
93.90491
93.71439
93.17993
91.91092
89.67374
86.59827
83.13297
79.86801
77.2579
75.38809
73.94879
72.41403
70.29572
67.33167
63.53015
59.06079
54.10022
48.70499
42.77853
36.21677
29.10156
21.78214
14.76309
8.489288
3.166534
-1.39505
-5.683105
-10.22357
-15.38068
-21.07962
-26.88626
-32.20264
-36.64728
-40.25397
-43.51575
-47.12494
-51.6488
-57.20013
-63.35562
-69.35883
-74.5117
-78.43663
-81.25438
-83.53294
-86.02553
-89.54855
-94.77377
-101.9668
-110.5872
-119.0114
-124.5508
-124.118
-115.3548
-97.66223
-72.69244
-43.93181
-15.41219
9.61647
29.50902
44.32166
55.14516
63.13914
69.07762
73.1832
75.36537
75.58699
73.97243
70.82361
66.56779
61.74823
56.87364
52.49695
49.07375
46.95274
46.33768
47.24803
49.51588
52.73328
56.26459
59.28398
60.96037
60.64166
58.09271
53.57065
47.83391
41.82689
36.3911
32.05481
28.78987
26.19835
23.62177
20.53343
16.78564
12.70476
8.911407
5.998199
4.144699
2.890579
1.273254
-1.898102
-7.563141
-16.07101
-27.03503
-39.48563
-52.20079
-64.03706
-74.19368
-82.31569
-88.51123
-93.32993
-97.74802
-102.9731
-110.1293
-119.6981
-130.896
-141.4468
-147.9044
-146.7864
-135.9892
-115.8121
-89.05589
-60.07658
-33.24117
-11.40529
4.710068
16.12665
24.61535
31.57193
37.49467
42.13506
45.07614
46.30346
46.41511
46.3594
46.99409
48.72102
51.35832
54.2953
56.83401
58.57749
59.6192
60.39352
61.32111
62.56957
63.78811
64.30356
63.39919
60.74802
56.61785
51.82316
47.38264
44.05145
42.05845
41.05087
40.32998
39.21761
37.45305
35.21949
33.10836
31.73283
31.48051
32.31187
33.75723
35.10859
35.75755
35.3813
34.06107
32.18969
30.23486
28.57392
27.3266
26.41935
25.61002
24.60815
23.11621
20.91931
17.9363
14.36368
10.73131
7.826418
6.441165
7.02263
9.339015
12.45205
15.07405
15.96524
14.45679
10.64157
5.26688
-0.6294556
-6.077713
-10.47445
-13.58784
-15.42097
-16.07935
-15.76907
-14.82043
-13.76855
-13.33955
-14.22379
-16.82057
-20.9735
-26.04454
-31.10117
-35.27219
-38.07474
-39.49522
-39.93553
-39.93419
-40.00974
-40.46533
-41.44745
-43.01564
-45.16226
-47.85115
-51.01935
-54.51427
-58.13625
-61.64273
-64.82175
-67.4921
-69.61797
-71.33192
-72.92099
-74.71849
-76.88374
-79.20787
-81.10233
-81.82278
-80.6915
-77.54237
-72.82475
-67.46587
-62.60332
-59.12199
-57.53427
-57.79961
-59.3542
-61.11603
-61.49483
-58.65331
-51.01611
-37.90062
-19.9189
1.012695
22.23184
41.13448
55.93054
66.04085
71.90514
74.51926
74.84679
73.6201
71.31445
68.2919
64.9236
61.55144
58.39194
55.41644
52.3956
49.00337
45.08176
40.78505
36.51978
32.76483
29.70578
27.11154
24.30812
20.52193
15.31004
8.831253
1.824142
-4.749771
-10.15236
-14.30385
-17.78186
-21.6127
-26.67462
-33.28438
-41.05989
-49.12036
-56.52242
-62.62733
-67.44792
-71.50269
-75.62793
-80.68275
-87.24971
-95.4689
-104.773
-113.7272
-119.9257
-120.4865
-112.861
-95.99771
-71.04338
-41.30009
-11.19748
15.22903
35.55373
49.52869
58.50906
64.40006
68.62761
71.74231
73.5871
73.85994
72.60777
70.2259
67.27406
64.14574
60.90591
57.40331
53.48463
49.27979
45.20464
41.84332
39.64467
38.6378
38.29116
37.66614
35.90286
32.52809
27.73556
22.24435
16.98883
12.60574
9.176216
6.105083
2.428818
-2.736141
-9.785622
-18.3617
-27.50771
-35.98631
-42.8363
-47.73538
-51.16332
-54.20308
-58.19477
-64.24746
-72.72645
-82.91717
-92.8436
-99.58199
-99.95058
-91.60845
-73.98851
-48.75165
-19.39209
10.00382
36.01854
56.92867
72.75507
84.63024
93.83037
101.1217
106.6894
110.4646
112.5796
113.523
113.941
114.2504
114.3571
113.762
111.7913
108.0865
102.8073
96.6309
90.46337
85.08025
80.7625
77.28522
74.04019
70.36322
65.87083
60.54929
54.75318
48.97102
43.58944
38.75024
34.37517
30.22257
26.0274
21.59432
16.8635
11.93713
7.041672
2.39933
-1.818161
-5.588554
-9.091934
-12.57065
-16.18023
-19.90024
-23.5546
-26.93451
-30.03159
-33.11038
-36.62117
-41.03783
-46.52275
-52.82487
-59.43898
-65.76726
-71.43948
-76.43312
-81.04201
-85.73451
-90.96136
-97.00117
-103.8599
-111.2007
-118.0597
-122.8024
-123.4244
-118.0832
-105.8821
-87.45889
-64.98035
-41.5948
-20.42436
-3.566437
8.316116
15.76794
19.94336
21.92932
22.36356
21.51834
19.57465
16.88181
14.00426
11.49469
9.6772
8.580521
8.034134
7.811386
7.856308
8.244019
9.056076
10.24538
11.54323
12.60873
13.2751
13.56398
13.66785
13.8242
14.10075
14.36116
14.33583
13.77496
12.60872
10.94801
8.94397
6.709183
4.248672
1.505432
-1.615631
-5.163574
-9.089828
-13.32877
-17.68515
-21.99287
-26.11188
-29.99329
-33.71262
-37.52097
-41.80244
-47.02728
-53.67088
-62.04016
-72.02423
-82.71371
-92.25714
-98.02724
-97.27821
-88.16881
-70.64378
-46.67619
-19.75932
6.227066
28.29443
45.00565
56.5406
64.04871
68.86891
71.89977
73.53833
73.91672
73.16748
71.66788
69.9269
68.36798
67.1461
66.06163
64.68607
62.55499
59.46429
55.59494
51.51697
47.91852
45.32187
43.77248
42.79976
41.64793
39.54745
36.09093
31.38434
26.01961
20.71414
16.01109
11.96556
8.113098
3.769485
-1.655045
-8.324982
-15.89015
-23.58357
-30.62802
-36.57959
-41.55507
-46.18889
-51.25845
-57.31386
-64.38124
-71.93993
-79.17346
-85.34149
-90.07693
-93.49304
-96.12892
-98.74387
-102.119
-106.9411
-113.6096
-121.9406
-130.8295
-138.0416
-140.5236
-135.2793
-120.5148
-96.61346
-66.21548
-33.43549
-2.468689
23.8221
44.44728
60.06444
72.04863
81.5542
89.02359
94.37712
97.48457
98.50089
97.99007
96.64897
94.95938
93.07212
90.82533
87.98907
84.53078
80.79667
77.30003
74.55624
72.81358
71.84203
71.05423
69.67359
67.07836
63.03064
57.82666
52.11877
46.69644
42.11128
38.46413
35.45354
32.50872
29.17358
25.27856
21.05973
16.94257
13.30708
10.25588
7.486221
4.51329
0.8672333
-3.623253
-8.751617
-14.01033
-18.91216
-23.22247
-27.09909
-31.06509
-35.6471
-41.18336
-47.52618
-54.17561
-60.4489
-65.82435
-70.15916
-73.68623
-76.92154
-80.42089
-84.74855
-90.2769
-97.06541
-104.6238
-111.6826
-116.1118
-115.3122
-107.0841
-90.46844
-66.4604
-37.84427
-8.320015
18.70186
41.07369
58.29188
71.08184
80.60634
87.77427
92.96464
96.2891
97.87643
98.12612
97.57037
96.60477
95.29593
93.32072
90.24321
85.82719
80.20196
73.97386
67.88505
62.67616
58.71053
55.95757
53.98309
52.20212
50.01855
47.11733
43.51723
39.50536
35.56009
31.97636
28.80418
25.79745
22.58091
18.86067
14.58041
9.958374
5.376099
1.20462
-2.402878
-5.55011
-8.502655
-11.56725
-14.88643
-18.40576
-21.86984
-25.03017
-27.76266
-30.13646
-32.44757
-35.01024
-38.04819
-41.55545
-45.37297
-49.24899
-52.99828
-56.49022
-59.70549
-62.68796
-65.58163
-68.6581
-72.19472
-76.34032
-80.85883
-85.03906
-87.65002
-87.23366
-82.56702
-73.08362
-59.19398
-42.27301
-24.22282
-7.008606
7.893234
19.77618
28.6376
34.92796
39.23007
41.99377
43.48181
43.89488
43.50485
42.67197
41.79097
41.15202
40.81091
40.58667
40.15361
39.27126
37.86787
36.12729
34.3709
32.90692
31.86578
31.13219
30.42535
29.396
27.87495
25.84705
23.43335
20.80634
18.12015
15.474
12.91815
10.57892
8.504272
6.729034
5.145477
3.53537
1.634796
-0.6854248
-3.400146
-6.335236
-9.221039
-11.93582
-14.5094
-17.18832
-20.26498
-23.87747
-27.94461
-32.16339
-36.11215
-39.48276
-42.17377
-44.39923
-46.64996
-49.4783
-53.25677
-58.07385
-63.62509
-69.16678
-73.74939
-76.33212
-75.94998
-71.99731
-64.3389
-53.41565
-40.23474
-26.19104
-12.7258
-0.990509
8.366028
15.30539
20.20313
23.62357
26.07147
27.81015
28.91141
29.39529
29.25772
28.56445
27.43268
25.92416
24.11758
22.05005
19.78622
17.44901
15.20142
13.17468
11.48816
10.17404
9.096008
8.037598
6.718628
4.887939
2.528687
-0.180542
-2.897949
-5.249603
-7.047516
-8.397064
-9.593262
-10.97736
-12.76172
-14.89203
-17.13657
-19.24081
-21.04303
-22.64105
-24.29245
-26.36105
-29.14636
-32.72803
-36.93971
-41.39174
-45.62025
-49.28595
-52.30273
-54.89781
-57.50452
-60.72609
-65.0303
-70.74524
-77.8877
-86.0265
-94.07948
-100.3197
-102.5267
-98.58173
-87.26845
-68.81241
-45.07825
-19.0141
6.235703
28.25552
45.90062
59.18221
68.82462
75.68579
80.41826
83.31111
84.5981
84.53677
83.53949
82.08754
80.51363
78.95782
77.3306
75.43404
73.05031
70.13067
66.79453
63.28986
59.92985
56.9335
54.38667
52.17041
50.07706
47.80149
45.09755
41.92384
38.35459
34.71284
31.2496
28.0437
24.89381
21.39635
17.18339
12.14938
6.543411
0.8371353
-4.413361
-8.868134
-12.52693
-15.76369
-19.13241
-23.23273
-28.43948
-34.81091
-42.07674
-49.62602
-56.80042
-63.07986
-68.3872
-73.09754
-77.94569
-83.67926
-90.70433
-98.95795
-107.6572
-115.3127
-119.945
-119.4308
-112.1443
-97.53909
-76.49791
-51.27557
-24.83846
-0.02098083
21.24274
38.2049
51.19792
61.04074
68.52636
74.14968
78.07607
80.39041
81.28992
81.08253
80.13448
78.77971
77.18265
75.30969
73.02096
70.20954
66.89626
63.35854
59.98179
57.09795
54.91435
53.36106
52.119
50.79533
49.08979
46.88625
44.23246
41.27349
38.13063
34.87755
31.4977
28.0205
24.52342
21.12475
17.87454
14.68016
11.27743
7.337084
2.635633
-2.7878
-8.563574
-14.06486
-18.72737
-22.32525
-25.0689
-27.54135
-30.41043
-34.10905
-38.65688
-43.72257
-48.78899
-53.46297
-57.62693
-61.49903
-65.52821
-70.20367
-75.93856
-82.79541
-90.42509
-97.80402
-103.2901
-104.7485
-100.1298
-88.16571
-68.97993
-44.28605
-17.00552
9.586002
32.83821
51.34169
65.08027
74.94405
82.04774
87.21181
90.7442
92.66292
93.00355
91.9786
89.96883
87.32168
84.25211
80.77604
77.0034
73.22218
69.90693
67.44423
65.76374
64.23346
61.79584
57.4776
50.8272
42.31874
33.16467
24.88491
18.73522
15.27764
14.2796
14.94299
16.21894
17.15675
17.18604
16.1063
14.05897
11.41463
8.59691
5.945585
3.633495
1.609932
-0.419136
-2.9039
-6.356312
-11.17146
-17.37247
-24.55947
-31.96995
-38.6938
-43.98417
-47.46542
-49.26463
-49.86759
-49.90607
-49.97603
-50.52635
-51.90937
-54.28016
-57.74012
-62.13118
-66.9994
-71.62823
-74.99943
-76.05044
-73.88385
-68.04932
-58.65717
-46.47395
-32.75781
-18.93047
-6.286659
4.341904
12.65615
18.86026
23.36749
26.64104
28.97853
30.53412
31.44109
31.87818
32.12611
32.45731
33.02415
33.74651
34.38691
34.6759
34.39328
33.53625
32.24925
30.72726
29.11128
27.40593
25.5249
23.37674
20.90993
18.10463
14.97662
11.49339
7.68042
3.624832
-0.4954376
-4.383362
-7.76564
-10.43616
-12.38132
-13.77983
-14.92583
-16.12682
-17.61305
-19.48097
-21.67218
-24.00192
-26.2383
-28.21249
-29.90749
-31.52544
-33.41707
-35.98134
-39.46829
-43.85602
-48.81679
-53.75578
-57.93198
-60.60657
-61.19385
-59.26428
-54.72041
-47.75577
-38.89034
-28.94783
-18.82687
-9.345276
-1.085052
5.699326
11.04297
15.10576
18.11446
20.21579
21.48006
21.98546
21.89174
21.40286
20.77824
20.20586
19.70688
19.1409
18.24178
16.73756
14.53877
11.81454
8.921082
6.347137
4.43309
3.218842
2.426147
1.550995
0.1139984
-2.114746
-5.086128
-8.514206
-12.10992
-15.78228
-19.61104
-23.70967
-28.04395
-32.3988
-36.42187
-39.95905
-43.13147
-46.29205
-49.7561
-53.53332
-57.06123
-59.47211
-59.98972
-58.14784
-53.88923
-47.31252
-38.37717
-26.96248
-13.1562
2.383911
18.13081
31.99467
42.05921
47.37373
48.45595
47.07839
45.52964
45.6402
48.04324
52.06123
56.1186
58.4539
57.78392
53.75965
46.97831
38.69155
30.36957
23.22912
17.93766
14.58214
12.79595
11.92359
11.3543
10.59167
9.323029
7.396908
4.739418
1.320162
-2.798815
-7.423809
-12.25815
-16.8896
-20.97107
-24.29018
-26.92215
-29.26549
-31.97107
-35.74543
-41.10719
-48.20467
-56.73212
-65.9963
-75.10196
-83.30695
-90.21907
-95.95821
-101.1824
-106.878
-114.0991
-123.5787
-135.4494
-148.8206
-161.7796
-171.4989
-174.8683
-169.3691
-153.9686
-129.4477
-98.17183
-63.3459
-27.98532
5.709503
36.54123
64.00702
87.81482
107.625
123.0462
133.8901
140.3522
143.0093
142.6884
140.2415
136.4465
131.9206
127.1786
122.5612
118.3316
114.6087
111.4594
108.8869
106.7681
104.9034
102.9187
100.3888
96.91351
92.31723
86.68704
80.38553
73.8508
67.37277
61.06943
54.8652
48.69232
42.61688
36.8663
31.70667
27.23569
23.33054
19.57407
15.48578
10.68832
5.167847
-0.7260132
-6.445343
-11.54224
-16.02158
-20.31586
-25.20221
-31.30789
-38.78961
-47.14398
-55.44354
-62.7688
-68.68839
-73.45645
-77.86444
-82.90845
-89.41425
-97.81549
-107.9804
-119.0174
-129.1109
-135.5178
-135.1002
-125.2939
-105.2448
-76.54135
-42.94394
-9.247894
20.28717
43.17737
59.05853
69.06042
74.87228
77.81638
78.61642
77.70731
75.51303
72.75574
70.15128
68.16458
66.71005
65.29761
63.30139
60.36469
56.65955
52.78183
49.4761
47.20178
46.00305
45.43445
44.82272
43.60254
41.4989
38.62286
35.28906
31.90262
28.76782
26.08948
23.94659
22.36148
21.27435
20.50003
19.7514
18.59549
16.56613
13.30331
8.727264
3.102417
-3.005981
-8.855011
-13.83551
-17.61618
-20.35397
-22.61258
-25.19812
-28.83795
-33.91592
-40.35486
-47.65588
-55.14554
-62.2193
-68.60516
-74.39014
-79.99323
-85.98853
-92.94919
-101.2275
-110.5919
-119.9382
-127.0662
-129.0678
-123.0948
-107.5599
-83.06738
-52.52765
-20.27417
9.395355
33.6174
51.6684
64.58316
74.08749
81.51721
87.23688
90.90524
92.12384
91.05923
88.5155
85.57632
83.07599
81.18271
79.41159
77.05157
73.68018
69.50534
65.34293
62.18567
60.69559
60.84146
61.89911
62.74493
62.31815
60.03397
55.95801
50.68872
45.11646
40.01263
35.78113
32.38455
29.43582
26.41449
22.85162
18.60901
13.86899
9.098083
4.837738
1.526855
-0.7284546
-2.191071
-3.405304
-5.081207
-7.723999
-11.4487
-15.90503
-20.44962
-24.4364
-27.49173
-29.67102
-31.40106
-33.3273
-36.08057
-40.16605
-45.76837
-52.63226
-59.80017
-65.57526
-67.70593
-63.9649
-53.00598
-35.04672
-12.06082
12.77759
36.09888
55.38364
69.55872
78.91614
84.53088
87.53479
88.66162
88.19604
86.24728
83.07028
79.14084
75.05096
71.22629
67.78564
64.45627
60.80988
56.46301
51.31779
45.58702
39.63243
33.81671
28.26422
22.90187
17.48239
11.90868
6.302719
1.058975
-3.320847
-6.510788
-8.486893
-9.656311
-10.61456
-11.92223
-13.8679
-16.36969
-19.01772
-21.37149
-23.1552
-24.40417
-25.46023
-26.79879
-28.78786
-31.60101
-35.14269
-39.07224
-42.99247
-46.60574
-49.80732
-52.68827
-55.49743
-58.53531
-62.04946
-66.12094
-70.60175
-74.96562
-78.26929
-79.23668
-76.52571
-69.13033
-56.92957
-40.93821
-23.07191
-5.713957
9.045847
20.00415
26.99302
30.66034
32.01804
31.95461
31.02836
29.53937
27.67688
25.66383
23.80202
22.35521
21.34073
20.61534
19.90268
18.96105
17.73839
16.38026
15.1706
14.36961
14.03259
14.04747
14.13061
13.93028
13.19873
11.76965
9.575882
6.693405
3.273422
-0.494873
-4.391068
-8.262848
-12.049
-15.79115
-19.60898
-23.65814
-28.07146
-32.93835
-38.28975
-44.04338
-50.04921
-56.1021
-62.01932
-67.65773
-73.03975
-78.28024
-83.56575
-88.94418
-94.198
-98.85324
-102.1512
-103.2109
-101.1939
-95.51361
-86.10114
-73.6409
-59.59015
-45.98882
-34.80522
-26.99092
-21.77972
-16.36865
-6.652039
11.51729
41.03839
82.79816
135.6922
196.9145
262.3464
326.71
383.8929
427.6264
452.7773
456.8293
440.8232
409.2086
368.4107
325.0373
284.0808
248.2774
218.1922
192.9192
170.7011
149.2763
126.1857
99.17389
66.97198
29.96008
-9.481445
-47.44781
-79.49933
-102.0173
-113.5756
-115.6406
-112.254
-108.8594
-110.4976
-119.9874
-136.9291
-157.8124
-177.644
-192.0463
-199.3339
-201.3519
-202.8958
-209.7952
-226.355
-253.1997
-286.3018
-317.6862
-337.699
-338.2574
-315.955
-273.7433
-220.3663
-167.5981
-126.1947
-102.5931
-97.42358
-106.6003
-123.877
-143.6028
-162.1395
-177.7609
-189.5724
-196.6377
-198.0046
-193.3922
-184.0798
-173.013
-164.0636
-160.5123
-163.8049
-172.8271
-184.2194
-193.5768
-197.0518
-192.8015
-181.7068
-166.8707
-152.1539
-140.4808
-132.7838
-127.9952
-124.2582
-120.1682
-115.4022
-110.3639
-105.082
-98.46808
-88.31305
-72.21429
-48.69434
-17.8399
19.02301
60.25806
104.541
150.7179
197.0794
240.7164
277.6647
303.9735
317.0997
316.849
305.3604
286.0964
262.5364
237.2802
211.8863
187.3654
164.6508
144.8386
128.8853
117.1289
108.9701
103.074
97.83812
91.9826
84.8242
76.21692
66.29932
55.21346
43.00055
29.62566
15.23103
0.2054596
-14.80099
-29.0675
-41.96265
-53.10787
-62.38802
-69.91387
-75.9653
-80.90667
-85.08921
-88.68449
-91.37714
-92.21075
-89.76423
-82.79014
-70.94052
-55.33938
-38.35658
-22.75856
-10.43634
-1.479713
5.797699
14.04035
25.50207
41.18606
60.64502
82.5749
105.6408
128.9332
151.8163
173.3283
191.6936
204.2038
207.989
201.0655
183.3612
157.1721
126.7025
96.86801
71.73943
53.56011
42.489
37.31907
36.57462
39.33739
45.46098
55.19694
68.64671
85.2695
104.0733
123.866
143.3963
161.5185
177.1649
189.6654
199.0605
206.3229
212.8779
219.8384
227.2724
233.8196
237.2134
235.4853
228.0993
216.4501
203.5914
193.0536
187.5341
187.8407
192.6298
198.9543
203.4056
203.2606
197.0895
184.9282
167.6243
146.0049
120.3088
90.36426
56.29706
19.22266
-18.19946
-52.15509
-78.59418
-94.58307
-99.36859
-94.69305
-84.13855
-71.76776
-60.78778
-52.93561
-48.44232
-46.55432
-46.06592
-45.58899
-43.6861
-39.198
-31.80054
-22.55762
-14.03979
-9.664063
-12.34607
-23.33911
-41.58936
-64.04456
-86.9231
-106.96
-122.2773
-132.8171
-140.0861
-146.3754
-153.9604
-164.3979
-178.0586
-194.3499
-212.2865
-231.1853
-250.9188
-271.7278
-293.6475
-315.949
-337.0549
-354.9171
-367.5645
-373.675
-372.8059
-365.3234
-352.1975
-334.6934
-314.0334
-291.2166
-266.8618
-241.307
-214.6251
-186.7954
-157.8605
-128.015
-97.6582
-67.41699
-38.10242
-10.64697
13.95618
34.81165
51.33105
63.23669
70.75354
74.58618
75.81018
75.8302
76.10461
77.86047
81.68225
87.44617
94.22803
100.6051
105.1244
106.6707
104.6582
98.93347
89.40857
75.76147
57.66138
35.11438
9.049194
-18.58618
-45.27502
-68.7915
-88.21973
-104.2212
-118.6398
-133.4243
-149.5714
-166.573
-182.7587
-196.1254
-205.2314
-209.8788
-210.9781
-210.031
-208.6714
-208.2531
-209.7742
-213.7245
-220.0154
-227.6636
-234.7754
-238.8481
-237.213
-227.7472
-209.3397
-182.0094
-146.7139
-105.1317
-59.2959
-11.50549
36.03491
81.51563
123.9846
163.6711
201.8093
240.0718
279.9537
322.4688
367.7609
414.8444
460.9648
501.2076
529.0139
537.8652
523.729
487.0901
433.2253
370.323
306.3345
246.1746
190.7445
138.1492
86.08942
33.78632
-17.70428
-66.59406
-111.9991
-154.9632
-198.3349
-245.5613
-298.9212
-357.9085
-418.299
-472.5526
-511.7507
-528.3996
-519.1183
-485.9426
-435.6188
-376.891
-317.4116
-261.7856
-211.1776
-164.7827
-121.6626
-81.77924
-45.76184
-13.84552
15.04755
43.0437
71.80835
100.8602
126.6251
143.2625
144.93
128.9354
97.60474
58.11908
20.07837
-8.149231
-22.16968
-22.42651
-12.62048
2.842316
20.99487
40.90634
62.62369
85.66623
108.0594
126.7908
139.0253
143.4205
140.7106
133.1147
123.1938
112.7817
102.629
92.82129
83.63095
76.00842
71.52827
71.68617
77.00009
86.33403
97.03532
105.818
109.939
108.2953
101.6811
92.33628
82.88821
75.3054
70.34042
67.5831
66.01012
64.536
62.3824
59.0627
54.26824
47.75712
39.36507
29.162
17.50878
5.018782
-7.643394
-19.83316
-30.88576
-39.90142
-45.65137
-46.89501
-42.85748
-33.8558
-21.68499
-9.22451
0.4308167
5.073151
4.298241
-0.2720413
-5.764503
-9.227951
-8.791046
-4.115051
3.895615
13.77893
24.16226
33.94995
42.18423
47.73215
49.35124
46.15117
38.25412
27.18219
15.56897
6.204025
0.9415131
0.108017
2.567795
6.602936
10.81332
14.72899
18.80714
23.80675
30.13199
37.50052
45.0224
51.4791
55.84283
57.40057
55.73145
50.81662
43.20737
34.2374
26.01816
20.86981
20.4165
24.80048
32.35992
40.16278
45.24463
45.85934
42.19519
36.05185
29.85083
25.42322
23.43817
23.50165
24.73486
26.44955
28.25964
29.86472
30.60098
29.35385
24.84351
16.28546
3.853241
-11.39301
-27.88913
-44.1048
-58.7092
-70.38058
-77.43881
-77.92703
-70.17474
-53.75204
-30.16272
-2.815643
23.98126
46.39142
62.17352
71.0199
74.01855
72.65726
68.17355
61.30688
52.63449
42.97189
33.44287
25.27802
19.38281
16.11179
15.14484
15.67044
16.64258
17.05859
16.17407
13.69653
9.953064
5.816223
2.463379
0.8708496
1.349152
3.304138
5.389343
6.014893
3.949371
-1.216461
-8.905518
-17.95084
-27.01932
-34.98792
-41.19955
-45.27963
-46.94919
-45.9028
-41.86511
-34.88391
-25.58948
-15.19638
-5.283356
2.643677
7.594055
9.452423
9.212128
8.928833
11.37708
19.30484
34.5213
56.92435
84.22586
112.4173
136.9297
154.0445
162.0363
161.4371
154.4943
144.226
133.3792
123.8227
116.4706
111.4095
108.0868
105.5821
102.7089
98.37755
91.96217
83.66753
74.56329
66.18324
59.70694
55.23218
51.61686
46.93117
39.5452
28.99759
16.23628
3.030197
-8.91489
-18.87867
-27.14244
-34.4932
-41.57908
-48.35927
-54.27509
-58.66255
-61.22854
-62.12281
-61.85001
-60.92691
-59.71268
-58.35201
-56.85791
-55.16505
-53.20115
-51.02944
-48.83026
-46.99205
-45.98151
-46.07135
-47.19084
-48.85347
-50.36993
-51.21875
-51.41685
-51.53862
-52.54375
-55.23485
-59.81528
-65.71861
-71.66199
-76.18314
-78.01999
-76.50113
-71.63916
-63.97513
-54.33704
-43.61951
-32.62448
-22.02744
-12.39655
-4.171478
2.319031
6.962341
9.89563
11.48126
12.17468
12.34076
12.15082
11.56277
10.41483
8.623627
6.303802
3.712646
1.17395
-1.159485
-3.327759
-5.523132
-7.903778
-10.42493
-12.86118
-14.94473
-16.5578
-17.81775
-19.06595
-20.68695
-22.96863
-25.94312
-29.37711
-32.88263
-35.97247
-38.22632
-39.2706
-38.87692
-36.85809
-33.20917
-28.06894
-21.74493
-14.78101
-7.802124
-1.453735
3.808167
7.736267
10.37286
11.94357
12.72623
12.97137
12.82022
12.31357
11.4332
10.15659
8.406799
6.195587
3.587585
0.7470093
-2.054016
-4.523438
-6.492798
-7.927673
-8.972107
-9.90094
-10.94482
-12.24707
-13.85168
-15.6723
-17.63202
-19.65808
-21.68384
-23.685
-25.64465
-27.61212
-29.72302
-32.13159
-34.87079
-37.68829
-40.03699
-41.15961
-40.37292
-37.35663
-32.21521
-25.48901
-17.95032
-10.32965
-3.194519
3.0755
8.276306
12.22931
14.81732
16.04315
16.05566
15.19531
13.8894
12.58209
11.56445
10.92065
10.51691
10.10541
9.403076
8.244141
6.637207
4.710205
2.649658
0.5877075
-1.488953
-3.649841
-6.02533
-8.683289
-11.68115
-14.98688
-18.58667
-22.49152
-26.64258
-30.92267
-35.13959
-39.11243
-42.73627
-46.08295
-49.34027
-52.73822
-56.36853
-60.12457
-63.65625
-66.41388
-67.82495
-67.44366
-65.08423
-60.7688
-54.61328
-46.68225
-36.94934
-25.4361
-12.32404
1.868774
16.36005
30.23511
42.66864
53.0343
60.95392
66.21222
68.67792
68.41449
65.72052
61.12167
55.3201
49.01761
42.74646
36.85916
31.61636
27.32037
24.35107
23.03619
23.44138
25.23557
27.70221
29.92825
31.15961
31.09137
29.95135
28.35287
26.96762
26.18765
25.99426
25.92029
25.24509
23.18503
19.16724
13.05988
5.483276
-2.167847
-7.907745
-9.737091
-6.48645
1.574341
12.70602
24.27487
33.73676
39.59369
41.67123
40.77158
38.01321
34.198
29.6579
24.5545
19.23627
14.37775
10.82257
9.121338
9.095764
9.936279
10.43823
9.583923
6.957153
2.872864
-1.788574
-6.075928
-9.359985
-11.68475
-13.71082
-16.46967
-20.91833
-27.55939
-36.19788
-46.01398
-55.75244
-64.05408
-69.8609
-72.69604
-72.86426
-71.37921
-69.65802
-69.15308
-70.87982
-75.05658
-81.01276
-87.42273
-92.68182
-95.38574
-94.70844
-90.41327
-82.84314
-72.62238
-60.39948
-46.59637
-31.34094
-14.45605
4.274048
24.61517
45.67273
65.77148
82.89496
95.30731
102.2515
104.1317
102.2879
98.25067
92.98413
86.62927
78.66766
68.69495
56.80072
43.81281
30.87079
18.94553
8.440674
-0.895813
-9.5914
-18.15698
-26.69223
-34.9711
-42.62418
-49.43628
-55.43292
-60.83401
-65.90823
-70.79468
-75.61945
-80.41092
-85.26157
-90.21423
-95.04871
-99.05527
-100.8763
-98.71564
-90.88589
-76.56607
-56.32605
-32.29056
-7.545288
14.78354
32.40973
44.54636
51.77045
55.48212
57.10187
57.50159
56.90701
55.1745
52.28439
48.5076
44.44452
40.80716
38.05911
36.32919
35.39899
34.77911
33.79739
31.60962
27.18045
19.57715
8.250977
-6.547668
-23.61795
-41.00262
-56.54352
-68.47299
-75.88049
-78.69202
-77.36099
-72.4881
-64.54764
-53.92474
-41.11526
-26.90701
-12.34647
1.396484
13.34369
22.91675
30.035
35.05002
38.69525
41.89685
45.65271
50.79736
57.70789
66.12195
75.30768
84.2424
92.13492
98.67572
104.0792
108.792
113.0091
116.436
118.2406
117.5038
113.6627
106.9355
98.33533
89.25464
81.01273
74.35248
69.38214
65.76907
63.03143
60.6763
58.39499
55.91388
52.94427
49.32773
44.99377
40.0145
34.46021
28.19589
20.79565
11.75369
0.8682556
-11.46326
-24.02118
-35.21167
-43.67053
-48.85367
-51.19788
-51.89899
-52.25156
-53.08328
-54.52734
-56.00766
-56.70053
-55.77579
-52.59558
-46.77722
-38.24667
-27.27774
-14.76834
-2.077057
9.313873
18.11087
23.70264
26.24899
26.46484
25.25928
23.39133
21.26736
19.01291
16.54684
13.65768
10.14636
5.901276
0.9203491
-4.620178
-10.42648
-16.19193
-21.73676
-26.96246
-31.91064
-36.47528
-40.42358
-43.38013
-44.89795
-44.58649
-42.16815
-37.51013
-30.62781
-21.84241
-11.69495
-1.028137
9.114258
17.69672
23.93982
27.45782
28.27637
26.78784
23.57758
19.34601
14.73169
10.22198
6.184082
2.765686
-0.01177979
-2.235901
-4.044617
-5.564453
-6.858093
-7.959717
-8.838928
-9.432922
-9.75592
-9.946106
-10.33551
-11.31409
-13.22211
-16.17444
-20.05096
-24.46625
-28.90216
-32.86273
-35.99133
-38.17084
-39.48505
-40.29443
-41.03534
-42.09564
-43.5929
-45.18378
-46.16913
-45.75903
-43.42017
-39.15955
-33.54584
-27.46234
-21.87091
-17.48834
-14.67346
-13.45325
-13.60394
-14.71686
-16.19946
-17.41205
-17.74646
-16.86395
-14.94281
-12.6095
-10.84875
-10.53674
-12.0824
-15.18738
-19.00458
-22.41742
-24.53149
-25.01288
-24.03094
-22.08038
-19.60992
-16.78381
-13.69293
-10.54602
-7.93042
-6.737854
-7.926697
-11.98279
-18.67407
-27.03058
-35.65619
-43.31934
-49.23969
-53.17926
-55.27838
-55.74524
-54.68024
-52.13849
-48.24945
-43.3371
-38.01208
-32.96393
-28.83929
-26.08264
-24.82507
-24.9256
-25.98999
-27.42578
-28.55109
-28.90399
-28.48297
-27.94086
-28.50226
-31.37067
-37.17786
-45.53943
-55.11191
-64.13873
-71.35156
-76.4613
-80.22833
-84.01797
-88.98947
-95.52914
-103.057
-110.2337
-115.5507
-117.916
-117.0133
-113.4558
-108.6703
-104.5085
-102.7794
-104.6211
-109.8854
-116.9043
-122.5402
-122.9988
-114.9716
-96.92726
-69.73181
-36.53877
-1.72728
30.64624
57.97427
79.55836
96.17314
109.064
119.1032
126.5177
131.183
133.1914
133.2609
132.6255
132.5891
133.9868
136.9133
140.8365
144.8274
147.941
149.2897
148.124
143.7497
135.7179
124.0032
109.1078
92.09443
74.32313
57.12646
41.45108
27.78357
16.11153
6.066238
-2.967819
-11.69485
-20.6364
-29.87834
-38.74625
-45.82439
-49.13361
-46.7585
-37.6597
-22.20454
-2.260071
19.25317
39.36929
55.95618
68.19156
76.49814
82.02301
85.87131
88.78568
91.04242
92.67929
93.77765
94.50665
95.01892
95.21744
94.82599
93.38788
90.677
86.85995
82.45374
78.2059
74.75024
72.35098
70.75485
69.36987
67.41705
64.35968
60.06982
54.82828
49.28323
44.09451
39.71686
36.28616
33.62677
31.38242
29.15979
26.60031
23.4538
19.67807
15.54721
11.62003
8.634949
7.199677
7.522614
9.283844
11.80823
14.332
16.431
18.04572
19.33545
20.41826
21.18098
21.35728
20.68082
19.16037
17.08208
14.91621
13.03291
11.57408
10.46695
9.454803
8.318573
6.88623
5.120956
3.010025
0.565567
-2.179733
-5.142654
-8.154312
-11.02213
-13.66377
-16.27176
-19.14665
-22.70016
-27.14459
-32.33321
-37.75798
-42.67308
-46.51337
-48.95024
-50.11996
-50.39408
-50.23719
-50.10764
-50.35085
-51.254
-52.98707
-55.53101
-58.45667
-61.02024
-62.28838
-61.49201
-58.27938
-52.81707
-45.707
-37.70581
-29.53825
-21.7014
-14.5345
-8.224384
-2.871569
1.482714
4.997658
7.877192
10.39573
12.76403
15.06041
17.19347
18.99006
20.32172
21.10158
21.40757
21.37658
21.19892
21.03324
20.99602
21.06166
21.07072
20.7718
19.83948
18.07385
15.44445
12.18296
