24.49744
25.60675
26.60291
27.52069
28.43207
29.36945
30.31915
31.24133
32.10107
32.81573
33.3811
33.7486
33.87811
33.69434
33.08521
31.93372
30.20026
27.9281
25.21796
22.2597
19.17346
16.0567
12.98102
9.988525
7.105469
4.360657
1.712402
-0.8733521
-3.522339
-6.422913
-9.72113
-13.42615
-17.41833
-21.46979
-25.30194
-28.73981
-31.74329
-34.46021
-37.25909
-40.6142
-44.95331
-50.44958
-56.82043
-63.19318
-68.22882
-70.39783
-68.46039
-62.00531
-51.59949
-38.71765
-25.27136
-13.00159
-3.005615
4.367981
9.396667
12.62921
14.52643
15.4303
15.45081
14.72729
13.59247
12.60724
12.32605
13.14563
15.12659
17.94049
21.04932
23.84924
25.84302
26.87805
27.03461
26.48053
25.33722
23.6192
21.25177
18.20966
14.63672
10.79852
7.096313
3.853516
1.232971
-0.7850952
-2.307678
-3.512207
-4.590149
-5.717041
-7.09256
-8.878723
-11.15094
-13.86536
-16.82971
-19.69553
-22.24445
-24.38519
-26.28406
-28.34039
-31.04669
-34.84445
-39.99161
-46.29626
-53.13672
-59.42337
-63.72015
-64.5665
-60.99716
-52.86441
-41.03949
-27.19153
-13.36276
-1.283295
8.021606
14.39825
18.3125
20.4556
21.44489
21.60934
21.17175
20.29837
19.34238
18.68604
18.67496
19.4863
20.97607
22.883
24.87241
26.69202
28.18805
29.30536
29.96591
30.0701
29.50558
28.2066
26.2301
23.76016
21.03998
18.3208
15.7966
13.5563
11.54816
9.648712
7.707001
5.644592
3.386627
1.02356
-1.396912
-3.86264
-6.415894
-9.150421
-12.10303
-15.24896
-18.41458
-21.41415
-24.10373
-26.4437
-28.54886
-30.69885
-33.2775
-36.63077
-41.07297
-46.57794
-52.69363
-58.50067
-62.62555
-63.66666
-60.64728
-53.47858
-43.02411
-30.93768
-19.03912
-8.761383
-0.7409058
5.14389
9.427612
12.68484
15.20477
17.05243
18.16756
18.6707
18.7998
18.94023
19.45018
20.41943
21.7993
23.39038
25.01962
26.51357
27.80286
28.82077
29.4523
29.65123
29.27611
28.25259
26.56546
24.2048
21.29831
18.10638
14.95621
12.13979
9.863464
8.039902
6.413361
4.667969
2.608032
0.3035126
-1.9216
-3.760757
-5.103821
-6.147675
-7.40274
-9.373184
-12.34781
-16.26169
-20.66327
-25.0016
-28.84013
-32.06163
-34.83388
-37.62093
-40.87405
-44.96861
-50.11845
-56.21169
-62.74236
-68.7769
-72.98543
-74.02518
-70.9081
-63.42986
-52.28322
-39.03122
-25.55309
-13.54716
-4.043213
2.775986
7.323318
10.31697
12.35556
13.80148
14.77953
15.38602
15.8055
16.37032
17.40076
19.0135
21.08548
23.27144
25.2444
26.778
27.91078
28.82629
29.70918
30.56073
31.23045
31.44583
30.99506
29.82127
28.00737
25.74333
23.30339
20.87225
18.52847
16.25259
13.97815
11.6266
9.154419
6.657356
4.21801
1.985664
-0.04089355
-1.97052
-4.026154
-6.432762
-9.330811
-12.7445
-16.5202
-20.43779
-24.20708
-27.67287
-30.70341
-33.30154
-35.65838
-38.13985
-41.16212
-45.05003
-49.7525
-54.67967
-58.74518
-60.55774
-58.90027
-53.29213
-44.12842
-32.65253
-20.49072
-9.179985
0.2828598
7.59478
12.973
16.96295
19.99634
22.39925
24.23853
25.57026
26.4216
26.905
27.23363
27.60032
28.16469
28.86382
29.6533
30.39064
31.09226
31.84767
32.80817
34.07533
35.59109
37.11364
38.17271
38.38937
37.48089
35.48723
32.75201
29.72844
26.86955
24.36481
22.18522
20.00822
17.51824
14.4736
10.89928
7.078491
3.354797
0.08808899
-2.686417
-5.049103
-7.31134
-9.808662
-12.78139
-16.24611
-19.97064
-23.65024
-26.96083
-29.87567
-32.46416
-35.04266
-38.01151
-41.76017
-46.6001
-52.40842
-58.65901
-64.22598
-67.76536
-67.92873
-63.97898
-56.05737
-45.23586
-33.16612
-21.49093
-11.40004
-3.287086
2.97438
7.851845
11.77303
14.89921
17.28715
18.96844
20.07175
20.9126
21.86266
23.13504
24.77509
26.57766
28.21984
29.43886
30.11217
30.33652
30.32183
30.28415
30.37352
30.55216
30.67218
30.48013
29.80953
28.60252
27.01405
25.25537
23.60051
22.22635
21.13589
20.12473
18.8682
17.08754
14.64719
11.64814
8.384277
5.213875
2.385689
-0.0263176
-2.224876
-4.55019
-7.314289
-10.68451
-14.59502
-18.74398
-22.73618
-26.24759
-29.13728
-31.51146
-33.69853
-36.15331
-39.37972
-43.74311
-49.21988
-55.30866
-60.88849
-64.51949
-64.70693
-60.55273
-52.0967
-40.41764
-27.27046
-14.52252
-3.549532
5.091217
11.4926
16.19245
19.69579
22.28847
24.08529
25.22542
25.92384
26.5439
27.43436
28.72569
30.2912
31.82617
32.94921
33.38573
33.14658
32.42535
31.50815
30.68119
30.06353
29.55355
29.01625
28.21351
26.99401
25.33669
23.41001
21.44037
19.70644
18.35997
17.38792
16.65715
15.84526
14.69145
13.05838
10.9837
8.695267
6.449371
4.454436
2.778038
1.348646
-0.08462405
-1.797739
-3.961952
-6.68791
-9.884901
-13.35922
-16.89102
-20.26353
-23.33171
-26.10648
-28.73474
-31.45995
-34.71858
-38.91217
-44.21786
-50.3913
-56.58232
-61.40054
-63.32639
-61.21815
-54.73449
-44.61327
-32.30391
-19.58188
-7.975533
1.659178
9.12398
14.72313
18.90621
22.06717
24.38189
26.00272
27.03192
27.58245
27.88887
28.14712
28.54959
29.18636
30.05467
31.01982
31.96423
32.73528
33.2185
33.3714
33.08658
32.29516
30.93586
28.95972
26.35279
23.24548
19.85397
16.47601
13.4827
11.14952
9.633274
8.903603
8.687729
8.550369
8.121071
7.161781
5.659782
3.836258
1.941444
0.1167297
-1.627998
-3.488312
-5.71772
-8.435501
-11.61339
-15.06447
-18.49067
-21.59191
-24.18604
-26.26796
-27.9994
-29.73277
-31.82038
-34.6285
-38.43008
-43.20623
-48.60941
-53.87189
-57.86974
-59.3259
-57.31138
-51.48712
-42.42747
-31.45997
-20.17668
-9.995148
-1.746216
4.441574
8.953278
12.23531
14.71631
16.56268
17.84041
18.68668
19.2596
19.74998
20.32039
21.06194
21.88503
22.67549
23.3686
23.903
24.4393
24.99432
25.5952
26.17749
26.56028
26.49564
25.75845
24.26678
22.09042
19.5676
17.03819
14.82773
13.07668
11.65012
10.25896
8.578506
6.465424
3.969971
1.406433
-0.8519897
-2.54451
-3.629532
-4.359818
-5.083771
-6.174179
-7.873917
-10.29285
-13.34494
-16.84436
-20.57388
-24.26434
-27.79581
-31.02728
-34.0481
-37.13165
-40.73703
-45.30513
-50.91737
-57.08583
-62.59003
-65.86296
-65.42502
-60.59486
-51.72881
-40.12962
-27.68044
-16.01839
-6.279236
1.28154
6.925049
11.1656
14.40057
16.84659
18.6138
19.80397
20.69214
21.5428
22.67706
24.23161
26.16536
28.2131
30.01973
31.36113
32.14566
32.53644
32.76288
33.00789
33.25925
33.31578
32.90398
31.819
30.07391
27.78659
25.25099
22.7196
20.32941
18.18881
16.29916
14.70657
13.37938
12.2504
11.1308
9.857056
8.233826
6.200134
3.846588
1.326523
-1.114273
-3.367004
-5.476791
-7.595062
-9.913422
-12.55621
-15.54825
-18.73711
-21.94995
-25.03142
-27.90271
-30.6216
-33.38458
-36.4818
-40.25693
-45.05266
-51.013
-58.01375
-65.57214
-72.63013
-77.73689
-79.43935
-76.69841
-69.36205
-58.31239
-45.18761
-31.8535
-19.83453
-9.905411
-2.105804
4.037003
9.122589
13.60158
17.71031
21.48596
24.92555
28.03619
30.82034
33.26775
35.29066
36.85901
37.9586
38.64758
39.08566
39.46266
39.90904
40.47209
41.04926
41.38591
41.30028
40.63733
39.40492
37.8114
36.15611
34.67007
33.5087
32.61638
31.76085
30.78285
29.53957
28.034
26.33267
24.4893
22.45306
20.08217
17.20168
13.73286
9.820984
5.708908
1.702042
-1.978149
-5.272522
-8.294693
-11.26678
-14.43565
-17.9381
-21.7178
-25.60596
-29.32555
-32.65146
-35.49054
-37.90314
-40.13945
-42.5602
-45.59669
-49.62555
-54.84863
-61.01881
-67.32024
-72.40392
-74.63443
-72.67316
-66.03442
-55.37209
-42.26636
-28.74103
-16.47743
-6.422256
1.293381
7.104721
11.56538
15.12279
17.93925
20.1787
21.93745
23.44781
24.87611
26.35027
27.89006
29.3497
30.69009
31.81717
32.78589
33.66252
34.54579
35.3914
36.10826
36.50609
36.33522
35.49594
33.97316
32.02101
29.96667
28.20985
26.97862
26.26477
25.95444
25.69914
25.21899
24.20929
22.58923
20.41629
17.88768
15.24052
12.59808
10.05684
7.554626
5.073669
2.579514
0.1985321
-1.885284
-3.559784
-4.890518
-6.154999
-7.750381
-10.07109
-13.19893
-16.96381
-21.00171
-24.92491
-28.59285
-32.08359
-35.66736
-39.66479
-44.33337
-49.76129
-55.88287
-62.41792
-68.65776
-73.5222
-75.63857
-73.78253
-67.41951
-57.01544
-43.96404
-30.18472
-17.43184
-6.769608
1.624527
8.207733
13.65742
18.45848
22.73633
26.4836
29.53857
31.86058
33.52173
34.63498
35.25143
35.47244
35.31709
34.88901
34.36918
33.8877
33.59666
33.50607
33.55755
33.57059
33.47034
33.12632
32.48119
31.53376
30.25831
28.73146
27.06647
25.32115
23.53464
21.71869
19.84026
17.87608
15.90698
13.98695
12.20777
10.59239
8.962524
7.192825
5.207199
3.030319
0.8436584
-1.10759
-2.796097
-4.266602
-5.817429
-7.80867
-10.47853
-13.86659
-17.78564
-21.88618
-25.77032
-29.31393
-32.48085
-35.57782
-38.99002
-43.04941
-47.94496
-53.60352
-59.45299
-64.50757
-67.52583
-67.22359
-62.83664
-54.4064
-42.80074
-29.55981
-16.38538
-4.599899
5.099426
12.70113
18.67845
23.54881
27.61433
30.99922
33.65388
35.5596
36.85699
37.85638
38.93149
40.35413
42.1461
44.03139
45.60471
46.45644
46.43909
45.63593
44.34778
42.93471
41.55553
40.14224
38.46428
36.28053
33.5056
30.33154
27.13712
24.38
22.34596
21.01323
20.07523
19.06885
17.51149
15.11127
11.88792
8.107956
4.192215
0.4226685
-3.047058
-6.23053
-9.293274
-12.38301
-15.56802
-18.8062
-22.01596
-25.02509
-27.76689
-30.18581
-32.31096
-34.31203
-36.46739
-39.04327
-42.298
-46.4351
-51.41866
-56.9157
-62.12863
-65.80571
-66.66469
-63.65964
-56.46062
-45.68312
-32.83557
-19.83389
-8.376694
0.5018005
6.670227
10.55264
12.82404
14.03403
14.4584
14.27559
13.66383
13.04347
12.88042
13.67271
15.59129
18.455
21.77824
24.97653
27.64934
29.58521
30.84952
31.54688
31.76906
31.49055
30.63794
29.14546
27.04932
24.54982
21.9276
19.51416
17.56721
16.21536
15.42847
15.04688
14.7655
14.26868
13.27615
11.6199
9.26619
6.361877
3.125473
-0.2032623
-3.425171
-6.395599
-9.135483
-11.75717
-14.476
-17.52271
-20.93739
-24.61665
-28.255
-31.62386
-34.60419
-37.32661
-40.131
-43.41281
-47.50708
-52.60355
-58.62918
-65.16667
-71.41953
-76.16878
-77.94377
-75.59547
-68.65527
-57.71149
-44.28906
-30.34567
-17.61205
-7.099014
0.9763031
7.071945
11.83691
15.798
19.16203
21.96024
24.11392
25.71004
27.01324
28.31575
29.88622
31.83241
34.1142
36.43594
38.53406
40.21806
41.46361
42.34528
42.89212
43.05058
42.61981
41.4621
39.51488
36.88387
33.8389
30.67371
27.66643
24.97229
22.71643
20.89082
19.40465
18.06059
16.56097
14.66786
12.25177
9.317307
6.026871
2.65239
-0.5919189
-3.558868
-6.218262
-8.674652
-11.15147
-13.94266
-17.23878
-21.10503
-25.36351
-29.76988
-34.07564
-38.18097
-42.2204
-46.45258
-51.19257
-56.65593
-62.91879
-69.74719
-76.59657
-82.4633
-85.94405
-85.66736
-80.6743
-70.89899
-57.32912
-41.83032
-26.49515
-13.08778
-2.489883
5.333405
10.95906
15.24155
18.84274
22.10858
25.13719
27.98141
30.698
33.37512
36.13724
38.9464
41.69225
44.19116
46.22949
47.64406
48.44946
48.7406
48.68645
48.41112
47.87701
46.93977
45.44137
43.25285
40.47158
37.3935
34.41541
31.95587
30.29221
29.3525
28.84589
28.4106
27.61967
26.34286
24.63831
22.667
20.66384
18.75768
16.78352
14.48804
11.69363
8.323502
4.606453
0.9011917
-2.526443
-5.560829
-8.285751
-11.06146
-14.25829
-18.16367
-22.89732
-28.27097
-33.94939
-39.5717
-44.82068
-49.54555
-53.80337
-57.80376
-61.86276
-66.38277
-71.61665
-77.57264
-83.7401
-89.01572
-91.85387
-90.79718
-84.95998
-74.49998
-60.71187
-45.52097
-31.00554
-18.6183
-8.908974
-1.628502
3.94146
8.596962
12.88423
16.99654
20.92349
24.47841
27.54762
30.15203
32.42104
34.54848
36.70772
38.97587
41.32708
43.71613
46.05246
48.2345
50.15857
51.66788
52.51084
52.48931
51.50683
49.69939
47.39779
45.02996
42.9546
41.34846
40.15895
39.16269
38.04685
36.51316
34.43271
31.86104
28.95301
25.90093
22.85764
19.77631
16.58514
13.17955
9.523983
5.717514
2.020855
-1.357849
-4.289845
-6.872585
-9.463657
-12.39481
-15.93159
-20.06889
-24.63053
-29.24743
-33.69393
-37.8033
-41.73178
-45.82233
-50.46767
-56.07035
-62.80229
-70.47403
-78.29028
-84.96506
-88.80667
-88.35307
-82.88107
-72.71104
-59.18244
-44.33683
-30.0941
-17.78738
-7.911879
-0.1587086
6.165833
11.65569
16.66565
21.24731
25.28171
28.81769
32.01519
35.13808
38.42289
41.94738
45.54045
48.96079
51.92616
54.29771
56.10369
57.44918
58.35151
58.72487
58.37906
57.17088
55.14041
52.51504
49.63361
46.83772
44.34377
42.14311
40.17304
38.28065
36.31165
34.18917
31.88381
29.41257
26.82597
24.23612
21.75425
19.46651
17.3442
15.23167
12.96538
10.37448
7.414083
4.186581
0.8594589
-2.401897
-5.528872
-8.642771
-12.03717
-15.96133
-20.53173
-25.59657
-30.72423
-35.37994
-39.20797
-42.13113
-44.47848
-46.88829
-50.05309
-54.46792
-60.2285
-66.77505
-72.92751
-77.13602
-77.79086
-73.79122
-65.01131
-52.39481
-37.69147
-22.94446
-9.788218
0.881094
8.961481
14.91336
19.28405
22.51435
24.79186
26.17068
26.78343
26.92506
27.01644
27.43896
28.45621
30.09669
32.16831
34.39571
36.47829
38.24038
39.64955
40.7563
41.53653
41.88461
41.58413
40.42284
38.3464
35.52618
32.30698
29.12767
26.35444
24.15265
22.52255
21.33247
20.35516
19.409
18.34787
17.04851
15.43875
13.51395
11.3681
9.123585
6.887508
4.616013
2.169853
-0.662487
-4.118614
-8.256042
-12.97904
-18.02789
-23.0242
-27.66894
-31.79743
-35.41288
-38.73232
-42.13567
-45.97283
-50.48753
-55.81543
-61.76984
-67.83403
-73.08478
-76.27404
-76.18822
-72.00612
-63.57793
-51.64924
-37.71733
-23.53065
-10.67813
-0.1641312
7.768288
13.38416
17.1938
19.71622
21.26768
22.05549
22.35754
22.4511
22.7114
23.53306
25.15589
27.5547
30.45314
33.40959
35.95197
37.87553
39.13316
39.85658
40.27908
40.52061
40.45951
39.83157
38.2896
35.70218
32.25928
28.36397
24.53218
21.16382
18.34293
15.8689
13.43581
10.72762
7.624374
4.197517
0.674614
-2.662468
-5.607162
-8.095169
-10.23653
-12.24694
-14.46719
-17.22703
-20.68775
-24.79775
-29.29059
-33.83001
-38.1292
-42.07951
-45.73932
-49.3528
-53.30192
-57.92896
-63.50436
-69.92691
-76.63624
-82.51235
-85.97762
-85.52425
-80.19952
-70.11308
-56.42017
-41.10642
-26.21764
-13.32427
-3.065964
4.714592
10.65168
15.48734
19.67163
23.37846
26.51281
29.05733
31.12825
33.01534
34.94651
37.01912
39.11514
40.91975
42.17007
42.70533
42.63204
42.20251
41.72511
41.38714
41.17608
40.93633
40.42954
39.45773
37.94075
35.9799
33.81188
31.71172
29.95888
28.55659
27.32739
25.84415
23.65052
20.46837
16.27914
11.33187
6.111679
1.183697
-3.155556
-6.837868
-10.20844
-13.75209
-17.89867
-22.76856
-28.0993
-33.38731
-38.10633
-42.06876
-45.43973
-48.77753
-52.71969
-57.78085
-64.13103
-71.62048
-79.77003
-87.66545
-94.08808
-97.47876
-96.36838
-89.88686
-78.17815
-62.56059
-45.22136
-28.47563
-14.08934
-2.87318
5.396729
11.50897
16.36451
20.60439
24.49599
28.11988
31.497
34.7244
37.90578
41.14984
44.43119
47.64747
50.63948
53.26189
55.50051
57.34628
58.85185
59.95412
60.56692
60.51075
59.57041
57.63709
54.6701
50.81548
46.23667
41.2716
36.24863
31.51086
27.31417
23.76196
20.84699
18.4367
16.36794
14.42844
12.48134
10.4034
8.126455
5.617624
2.877634
-0.1244221
-3.482895
-7.333912
-11.88392
-17.17696
-23.1417
-29.464
-35.69247
-41.38824
-46.31314
-50.53007
-54.37525
-58.40627
-63.17576
-69.103
-76.24356
-84.03999
-91.33589
-96.48766
-97.75278
-93.88382
-84.68094
-71.10793
-55.1348
-39.01084
-24.58844
-12.8124
-3.669418
3.620094
9.997368
16.16509
22.37851
28.45486
34.0352
38.83241
42.75975
45.96326
48.68841
51.01874
52.89962
54.17647
54.6992
54.52003
53.90491
53.20065
52.68822
52.41389
52.13547
51.50575
50.28094
48.38567
45.93703
43.23504
40.52023
38.05131
35.89071
34.02419
32.328
30.67957
28.86807
26.80543
24.39188
21.66695
18.7627
15.84119
13.06559
10.51371
8.106758
5.550659
2.541283
-1.295189
-6.146172
-11.93459
-18.33583
-24.83476
-30.92856
-36.29514
-40.95731
-45.21304
-49.62064
-54.82581
-61.21176
-68.69142
-76.49612
-83.1973
-87.04987
-86.4539
-80.48414
-69.37463
-54.51306
-38.01565
-22.13065
-8.463081
2.292175
10.3328
16.41902
21.38416
25.73849
29.60104
32.82852
35.20259
36.71412
37.53559
37.96313
38.31686
38.76777
39.34173
40.0218
40.79636
41.72408
42.91678
44.40996
46.05104
47.52693
48.38419
48.23438
46.96738
44.74749
41.93323
38.91611
36.02449
33.37498
30.94201
28.60934
26.28179
23.92079
21.54927
19.19225
16.83386
14.42204
11.84434
8.991432
5.847504
2.477135
-0.9504929
-4.285965
-7.40448
-10.39854
-13.48734
-16.9329
-20.9614
-25.52536
-30.30816
-34.81579
-38.64283
-41.57477
-43.79662
-45.75436
-48.02633
-51.20338
-55.61622
-61.25151
-67.48534
-73.10283
-76.44093
-75.87367
-70.34354
-59.92989
-45.87998
-30.24459
-15.19714
-2.351273
7.675018
15.08648
20.6145
24.99025
28.60437
31.55681
33.81727
35.41962
36.49599
37.34168
38.17235
39.14246
40.20389
41.232
42.05167
42.59524
42.91401
43.10526
43.2941
43.45753
43.46353
43.16165
42.38654
41.09308
39.36333
37.40528
35.47717
33.71841
32.05974
30.30255
28.24213
25.72626
22.81746
19.75481
16.88632
14.52221
12.76989
11.44522
10.19094
8.612965
6.42371
3.694481
0.6390657
-2.396236
-5.262455
-7.991527
-10.79382
-13.94262
-17.53794
-21.48552
-25.39871
-28.90282
-31.74883
-33.94254
-35.66554
-37.20096
-38.87968
-41.01643
-43.89069
-47.70261
-52.43787
-57.60818
-62.16627
-64.61773
-63.50015
-58.0365
-48.45621
-36.11669
-22.97053
-11.00853
-1.484612
5.321655
9.881557
13.04289
15.50388
17.64415
19.47807
20.94204
22.05766
23.00013
24.07417
25.48587
27.28081
29.24058
31.10022
32.56137
33.46867
33.86288
33.93411
33.82713
33.6473
33.32014
32.65391
31.49272
29.79483
27.63946
25.27674
22.97788
20.95794
19.30898
17.96464
16.72192
15.30334
13.46108
11.04333
8.059166
4.682945
1.286705
-1.787231
-4.286438
-6.201118
-7.777176
-9.449142
-11.66295
-14.6637
-18.47491
-22.79105
-27.15913
-31.10434
-34.33296
-36.74402
-38.47174
-39.85033
-41.31819
-43.34782
-46.29112
-50.19182
-54.64879
-58.74617
-61.1778
-60.64874
-56.26407
-48.0071
-36.83917
-24.4026
-12.46455
-2.299713
5.581985
11.36118
15.58922
18.80614
21.27188
22.95697
23.763
23.7437
23.20583
22.62981
22.45837
22.94704
24.04407
25.48582
26.94016
28.11139
28.94223
29.51036
29.99075
30.45341
30.82269
30.83247
30.18825
28.65306
26.27458
23.35915
20.38414
17.88477
16.07642
14.83875
13.74158
12.3461
10.32033
7.686478
4.683762
1.699646
-0.938736
-3.13855
-5.042267
-7.021469
-9.425461
-12.51747
-16.24651
-20.34584
-24.39748
-28.01883
-31.00381
-33.36566
-35.39278
-37.44275
-40.0025
-43.38626
-47.79321
-53.01581
-58.37289
-62.70929
-64.60977
-62.84006
-56.83163
-47.01807
-34.65463
-21.55469
-9.419495
0.6594543
8.301178
13.72556
17.36935
19.66992
20.8768
21.22177
20.95612
20.45618
20.20975
20.56943
21.67664
23.39755
25.40958
27.31604
28.81686
29.76303
30.19196
30.28006
30.14594
29.84647
29.29257
28.29767
26.65598
24.33609
21.50201
18.51474
15.84784
13.84622
12.55707
11.71484
10.80664
9.315338
7.008179
4.048828
0.8685608
-1.999176
-4.231995
-5.883881
-7.310486
-9.038208
-11.51505
-14.87415
-18.96631
-23.42719
-27.82669
-31.89395
-35.48657
-38.6954
-41.7496
-45.00708
-48.82382
-53.50616
-59.03711
-64.86053
-69.86511
-72.49594
-71.2926
-65.33212
-54.87082
-41.23489
-26.54114
-12.94119
-1.913757
5.994629
11.15561
14.38837
16.60446
18.3175
19.81393
21.11047
22.23947
23.36603
24.63123
26.16071
27.88553
29.60571
31.02197
31.9021
32.15604
31.90314
31.47385
31.16632
31.20044
31.53915
31.85559
31.69284
30.6832
28.70609
25.93872
22.85638
19.93585
17.50122
15.57138
13.86731
12.05713
9.983795
7.698547
5.404327
3.378784
1.73468
0.4120178
-0.8085327
-2.315308
-4.392639
-7.237854
-10.92651
-15.37689
-20.34894
-25.51035
-30.46909
-34.86685
-38.57837
-41.60745
-44.2598
-47.03622
-50.44727
-54.78604
-59.87408
-64.85757
-68.32397
-68.64917
-64.62177
-55.98056
-43.62482
-29.29565
-15.01358
-2.466644
7.438965
14.57532
19.42233
22.59769
24.67206
25.97794
26.80444
27.36081
27.82187
28.39023
29.13959
30.0986
31.13098
32.1041
32.7868
33.12201
33.14572
33.05231
33.0383
33.14047
33.26279
33.03055
32.13501
30.38217
27.78671
24.65262
21.392
18.45984
16.15921
14.65784
13.90671
13.81024
14.17496
14.67813
14.99353
14.71841
13.60617
11.50247
8.530243
5.037354
1.495636
-1.684906
-4.369629
-6.718658
-9.183899
-12.11887
-15.70914
-19.77048
-23.93396
-27.77649
-31.04364
-33.79468
-36.26291
-38.7916
-41.69482
-45.21539
-49.47787
-54.42053
-59.6026
-64.09854
-66.63022
-65.84628
-60.89853
-51.85037
-39.80838
-26.56177
-14.03287
-3.657288
4.023315
9.233124
12.70483
15.2222
17.25815
18.97476
20.35931
21.36456
22.09668
22.8176
23.73627
25.00204
26.57675
28.29526
29.9407
31.42514
32.77005
34.04602
35.32175
36.4624
37.24808
37.44263
36.86597
35.49585
33.5069
31.15601
28.6973
26.36047
24.1507
21.98929
19.76205
17.36127
14.79697
12.16385
9.559387
7.079102
4.703857
2.355316
-0.02236938
-2.449371
-4.886139
-7.185638
-9.2771
-11.2095
-13.16403
-15.38666
-18.07471
-21.26151
-24.74625
-28.21631
-31.28644
-33.74194
-35.6254
-37.21118
-38.8916
-41.1582
-44.32803
-48.41177
-53.03317
-57.2645
-59.85098
-59.51028
-55.41422
-47.5123
-36.79367
-24.84402
-13.40717
-3.822021
3.408569
8.504333
12.12805
15.00903
17.548
19.81223
21.69534
23.11057
24.07126
24.82239
25.58563
26.48688
27.5282
28.50394
29.2164
29.57764
29.63181
29.51953
29.46243
29.52884
29.59943
29.50986
29.013
28.05899
26.77753
25.41891
24.17923
23.21936
22.46033
21.69366
20.72693
19.38742
17.61862
15.47302
13.02795
10.3699
7.593567
4.794617
2.083801
-0.3894348
-2.560272
-4.49585
-6.347626
-8.438782
-11.0733
-14.40372
-18.38724
-22.70108
-26.82504
-30.29672
-32.91251
-34.7403
-36.29202
-38.16147
-40.9277
-44.90567
-49.98386
-55.56155
-60.65897
-64.02341
-64.41299
-61.03235
-53.76874
-43.31705
-31.05957
-18.61855
-7.399796
1.782654
8.750259
13.84001
17.52649
20.15511
21.95038
22.97981
23.35068
23.30743
23.14613
23.2186
23.76994
24.88913
26.45651
28.27913
30.11063
31.82082
33.3923
34.87073
36.30399
37.57507
38.37134
38.34602
37.1981
34.86452
31.59517
27.88628
24.29742
21.24081
18.85928
16.97404
15.25621
13.32713
10.98378
8.24295
5.365387
2.676346
0.4256439
-1.336334
-2.773041
-4.214783
-6.03952
-8.435913
-11.39771
-14.66133
-17.90323
-20.87175
-23.4377
-25.71275
-27.97816
-30.58737
-33.84964
-37.96626
-42.93411
-48.49965
-54.07382
-58.66782
-61.07994
-60.23485
-55.55403
-47.30099
-36.53923
-24.88475
-13.86974
-4.595184
2.608429
7.984299
12.0368
15.22696
17.74414
19.60051
20.80914
21.57042
22.14304
22.89378
24.03859
25.55524
27.26895
28.84456
30.0648
30.85646
31.38829
31.83388
32.3302
32.7803
32.89827
32.31415
30.79002
28.36623
25.36119
22.32689
19.71686
17.75304
16.38544
15.32991
14.28255
12.94656
11.26996
9.29425
7.191193
5.164047
3.341156
1.753433
0.227066
-1.453262
-3.669113
-6.640823
-10.43327
-14.87715
-19.54942
-24.0096
-27.88007
-31.11952
-33.84909
-36.45497
-39.38838
-43.0005
-47.39862
-52.31828
-57.07985
-60.54385
-61.48027
-58.83998
-52.2282
-42.16429
-30.00414
-17.5584
-6.45787
2.210068
8.220673
12.00479
14.31848
15.84216
16.97591
17.88869
18.54308
19.01796
19.42194
20.01279
21.01614
22.51749
24.38412
26.32397
28.05257
29.34406
30.19247
30.68468
30.92763
30.91232
30.49854
29.49374
27.78616
25.41896
22.64996
19.867
17.39307
15.35959
13.65755
12.00773
10.15656
7.97364
5.554008
3.175972
1.112839
-0.5691071
-2.114494
-3.915947
-6.410995
-9.782143
-13.9127
-18.47149
-22.99445
-27.0811
-30.5166
-33.30966
-35.63215
-37.84892
-40.39356
-43.708
-47.98183
-53.03258
-58.03858
-61.69363
-62.51335
-59.40392
-52.19914
-41.72838
-29.61187
-17.66232
-7.282692
0.8993301
7.00769
11.60885
15.29441
18.40896
21.04778
23.17182
24.73067
25.84215
26.72655
27.61271
28.67311
29.95899
31.36772
32.7179
33.88829
34.75739
35.38604
35.94886
36.57503
37.26556
37.9065
38.25023
38.06646
37.25734
35.8165
33.96252
31.93647
29.93678
28.096
26.40222
24.7247
22.94727
20.92347
18.53878
15.74825
12.55585
9.061747
5.400076
1.737329
-1.82686
-5.228859
-8.519941
-11.81132
-15.21132
-18.77305
-22.47152
-26.15002
-29.57032
-32.62832
-35.27287
-37.62453
-39.97535
-42.69659
-46.18921
-50.7433
-56.29907
-62.29931
-67.63231
-70.82891
-70.4691
-65.71141
-56.75307
-44.80419
-31.69708
-19.28895
-8.79826
-0.6530004
5.447791
10.17834
14.11645
17.59093
20.69462
23.44488
25.93115
28.29487
30.68168
33.16355
35.72385
38.17231
40.29543
41.88743
42.87825
43.36044
43.57797
43.77887
44.08152
44.42677
44.58224
44.22143
43.14439
41.3298
38.92877
36.23441
33.52369
30.96469
28.6616
26.60548
24.74886
22.9881
21.18562
19.24359
17.14556
14.97442
12.85829
10.87597
9.098944
7.465733
5.809608
3.865963
1.406246
-1.724375
-5.501827
-9.768322
-14.20589
-18.46639
-22.2835
-25.55749
-28.45925
-31.38534
-34.81406
-39.11998
-44.49568
-50.65952
-56.89663
-62.00949
-64.54317
-63.27822
-57.61116
-47.93808
-35.51503
-22.15601
-9.566051
1.108349
9.488804
15.82962
20.63404
24.29285
26.95188
28.60111
29.211
28.93307
28.11335
27.12916
26.34219
25.9424
25.90531
26.08749
26.30901
26.40969
26.39207
26.4437
26.71539
27.34869
28.21175
29.02106
29.36684
28.96006
27.74545
25.88399
23.75321
21.64669
19.7642
18.06329
16.41836
14.63011
12.59825
10.29546
7.786362
5.173934
2.571655
0.1776171
-1.940197
-3.781873
-5.508026
-7.391631
-9.791888
-12.88088
-16.61255
-20.73678
-24.77967
-28.36741
-31.31917
-33.70627
-35.8233
-38.11016
-40.99306
-44.68428
-49.12616
-53.80379
-57.81223
-59.97227
-59.14158
-54.56914
-46.33606
-35.40111
-23.26567
-11.6142
-1.675127
5.953796
11.37154
15.046
17.54414
19.25638
20.32262
20.8426
20.91511
20.82972
20.87316
21.39526
22.56941
24.42836
26.78843
29.37704
31.96253
34.37778
36.61729
38.61565
40.19186
40.99497
40.60825
38.74765
35.42394
31.04249
26.17661
21.50342
17.41388
13.97131
10.92869
7.929211
4.75499
1.426697
-1.775539
-4.492054
-6.394245
-7.358971
-7.509933
-7.238804
-7.106041
-7.687572
-9.385319
-12.35106
-16.41996
-21.11972
-25.88305
-30.2612
-34.09267
-37.60083
-41.24185
-45.51295
-50.72403
-56.80887
-63.20729
-68.85674
-72.4454
-72.65585
-68.69878
-60.58301
-49.30723
-36.46815
-23.91221
-13.05818
-4.602425
1.536285
5.903763
9.180843
11.83484
14.02041
15.79084
17.18732
18.41999
19.80566
21.70039
24.23286
27.32573
30.62876
33.668
36.05329
37.51714
38.06779
37.85698
37.12533
36.04469
34.70655
33.0489
31.00787
28.55515
25.80609
22.98261
20.40294
18.25451
16.61111
15.30801
14.03136
12.48902
10.56385
8.271687
5.782211
3.325226
1.0224
-1.065598
-3.076614
-5.192196
-7.673424
-10.62487
-14.12878
-18.13216
-22.35335
-26.58609
-30.49787
-33.95252
-36.98838
-39.90801
-43.09377
-47.02607
-51.98872
-57.88488
-64.18797
-69.76826
-73.13913
-72.93245
-68.36313
-59.57917
-47.73444
-34.6084
-21.96889
-11.13468
-2.607908
3.871241
8.957464
13.30574
17.30599
21.05881
24.43281
27.3359
29.72793
31.70857
33.45328
34.9932
36.36885
37.48973
38.31543
38.80839
39.08332
39.22476
39.32587
39.3818
39.22272
38.71682
37.69232
36.04283
33.76051
30.96741
27.85982
24.73667
21.91573
19.6116
17.87666
16.53416
15.29378
13.854
12.06245
9.935107
7.681912
5.551075
3.71293
2.155112
0.6573286
-1.125257
-3.494525
-6.652914
-10.56005
-14.97649
-19.55402
-23.99903
-28.13998
-32.03264
-35.86626
-39.92921
-44.51559
-49.82143
-55.89392
-62.42532
-68.707
-73.56756
-75.6682
-73.77618
-67.39899
-57.02834
-44.01323
-30.25336
-17.42671
-6.64003
1.861086
8.453356
13.81907
18.51277
22.76656
26.5544
29.68226
32.07704
33.82527
35.09969
36.10078
36.98926
37.82194
38.54844
39.12368
39.51669
39.82826
40.24051
40.85638
41.59103
42.24616
42.44729
41.84937
40.36091
38.07551
35.29836
32.43027
29.79095
27.56516
25.71305
24.14352
22.66522
21.12745
19.35749
17.2515
14.76326
11.93739
8.977074
6.095692
3.528019
1.345612
-0.5637779
-2.523949
-4.917194
-8.053032
-12.01539
-16.55865
-21.27114
-25.73178
-29.687
-33.07717
-36.13427
-39.18634
-42.60295
-46.6706
-51.44173
-56.60505
-61.3427
-64.49069
-64.73416
-61.13354
-53.53483
-42.74162
-30.33039
-18.10389
-7.543377
0.7254639
6.84005
11.50241
15.46094
19.1816
22.77071
26.07081
28.82671
30.87329
32.2732
33.1599
33.71951
34.09607
34.32558
34.40985
34.38476
34.27662
34.20851
34.26267
34.34753
34.33793
34.02168
33.19317
31.78889
29.88473
27.6804
25.41419
23.29061
21.39097
19.74944
18.37545
17.23217
16.28898
15.40927
14.40892
13.10472
11.37639
9.167318
6.588972
3.806126
0.9340401
-1.909796
-4.73036
-7.622519
-10.68969
-13.98835
-17.55809
-21.26696
-24.92181
-28.3363
-31.24808
-33.55413
-35.3196
-36.8307
-38.49875
-40.81514
-44.1137
-48.45232
-53.42919
-58.12328
-61.25837
-61.52465
-58.07804
-50.75137
-40.29378
-28.11292
-15.82516
-4.817728
4.093891
10.75983
15.4526
18.64025
20.78156
22.18914
23.08211
23.67336
24.21104
24.95265
26.08899
27.6666
29.55564
31.5147
33.15989
34.2387
34.62015
34.32649
33.57491
32.61031
31.61934
30.66416
29.69993
28.54043
27.09896
25.38071
23.44631
21.47276
19.59266
17.80705
16.00925
14.07289
11.843
9.270655
6.40037
3.345499
0.2713203
-2.627487
-5.213383
-7.499413
-9.608189
-11.78832
-14.30999
-17.2676
-20.60669
-24.01207
-27.12865
-29.69606
-31.70889
-33.42245
-35.2583
-37.61159
-40.74965
-44.7819
-49.54508
-54.64819
-59.30983
-62.48813
-62.96565
-59.79858
-52.72522
-42.32884
-30.01875
-17.52367
-6.424522
2.360229
8.606167
12.76519
15.48139
17.32637
18.69651
19.78193
20.69382
21.56995
22.63297
24.02435
25.89375
28.11779
30.47169
32.62291
34.29521
35.30056
35.6661
35.57952
35.23728
34.76497
34.13466
33.16294
31.66485
29.53203
26.83219
23.93273
21.22975
19.10725
17.69212
16.88043
16.26609
15.45734
14.05761
11.86941
8.955826
5.516579
1.79126
-1.975346
-5.684406
-9.435581
-13.3176
-17.52612
-22.0338
-26.66892
-31.15952
-35.19069
-38.45664
-40.89937
-42.71178
-44.26599
-46.07664
-48.64642
-52.21667
-56.74247
-61.71767
-66.13208
-68.65754
-67.97091
-63.18604
-54.30074
-42.27317
-28.77839
-15.71221
-4.580002
3.926178
9.950119
14.18614
17.4453
20.25877
22.78764
24.96363
26.72161
28.12027
29.4067
30.77901
32.38828
34.17349
35.91645
37.37073
38.32871
38.78216
38.81451
38.63971
38.3251
37.82692
36.98637
35.61634
33.57165
30.92737
27.93097
24.94402
22.32755
20.25481
18.70757
17.53168
16.52953
15.47621
14.25476
12.75447
10.84572
8.495174
5.736027
2.714245
-0.2803307
-3.020161
-5.470654
-7.822395
-10.38738
-13.51753
-17.34364
-21.70083
-26.26294
-30.61332
-34.55575
-38.08975
-41.43916
-44.88561
-48.77565
-53.3176
-58.5219
-64.0966
-69.27999
-72.97343
-73.9243
-71.1172
-64.21149
-53.7953
-41.20178
-28.22198
-16.46159
-6.859554
0.3882484
5.720997
9.874706
13.46375
16.80173
19.91856
22.67199
24.89811
26.61613
27.98787
29.23504
30.56504
32.00576
33.43936
34.707
35.75494
36.59594
37.43047
38.39947
39.43232
40.29417
40.58097
39.93087
38.18997
35.49511
32.15332
28.57171
25.10249
21.96225
19.2489
16.94391
14.99443
13.31827
11.80964
10.36865
8.869312
7.261688
5.5214
3.642082
1.631435
-0.5150681
-2.8423
-5.46624
-8.542599
-12.15598
-16.21036
-20.46214
-24.57815
-28.26568
-31.47519
-34.29527
-37.06341
-40.14545
-43.86353
-48.28422
-53.28267
-58.40779
-62.84085
-65.55511
-65.38964
-61.52668
-53.82718
-43.08052
-30.76939
-18.61742
-8.003649
0.4487534
6.7995
11.60442
15.41969
18.59834
21.23286
23.30704
24.90455
26.27697
27.71837
29.41426
31.37806
33.43385
35.3131
36.7975
37.72613
38.16958
38.32879
38.43565
38.58696
38.72506
38.61522
37.9121
36.38585
33.94022
30.81311
27.43711
24.30213
21.72591
19.70914
17.96831
16.06971
13.69011
10.7307
7.472023
4.390135
1.897764
0.1356506
-1.065975
-2.173132
-3.660542
-5.85129
-8.801901
-12.29009
-15.96541
-19.55051
-22.90402
-26.05425
-29.15037
-32.31199
-35.70148
-39.45378
-43.65336
-48.18161
-52.5405
-55.78757
-56.66098
-54.09879
-47.612
-37.73517
-25.85794
-13.84641
-3.378521
4.664316
10.18734
13.74021
15.98048
17.44524
18.38136
18.84356
18.96791
18.99312
19.32431
20.28921
22.01982
24.24827
26.58395
28.54812
29.83864
30.40842
30.36317
29.925
29.24489
28.35884
27.14202
25.50176
23.43569
21.08362
18.73868
16.6587
15.03411
13.8438
12.92871
12.00987
10.87645
9.48151
7.884775
6.267462
4.714794
3.146158
1.318071
-1.047512
-4.168964
-8.044308
-12.46534
-17.10709
-21.5514
-25.525
-28.86223
-31.63696
-34.06247
-36.56226
-39.61608
-43.59399
-48.55236
-53.99358
-58.90943
-61.91642
-61.70954
-57.52219
-49.50265
-38.63975
-26.4782
-14.60759
-4.212471
4.130341
10.42888
15.05507
18.4013
20.75447
22.228
22.9298
23.00266
22.72774
22.41788
22.32751
22.59563
23.15425
23.82409
24.41864
24.80751
24.97813
25.08163
25.26058
25.57808
25.97627
26.28516
26.30424
25.91446
25.07797
23.84099
22.36168
20.71786
18.92739
16.92798
14.65852
12.06812
9.194687
6.138779
3.055834
0.04598618
-2.922745
-6.004391
-9.418491
-13.30477
-17.62308
-22.08779
-26.35747
-29.98608
-32.74301
-34.71185
-36.16765
-37.69306
-39.93478
-43.43406
-48.31873
-54.2106
-59.99199
-64.11017
-65.05255
-61.78304
-54.32375
-43.63889
-31.38065
-19.30061
-8.79953
-0.4248619
5.917837
10.77035
14.82171
18.47797
21.89175
25.00345
27.64416
29.6615
31.07793
32.02774
32.61785
33.0573
33.35506
33.4817
33.40735
33.12408
32.73774
32.38917
32.23713
32.23319
32.2578
31.957
31.05641
29.45765
27.24337
24.79583
22.56147
20.82821
19.6009
18.62364
17.36295
15.40861
12.67883
9.418696
6.204547
3.571572
1.740108
0.4469814
-0.8637371
-2.885038
-6.024238
-10.2014
-15.03352
-19.96008
-24.58066
-28.71123
-32.48134
-36.10986
-39.86981
-44.0108
-48.69039
-53.98711
-59.64249
-64.93853
-68.66148
-69.39175
-65.97783
-58.18216
-46.82961
-33.57864
-20.41115
-8.903784
0.1371269
6.750387
11.57767
15.40888
18.84256
22.07741
25.10262
27.74812
29.96081
31.79729
33.5056
35.27251
37.21234
39.30692
41.3314
43.13878
44.64992
45.9083
46.98769
47.8679
48.29441
47.89004
46.34182
43.57008
39.86641
35.76608
31.84061
28.50105
25.856
23.71099
21.77832
19.9011
18.05492
16.30238
14.69477
13.07018
11.19402
8.824879
5.873901
2.443083
-1.102982
-4.489441
-7.518574
-10.2348
-12.87236
-15.65209
-18.68011
-21.87893
-25.00553
-27.81185
-30.22097
-32.27666
-34.22988
-36.39901
-39.14813
-42.76475
-47.42128
-53.01961
-59.0689
-64.65818
-68.42907
-69.02441
-65.43901
-57.50072
-46.01366
-32.59866
-19.1717
-7.302576
2.112979
9.0344
13.96934
17.59177
20.45809
22.87791
24.94104
26.64587
28.13887
29.55252
31.10757
32.91085
34.87273
36.78053
38.38879
39.51511
40.06795
40.12351
39.80328
39.22405
38.4716
37.50774
36.27097
34.68935
32.77266
30.50908
27.99274
25.34511
22.69663
20.20262
17.90285
15.80015
13.77125
11.68677
9.42089
6.93043
4.257998
1.52805
-1.047043
-3.343418
-5.243934
-6.78476
-8.125882
-9.499004
-11.17982
-13.38683
-16.23843
-19.59363
-23.21106
-26.70512
-29.75156
-32.2224
-34.16888
-35.9112
-37.93733
-40.71265
-44.49973
-49.21154
-54.26912
-58.63945
-60.99402
-60.16533
-55.54768
-47.39021
-36.83324
-25.50474
-15.03353
-6.497393
-0.2169476
4.211777
7.522163
10.37542
13.16259
15.89383
18.42852
20.64535
22.49594
24.11453
25.64808
27.26348
28.98995
30.7967
32.55972
34.15555
35.48742
36.45908
37.03002
37.17812
36.89599
36.15527
34.94981
33.22366
31.0735
28.60163
26.01678
23.55428
21.38838
19.53579
17.8364
16.08928
14.07774
11.72455
9.103199
6.270706
3.33754
0.3156128
-2.832775
-6.10091
-9.405647
-12.62421
-15.63044
-18.39928
-21.05222
-23.65614
-26.24409
-28.69315
-30.78146
-32.38908
-33.6002
-34.72488
-36.26769
-38.79835
-42.66018
-47.90055
-54.02261
-59.9625
-64.30927
-65.65355
-62.97374
-56.05545
-45.62934
-33.16302
-20.38627
-8.789398
0.808979
8.24847
13.83997
18.00587
21.1176
23.38617
24.99112
26.10898
26.95498
27.79964
28.7431
29.79856
30.90419
31.9861
32.9966
33.94157
34.75396
35.35025
35.66136
35.61261
35.18961
34.46501
33.45889
32.20584
30.70345
28.96132
26.98333
24.82391
22.58692
20.36199
18.26017
16.26611
14.34466
12.41853
10.44595
8.397842
6.309593
4.188965
2.080009
0.08657074
-1.807655
-3.582558
-5.240234
-6.881561
-8.669327
-10.78472
-13.39229
-16.54819
-20.14153
-23.96774
-27.72112
-31.1482
-34.19844
-36.97413
-39.76029
-42.9386
-46.80852
-51.41541
-56.45982
-61.09796
-64.10586
-64.2238
-60.51994
-52.85855
-41.99477
-29.44127
-16.93478
-6.060066
2.3769
8.356606
12.34698
15.14413
17.38113
19.45167
21.53532
23.68522
25.87457
28.09874
30.38094
32.60011
34.62126
36.19871
37.10347
37.25995
36.79444
35.99557
35.21229
34.67755
34.3953
34.21119
33.80832
32.88066
31.31417
29.2142
26.83733
24.50175
22.46633
20.8152
19.48466
18.231
16.7459
14.83992
12.43005
9.620697
6.646461
3.788055
1.30777
-0.6587143
-2.208069
-3.640259
-5.271515
-7.362358
-10.01589
-13.06953
-16.24708
-19.23708
-21.84109
-24.14182
-26.36856
-28.89328
-32.05812
-36.09024
-41.08693
-46.90768
-53.11783
-58.83598
-62.90536
-63.96767
-61.07127
-53.9509
-43.29922
-30.72652
-18.16394
-7.332611
0.8783569
6.426331
9.981155
12.34694
14.18004
15.75151
17.05981
18.09221
18.92526
19.83125
21.01378
22.53772
24.19431
25.5695
26.34099
26.34676
25.7612
24.91431
24.16895
23.70709
23.45103
23.15826
22.46425
21.21756
19.40846
17.36685
15.46577
14.04253
13.24228
12.90355
12.70116
12.20273
11.10986
9.261581
6.86615
4.218628
1.679611
-0.534317
-2.534729
-4.597717
-7.111633
-10.27353
-14.03294
-18.03912
-21.85184
-25.13342
-27.79587
-30.08267
-32.3736
-35.07463
-38.45483
-42.61235
-47.45984
-52.59219
-57.23836
-60.27713
-60.54123
-57.09659
-49.73766
-39.21742
-27.09753
-15.21686
-5.130753
2.346954
7.329758
10.36852
12.21284
13.42101
14.19066
14.60678
14.79034
14.99211
15.57288
16.91148
19.10632
22.0209
25.29276
28.45859
31.13281
33.15613
34.49176
35.1861
35.26883
34.64395
33.18414
30.80519
27.57913
23.79282
19.85652
16.1925
13.05731
10.57108
8.568619
6.791046
5.01506
3.065262
0.9901581
-1.093002
-3.048965
-4.858154
-6.608856
-8.616516
-11.15741
-14.32718
-18.01996
-21.87756
-25.46986
-28.47293
-30.87958
-32.90993
-35.06763
-37.85643
-41.63423
-46.4491
-51.9169
-57.19252
-61.03105
-62.16855
-59.57657
-52.96513
-42.96771
-30.95566
-18.64577
-7.562759
1.447296
8.209549
13.05789
16.5545
19.1055
20.88631
21.97198
22.35857
22.24167
21.96367
21.90298
22.33485
23.42184
25.05109
26.98874
28.97998
30.8558
32.57581
34.15974
35.56207
36.53313
36.77065
35.93366
33.89024
30.90318
27.48404
24.25661
21.68776
19.96054
18.88076
18.08848
17.13661
15.66808
13.57346
10.91054
7.938385
4.932716
2.176445
-0.2159958
-2.329895
-4.514389
-7.194946
-10.74033
-15.28507
-20.56149
-26.12231
-31.3438
-35.80078
-39.29514
-42.02219
-44.42617
-47.12766
-50.6702
-55.28575
-60.7141
-66.06855
-70.0059
-70.98196
-67.86552
-60.3848
-49.32823
-36.33424
-23.33717
-11.8993
-2.802444
3.966591
9.04805
13.20992
16.99812
20.66572
24.16869
27.33142
30.01046
32.16988
33.82099
34.98885
35.74116
36.08073
36.06296
35.78023
35.44209
35.32746
35.64782
36.46476
37.5055
38.36646
38.57777
37.82923
36.04592
33.4302
30.41066
27.40243
24.73315
22.58481
20.93097
19.65147
18.54476
17.35241
15.81146
13.81314
11.32992
8.465473
5.484814
2.583115
-0.108963
-2.653786
-5.174107
-7.899174
-10.96275
-14.39506
-18.12026
-21.94161
-25.63082
-29.00238
-31.9439
-34.47581
-36.77798
-39.16294
-42.06992
-45.8916
-50.8057
-56.60364
-62.46844
-67.05455
-68.87288
-66.73339
-60.30811
-50.34241
-38.40845
-26.40233
-15.92826
-7.777355
-1.890713
2.334743
5.689915
8.737923
11.75704
14.73683
17.57894
20.19411
22.52109
24.6523
26.65142
28.52125
30.26205
31.82279
33.21728
34.50779
35.79468
37.13597
38.55654
40.01495
41.36053
42.43403
43.04077
43.10659
42.58789
41.54808
40.07498
38.24963
36.19019
33.90947
31.44254
28.73552
25.82379
22.72416
19.57281
16.48592
13.50894
10.66701
7.871147
5.120264
2.43511
-0.08847857
-2.393219
-4.476513
-6.527126
-8.838431
-11.70011
-15.31348
-19.63012
-24.39998
-29.27997
-33.91033
-38.0202
-41.55928
-44.693
-47.74278
-51.11767
-55.0603
-59.53291
-64.00856
-67.52235
-68.82922
-66.79613
-60.86092
-51.24566
-39.04628
-25.88565
-13.4081
-2.81189
5.417777
11.4872
15.9048
19.20368
21.75822
23.69022
25.03889
25.86909
26.36308
26.76944
27.38472
28.3125
29.58497
31.10681
32.69735
34.18987
35.47842
36.52832
37.3485
37.93662
38.17281
37.87883
36.90386
35.12456
32.66142
29.81691
27.00784
24.57526
22.68645
21.22596
19.94244
18.59843
17.04205
15.31321
13.46289
11.61673
9.753574
7.815947
5.811544
3.783272
1.879408
0.2035065
-1.155703
-2.304928
-3.444645
-4.905218
-6.987822
-9.872604
-13.56945
-17.83675
-22.26638
-26.34059
-29.75658
-32.5122
-34.88758
-37.41939
-40.65859
-44.90623
-50.03772
-55.36708
-59.69237
-61.69072
-60.24839
-54.86504
-45.89389
-34.46216
-22.21713
-10.74493
-1.142647
6.237179
11.65053
15.60437
18.61193
20.89211
22.52331
23.51366
24.05364
24.46698
25.15317
26.41821
28.31974
30.71496
33.28551
35.73581
37.92464
39.82191
41.5071
43.03244
44.31551
45.09679
45.06616
43.91752
41.51021
38.03756
33.86922
29.45159
25.16173
21.20672
17.61241
14.38013
11.47349
8.935886
6.870667
5.281917
4.098277
3.123852
2.184881
1.109022
-0.1170455
-1.514682
-3.121571
-4.991889
-7.294998
-10.14628
-13.58382
-17.47808
-21.56568
-25.4567
-28.8814
-31.7672
-34.21732
-36.62482
-39.44246
-43.00954
-47.39764
-52.27652
-56.83913
-59.99388
-60.58913
-57.78245
-51.41513
-42.04414
-30.85457
-19.33271
-8.824917
-0.2006168
6.266329
10.83718
14.03672
16.36155
18.20259
19.73486
20.98258
21.92797
22.59673
23.06786
23.54082
24.25851
25.30229
26.68427
28.28735
29.83973
31.06249
31.78608
31.94338
31.57027
30.78882
29.6269
28.13712
26.32917
24.28937
22.2044
20.22654
18.47066
16.92035
15.43597
13.88037
12.23526
10.57095
9.030628
7.719803
6.560314
5.4006
4.043964
2.480236
0.84161
-0.578598
-1.643719
-2.506451
-3.537399
-5.253769
-7.955872
-11.6471
-15.88223
-20.11793
-23.83001
-26.77651
-29.11305
-31.16439
-33.4306
-36.33295
-40.09482
-44.63184
-49.40924
-53.51842
-55.81345
-55.24168
-51.22614
-43.96401
-34.41417
-23.92905
-13.94746
-5.456612
1.128105
5.96241
9.481735
12.18782
14.38494
16.13464
17.42063
18.2128
18.60387
18.75927
18.96835
19.432
20.2373
21.34844
22.57516
23.70507
24.61826
25.33073
26.00597
26.71532
27.44903
28.0658
28.29942
27.92864
26.82388
25.06113
22.8473
20.46221
18.03685
15.66939
13.35818
11.08645
8.858658
6.669144
4.505539
2.326538
0.1587982
-1.977097
-3.95269
-5.628471
-6.906807
-7.818718
-8.556648
-9.378059
-10.62511
-12.49283
-14.97616
-17.88572
-20.87142
-23.68677
-26.13584
-28.32554
-30.56177
-33.33675
-37.12001
-42.18469
-48.40459
-55.12305
-61.22211
-65.24724
-65.83707
-62.15619
-54.24187
-43.0482
-30.21805
-17.56227
-6.57444
1.927116
7.824165
11.54707
13.75085
15.03994
15.83968
16.38961
16.83395
17.37651
18.19656
19.44525
21.13286
23.10028
25.00113
26.45017
27.17117
27.12579
26.60193
25.94551
25.48077
25.31808
25.31407
25.19497
24.72223
23.81834
22.59496
21.31014
20.12537
19.08594
18.07274
16.81767
15.08501
12.72032
9.741661
6.292084
2.657715
-0.8810425
-4.074844
-6.773735
-9.00679
-10.88457
-12.62771
-14.41885
-16.44614
-18.71712
-21.16098
-23.62505
-25.99018
-28.23331
-30.50651
-33.04134
-36.16647
-40.18855
-45.22062
-51.09367
-57.24648
-62.73184
-66.35043
-66.9059
-63.59945
-56.35716
-45.95161
-33.80844
-21.62573
-10.86376
-2.354149
3.772911
7.963455
10.87336
13.1713
15.20728
17.14796
19.00817
20.74902
22.44328
24.1767
26.05004
28.07236
30.1945
32.18767
33.91102
35.19819
36.03873
36.48991
36.64499
36.54848
36.17063
35.4436
34.29816
32.80134
31.08387
29.3123
27.59264
25.91301
24.21896
22.44286
20.50708
18.41537
16.13982
13.67911
10.97787
8.07695
5.080879
2.225502
-0.2505951
-2.263359
-3.89373
-5.43573
-7.259178
-9.701035
-12.91645
-16.84131
-21.25623
-25.8216
-30.16673
-34.04642
-37.38158
-40.33348
-43.2846
-46.73663
-51.14845
-56.65236
-62.8822
-68.77034
-72.81856
-73.48355
-69.78938
-61.66764
-50.156
-36.96558
-23.96625
-12.61217
-3.560913
3.301918
8.496479
12.63442
16.1886
19.29869
22.01116
24.32648
26.26972
27.95856
29.53348
31.12932
32.80054
34.50725
36.17523
37.72364
39.13226
40.37399
41.43196
42.2613
42.7711
42.80842
42.16257
40.73755
38.52631
35.73685
32.65533
29.58933
26.7874
24.38313
22.35553
20.64193
19.16727
17.89785
16.82478
15.86392
14.87362
13.62525
12.02068
10.04083
7.846642
5.595922
3.396852
1.210403
-1.160486
-3.964122
-7.347448
-11.33052
-15.7274
-20.17236
-24.37276
-28.0622
-31.19248
-33.84664
-36.31581
-38.91878
-42.12176
-46.28942
-51.49814
-57.46708
-63.3493
-67.87264
-69.55843
-67.30067
-60.66386
-50.27899
-37.57468
-24.38748
-12.37085
-2.593147
4.71637
9.908356
13.63725
16.51113
18.85662
20.84268
22.5067
23.93413
25.27898
26.78165
28.53264
30.56408
32.69819
34.72218
36.47458
37.93673
39.16078
40.30138
41.45159
42.53376
43.427
43.92092
43.88338
43.30829
42.32608
41.07428
39.68285
38.12547
36.27517
34.00813
31.30625
28.28091
25.18105
22.1989
19.39319
16.68658
13.85135
10.72925
7.358505
3.959759
0.7915649
-1.984165
-4.474369
-7.003159
-9.917484
-13.40919
-17.48151
-21.78314
-25.90971
-29.47081
-32.23085
-34.23589
-35.70272
-36.9923
-38.56927
-40.9049
-44.3038
-48.76029
-53.78853
-58.40089
-61.32569
-61.32447
-57.64591
-50.33348
-40.24422
-28.86112
-17.79933
-8.327955
-0.9995365
4.284925
8.092371
11.05635
13.60294
15.8123
17.61803
18.96572
19.94429
20.88214
22.10188
23.78131
25.82826
27.89222
29.58349
30.67963
31.23943
31.52555
31.85178
32.40621
33.12542
33.72971
33.83752
33.20718
31.80672
29.88551
27.75397
25.7525
24.03528
22.5667
21.14924
19.44474
17.21397
14.30412
10.84755
7.068066
3.343634
-0.01745224
-2.915215
-5.465605
-7.949953
-10.62435
-13.64209
-16.93108
-20.34524
-23.69327
-26.87792
-29.85574
-32.65812
-35.33501
-38.02559
-40.98265
-44.52231
-48.79844
-53.66248
-58.46375
-62.10189
-63.32076
-61.08452
-55.00054
-45.56866
-34.0384
-21.97877
-10.91606
-1.848566
4.840439
9.362534
12.22177
13.93221
14.92308
15.43543
15.72856
16.02955
16.59768
17.66812
19.3544
21.58039
24.10275
26.58894
28.76605
30.52022
31.8237
32.72803
33.29464
33.47347
33.12487
32.06497
30.17867
27.56817
24.52319
21.43266
18.73887
16.73058
15.45827
14.69571
14.06707
13.19
11.79456
9.850395
7.450777
4.811039
2.124382
-0.602787
-3.508589
-6.785772
-10.58158
-14.86386
-19.35858
-23.63079
-27.25333
-30.00629
-31.99298
-33.61148
-35.35736
-37.71495
-41.042
-45.43578
-50.75802
-56.53998
-61.90607
-65.60156
-66.30829
-63.04615
-55.6128
-44.82306
-32.24965
-19.72924
-8.80397
-0.1720543
6.23114
10.98356
14.68011
17.74705
20.23816
22.07703
23.29322
24.05226
24.77692
25.85505
27.49935
29.62997
31.94373
33.98736
35.44547
36.23459
36.47358
36.40929
36.26775
36.05914
35.63819
34.80234
33.34631
31.26332
28.80729
26.34665
24.26557
22.80964
21.87663
21.22012
20.38544
18.99792
16.85831
14.11329
10.95871
7.713791
4.62986
1.761436
-0.8407211
-3.254364
-5.635536
-8.230827
-11.24365
-14.83682
-18.9522
-23.259
-27.36717
-30.88982
-33.71446
-36.09138
-38.50821
-41.51422
-45.56263
-50.81904
-56.97141
-63.29175
-68.57474
-71.40964
-70.54649
-65.29855
-55.90525
-43.5458
-30.00266
-17.03345
-5.954994
2.787178
9.374863
14.38839
18.43779
21.90455
24.93954
27.60394
29.93162
32.00822
33.94227
35.84142
37.69004
39.41901
40.8736
41.91489
42.5516
42.84319
42.97913
43.13863
43.42406
43.76752
43.98999
43.77838
42.90826
41.28229
38.97306
36.21254
33.29286
30.44041
27.79713
25.39864
23.13141
20.92767
18.69382
16.38554
13.95413
11.39366
8.603905
5.605995
2.410667
-0.863945
-4.046814
-7.007675
-9.726982
-12.38728
-15.26939
-18.64658
-22.5433
-26.78809
-31.02419
-34.86628
-38.11689
-40.8616
-43.45569
-46.4733
-50.45583
-55.68339
-62.06427
-68.88063
-74.87495
-78.45647
-78.16267
-73.17232
-63.73909
-51.10795
-37.12691
-23.68824
-12.10014
-2.775429
4.550613
10.50594
15.73769
20.54733
25.02252
29.08204
32.66755
35.86153
38.74171
41.31046
43.47495
45.09917
46.0884
46.50528
46.49447
46.24995
45.93644
45.60152
45.18463
44.60282
43.73201
42.51925
40.86409
38.70323
36.02471
32.94608
29.6743
26.4762
23.58456
21.08078
18.88467
16.89124
15.03747
13.33852
11.86825
10.63736
9.539894
8.415131
7.000771
5.122116
2.764656
0.03746796
-2.878136
-5.879868
-8.985619
-12.31609
-16.00308
-20.11417
-24.54751
-29.05251
-33.29738
-37.01875
-40.21167
-43.07078
-46.00582
-49.50279
-53.95708
-59.40732
-65.46911
-71.18593
-75.17099
-75.97378
-72.57983
-64.71685
-53.20435
-39.57692
-25.6351
-12.8717
-2.123512
6.469482
13.1972
18.43761
22.56489
25.75874
28.23318
30.14929
31.66521
32.94163
34.06627
35.13065
36.18526
37.32655
38.57469
39.93749
41.33505
42.69479
43.91734
44.92259
45.59477
45.77097
45.3084
44.09472
42.16207
39.70508
36.90321
33.9668
31.02773
28.18882
25.54752
23.21935
21.28049
19.67165
18.26746
16.78366
15.00903
12.85574
10.41344
7.845032
5.285728
2.766312
0.1910439
-2.572338
-5.714371
-9.273731
-13.25494
-17.62872
-22.30154
-27.1153
-31.75953
-35.95343
-39.42336
-42.16516
-44.40297
-46.57594
-49.23028
-52.7173
-56.96652
-61.26147
-64.39537
-64.92667
-61.70968
-54.33765
-43.38375
-30.34337
-17.1258
-5.452175
3.629634
9.947261
14.01722
16.62797
18.46749
19.89105
20.98372
21.74076
22.20501
22.58778
23.17943
24.18849
25.59481
27.17605
28.60336
29.59426
30.10239
30.18608
30.02016
29.76653
29.43654
28.89978
27.94342
26.39745
24.21843
21.54129
18.68826
16.06656
14.06129
12.8634
12.43384
12.42447
12.34936
11.81635
10.61562
8.836967
6.751528
4.626064
2.60704
0.6473007
-1.535194
-4.273163
-7.798943
-12.08068
-16.91994
-21.91361
-26.6725
-30.96873
-34.71282
-38.06633
-41.32039
-44.82649
-48.86559
-53.57491
-58.84876
-64.19504
-68.63612
-70.89079
-69.69383
-64.25909
-54.71847
-42.15651
-28.36558
-15.18836
-4.043793
4.53054
10.69875
15.00566
18.01827
20.0028
21.04647
21.22156
20.84209
20.36238
20.33372
21.13551
22.78867
24.94542
27.09377
28.75277
29.6287
29.73145
29.24342
28.3895
27.31177
26.00446
24.30883
22.07349
19.33691
16.31741
13.43793
11.09356
9.469498
8.486366
7.74218
6.764381
5.205132
3.054726
0.5817261
-1.769821
-3.626671
-4.977547
-6.065147
-7.435669
-9.535187
-12.67632
-16.78611
-21.55024
-26.45796
-31.04595
-35.06525
-38.45039
-41.47675
-44.56579
-48.28589
-53.10726
-59.11817
-65.70511
-71.5957
-75.09903
-74.51421
-68.94304
-58.58956
-44.82407
-29.72036
-15.41456
-3.394596
5.743069
12.18574
16.63871
19.78896
22.17066
24.01398
25.42109
26.46286
27.2631
28.0753
29.08484
30.41478
32.00673
33.72619
35.36925
36.79007
37.95024
38.85826
39.53893
39.91457
39.8888
39.26797
37.98062
36.07656
33.65885
30.89304
27.93722
24.90645
21.89886
19.13365
16.71448
14.70951
13.00258
11.34064
9.416092
7.05887
4.34004
1.524275
-1.007141
-2.986757
-4.421387
-5.586596
-6.9027
-8.803991
-11.54346
-15.11774
-19.34935
-23.94703
-28.58193
-33.03184
-37.16205
-41.02689
-44.84821
-49.00428
-53.96377
-60.08383
-67.36782
-75.25031
-82.47763
-87.31063
-88.02243
-83.4826
-73.66711
-59.7966
-44.00261
-28.50821
-14.99779
-4.118053
4.416491
11.43335
17.67862
23.53802
28.95605
33.57948
37.17836
39.65279
41.2206
42.11572
42.59686
42.80406
42.82533
42.77113
42.70358
42.80174
43.17696
43.92543
44.94354
45.98254
46.74004
46.82705
46.04034
44.32914
41.88534
39.03453
36.13612
33.38538
30.81783
28.27286
25.5126
22.44968
19.172
15.98406
13.19371
10.96676
9.290733
7.897434
6.486584
4.775089
2.778854
0.7104034
-1.165581
-2.650047
-3.949539
-5.430473
-7.552151
-10.57578
-14.48359
-18.84019
-23.0711
-26.78991
-29.79655
-32.35403
-34.95277
-38.14505
-42.38015
-47.92468
-54.64596
-62.03669
-69.09515
-74.36865
-76.36856
-73.92412
-66.68417
-55.36775
-41.5853
-27.28216
-14.22865
-3.503666
4.710484
10.84494
15.58652
19.55037
22.99218
26.04023
28.70426
31.02658
33.12791
35.21352
37.40381
39.68413
41.93055
43.91645
45.51194
46.69869
47.53666
48.10713
48.46528
48.48621
48.0192
46.92242
45.27599
43.2933
41.17643
39.08504
37.08246
35.15682
33.23492
31.33201
29.46626
27.59359
25.56985
23.26176
20.50955
17.33908
13.90387
10.39306
7.005096
3.894466
1.062798
-1.486969
-3.808174
-6.037441
-8.316166
-10.89694
-13.95842
-17.55844
-21.51644
-25.58415
-29.46323
-33.05289
-36.44911
-39.93538
-43.94339
-48.77838
-54.56857
-61.0826
-67.60844
-73.00063
-75.92741
-75.12668
-69.89658
-60.43444
-47.89013
-33.99775
-20.60254
-9.104553
-0.143856
6.320488
10.77304
13.85863
16.03214
17.56451
18.66991
19.4972
20.30073
21.33178
22.83162
24.8045
27.16034
29.57138
31.72717
33.36929
34.35802
34.72327
34.62482
34.22905
33.58836
32.66134
31.32842
29.5893
27.4616
25.1589
22.8969
20.91436
19.36348
18.19187
17.24418
16.27033
15.09394
13.59254
11.77554
9.695839
7.494301
5.317396
3.225864
1.186064
-0.9570942
-3.423795
-6.476426
-10.22982
-14.61336
-19.34697
-24.00832
-28.13629
-31.48133
-34.09069
-36.27045
-38.52213
-41.32885
-45.05838
-49.8517
-55.32716
-60.70818
-64.76171
-66.13747
-63.75617
-57.23579
-47.06923
-34.58237
-21.57971
-9.662086
0.06709862
7.339093
12.48722
16.17116
18.94593
21.12769
22.74362
23.71206
24.12162
24.2323
24.48807
25.26863
26.7584
28.77189
30.9421
32.8541
34.27809
35.26199
35.94138
36.46383
36.74809
36.48391
35.33795
33.13812
29.98696
26.23885
22.48365
19.18986
16.60385
14.67319
13.06699
11.40426
9.398948
6.970459
4.232716
1.502483
-0.9182196
-2.840647
-4.257276
-5.357922
-6.496377
-8.08289
-10.48151
-13.93826
-18.4114
-23.57676
-28.92116
-33.94169
-38.29549
-41.95796
-45.25069
-48.70024
-52.80816
-57.79623
-63.41607
-68.80332
-72.72655
-73.83642
-71.11978
-64.22337
-53.69569
-40.83427
-27.285
-14.67867
-4.046881
4.196105
10.25942
14.66339
17.99657
20.64273
22.78794
24.56765
26.07837
27.53485
29.16004
31.05151
33.09426
35.09509
36.79157
37.96033
38.57446
38.75468
38.70468
38.56119
38.31836
37.76701
36.68703
34.93798
32.4557
29.46847
26.28213
23.27781
20.7006
18.59607
16.77839
14.98212
12.94636
10.5034
7.69932
4.671961
1.638767
-1.231417
-3.890556
-6.475687
-9.208639
-12.33682
-16.01953
-20.15873
-24.53999
-28.79152
-32.62675
-35.96256
-39.02592
-42.18502
-45.93427
-50.66517
-56.56796
-63.5592
-71.10147
-78.10168
-83.18646
-84.8481
-81.8924
-73.97136
-61.80904
-47.01244
-31.67963
-17.73578
-6.274109
2.416668
8.858097
13.95597
18.44154
22.73154
26.93224
30.82913
34.14849
36.74112
38.60034
39.86893
40.74146
41.35997
41.80541
42.06796
42.08891
41.88769
41.59247
41.36679
41.32404
41.43143
41.48521
41.34097
40.84536
39.95997
38.73144
37.32557
35.82278
34.23987
32.55868
30.68085
28.65617
26.50467
24.21368
21.75894
19.14087
16.2746
13.11513
9.712097
6.07856
2.312996
-1.494736
-5.308937
-9.162155
-13.20176
-17.57167
-22.3852
-27.52605
-32.75919
-37.69955
-42.03239
-45.62296
-48.58267
-51.32313
-54.37534
-58.30116
-63.29769
-69.17056
-75.04147
-79.50854
-80.95844
-78.07411
-70.45396
-58.79273
-44.7328
-30.21951
-16.97508
-5.888451
2.97258
10.10475
16.19427
21.68697
26.71026
31.18317
34.96661
38.05005
40.59152
42.84078
44.93871
46.92212
48.5768
49.69415
50.16319
50.06227
49.67775
49.36891
49.42564
49.8806
50.45227
50.65521
50.11079
48.60501
46.19286
43.18852
39.96765
36.90253
34.23416
32.00708
30.08751
28.29962
26.33237
23.90739
20.93886
17.48245
13.78705
10.21111
6.957489
4.023552
1.275055
-1.627861
-5.004219
-8.915749
-13.31687
-17.93629
-22.42076
-26.48238
-29.97992
-32.97146
-35.74694
-38.75536
-42.45146
-47.24561
-53.15298
-59.70719
-65.89344
-70.26896
-71.38991
-68.22281
-60.59373
-49.31141
-35.99664
-22.45978
-10.25128
-0.2266846
7.543396
13.41882
17.96812
21.63203
24.64321
27.04702
28.94632
30.44685
31.76073
33.11091
34.53303
35.96548
37.22062
38.05189
38.31
38.00596
37.33497
36.57018
36.04887
35.86349
35.89641
35.86134
35.42267
34.41238
32.91514
31.22224
29.66003
28.39426
27.24786
25.87453
23.78069
20.66456
16.59006
11.9055
7.148788
2.818623
-0.8033905
-3.769619
-6.312202
-8.906403
-11.97316
-15.6806
-19.95887
-24.46863
-28.763
-32.50787
-35.62834
-38.26789
-40.74393
-43.50019
-46.85149
-50.96166
-55.77068
-60.78431
-65.12621
-67.60316
-66.94116
-62.26788
-53.50234
-41.49224
-27.82726
-14.3072
-2.413895
7.023632
13.93975
18.79291
22.16636
24.46708
25.97596
26.81239
27.15364
27.30293
27.55457
28.14356
29.08806
30.20864
31.23309
32.03588
32.6283
33.16626
33.91727
34.98403
36.29599
37.56339
38.34418
38.22596
36.94523
34.51508
31.22389
27.53789
23.94013
20.71177
17.84892
15.12003
12.24755
9.059521
5.587444
2.063562
-1.24325
-4.184597
-6.801758
-9.255283
-11.78487
-14.57298
-17.71829
-21.13845
-24.64951
-28.00908
-31.11485
-34.02273
-36.89351
-40.01711
-43.68253
-48.10489
-53.2435
-58.7794
-64.00629
-67.88879
-69.3031
-67.23224
-61.19756
-51.52263
-39.29939
-26.04402
-13.29765
-2.167168
6.834961
13.68387
18.65972
22.00475
23.89912
24.47678
23.93475
22.60658
20.99231
19.61983
18.86997
19.0031
19.94593
21.55541
23.61189
25.83961
27.97819
29.79661
31.03681
31.44276
30.88203
29.24951
26.66004
23.41941
19.93192
16.62822
13.8424
11.69666
10.00645
8.49807
6.768196
4.56929
1.849625
-1.224518
-4.406776
-7.502182
-10.45641
-13.42296
-16.54048
-19.94791
-23.55785
-27.16158
-30.54744
-33.54876
-36.2419
-38.89028
-41.89204
-45.56065
-50.18246
-55.68549
-61.66804
-67.37762
-71.57232
-73.0022
-70.62746
-64.14204
-54.10832
-41.91919
-29.24519
-17.54808
-7.756615
0.01776886
6.121399
11.10295
15.31517
18.93923
21.91115
24.23576
25.98785
27.3634
28.65636
30.0303
31.56941
33.15614
34.60672
35.74123
36.56882
37.14656
37.54915
37.78717
37.65859
36.93018
35.4414
33.1769
30.3605
27.35439
24.46784
21.83948
19.42488
16.93584
14.11914
10.7978
6.980362
2.923332
-0.9790421
-4.341042
-6.987968
-9.022072
-10.91066
-13.1508
-16.15112
-20.01114
-24.4798
-29.16217
-33.60141
-37.5734
-41.091
-44.46696
-48.10389
-52.40724
-57.63599
-63.72991
-70.18324
-75.93628
-79.55371
-79.55103
-74.94904
-65.68614
-52.81314
-38.20502
-23.86679
-11.36888
-1.309731
6.558994
13.02749
18.78524
24.20068
29.20805
33.49585
36.89728
39.39703
41.2
42.5134
43.44727
43.9167
43.84442
43.20739
42.15176
40.98904
40.00239
39.26709
38.62546
37.73507
36.18041
33.79041
30.69884
27.29064
24.00527
21.12405
18.66718
16.43002
14.16628
11.68814
8.96732
6.187325
3.541498
1.171828
-0.9905634
-3.153348
-5.611734
-8.647594
-12.37737
-16.75101
-21.47155
-26.15416
-30.36297
-33.8624
-36.62997
-38.98026
-41.49933
-44.84384
-49.54189
-55.56413
-62.21094
-68.02415
-71.22581
-70.26454
-64.44706
-54.2745
-41.22278
-27.31311
-14.25294
-3.103535
5.920685
13.20364
19.30728
24.63837
29.28439
33.18201
36.13275
38.10473
39.19571
39.57909
39.55568
39.40789
39.34374
39.42584
39.58689
39.59711
39.31718
38.68434
37.76791
36.72745
35.65667
34.47382
32.93763
30.82462
27.9873
24.60951
21.10648
17.87843
15.26956
13.29523
11.68633
10.05222
8.031258
5.35685
2.031242
-1.733978
-5.730247
-9.654243
-13.39409
-17.00382
-20.66747
-24.65601
-29.27824
-34.73637
-41.02807
-47.94498
-54.88727
-60.8879
-64.6944
-65.00417
-60.92154
-52.37611
-40.22258
-26.04427
-11.78839
0.9631042
11.27232
19.0033
24.65688
28.90553
32.26756
34.99326
37.15929
38.72989
39.87135
40.81714
41.79758
42.98541
44.31689
45.53041
46.30568
46.42474
45.82396
44.71471
43.32179
41.82585
40.24139
38.4277
36.04578
32.83615
28.78725
24.18927
19.62982
15.74309
12.8992
11.06531
9.805969
8.379364
6.162506
2.840714
-1.46666
-6.303757
-11.05481
-15.25887
-18.69954
-21.45164
-23.75555
-25.92291
-28.34319
-31.34184
-35.22549
-39.98541
-45.23038
-50.08344
-53.25233
-53.36595
-49.49533
-41.56179
-30.46128
-17.76556
-5.17337
6.014198
15.22498
22.4976
28.22538
32.78618
36.38799
38.98322
40.58633
41.32854
41.53765
41.64714
41.99834
42.64283
43.39779
43.90568
43.85702
43.10416
41.77203
40.14416
38.4765
36.87433
35.19033
33.16058
30.61686
27.57491
24.31385
21.2746
18.78909
17.01672
15.82078
14.83675
13.66102
11.96321
9.614162
6.697086
3.489357
0.2585487
-2.723595
-5.348625
-7.699066
-9.99202
-12.52963
-15.4883
-18.85841
-22.38465
-25.76344
-28.72269
-31.20052
-33.39729
-35.61698
-38.24404
-41.50614
-45.47855
-49.89135
-54.16797
-57.31359
-58.15046
-55.66864
-49.27045
-39.27586
-26.84403
-13.6807
-1.578753
8.182098
15.10521
19.44257
21.77947
22.80873
23.01564
22.62038
21.81081
20.78074
19.88098
19.50632
19.90977
21.02219
22.60698
24.26765
25.62028
26.56319
27.12074
27.49667
27.82006
28.07694
28.08119
27.62377
26.57201
24.85007
22.57001
19.8865
16.97424
13.98705
10.99108
8.063904
5.231255
2.493118
-0.2293472
-3.013107
-5.952255
-9.12999
-12.50642
-15.94437
-19.12366
-21.77678
-23.75331
-25.1277
-26.17264
-27.30858
-28.99399
-31.57919
-35.22813
-39.80878
-44.85982
-49.51498
-52.60127
-52.86487
-49.43431
-42.15265
-31.77094
-19.84326
-8.253632
1.460342
8.509155
12.99266
15.55408
16.8877
17.45869
17.39523
16.69514
15.51784
14.32826
13.79805
14.45404
16.38687
19.18698
22.08978
24.43582
25.86778
26.47707
26.62247
26.668
26.73163
26.62622
25.96291
24.36021
21.729
18.20515
14.27232
10.40999
7.002899
4.208267
1.895706
-0.2979431
-2.84201
-6.009583
-9.895447
-14.22964
-18.55411
-22.37909
-25.38217
-27.55792
-29.20142
-30.80707
-32.83463
-35.6922
-39.53537
-44.11642
-48.74802
-52.31088
-53.50226
-51.27417
-45.21158
-35.80731
-24.3862
-12.6806
-2.239288
5.975769
11.76718
15.43942
17.53653
18.55334
18.81213
18.51303
17.86603
17.1666
16.72284
16.77975
17.41226
18.45349
19.62305
20.58563
21.12558
21.23029
21.00186
20.56125
19.97699
19.24542
18.26791
16.93869
15.17084
12.87988
10.04462
6.648529
2.745758
-1.529297
-5.88501
-10.0842
-13.92111
-17.27649
-20.1651
-22.68469
-24.93369
-27.03616
-29.0903
-31.08609
-32.96356
-34.59973
-35.86151
-36.73154
-37.35645
-38.01138
-39.0769
-40.84738
-43.49207
-46.84436
-50.36679
-53.1048
-53.88501
-51.60434
-45.67093
-36.34113
-24.73505
-12.55801
-1.492615
7.30191
13.53189
17.56271
20.14969
21.92987
23.18436
23.9458
24.19839
23.99582
23.57748
23.276
23.37439
23.96997
24.86377
25.8175
26.5799
27.03079
27.17325
27.10471
26.86346
26.41385
25.57648
24.12546
21.97159
19.19461
16.08264
12.99026
10.29706
8.211273
6.633972
5.360291
4.093781
2.6521
1.035645
-0.6294556
-2.190948
-3.519073
-4.676697
-5.903076
-7.466187
-9.557709
-12.18564
-15.17404
-18.2478
-21.10455
-23.60303
-25.72229
-27.57422
-29.33795
-31.26224
-33.65021
-36.72546
-40.49924
-44.47653
-47.64993
-48.62305
-46.08972
-39.43918
-29.19168
-16.86337
-4.402252
6.42099
14.65292
20.21216
23.62781
25.66382
26.90143
27.55475
27.63455
27.19656
26.38681
25.45795
24.73773
24.36954
24.37427
24.6319
24.90958
25.02045
24.91629
24.67114
24.46378
24.42099
24.47949
24.39923
23.91422
22.79013
21.01334
18.78189
16.4566
14.44278
13.00192
12.16223
11.72025
11.37589
10.75833
9.645782
7.924438
5.710266
3.243805
0.8365479
-1.340424
-3.196655
-4.816284
-6.457489
-8.313965
-10.55829
-13.21326
-16.11548
-18.96954
-21.53354
-23.59988
-25.19553
-26.57831
-28.1908
-30.48544
-33.72879
-37.81952
-42.12891
-45.60956
-47.02219
-45.30988
-39.97858
-31.35605
-20.49039
-8.93866
1.716125
10.33942
16.44867
20.1907
22.12891
22.91406
22.99945
22.60645
21.83795
20.80643
19.7366
18.953
18.76428
19.26584
20.33752
21.68427
22.95715
23.86728
24.25763
24.09964
23.37915
22.08047
20.1926
17.79025
15.03934
12.24689
9.691772
7.572296
6.014221
4.89325
4.003387
3.039642
1.78241
0.07925415
-1.981018
-4.182404
-6.258087
-7.86084
-8.911652
-9.486938
-9.944641
-10.69699
-12.10669
-14.32828
-17.18509
-20.35043
-23.32053
-25.80655
-27.75162
-29.4162
-31.25543
-33.6933
-36.93707
-40.79584
-44.62097
-47.43372
-48.20715
-46.0882
-40.78925
-32.69165
-22.82837
-12.52301
-3.015808
4.839172
10.73962
14.78528
17.35468
18.78821
19.25806
18.82794
17.55371
15.71545
13.79938
12.36285
11.88977
12.54547
14.17072
16.23004
18.11298
19.35645
19.77063
19.45276
18.633
17.50787
16.11792
14.47034
12.5506
10.44232
8.28302
6.174683
4.135803
2.148438
0.1515503
-1.851135
-3.786133
-5.532166
-7.06189
-8.49823
-10.0434
-11.95624
-14.28125
-16.89862
-19.51556
-21.84851
-23.67078
-24.92175
-25.69812
-26.25238
-26.97394
-28.22504
-30.39258
-33.56165
-37.46429
-41.36896
-44.14612
-44.54773
-41.74579
-35.565
-26.64609
-16.34515
-6.114502
2.834412
9.839844
14.83853
18.15567
20.181
21.27713
21.6857
21.53824
21.07825
20.58057
20.31027
20.47778
21.14127
22.21463
23.45425
24.61023
25.46378
25.94443
26.10019
25.88757
25.28445
24.04883
21.95428
18.88123
15.02747
10.85706
7.000885
4.013489
2.070343
1.095001
0.6431274
0.2467041
-0.427124
-1.464478
-2.77887
-4.124695
-5.320923
-6.279144
-7.036377
-7.850006
-8.979065
-10.6824
-13.07877
-16.14615
-19.72519
-23.51868
-27.20779
-30.49994
-33.30844
-35.68341
-37.9129
-40.44949
-43.72729
-47.8804
-52.51721
-56.68954
-58.99893
-58.11954
-53.29099
-44.70419
-33.50342
-21.39633
-10.07538
-0.6610107
6.431366
11.45822
15.01202
17.65042
19.66699
21.20227
22.31427
23.05695
23.56769
23.98212
24.42291
24.97824
25.67807
26.44583
27.21991
27.99445
28.73578
29.49774
30.33954
31.27795
32.21323
32.93439
33.11633
32.43137
30.83621
28.45602
25.66394
22.93872
20.66153
18.98782
17.79422
16.76495
15.53357
13.91934
11.9772
10.0188
8.380005
7.261993
6.593658
6.047852
5.158905
3.649902
1.547729
-0.8566895
-3.104523
-4.893097
-6.186188
-7.275604
-8.627502
-10.64105
-13.49637
-17.06693
-21.07242
-25.11234
-28.85699
-32.13535
-34.90952
-37.24265
-39.31558
-41.3779
-43.7916
-46.93991
-50.94818
-55.52377
-59.80292
-62.46716
-62.11179
-57.80362
-49.51456
-38.30026
-25.95105
-14.34015
-4.822388
2.101868
6.746552
9.93396
12.54117
15.1199
17.87097
20.76718
23.7113
26.61783
29.43909
32.13144
34.58734
36.73462
38.50827
39.92862
41.11841
42.16992
43.12125
43.88641
44.32108
44.17004
43.27646
41.54669
39.07953
36.1077
32.97592
30.10284
27.76978
26.16809
25.21347
24.6442
24.10287
23.36194
22.34515
21.12411
19.85681
18.60098
17.29391
15.68417
13.52426
10.66705
7.17514
3.346161
-0.4415894
-3.882111
-6.862396
-9.511108
-12.06442
-14.7724
-17.7377
-20.81531
-23.6969
-26.03983
-27.67477
-28.67529
-29.38919
-30.29425
-31.91318
-34.55936
-38.34662
-43.08514
-48.21429
-52.85004
-55.85287
-56.05585
-52.66425
-45.57507
-35.50391
-23.85806
-12.29663
-2.218323
5.585754
11.03802
14.61984
16.99304
18.69086
20.0575
21.23254
22.24557
23.07718
23.76791
24.33264
24.79794
25.17407
25.41391
25.50003
25.42981
25.24887
25.0451
24.93274
24.9707
25.17157
25.40396
25.46265
25.13608
24.2406
22.82095
21.05098
19.22554
17.53288
16.00983
14.52185
12.86299
10.94669
8.726044
6.328384
3.939682
1.728394
-0.2797699
-2.162064
-4.033966
-6.037292
-8.247208
-10.7672
-13.59396
-16.63466
-19.72614
-22.65038
-25.23428
-27.45433
-29.45619
-31.5148
-34.02151
-37.21404
-41.1304
-45.44476
-49.44556
-52.12711
-52.36813
-49.37798
-42.94101
-33.56046
-22.37393
-10.86073
-0.4283752
8.0047
14.08092
18.00929
20.23882
21.24326
21.4149
21.0887
20.52635
19.96184
19.60924
19.59648
19.93365
20.5554
21.31041
22.05754
22.68567
23.18831
23.57275
23.92738
24.23528
24.41786
24.26309
23.57582
22.20627
20.14876
17.5768
14.78772
12.04558
9.485489
7.102631
4.869934
2.834824
1.140259
-0.02954102
-0.6269684
-0.7554016
-0.7314911
-1.025192
-2.063797
-4.060608
-6.917053
-10.34474
-13.87022
-17.08188
-19.72778
-21.89813
-23.88283
-26.24109
-29.49033
-33.93636
-39.48734
-45.52744
-51.02187
-54.68561
-55.43474
-52.64273
-46.46407
-37.71138
-27.73494
-17.93771
-9.36586
-2.563736
2.535675
6.311646
9.186829
11.4068
13.05055
14.16635
14.87492
15.47047
16.24341
17.42453
19.02559
20.87912
22.71376
24.30588
25.71358
27.03001
28.46884
30.04829
31.61563
32.75981
33.0719
32.22972
30.14815
27.11839
23.57385
20.0685
16.96245
14.44572
12.40559
10.55174
8.577805
6.251892
3.536865
0.5949554
-2.316147
-4.979324
-7.310562
-9.507675
-11.92079
-14.864
-18.44287
-22.44036
-26.45195
-29.99442
-32.78017
-34.8791
-36.60295
-38.50314
-41.09457
-44.8163
-49.747
-55.69664
-61.99017
-67.5062
-70.80688
-70.48336
-65.73306
-56.64012
-44.32777
-30.56123
-17.24121
-5.727089
3.396805
10.31236
15.62552
19.90212
23.46149
26.3583
28.58349
30.14987
31.32882
32.38165
33.561
34.98338
36.50829
37.89333
38.95556
39.5776
39.82378
39.90685
39.96718
40.01846
39.99158
39.70406
38.99957
37.83825
36.25942
34.466
32.72349
31.19907
29.93521
28.91088
27.9169
26.72905
25.19281
23.25657
21.06078
18.8595
16.75458
14.74123
12.69983
10.39382
7.710008
4.693906
1.444365
-1.853554
-5.081409
-8.347241
-11.83044
-15.71535
-20.11378
-24.84124
-29.49813
-33.7016
-37.13247
-39.7238
-41.7307
-43.60188
-45.88407
-49.1472
-53.65821
-59.23652
-65.23315
-70.40707
-73.26926
-72.45352
-67.19141
-57.62122
-44.85762
-30.59221
-16.60368
-4.31435
5.567619
13.00158
18.42685
22.50333
25.79236
28.65147
31.21009
33.43243
35.23741
36.67099
37.90047
39.13796
40.5813
42.21545
43.87591
45.3097
46.28826
46.7131
46.69634
46.34446
45.67648
44.6362
43.06693
40.84877
38.02804
34.89047
31.74824
28.96263
26.74742
25.06976
23.73045
22.51749
21.25162
19.83423
18.32348
16.77996
15.17526
13.44218
11.50504
9.373886
7.206482
5.208847
3.478348
1.891785
0.1515884
-2.116745
-5.168167
-8.993744
-13.32322
-17.74775
-21.87226
-25.48414
-28.60963
-31.48725
-34.43419
-37.7784
-41.82594
-46.66424
-52.00704
-57.1543
-60.99023
-62.22805
-59.87531
-53.61348
-43.9838
-32.368
-20.48263
-9.826614
-1.280518
5.088913
9.813469
13.59361
16.94051
19.94777
22.46158
24.23127
25.21281
25.60207
25.80826
26.21202
26.97208
28.02103
29.09443
29.95867
30.49187
30.76752
30.95828
31.24008
31.62241
31.88341
31.68217
30.70687
28.91895
26.54785
24.04202
21.88026
20.32143
19.28997
18.45129
17.38082
15.73743
13.50465
10.91034
8.358513
6.215927
4.59082
3.407959
2.375336
1.059303
-0.958313
-3.950859
-7.907326
-12.62807
-17.66691
-22.57011
-26.87983
-30.37199
-33.13558
-35.53932
-38.09923
-41.26801
-45.20635
-49.58659
-53.54519
-55.84634
-55.243
-50.96068
-42.95493
-32.01684
-19.55347
-7.151653
3.85474
12.65884
18.97809
22.97904
24.9805
25.45293
24.83995
23.59592
22.15523
20.94658
20.35597
20.56446
21.6495
23.48647
25.77272
28.09273
30.0764
31.49374
32.31567
32.64195
32.56817
32.11181
31.21432
29.7775
27.7753
25.30393
22.62984
20.05613
17.84782
16.14151
14.96046
14.13073
13.33222
12.25092
10.58239
8.287086
5.534225
2.669487
-0.02934647
-2.29882
-4.243452
-6.131418
-8.269907
-10.92309
-14.12438
-17.6982
-21.32194
-24.71334
-27.65297
-30.16362
-32.4017
-34.65026
-37.22941
-40.45736
-44.54624
-49.45667
-54.82529
-59.90502
-63.66859
-64.99906
-63.08605
-57.74191
-49.52988
-39.61059
-29.40053
-20.04219
-12.19193
-5.901007
-0.7774057
3.734593
7.943661
11.92822
15.54393
18.56231
20.86234
22.54167
23.78542
24.81675
25.85489
26.93244
28.0384
29.14537
30.21181
31.23846
32.24589
33.17502
33.93523
34.40937
34.48484
34.07848
33.17695
31.82245
30.07781
28.04936
25.83174
23.48562
21.06425
18.54482
15.91949
13.17843
10.39049
7.648402
5.032809
2.518845
0.02266788
-2.502131
-5.096931
-7.637407
-10.05072
-12.31579
-14.57233
-17.06776
-20.06638
-23.63038
-27.57577
-31.60506
-35.37148
-38.75547
-41.87196
-45.00362
-48.50669
-52.68826
-57.63625
-63.20847
-68.92134
-73.84572
-76.85614
-76.90617
-73.2885
-66.05141
-55.98411
-44.43124
-32.85309
-22.36871
-13.46789
-6.064072
0.2437172
5.938499
11.22978
16.13497
20.49761
24.21459
27.36299
30.16994
32.88279
35.60959
38.30412
40.7328
42.74298
44.30774
45.533
46.60666
47.61012
48.37717
48.6322
48.11891
46.67424
44.45185
41.75453
38.89572
36.05789
33.30606
30.67537
28.20699
26.03694
24.24762
22.85442
21.71738
20.59275
19.21853
17.44451
15.27299
12.81527
10.22938
7.631283
5.039356
2.389782
-0.4355011
-3.526848
-6.928391
-10.60658
-14.50589
-18.48596
-22.43815
-26.28167
-30.03393
-33.78983
-37.69349
-41.9771
-46.81536
-52.34835
-58.39185
-64.43686
-69.56657
-72.56826
-72.29576
-67.92774
-59.48992
-47.83776
-34.49928
-21.20891
-9.410889
0.1173668
7.373737
12.87233
17.31771
21.19144
24.69274
27.72874
30.16871
32.0536
33.54029
34.92051
36.41424
38.08158
39.84287
41.57211
43.10169
44.3896
45.47165
46.39435
47.19993
47.73362
47.74592
46.94599
45.18732
42.51153
39.2205
35.72376
32.40448
29.45354
26.79051
24.20115
21.44842
18.42525
15.14567
11.78476
8.536983
5.551064
2.929482
0.6756744
-1.296272
-3.061577
-4.738552
-6.519585
-8.558544
-11.03838
-14.00222
-17.31557
-20.7154
-23.92682
-26.75292
-29.24169
-31.67084
-34.3496
-37.57999
-41.47783
-45.92874
-50.70625
-55.4058
-59.49253
-62.25397
-62.88382
-60.61987
-55.12178
-46.65152
-36.09153
-24.84432
-14.33871
-5.599817
0.9375868
5.443717
8.412768
10.34666
11.58346
12.31182
12.70588
13.03559
13.69724
15.03978
17.24193
20.25602
23.69857
27.11298
30.10155
32.43147
34.0708
35.08999
35.55178
35.47101
34.85832
33.68957
32.02427
30.00195
27.77728
25.53455
23.4319
21.52705
19.79569
18.18157
16.58194
14.95916
13.30705
11.63255
9.892563
8.039913
5.982674
3.638871
1.069352
-1.620045
-4.293687
-6.942306
-9.675775
-12.64425
-15.94007
-19.53189
-23.26619
-26.97819
-30.54832
-33.94395
-37.19793
-40.35798
-43.45941
-46.59238
-49.97524
-53.83727
-58.32004
-63.23764
-67.853
-70.95275
-71.22787
-67.70263
-60.23143
-49.60133
-37.31219
-25.03675
-14.1583
-5.297235
1.604382
7.010455
11.44366
15.18748
18.29295
20.68894
22.41589
23.70046
24.90884
26.40239
28.32782
30.61631
32.97516
35.0619
36.6492
37.71077
38.34768
38.76078
39.04359
39.23315
39.26718
38.98276
38.26563
37.07798
35.46692
33.61053
31.74376
30.02389
28.49748
27.16099
25.77268
24.17169
22.14537
19.55941
16.39369
12.75105
8.779389
4.648285
0.5632386
-3.335399
-7.018737
-10.50976
-13.91782
-17.36491
-20.89072
-24.47232
-27.99133
-31.29797
-34.25043
-36.80011
-39.06984
-41.31623
-43.8425
-46.99989
-50.95297
-55.59922
-60.47234
-64.74185
-67.28893
-67.08363
-63.48161
-56.40964
-46.55561
-35.11033
-23.4871
-12.93345
-4.170774
2.68493
7.996937
12.28773
16.03312
19.48382
22.69982
25.60382
28.17994
30.47465
32.6451
34.7852
36.89456
38.83235
40.36956
41.35605
41.72102
41.48629
40.74814
39.55786
37.95661
35.92178
33.4356
30.47958
27.16668
23.74969
20.50724
17.75104
15.68723
14.42784
13.88843
13.86257
14.04787
14.22451
14.21322
13.91434
13.3
12.29741
10.94418
9.217793
7.197296
5.004465
2.799129
0.6062126
-1.702244
-4.347223
-7.61553
-11.56544
-16.01814
-20.5598
-24.74454
-28.26812
-31.16228
-33.78748
-36.63364
-40.19285
-44.74812
-50.23942
-56.26939
-62.06179
-66.49982
-68.29997
-66.38461
-60.22929
-50.18995
-37.46738
-23.76498
-10.80416
0.2252407
8.888746
15.40701
20.3577
24.22236
27.19908
29.29633
30.49856
30.9773
31.15891
31.56939
32.60152
34.35262
36.59581
38.88058
40.75922
42.00063
42.57591
42.60505
42.18816
41.30374
39.84779
37.71785
34.89432
31.53178
27.94015
24.45752
21.31384
18.59142
16.12362
13.7277
11.19419
8.445461
5.62051
2.901478
0.4508934
-1.749722
-3.943378
-6.490692
-9.65962
-13.50965
-17.89885
-22.47381
-26.86174
-30.79718
-34.20467
-37.21907
-40.17422
-43.3985
-47.17558
-51.58473
-56.38416
-60.85823
-63.95167
-64.45131
-61.3945
-54.47712
-44.17064
-31.69745
-18.69146
-6.669783
3.321074
10.90758
16.26701
19.8588
22.11138
23.31907
23.6881
23.43351
22.94915
22.68659
23.02457
24.19617
26.13422
28.51682
30.93238
33.03128
34.58883
35.56184
35.88791
35.55497
34.53707
32.837
30.47392
27.57601
24.35274
21.12952
18.24737
15.91764
14.17736
12.80327
11.42395
9.631126
7.204035
4.224713
0.9897633
-2.120278
-4.916163
-7.483337
-10.13801
-13.26946
-17.13703
-21.7471
-26.86683
-32.07088
-36.958
-41.25015
-44.95403
-48.32091
-51.77924
-55.80998
-60.70486
-66.35547
-72.11226
-76.80264
-78.90101
-77.0734
-70.66943
-59.9851
-46.29671
-31.46689
-17.3708
-5.314058
4.130171
11.20925
16.58732
20.96769
24.83029
28.32924
31.41401
34.00676
36.15105
38.01654
39.85128
41.78901
43.72676
45.39072
46.42743
46.68771
46.28151
45.51257
44.77523
44.27908
43.98304
43.58744
42.748
41.141
38.73784
35.71529
32.44085
29.2918
26.53905
24.20435
21.99466
19.54621
16.46667
12.60337
8.044727
3.100986
-1.817554
-6.319412
-10.19258
-13.40892
-16.15262
-18.82154
-21.83175
-25.51958
-29.93655
-34.85369
-39.79264
-44.27972
-48.03349
-51.08953
-53.83587
-56.84127
-60.60835
-65.47882
-71.43819
-78.02658
-84.2064
-88.54057
-89.362
-85.38028
-76.19397
-62.45235
-45.88369
-28.69238
-12.92406
0.2336807
10.53687
18.58553
25.21423
31.10154
36.49929
41.27653
45.17313
48.04926
50.00922
51.32858
52.34566
53.26431
54.09059
54.75615
55.14771
55.29851
55.31844
55.32309
55.31932
55.21484
54.78452
53.77433
52.01857
49.44552
46.15794
42.41837
38.51905
34.7209
31.2203
28.07539
25.12204
22.08846
18.64442
14.62386
10.09739
5.310295
0.6767654
-3.441193
-6.927238
-9.882813
-12.63149
-15.54222
-18.92025
-22.86256
-27.31474
-31.96799
-36.48491
-40.63137
-44.31481
-47.68667
-51.0703
-54.93152
-59.66137
-65.54627
-72.60057
-80.42038
-88.06637
-93.9795
-96.2948
-93.37847
-84.53275
-70.33561
-52.65087
-33.99387
-16.76202
-2.450081
8.581909
16.86578
23.27584
28.51557
32.8606
36.29875
38.78449
40.4841
41.85568
43.48086
45.7433
48.62038
51.75016
54.43536
56.1215
56.5463
55.89162
54.58818
53.10434
51.67683
50.16399
48.28139
45.65436
42.18436
38.03938
33.65811
29.52597
25.95679
23.06937
20.73007
18.69228
16.72949
14.65302
12.37021
9.925171
7.439301
5.087769
3.012604
1.240036
-0.4048462
-2.247299
-4.725334
-8.142334
-12.63173
-17.98777
-23.74817
-29.34285
-34.25277
-38.23309
-41.44086
-44.39989
-47.80115
-52.33035
-58.28848
-65.3469
-72.48667
-78.13305
-80.49763
-78.11376
-70.38656
-57.84996
-42.12568
-25.44717
-9.891701
3.139114
13.21989
20.8017
26.66975
31.52585
35.6738
39.02441
41.40178
42.82195
43.5851
44.19958
45.11148
46.46729
48.05165
49.47286
50.2977
50.3638
49.74858
48.67458
47.34895
45.83752
44.01935
41.66695
38.62504
34.8575
30.59686
26.23028
22.20569
18.93192
16.56943
15.00371
13.87099
12.69897
11.00642
8.614876
5.570305
2.164688
-1.216774
-4.324867
-7.132004
-9.883011
-12.88684
-16.45269
-20.61743
-25.11454
-29.48979
-33.20782
-35.94846
-37.70568
-38.86512
-40.03948
-41.95475
-45.14084
-49.81285
-55.7058
-62.00517
-67.48415
-70.62162
-69.98634
-64.78838
-55.13831
-42.12988
-27.54366
-13.3143
-0.9520874
8.740227
15.82586
20.89523
24.64153
27.54474
29.82272
31.4615
32.4514
32.98536
33.38654
34.0435
35.16557
36.65402
38.18396
39.35822
39.85383
39.63646
38.93294
37.93336
36.78617
35.4441
33.74206
31.60095
29.09673
26.35719
23.63711
21.08718
18.67375
16.22832
13.47385
10.27812
6.726112
3.09869
-0.240715
-2.992561
-5.053822
-6.685333
-8.285007
-10.40511
-13.42869
-17.47199
-22.38942
-27.82556
-33.31637
-38.51301
-43.28949
-47.57891
-51.60294
-55.63123
-59.90767
-64.47105
-68.98306
-72.59171
-74.00932
-71.94908
-65.46127
-54.60381
-40.37667
-24.64011
-9.404247
3.718285
13.94701
21.416
26.66119
30.34662
32.79372
34.12575
34.39605
33.85099
32.9823
32.29427
32.13969
32.52095
33.163
33.62624
33.68607
33.35358
32.85151
32.44509
32.23686
32.10247
31.73563
30.8446
29.22699
26.90298
24.10495
21.14377
18.31479
15.78629
13.48969
11.16114
8.54353
5.486492
2.019047
-1.532909
-4.763157
-7.294579
-9.062943
-10.38261
-11.84618
-14.08505
-17.46145
-21.97723
-27.21899
-32.61207
-37.58313
-41.90083
-45.66864
-49.27014
-53.1993
-57.92968
-63.73657
-70.49887
-77.59833
-83.76601
-87.32164
-86.64746
-80.65526
-69.3627
-54.0393
-36.77199
-19.85229
-5.067814
6.735649
15.63435
22.27341
27.42471
31.62369
35.06953
37.85055
39.98812
41.59262
42.83975
43.89531
44.85072
45.74034
46.48609
46.99131
47.2282
47.21936
47.06426
46.85897
46.64706
46.25066
45.35955
43.60978
40.72002
36.77853
32.12394
27.28642
22.81995
19.09434
16.07736
13.51291
11.01381
8.246185
5.169781
1.998035
-0.9075279
-3.198639
-4.815037
-6.0854
-7.576561
-9.902699
-13.49668
-18.39785
-24.21333
-30.28036
-35.91079
-40.6382
-44.48062
-47.77472
-51.1223
-55.21591
-60.52402
-67.1179
-74.44867
-81.25364
-85.77071
-86.20135
-81.24254
-70.69791
-55.70859
-38.36978
-21.14384
-6.04689
5.927505
14.84537
21.42696
26.63379
31.06921
34.91166
38.11825
40.56102
42.26145
43.47918
44.57623
45.75056
47.02761
48.22491
49.09038
49.54865
49.65523
49.55305
49.41411
49.2543
48.87273
47.96134
46.20297
43.42137
39.69666
35.36642
30.86583
26.73933
23.36496
20.91908
19.27802
18.12486
17.00117
15.56438
13.64229
11.27352
8.698151
6.122833
3.670273
1.280724
-1.281593
-4.392456
-8.287727
-13.12043
-18.82155
-25.05274
-31.36493
-37.26979
-42.30441
-46.31346
-49.50101
-52.23568
-55.14538
-58.77915
-63.3802
-68.64944
-73.71339
-77.12952
-77.35283
-73.18215
-64.20957
-51.09019
-35.42004
-19.23591
-4.290955
8.211548
17.97248
25.29917
30.76942
34.9169
38.08447
40.3977
41.94525
42.86838
43.36371
43.72568
44.18816
44.7906
45.41132
45.75008
45.55849
44.7309
43.36993
41.7917
40.316
39.11633
38.11329
37.09141
35.81129
34.17094
32.24574
30.18207
28.13992
26.18272
24.27775
22.26263
20.06056
17.60331
14.86358
11.79079
8.384644
4.697617
0.9702225
-2.494762
-5.462681
-7.87738
-9.95739
-12.15502
-14.90027
-18.43526
-22.69168
-27.22415
-31.49659
-35.09735
-37.94567
-40.27436
-42.55189
-45.2372
-48.65785
-52.91085
-57.75809
-62.54247
-66.2304
-67.56648
-65.35595
-58.87491
-48.24154
-34.57644
-19.76232
-5.819481
5.703074
14.14827
19.71014
23.03159
24.79255
25.48853
25.35491
24.61336
23.65451
23.00562
23.14039
24.32154
26.35799
28.73646
30.86645
32.30281
32.92756
32.91217
32.51521
31.94449
31.25416
30.32379
28.94324
26.98883
24.52151
21.83598
19.28314
17.11736
15.42195
14.05655
12.66247
10.91652
8.619576
5.755521
2.551847
-0.6839638
-3.774109
-6.631157
-9.351167
-12.20924
-15.45481
-19.20573
-23.4359
-27.94477
-32.35735
-36.31288
-39.49643
-41.84982
-43.64088
-45.34095
-47.59238
-50.87669
-55.22854
-60.04431
-64.14128
-65.93713
-64.10783
-57.987
-47.87654
-35.05751
-21.33053
-8.449198
2.364948
10.63898
16.59979
20.80181
23.81419
26.04063
27.62845
28.66363
29.30314
29.85051
30.66632
32.02298
33.95433
36.14955
38.11254
39.31698
39.54156
38.88907
37.68272
36.32075
34.93601
33.40852
31.47054
28.94615
25.84341
22.47114
19.24048
16.51398
14.44277
12.87153
11.425
9.635099
7.114258
3.748505
-0.2649345
-4.517551
-8.504227
-11.85789
-14.56175
-16.82271
-19.06157
-21.70701
-24.97329
-28.83469
-33.01368
-37.09506
-40.71749
-43.78146
-46.42638
-49.04426
-52.19615
-56.33426
-61.67631
-68.02592
-74.652
-80.31706
-83.42702
-82.37169
-76.05814
-64.45836
-48.68996
-30.87322
-13.46929
1.500362
12.99095
21.02256
26.44845
30.24362
33.05815
35.15359
36.47084
36.93948
36.7523
36.36591
36.26738
36.79307
38.01836
39.6922
41.48964
43.07403
44.23232
44.8846
45.02135
44.59446
43.55446
41.88055
39.55085
36.68273
33.41346
29.97207
26.65332
23.72121
21.28436
19.29251
17.46349
15.41727
12.82567
9.538525
5.719531
1.798163
-1.735119
-4.653931
-6.980297
-9.103697
-11.60092
-14.93933
-19.29867
-24.50585
-30.07049
-35.4056
-40.09026
-43.96589
-47.14564
-49.99998
-52.96773
-56.4405
-60.71246
-65.75779
-71.10358
-75.72195
-78.11336
-76.71686
-70.42271
-59.10163
-43.84145
-26.68126
-9.970476
4.387341
15.40117
23.09635
28.21215
31.67004
34.23215
36.27987
37.92324
39.20499
40.26729
41.358
42.72583
44.50768
46.55437
48.54613
50.13591
51.09755
51.40464
51.27027
50.89655
50.41938
49.78963
48.7481
47.02921
44.47759
41.20002
37.4477
33.66305
30.21679
27.36417
25.08219
23.10452
21.05775
18.62666
15.71453
12.39066
8.943146
5.674107
2.808254
0.3418808
-1.860954
-4.050381
-6.401499
-9.017759
-11.88506
-14.85708
-17.81552
-20.66257
-23.39301
-26.10646
-28.9502
-32.11063
-35.76788
-40.12018
-45.20684
-50.80936
-56.26718
-60.45174
-62.01783
-59.76342
-53.22871
-42.86288
-30.10838
-16.82756
-4.74857
5.046701
12.36458
17.59319
21.32356
23.95676
25.70352
26.59803
26.81073
26.65811
26.61297
27.10105
28.27393
29.97516
31.76978
33.24163
34.10242
34.32353
34.04602
33.46049
32.77625
31.99111
30.98538
29.56155
27.57673
25.0791
22.24576
19.40323
16.77069
14.48157
12.43878
10.43647
8.217501
5.660202
2.762207
-0.3447189
-3.421829
-6.239105
-8.613758
-10.4581
-11.85209
-13.05681
-14.38787
-16.20209
-18.73337
-21.96565
-25.59921
-29.21741
-32.3981
-34.9321
-36.88512
-38.61409
-40.561
-43.10581
-46.33791
-49.99303
-53.51484
-55.97395
-56.36268
-53.80379
-47.80191
-38.56422
-26.99138
-14.43124
-2.374886
7.961967
15.98364
21.63262
25.17331
27.0647
27.66614
27.25246
26.0677
24.44255
22.75523
21.46599
20.86418
20.99466
21.71167
22.74624
23.84474
24.77487
25.43381
25.80699
25.89667
25.63797
24.92876
23.70529
21.89849
19.59708
16.99411
14.34901
11.93501
9.892555
8.151634
6.494522
4.665367
2.428604
-0.1931839
-2.965836
-5.581238
-7.856361
-9.788811
-11.61454
-13.73081
-16.42669
-19.82933
-23.69389
-27.64206
-31.26385
-34.3491
-36.93804
-39.2701
-41.7103
-44.56413
-48.05113
-52.0089
-55.92047
-58.89091
-59.79447
-57.5837
-51.68292
-42.2625
-30.31871
-17.39879
-5.129585
5.239403
13.15572
18.80379
22.77264
25.70792
28.06395
29.9539
31.36092
32.2635
32.80594
33.24555
33.85583
34.67483
35.58629
36.32458
36.64699
36.46519
35.83022
34.84749
33.60836
32.14963
30.39022
28.19484
25.51927
22.40775
19.00627
15.64003
12.65346
10.3546
8.894165
8.22718
8.060371
8.006714
7.665298
6.723129
5.075027
2.738762
-0.07159424
-3.23436
-6.525719
-9.827347
-13.06181
-16.23273
-19.42591
-22.7244
-26.15576
-29.56593
-32.74999
-35.36937
-37.24482
-38.37642
-39.06229
-39.82969
-41.25274
-43.83896
-47.84888
-53.11304
-59.03791
-64.60162
-68.44535
-69.16115
-65.75038
-57.89235
-46.24674
-32.29713
-17.9002
-4.75959
6.041237
14.21378
20.1877
24.52276
27.7319
30.00512
31.36874
31.85693
31.72084
31.39728
31.30976
31.75091
32.63833
33.76317
34.79514
35.5545
36.07587
36.53703
37.13806
37.97254
38.90942
39.66477
39.92996
39.38364
37.87232
35.45681
32.31908
28.83015
25.34272
22.10603
19.24841
16.67263
14.17948
11.48116
8.432343
4.962364
1.293777
-2.3032
-5.512627
-8.179428
-10.42246
-12.56104
-14.99799
-17.98288
-21.54685
-25.38572
-29.1329
-32.41715
-35.14781
-37.49478
-39.79431
-42.43231
-45.72149
-49.80315
-54.56501
-59.66957
-64.32228
-67.43829
-67.75256
-64.15023
-56.19801
-44.3946
-30.10492
-15.21641
-1.575981
9.624374
18.03608
23.97529
28.14854
31.18967
33.48312
35.16703
36.32745
37.13305
37.86448
38.83514
40.14718
41.71107
43.18224
44.21996
44.59986
44.3438
43.68464
42.92986
42.23491
41.51819
40.55461
38.93897
36.50366
33.27922
29.53725
25.69606
22.14969
19.10655
16.55744
14.37057
12.27302
10.06375
7.676498
5.110725
2.488243
-0.005767822
-2.159439
-3.852669
-5.142601
-6.251053
-7.56517
-9.455452
-12.14411
-15.57677
-19.40482
-23.12777
-26.3269
-28.8218
-30.75978
-32.52455
-34.61539
-37.46448
-41.23011
-45.7279
-50.33881
-54.04751
-55.66859
-54.17763
-49.04662
-40.51537
-29.47588
-17.30278
-5.404655
5.047447
13.39275
19.45361
23.32793
25.32297
25.78629
25.1712
23.90668
22.49777
21.3607
20.84833
21.10484
22.05347
23.45517
24.92084
26.11893
26.82558
26.98964
26.67937
26.01956
25.05045
23.7809
22.14145
20.07513
17.65289
15.06033
12.55261
10.36421
8.558365
7.08049
5.758041
4.416443
2.93959
1.34433
-0.240387
-1.730499
-3.073349
-4.405212
-5.932648
-7.926315
-10.54744
-13.82068
-17.52643
-21.3613
-25.05728
-28.42653
-31.50163
-34.43756
-37.50208
-40.96875
-44.99565
-49.49902
-54.039
-57.78568
-59.65028
-58.61063
-54.02066
-45.91899
-35.15376
-23.05327
-11.1429
-0.6626434
7.693649
13.76987
17.82448
20.29123
21.66194
22.27412
22.41302
22.29219
22.1317
22.17059
22.60803
23.52687
24.82996
26.30695
27.69208
28.72177
29.18129
29.04883
28.37526
27.28304
25.94838
24.38771
22.56807
20.43057
17.97316
15.18993
12.18692
9.078217
5.881638
2.594666
-0.875824
-4.483475
-7.981461
-11.00293
-13.31444
-14.9032
-16.12173
-17.49501
-19.43565
-22.02817
-24.94899
-27.69493
-29.86658
-31.48331
-32.9659
-34.99721
-38.19473
-42.85902
-48.9137
-55.81552
-62.57555
-67.94191
-70.50853
-69.07576
-63.10732
-52.93983
-39.80615
-25.56094
-12.05357
-0.6040497
8.257965
14.78333
19.5905
23.24774
26.12787
28.35251
29.91175
30.93134
31.65321
32.37218
33.30987
34.47785
35.68465
36.64393
37.17484
37.26805
37.12907
36.97411
36.93859
36.9398
36.67705
35.86944
34.35639
32.23428
29.78475
27.32815
25.06849
22.98074
20.87795
18.47388
15.59148
12.19175
8.410301
4.48996
0.7501297
-2.572906
-5.405869
-7.924904
-10.53223
-13.67616
-17.66631
-22.4566
-27.66507
-32.74661
-37.15298
-40.64865
-43.35144
-45.68542
-48.21408
-51.51139
-55.90452
-61.3625
-67.3885
-72.9216
-76.52838
-76.71001
-72.36906
-63.31448
-50.43812
-35.44404
-20.3735
-6.994652
3.695251
11.59095
17.34459
21.90127
26.01295
30.0759
34.07657
37.78569
41.00619
43.69432
45.95829
47.94251
49.75586
51.25315
52.304
52.74757
52.60957
52.09543
51.50773
51.03179
50.65807
50.14499
49.08095
47.16072
44.30505
40.68599
36.67514
32.75044
29.15473
26.00842
23.22347
20.604
18.05074
15.45535
12.78297
10.01024
7.115765
4.068731
0.967783
-2.02125
-4.758547
-7.151564
-9.314903
-11.54185
-14.16349
-17.47303
-21.45059
-25.851
-30.25355
-34.34905
-38.02761
-41.55405
-45.30469
-49.64352
-54.74628
-60.49384
-66.43937
-71.74237
-75.34213
-75.97466
-72.67079
-65.00485
-53.41794
-39.25841
-24.36819
-10.53635
1.122553
10.2656
17.36693
23.09045
27.96127
32.18376
35.62282
38.19574
39.95245
41.25391
42.52568
44.1352
46.12716
48.24472
50.07132
51.19728
51.47603
50.9213
49.78376
48.27745
46.60777
44.83187
42.91998
40.80932
38.45967
35.94806
33.34244
30.7355
28.13443
25.46631
22.64426
19.63972
16.53666
13.45538
10.58621
8.015564
5.682112
3.502403
1.326885
-0.8650131
-3.058716
-5.212261
-7.378567
-9.62672
-12.08226
-14.88356
-17.99936
-21.33441
-24.66233
-27.71288
-30.29203
-32.29099
-33.77025
-34.932
-36.14444
-37.83141
-40.30968
-43.59644
-47.27306
-50.51426
-52.23603
-51.4397
-47.54582
-40.57246
-31.20164
-20.58533
-10.04593
-0.6132507
7.038658
12.76968
16.81992
19.59669
21.50345
22.78769
23.57969
23.93719
24.04505
24.06557
24.22989
24.6388
25.22842
25.88983
26.47309
26.95907
27.36724
27.86625
28.4922
29.24039
29.90687
30.18702
29.86598
28.82688
27.11222
24.92487
22.51733
20.16937
18.16121
16.66379
15.57776
14.72357
13.7953
12.47578
10.55755
8.026848
5.120956
2.170128
-0.4644699
-2.649437
-4.399353
-5.961563
-7.571213
-9.395462
-11.47708
-13.68892
-15.884
-17.91756
-19.78111
-21.45944
-23.04924
-24.63367
-26.35287
-28.43729
-31.08229
-34.39017
-38.15839
-41.78836
-44.35928
-44.92624
-42.82599
-37.89828
-30.65102
-22.0251
-13.19456
-5.160217
1.407501
6.223953
9.382004
11.22118
12.18126
12.68687
13.04236
13.44614
13.91946
14.4749
15.10583
15.83557
16.63866
17.44682
18.13876
18.51363
18.54623
18.24512
17.72771
17.11661
16.48366
15.8259
15.08386
14.21146
13.13132
11.9395
10.62312
9.210831
7.67453
5.963242
3.998764
1.754852
-0.70784
-3.290771
-5.792175
-8.029633
-9.897308
-11.35471
-12.50168
-13.42064
-14.21494
-14.94389
-15.70851
-16.64635
-17.94812
-19.84819
-22.43028
-25.68198
-29.31166
-32.91138
-36.12105
-38.71028
-40.73428
-42.49886
-44.45328
-46.95786
-50.21149
-53.92572
-57.39221
-59.63895
-59.63412
-56.52481
-50.01866
-40.43483
-28.74701
-16.29228
-4.473969
5.633423
13.47322
19.06409
22.81985
25.32759
27.10909
28.45232
29.44508
30.06462
30.28415
30.19478
29.94978
29.69066
29.50107
29.40468
29.38385
29.45178
29.66685
30.10698
30.84647
31.827
32.7355
33.1792
32.78162
31.37901
29.0769
26.2325
23.27876
20.62076
18.45444
16.7621
15.43196
14.24263
13.03061
11.685
10.20882
8.561127
6.765533
4.810562
2.688339
0.4961853
-1.702744
-3.853378
-5.863358
-7.718643
-9.521912
-11.3988
-13.49258
-15.89439
-18.57263
-21.47983
-24.49074
-27.41089
-30.10307
-32.50719
-34.66148
-36.72578
-38.99126
-41.6897
-44.93413
-48.44669
-51.42938
-52.82294
-51.5074
-46.79201
-38.75674
-28.32527
-16.89687
-5.965988
3.373566
10.74725
16.23763
20.36334
23.58836
26.18031
28.21945
29.75533
30.81779
31.53992
32.11798
32.62332
33.07159
33.36908
33.38501
33.07443
32.53476
31.95988
31.50641
31.28171
31.14682
30.9142
30.3588
29.25801
27.57422
25.36655
22.77106
19.99301
17.26402
14.7563
12.56238
10.72787
9.139954
7.720352
6.384537
5.108032
3.889877
2.730515
1.579422
0.4214478
-0.7470551
-1.888977
-2.882278
-3.706879
-4.508881
-5.548828
-7.080444
-9.178406
-11.63367
-14.11432
-16.27164
-17.94528
-19.2619
-20.55386
-22.15851
-24.26038
-26.81308
-29.46301
-31.72598
-32.98148
-32.63397
-30.18692
-25.47168
-18.77112
-10.76648
-2.534271
4.913635
10.77914
14.71619
16.84732
17.57684
17.362
16.55344
15.35159
13.8493
12.19901
10.60922
9.382263
8.760773
8.773834
9.322266
10.07681
10.7771
11.35141
11.84698
12.36996
12.94327
13.39664
13.43103
12.86295
11.58969
9.828369
7.882568
6.039246
4.510132
3.290466
2.335358
1.480896
0.6470337
-0.2825623
-1.38446
-2.773468
-4.447632
-6.31665
-8.225708
-9.930084
-11.29697
-12.28409
-13.0683
-13.8645
-14.89005
-16.17892
-17.52133
-18.65436
-19.31952
-19.48447
-19.34088
-19.38574
-20.07483
-21.77219
-24.50427
-27.77771
-30.84518
-32.70227
-32.49722
-29.76535
-24.55237
-17.41425
-9.25943
-1.155243
6.04599
11.67566
15.5123
17.51675
17.94888
17.16772
15.53607
13.43765
11.19144
9.125275
7.497467
6.601471
6.519958
7.210907
8.460327
9.93399
11.30322
12.28961
12.79883
12.74997
12.16391
11.06671
9.56131
7.822937
6.059418
4.436432
3.043671
1.842651
0.6764832
-0.6220703
-2.145569
-3.942474
-5.928314
-8.005585
-10.00558
-11.80792
-13.38483
-14.7883
-16.18921
-17.77426
-19.66544
-21.81976
-24.11951
-26.35568
-28.38467
-30.17776
-31.8353
-33.53146
-35.43387
-37.72498
-40.43622
-43.47168
-46.42255
-48.58829
-49.04761
-46.90067
-41.47293
-32.81931
-21.73013
-9.563843
2.099976
11.95676
19.37485
24.3631
27.37711
29.07706
29.85739
29.89349
29.22131
27.99164
26.52377
25.30844
24.79004
25.07233
25.9697
27.01599
27.71512
27.78036
27.29593
26.56088
25.88516
25.46216
25.13205
24.62354
23.54547
21.70468
19.10904
15.94244
12.55176
9.247528
6.23996
3.563416
1.215576
-0.9665833
-3.083649
-5.161591
-7.253754
-9.312317
-11.22415
-12.86404
-14.15778
-15.00668
-15.46402
-15.75989
-16.16779
-17.15833
-19.04059
-21.85141
-25.31943
-28.97775
-32.28821
-34.85852
-36.71701
-38.13104
-39.69122
-42.01593
-45.48373
-50.05148
-55.18118
-59.78033
-62.47226
-61.97156
-57.4606
-48.95081
-37.29401
-23.90958
-10.41663
1.914795
12.32056
20.62091
26.93198
31.57202
34.83932
36.97189
38.23697
38.84445
39.10458
39.24832
39.4559
39.74948
40.10669
40.43408
40.61176
40.60406
40.35275
39.85944
39.13489
38.22778
37.13394
35.86026
34.33432
32.41644
30.06305
27.30026
24.3584
21.55972
19.27478
17.63348
16.56799
15.7821
14.80389
13.34213
11.27252
8.752594
6.057556
3.526581
1.378967
-0.3858032
-1.911194
-3.506134
-5.422211
-7.819366
-10.64972
-13.76279
-16.9313
-19.966
-22.83865
-25.55014
-28.21829
-30.96634
-33.93668
-37.28406
-41.0545
-45.08368
-48.77411
-51.26654
-51.45517
-48.54623
-42.26117
-33.02734
-21.88928
-10.1304
1.018921
10.72272
18.50861
24.35062
28.4014
30.94775
32.29739
32.7186
32.45023
31.77176
30.95581
30.30441
30.02612
30.22009
30.77957
31.4827
32.04541
32.25879
32.05801
31.45886
30.5733
29.42111
28.00317
26.24442
24.14871
21.69058
18.99542
16.2554
13.67728
11.50302
9.83844
8.621155
7.567474
6.348267
4.697571
2.569763
0.1676331
-2.188538
-4.170654
-5.703827
-6.898438
-7.973633
-9.187866
-10.62149
-12.3306
-14.245
-16.29404
-18.32291
-20.2478
-21.91776
-23.26672
-24.36014
-25.34888
-26.52637
-28.11295
-30.23984
-32.84012
-35.61557
-37.92618
-39.02689
-38.202
-34.92923
-29.19891
-21.52612
-12.88705
-4.458344
2.739349
8.123566
11.58475
13.37973
14.03571
14.00427
13.62234
13.11859
12.64014
12.39783
12.6109
13.39536
14.71841
16.37292
17.97491
19.16418
19.68356
19.3877
18.39813
16.96448
15.33658
13.78937
12.43805
11.27557
10.18759
9.087067
7.853027
6.492035
5.145172
3.940338
3.006653
2.278839
1.534668
0.5219116
-0.887207
-2.661255
-4.554047
-6.24765
-7.553314
-8.397797
-8.938049
-9.427155
-10.0925
-11.03604
-12.30182
-13.8111
-15.48666
-17.25272
-18.98459
-20.64966
-22.27112
-23.98837
-26.0235
-28.57211
-31.79147
-35.59058
-39.67993
-43.46368
-46.12573
-46.81726
-44.80579
-39.69659
-31.70035
-21.60162
-10.64468
-0.2495422
8.444794
14.84219
18.95096
21.28745
22.60281
23.46774
24.21039
24.84097
25.20224
25.24442
25.05472
24.84549
24.78339
24.94736
25.13947
25.09021
24.57361
23.53494
22.14899
20.65646
19.24863
17.97028
16.80731
15.63721
14.41397
13.14471
11.85623
10.66727
9.667511
8.963715
8.575409
8.475922
8.440125
8.180054
7.431274
5.991669
3.887756
1.257599
-1.617401
-4.504242
-7.212402
-9.679077
-11.91412
-13.9693
-15.94781
-17.92929
-20.07782
-22.42468
-24.90686
-27.33359
-29.47186
-31.15457
-32.50095
-33.85303
-35.68164
-38.43283
-42.22385
-46.70334
-51.04343
-54.09467
-54.61011
-51.69107
-45.00388
-34.94705
-22.61844
-9.552795
2.649078
12.76233
20.12531
24.83139
27.39316
28.58171
29.08694
29.39633
29.76276
30.24232
30.78293
31.34135
31.84604
32.19156
32.25792
31.92311
31.07741
29.77904
28.20036
26.60402
25.25912
24.36046
23.86511
23.60323
23.27211
22.53195
21.22061
19.29724
16.95383
14.5209
12.32898
10.56558
9.186752
7.99852
6.689804
5.08284
3.186996
1.21167
-0.5588684
-1.876648
-2.709305
-3.182404
-3.539001
-4.049179
-4.955841
-6.381821
-8.3703
-10.85091
-13.66783
-16.61467
-19.41313
-21.83195
-23.75067
-25.21135
-26.46848
-27.96324
-30.14366
-33.32629
-37.41501
-41.81999
-45.44814
-47.05048
-45.56425
-40.52975
-32.33937
-22.02335
-10.99416
-0.6358795
8.10173
14.8364
19.64027
22.92868
25.15739
26.64903
27.5757
28.02393
28.02193
27.65703
27.06612
26.36714
25.63115
24.8239
23.85483
22.66672
21.26001
19.76091
18.36555
17.19115
16.34366
15.77223
15.39261
15.01617
14.4944
13.70926
12.6543
11.47368
10.30562
9.308716
8.504639
7.740662
6.693314
5.155045
3.024704
0.4884491
-2.078995
-4.356689
-6.175858
-7.588028
-8.936859
-10.5932
-12.78136
-15.5025
-18.53055
-21.50108
-24.08791
-26.14482
-27.70189
-28.97377
-30.17644
-31.53621
-33.16194
-35.10789
-37.29153
-39.43254
-41.03082
-41.29031
-39.397
-34.72997
-27.25948
-17.66647
-7.154648
2.882248
11.27579
17.42293
21.33101
23.42253
24.30058
24.47575
24.26518
23.94005
23.69394
23.72055
24.12761
24.93481
25.93849
26.84462
27.34377
27.18524
26.32547
24.82425
22.86935
20.63225
18.25618
15.80472
13.3091
10.75961
8.140579
5.506424
2.923996
0.5511322
-1.468796
-3.101318
-4.403366
-5.449173
-6.292938
-6.984573
-7.503479
-7.886429
-8.202148
-8.630142
-9.445267
-10.87241
-13.00114
-15.74889
-18.94363
-22.29686
-25.6046
-28.70688
-31.6161
-34.47147
-37.5242
-40.97388
-44.83461
-48.81915
-52.22914
-54.0786
-53.20216
-48.74229
-40.49799
-29.05403
-15.79515
-2.537643
9.057648
17.88503
23.59946
26.61604
27.78891
27.96217
27.78271
27.54478
27.30051
27.10062
27.12088
27.53577
28.51602
29.97479
31.55344
32.77469
33.17645
32.56818
31.0783
29.08806
26.93534
24.84536
22.75447
20.53744
18.11519
15.51105
12.91111
10.53194
8.468872
6.593094
4.635582
2.194023
-0.9934998
-4.920555
-9.344299
-13.84499
-17.95404
-21.43087
-24.30172
-26.85788
-29.49892
-32.55222
-36.0522
-39.81454
-43.45752
-46.63406
-49.26183
-51.58309
-54.11002
-57.45231
-62.04414
-68.00119
-75.00393
-82.16574
-88.20145
-91.51901
-90.64319
-84.61707
-73.37654
-57.85551
-39.86163
-21.55095
-4.850925
9.042547
19.84671
28.05191
34.51985
39.9438
44.73294
48.91183
52.31439
54.83631
56.57664
57.805
58.80349
59.71779
60.39835
60.58772
60.11063
58.91629
57.24243
55.34906
53.43575
51.46468
49.21469
46.43344
42.9841
38.99907
34.8333
31.00472
27.88458
25.61959
24.08435
22.91044
21.59049
19.73552
17.18518
13.99081
10.46243
6.918922
3.499283
0.1557999
-3.322853
-7.214432
-11.70001
-16.69734
-21.98904
-27.16979
-31.83873
-35.78885
-39.04713
-41.96003
-45.05024
-48.92654
-53.90242
-59.90844
-66.20795
-71.60924
-74.60445
-73.82179
-68.43605
-58.48183
-44.92475
-29.43552
-13.87615
0.2438507
12.0224
21.32331
28.55655
34.30524
39.01162
42.89856
46.00485
48.33197
49.99438
51.19809
52.14413
52.92812
53.52167
53.71722
53.31857
52.27046
50.67656
48.80165
46.95956
45.33051
43.95352
42.67906
41.28844
39.59219
37.44948
34.83009
31.83026
28.62901
25.42575
22.34546
19.42078
16.59891
13.68607
10.59775
7.300293
3.954727
0.8377838
-1.812073
-3.887238
-5.502075
-6.894409
-8.396957
-10.21262
-12.42149
-14.93886
-17.57483
-20.17398
-22.63091
-24.98094
-27.3376
-29.92836
-32.96506
-36.60709
-40.79367
-45.20589
-49.19695
-51.87083
-52.30803
-49.78525
-44.06625
-35.49629
-25.00017
-13.78928
-3.070068
6.201004
13.54089
18.90451
22.53056
24.7431
25.86827
26.15599
25.86801
25.33075
24.91289
24.89769
25.45847
26.47066
27.63918
28.61154
29.19487
29.34265
29.19887
28.96974
28.77866
28.59932
28.25464
27.47116
25.99188
23.70946
20.66737
17.14943
13.50539
10.05724
6.894806
3.945328
0.9601288
-2.283875
-5.764481
-9.275146
-12.37244
-14.71744
-16.24342
-17.13822
-17.82383
-18.80315
-20.3748
-22.61842
-25.39404
-28.35962
-31.22581
-33.8638
-36.25327
-38.60199
-41.25926
-44.55616
-48.73686
-53.84811
-59.5111
-64.89066
-68.7612
-69.70067
-66.56258
-58.89118
-47.09715
-32.50359
-17.0078
-2.411713
9.981537
19.60643
26.57568
31.30717
34.23911
35.7513
36.03143
35.33543
34.10414
32.8335
31.97716
31.79529
32.22302
32.92352
33.52242
33.61835
33.05353
31.9373
30.44884
28.81302
27.15169
25.40549
23.43506
21.17236
18.61488
15.96396
13.56418
11.64459
10.3488
9.515671
8.779633
7.716766
6.052399
3.690704
0.8001404
-2.246414
-5.164734
-7.736221
-9.98703
-12.21751
-14.83817
-18.22365
-22.54793
-27.73242
-33.35893
-38.92531
-43.89043
-47.95801
-51.21317
-54.09633
-57.29297
-61.48932
-67.07939
-73.86595
-81.12135
-87.44221
-91.16594
-90.66557
-84.89444
-73.77592
-58.27039
-40.26901
-21.95923
-5.341705
8.415222
19.12624
27.29692
33.754
39.0885
43.52307
46.98323
49.42972
50.97641
51.98172
52.87537
53.88846
54.9796
55.85654
56.21754
55.93701
55.18188
54.2337
53.41852
52.83009
52.32542
51.64246
50.45462
48.59186
46.06693
43.10379
39.96143
36.87387
33.93491
31.0441
28.095
25.03369
21.86905
18.67535
15.47076
12.24997
8.973328
5.617981
2.26413
-0.9183044
-3.749756
-6.18219
-8.333801
-10.47394
-12.91077
-15.87192
-19.45169
-23.47479
-27.61676
-31.47394
-34.7012
-37.20477
-39.17065
-41.0546
-43.41742
-46.84143
-51.54355
-57.33728
-63.51486
-68.83698
-71.82587
-71.07465
-65.72168
-55.7576
-42.12802
-26.4845
-10.76389
3.408356
15.08145
24.02756
30.68927
35.60602
39.27649
42.0076
43.91849
45.08981
45.71851
46.08414
46.38586
46.77707
47.16602
47.3754
47.20364
46.51486
45.34052
43.85364
42.31137
40.85217
39.54675
38.32315
36.99442
35.4686
33.68768
31.71826
29.68445
27.71704
25.91425
24.27237
22.70972
21.06937
19.21841
16.97858
14.31168
11.26788
8.055756
4.932892
2.118073
-0.3167725
-2.444534
-4.468903
-6.655914
-9.209488
-12.12617
-15.24498
-18.20557
-20.65498
-22.412
-23.46809
-23.98401
-24.29327
-24.84499
-26.00049
-28.08171
-31.1132
-34.7961
-38.45111
-41.14214
-41.84271
-39.73167
-34.54428
-26.6223
-16.90971
-6.677429
2.848846
10.79239
16.69879
20.59851
22.81313
23.72411
23.63741
22.79944
21.37659
19.64525
17.9218
16.56021
15.75157
15.51138
15.6962
16.00377
16.20732
16.20332
16.02405
15.79752
15.55762
15.19006
14.53516
13.40065
11.70227
9.540283
7.210236
5.025757
3.315338
2.21048
1.626602
1.345764
1.053757
0.5322266
-0.2900085
-1.353104
-2.535172
-3.701797
-4.834518
-5.998978
-7.309448
-8.890656
-10.78093
-12.93323
-15.2077
-17.46154
-19.47793
-21.16985
-22.59005
-23.89462
-25.40488
-27.36912
-29.97814
-33.22171
-36.88422
-40.42854
-43.0992
-44.07095
-42.56419
-38.1693
-31.01728
-21.81178
-11.7194
-2.004395
6.28746
12.59219
16.85999
19.44026
20.74239
21.11716
20.73525
19.75687
18.44037
17.11793
16.20936
15.9679
16.44956
17.37804
18.32923
18.92879
18.95925
18.46527
17.58939
16.56353
15.45252
14.32233
13.14707
11.94095
10.73457
9.610748
8.657539
7.904846
7.344879
6.807251
6.087135
4.931587
3.175327
0.7857971
-2.053303
-5.002522
-7.785515
-10.19117
-12.29374
-14.23664
-16.23418
-18.46596
-20.99044
-23.75695
-26.60155
-29.33003
-31.69762
-33.57347
-34.97612
-36.06906
-37.25186
-38.9539
-41.48911
-44.81937
-48.47834
-51.49855
-52.73334
-51.18743
-46.18613
-37.78393
-26.65962
-14.0742
-1.492081
9.732399
18.76609
25.28701
29.40374
31.54059
32.15466
31.74126
30.63166
29.17339
27.71384
26.61904
26.18735
26.4874
27.409
28.60036
29.65441
30.22435
30.10804
29.33097
28.10118
26.65193
25.15754
23.68514
22.10364
20.30035
18.27248
16.069
13.91981
12.00817
10.32593
8.719482
6.958691
4.744156
1.969452
-1.27319
-4.782188
-8.276031
-11.54076
-14.40981
-16.92585
-19.17457
-21.30992
-23.48278
-25.8129
-28.37071
-31.17926
-34.14821
-37.07303
-39.76258
-42.04436
-43.93179
-45.58526
-47.33974
-49.6989
-52.97533
-57.21043
-61.9085
-66.0816
-68.39445
-67.61945
-62.85101
-53.9197
-41.51546
-26.91709
-11.83372
2.176308
13.93969
22.98875
29.41094
33.73777
36.65462
38.68334
40.16075
41.12479
41.60841
41.61584
41.3466
41.0395
40.88074
40.97906
41.22852
41.52443
41.71081
41.74112
41.63038
41.38354
40.92941
40.10037
38.72528
36.65916
34.01656
31.05323
28.10388
25.43871
23.11725
21.02963
18.87561
16.4808
13.78224
10.87601
7.904175
5.030678
2.244186
-0.5840607
-3.489475
-6.497963
-9.409645
-12.04894
-14.19926
-15.80756
-16.90181
-17.61585
-18.22059
-18.99288
-20.23844
-22.19733
-25.13442
-29.0062
-33.53511
-37.99613
-41.31285
-42.33915
-40.23404
-34.79961
-26.54632
-16.70452
-6.681507
2.280636
9.473938
14.74291
18.31699
20.55449
21.68417
21.95828
21.55519
20.72262
19.81082
19.14235
18.96134
19.29469
20.03318
20.91405
21.73011
22.35077
22.75049
22.92261
22.88999
22.69402
22.29813
21.61624
20.54665
18.95355
16.78467
14.13955
11.19535
8.140378
5.206743
2.496063
0.07488537
-2.07578
-4.022329
-5.83275
-7.504235
-9.073196
-10.55203
-11.93065
-13.1907
-14.34912
-15.40297
-16.41242
-17.39548
-18.36011
-19.35749
-20.46687
-21.87975
-23.74833
-25.98863
-28.19548
-29.61682
-29.44727
-27.04366
-22.40004
-16.04025
-8.98632
-2.350965
3.095785
7.048424
9.650957
11.26584
12.25226
12.73236
12.73873
12.27815
11.45087
10.57567
10.00416
10.01161
10.60836
11.564
12.42822
12.772
12.357
11.2397
9.754063
8.318176
7.205368
6.458965
5.853046
5.103035
3.987377
2.474876
0.6680336
-1.198997
-2.932339
-4.407543
-5.586571
-6.560627
-7.44677
-8.394585
-9.527321
-10.97277
-12.67802
-14.5055
-16.28379
-17.86773
-19.30163
-20.78559
-22.59144
-24.97476
-28.02589
-31.65165
-35.44028
-38.7215
-40.61251
-40.23932
-37.0406
-30.93203
-22.56369
-13.04388
-3.733757
4.240097
10.33172
14.55517
17.32968
19.13155
20.32827
21.03867
21.36815
21.36961
21.21933
21.13737
21.29591
21.66464
22.00628
22.03345
21.40359
19.97526
17.84118
15.29768
12.75592
10.50318
8.673401
7.178177
5.838455
4.43531
2.837219
1.033882
-0.852066
-2.670662
-4.344276
-5.833954
-7.169563
-8.448662
-9.766701
-11.25635
-13.03842
-15.14617
-17.52666
-20.14302
-22.82938
-25.43629
-27.89578
-30.24393
-32.63777
-35.35345
-38.70124
-42.87894
-47.8418
-53.13646
-57.83898
-60.76065
-60.67596
-56.80122
-49.08887
-38.26473
-25.64431
-12.69232
-0.6469078
9.70829
18.16634
24.81188
29.92691
33.74416
36.46664
38.25946
39.26411
39.67267
39.63196
39.31957
38.87706
38.33432
37.60314
36.56951
35.20344
33.51048
31.62824
29.65843
27.70887
25.77805
23.82025
21.72215
19.472
17.14299
14.8771
12.82985
11.04352
9.458096
7.926868
6.271202
4.378389
2.20388
-0.1580563
-2.577442
-4.92738
-7.190647
-9.506939
-12.11394
-15.27189
-19.14372
-23.68368
-28.64471
-33.61891
-38.10044
-41.76446
-44.54013
-46.56284
-48.29934
-50.3241
-53.10633
-56.83285
-61.21207
-65.34972
-67.96873
-67.72572
-63.60403
-55.29586
-43.38826
-29.14306
-14.14965
0.1120019
12.58497
22.80906
30.82748
36.94825
41.47417
44.60225
46.43243
47.05859
46.71563
45.84035
44.86376
44.20662
44.10083
44.46803
45.07239
45.58093
45.68054
45.26171
44.40675
43.19123
41.71812
40.04692
38.11498
35.8579
33.32846
30.63668
27.95536
25.54046
23.4721
21.70041
20.01668
18.13768
15.79115
12.85489
9.409317
5.719482
2.197723
-0.8002281
-3.078228
-4.616982
-5.633348
-6.408108
-7.327433
-8.646736
-10.52965
-12.92286
-15.62103
-18.32108
-20.71677
-22.68563
-24.26728
-25.76029
-27.5648
-30.10609
-33.55865
-37.78306
-42.21731
-45.89268
-47.69394
-46.58289
-42.08121
-34.37196
-24.39979
-13.50276
-3.045183
5.965702
13.05831
18.18261
21.56953
23.5185
24.26299
23.97692
22.9032
21.47031
20.07793
19.15827
18.94591
19.44966
20.48808
21.75549
22.98345
23.98656
24.79168
25.39423
25.86213
26.12933
26.00681
25.25179
23.67761
21.25397
18.19365
14.87296
11.70752
9.055249
7.034352
5.560021
4.421612
3.354766
2.150065
0.8270977
-0.5127473
-1.748718
-2.733703
-3.470203
-4.185841
-5.179831
-6.811972
-9.275763
-12.48868
-16.09763
-19.62647
-22.60615
-24.80209
-26.2719
-27.20637
-27.93208
-28.74307
-29.8427
-31.37549
-33.27734
-35.15948
-36.37802
-36.03199
-33.34981
-28.06094
-20.56262
-11.8763
-3.2787
4.166901
9.928122
13.99911
16.68581
18.38736
19.26579
19.32481
18.57779
17.23184
15.73665
14.64853
14.4442
15.21681
16.72569
18.44331
19.88551
20.7684
21.11007
21.09655
20.87637
20.48266
19.76436
18.55005
16.714
14.3196
11.56232
8.714725
6.005547
3.534782
1.278595
-0.9146652
-3.172802
-5.561398
-8.075294
-10.52744
-12.71529
-14.39286
-15.42068
-15.87932
-16.05391
-16.32058
-16.988
-18.22487
-19.95552
-21.96584
-23.95324
-25.67928
-27.08743
-28.29787
-29.5977
-31.2858
-33.70838
-36.9235
-40.74649
-44.50129
-47.13728
-47.4893
-44.60099
-38.12592
-28.53085
-17.01417
-5.116871
5.715092
14.48779
20.90334
25.10875
27.59782
28.88065
29.29146
29.04391
28.27718
27.20613
26.06602
25.1312
24.52579
24.25319
24.13653
23.90395
23.4078
22.57632
21.57826
20.57319
19.6545
18.71829
17.60204
16.11313
14.19727
11.97766
9.6479
7.432446
5.460892
3.699898
1.995148
0.1478539
-1.982971
-4.455647
-7.123486
-9.767879
-12.11867
-13.91689
-15.08055
-15.68527
-15.9781
-16.31301
-17.03773
-18.31881
-20.15689
-22.41218
-24.86578
-27.43716
-30.08559
-33.00601
-36.49671
-40.79436
-45.90421
-51.51398
-56.91298
-61.07404
-62.85911
-61.24446
-55.64966
-46.20468
-33.76652
-19.75308
-5.852141
6.526439
16.56648
24.12749
29.58222
33.49514
36.28199
38.16628
39.23121
39.5079
39.23441
38.741
38.33052
38.13078
38.08574
37.96564
37.60934
36.94502
36.07138
35.20012
34.48642
33.92429
33.33221
32.49108
31.19316
29.40095
27.1948
24.74073
22.17931
19.59885
16.99174
14.30768
11.50935
8.540214
5.404276
2.170169
-1.0654
-4.094358
-6.737487
-8.889453
-10.60577
-12.12444
-13.73128
-15.63653
-17.88388
-20.33677
-22.74909
-24.9639
-26.90392
-28.73335
-30.75024
-33.33387
-36.7546
-41.0678
-45.97249
-50.7505
-54.37959
-55.66283
-53.66436
-47.9493
-38.84664
-27.36053
-14.87381
-2.855003
7.609528
15.93443
22.14763
26.61333
29.82763
32.18872
33.80138
34.72519
34.91923
34.52905
33.75035
32.94197
32.34303
32.03963
31.93156
31.74247
31.28261
30.50467
29.55813
28.626
27.94519
27.52323
27.23396
26.84612
26.10081
24.90247
23.31505
21.60164
19.96128
18.51541
17.16965
15.71327
13.93438
11.70641
9.056993
6.211552
3.469744
1.087072
-0.8774128
-2.546396
-4.172604
-6.031089
-8.254537
-10.88373
-13.73114
-16.52158
-18.98291
-20.90619
-22.27937
-23.22415
-23.97482
-24.8495
-26.13876
-28.08445
-30.72666
-33.87944
-36.98005
-39.16525
-39.46108
-37.06361
-31.65825
-23.64716
-14.06024
-4.255549
4.46695
11.276
15.89348
18.48569
19.42243
19.13311
17.94989
16.1892
14.2364
12.53039
11.54258
11.55813
12.63587
14.45115
16.53625
18.3569
19.52782
19.95911
19.74472
19.03549
17.98147
16.62875
14.99726
13.16422
11.24796
9.439598
7.888062
6.606722
5.535877
4.536549
3.471186
2.22949
0.8463993
-0.6399822
-2.117792
-3.412504
-4.496239
-5.361452
-6.151733
-7.08884
-8.385654
-10.12825
-12.2634
-14.58141
-16.76303
-18.58397
-19.91862
-20.83494
-21.60411
-22.5505
-23.98257
-26.16885
-29.01176
-32.17511
-34.95329
-36.45402
-35.8605
-32.74155
-27.11884
-19.57102
-11.06629
-2.594879
4.968605
11.12181
15.75441
19.00238
21.08383
22.26072
22.71799
22.53619
21.90184
20.99687
20.04663
19.302
18.87714
18.72841
18.71783
18.62204
18.22974
17.49777
16.3719
14.88131
13.13838
11.2132
9.213345
7.270145
5.465977
3.856537
2.52869
1.50256
0.7282295
0.1589584
-0.3237724
-0.8665009
-1.612583
-2.719933
-4.318951
-6.373672
-8.802826
-11.4661
-14.20166
-16.98101
-19.86688
-22.92545
-26.15674
-29.44484
-32.4742
-34.97921
-36.81642
-38.09785
-39.22335
-40.72148
-43.033
-46.26361
-50.13816
-53.84685
-56.32545
-56.40368
-53.21219
-46.41037
-36.42842
-24.32012
-11.54788
0.4114609
10.51059
18.24373
23.70042
27.31453
29.61455
31.03947
31.85093
32.15059
32.04135
31.68553
31.30667
31.036
30.93828
30.91296
30.81849
30.5411
29.95936
29.11757
28.15384
27.21835
26.392
25.67431
24.87835
23.79712
22.31061
20.42147
18.28597
16.12136
14.11176
12.3444
10.77871
9.289558
7.641002
5.645012
3.167633
0.2113514
-3.110279
-6.577482
-9.866981
-12.72574
-15.0104
-16.83061
-18.41775
-20.06423
-21.95002
-24.05012
-26.27318
-28.3862
-30.28252
-31.95577
-33.58453
-35.48951
-38.10309
-41.78901
-46.63266
-52.34193
-58.07846
-62.55128
-64.25803
-61.99618
-55.29601
-44.69597
-31.58764
-17.73129
-4.770035
6.252949
14.94334
21.52472
26.43848
30.14136
32.97459
35.16157
36.91085
38.47375
40.0703
41.81817
43.59388
45.15054
46.1594
46.41027
45.85326
44.68148
43.19612
41.67983
40.28567
38.94447
37.48547
35.68968
33.39145
30.52824
27.18692
23.56255
19.95289
16.6371
13.82651
11.60632
9.819588
8.229282
6.477654
4.438225
2.184364
-0.01427841
-1.838783
-3.099529
-3.915501
-4.639267
-5.708672
-7.478687
-10.02095
-13.13488
-16.43416
-19.50365
-22.06351
-24.11659
-25.86561
-27.64188
-29.82474
-32.60874
-35.96076
-39.55836
-42.81079
-44.95549
-45.21076
-42.89922
-37.63097
-29.53389
-19.27764
-7.965332
3.02639
12.52663
19.70862
24.32874
26.71011
27.46506
27.19673
26.41953
25.45183
24.43528
23.55696
22.98407
22.91766
23.47678
24.59487
25.96283
27.22808
28.1023
28.40483
28.23138
27.70333
26.91019
25.8337
24.31943
22.21408
19.56506
16.60035
13.67142
11.22258
9.480942
8.465977
7.988459
7.664631
7.244457
6.555292
5.605417
4.4811
3.322001
2.151403
0.8588009
-0.6690731
-2.619759
-5.028178
-7.872605
-10.99581
-14.1947
-17.24691
-20.02699
-22.61585
-25.07493
-27.58065
-30.21815
-33.01672
-35.88785
-38.6197
-40.82971
-41.9977
-41.52018
-38.8383
-33.74101
-26.41957
-17.64109
-8.471773
-0.02649713
6.773103
11.55716
14.38066
15.69787
16.05784
15.99558
15.84634
15.77295
15.86599
16.1519
16.71027
17.54715
18.61162
19.7196
20.65352
21.22343
21.33669
21.03528
20.38223
19.51313
18.42266
17.08627
15.40165
13.33348
10.9115
8.34531
5.953829
3.996603
2.670399
1.849283
1.228123
0.447422
-0.7689667
-2.441288
-4.345787
-6.124722
-7.565407
-8.594358
-9.445446
-10.48425
-11.96748
-13.93834
-16.18156
-18.38373
-20.25079
-21.73887
-22.98384
-24.27106
-25.87195
-27.92052
-30.49993
-33.54168
-36.90658
-40.15127
-42.55317
-43.09892
-40.91202
-35.53409
-27.20121
-16.88188
-5.858219
4.499466
13.25552
19.88957
24.38754
26.97759
27.9324
27.6487
26.45785
24.83496
23.14461
21.71833
20.67553
20.02952
19.6849
19.47586
19.3165
19.10078
18.87066
18.64091
18.47842
18.4459
18.49674
18.52191
18.33137
17.69255
16.40587
14.46209
12.0207
9.413189
7.069817
5.198692
3.843513
2.766586
1.663082
0.1857758
-1.737911
-3.934452
-6.117821
-7.95573
-9.414982
-10.59139
-11.77625
-13.18972
-14.99632
-17.17069
-19.5595
-22.04599
-24.51656
-26.97861
-29.41386
-31.82127
-34.25475
-36.85553
-39.89084
-43.57351
-47.9086
-52.4656
-56.33017
-58.26902
-57.09421
-52.16128
-43.56019
-32.20988
-19.57946
-7.238361
3.572861
12.15336
18.39722
22.66552
25.4451
27.24048
28.40749
29.15969
29.62933
29.92378
30.19759
30.50022
30.88414
31.18603
31.23025
30.87156
30.10778
29.12594
28.18368
27.54868
27.23732
27.07314
26.69
25.71749
23.95422
21.43949
18.42125
15.2677
12.34071
9.877922
7.927166
6.347572
4.878098
3.303211
1.454727
-0.6180458
-2.670872
-4.355671
-5.387943
-5.64917
-5.321686
-4.876408
-4.849716
-5.729366
-7.696877
-10.56916
-13.96545
-17.40998
-20.55905
-23.31945
-25.82882
-28.32208
-31.07364
-34.25659
-37.89189
-41.83332
-45.72974
-48.90234
-50.52784
-49.62623
-45.46601
-37.8992
-27.45229
-15.34058
-3.108055
7.784718
16.43491
22.54584
26.45614
28.80214
30.16078
30.96598
31.46809
31.78556
32.05758
32.43596
32.97195
33.57932
34.00318
33.91863
33.12464
31.63433
29.64077
27.47826
25.48236
23.80185
22.41996
21.21229
20.00878
18.78145
17.55229
16.45693
15.65804
15.20434
15.01718
14.8527
14.4215
13.43932
11.79484
9.501305
6.733322
3.762939
0.8630104
-1.799709
-4.163002
-6.21106
-8.056591
-9.820442
-11.60111
-13.44961
-15.28317
-16.99034
-18.4511
-19.58774
-20.37253
-21.01772
-21.75724
-22.90836
-24.77177
-27.43123
-30.74559
-34.19772
-37.03155
-38.27101
-37.06049
-32.98556
-26.18571
-17.47501
-8.021301
0.8696136
8.226616
13.54979
16.85512
18.5397
19.05759
18.83434
18.07108
16.99722
15.80894
14.80982
14.31467
14.47227
15.24631
16.38644
17.56556
18.46223
19.05421
19.39627
19.59141
19.68499
19.54196
18.96622
17.86273
16.33312
14.60851
13.01965
11.80788
10.96639
10.32815
9.570557
8.454262
6.794884
4.52253
1.768974
-1.393959
-4.734573
-8.047379
-11.10159
-13.78626
-15.96946
-17.63761
-18.83501
-19.57361
-19.90707
-19.83706
-19.41093
-18.70197
-17.9442
-17.43516
-17.50671
-18.47071
-20.47778
-23.38656
-26.76596
-29.85972
-31.72424
-31.61456
-29.07921
-24.19296
-17.54784
-10.08289
-2.805603
3.48851
8.376205
11.79836
13.90923
14.95244
15.11726
14.55823
13.41962
11.91339
10.36118
9.121796
8.472961
8.491425
9.049881
9.898376
10.72798
11.36353
11.77124
12.039
12.20354
12.24953
12.0406
11.46848
10.49286
9.176529
7.724884
6.319733
5.065948
3.88176
2.580063
0.9276581
-1.169067
-3.613922
-6.139969
-8.420242
-10.24734
-11.5862
-12.66808
-13.76082
-15.12424
-16.87767
-18.93198
-21.09709
-23.11502
-24.84561
-26.23026
-27.38084
-28.55243
-30.07716
-32.32988
-35.51163
-39.51764
-43.79141
-47.39508
-49.08023
-47.72345
-42.68414
-34.06113
-22.82642
-10.48274
1.306061
11.24686
18.68552
23.65555
26.61273
28.19865
28.93933
29.08688
28.743
28.01601
27.10151
26.3096
25.86694
25.77299
25.82797
25.70789
25.0954
23.88589
22.21779
20.40118
18.83072
17.72413
17.07265
16.7061
16.33371
15.67313
14.56744
13.04216
11.26611
9.464828
7.791939
6.17514
4.418259
2.237808
-0.504303
-3.669975
-6.881493
-9.710419
-11.82536
-13.20464
-14.22796
-15.41795
-17.32798
-20.19461
-23.9001
-28.09449
-32.30374
-36.1312
-39.44791
-42.33734
-45.11889
-48.24021
-52.06882
-56.70837
-61.91394
-66.86867
-70.39566
-71.09687
-67.85423
-60.1693
-48.45703
-33.96185
-18.40443
-3.625061
9.093941
19.05672
26.30559
31.31536
34.77921
37.26206
39.18636
40.7879
42.13007
43.34061
44.49006
45.67941
46.87833
47.9257
48.5434
48.5145
47.74608
46.38422
44.65226
42.79454
40.85528
38.77633
36.40287
33.6409
30.55381
27.34873
24.25554
21.44144
18.95863
16.74421
14.73745
12.83722
10.99705
9.214577
7.491825
5.78426
4.037445
2.164463
0.1619949
-1.911922
-3.926697
-5.85807
-7.775429
-9.879528
-12.43523
-15.66111
-19.52476
-23.78582
-28.01915
-31.76911
-34.83298
-37.18902
-39.08775
-40.88463
-43.03248
-45.95533
-49.90281
-54.8057
-60.05382
-64.60847
-67.04378
-65.98976
-60.55292
-50.68597
-37.3318
-22.15473
-7.096418
6.251408
16.94382
24.8689
30.52819
34.66494
37.91463
40.57489
42.66922
44.06859
44.80027
45.05584
45.1629
45.34706
45.65305
45.92735
45.87461
45.25999
43.99121
42.23998
40.25949
38.30059
36.46364
34.63942
32.68911
30.48576
28.05738
25.5591
23.22015
21.1643
19.43243
17.90006
16.35653
14.6379
12.70187
10.62867
8.543234
6.563379
4.734196
3.051248
1.477285
-0.03029442
-1.558895
-3.153009
-4.907064
-6.947983
-9.342003
-12.14522
-15.31371
-18.70944
-22.14268
-25.34742
-28.14503
-30.45076
-32.29779
-33.89766
-35.60159
-37.79439
-40.65157
-44.0218
-47.25446
-49.38724
-49.34259
-46.2241
-39.6293
-29.89595
-18.05032
-5.491093
6.326088
16.3387
23.97815
29.25036
32.46082
34.01366
34.19217
33.24323
31.39812
28.99111
26.53485
24.4513
23.02806
22.24368
21.7969
21.30629
20.50357
19.35623
18.0519
16.88916
16.03943
15.52438
15.18032
14.75048
14.06035
13.07297
11.87115
10.58501
9.335182
8.150776
6.985699
5.777596
4.426514
2.902367
1.147736
-0.836998
-2.951057
-5.08094
-7.083229
-8.762291
-10.04359
-11.03935
-11.89996
-12.92883
-14.34092
-16.13823
-18.19701
-20.29867
-22.24809
-23.9446
-25.4822
-26.9532
-28.60582
-30.60483
-33.08716
-36.06516
-39.3186
-42.30152
-44.18909
-44.09476
-41.25124
-35.38827
-26.85847
-16.59999
-5.920227
3.889999
11.90085
17.68476
21.3059
23.16562
23.7217
23.38681
22.47344
21.25301
20.01392
19.08947
18.72234
19.00773
19.88052
21.08476
22.30586
23.33138
24.03299
24.46065
24.685
24.73463
24.57293
24.116
23.27969
22.0475
20.53687
18.96614
17.58073
16.50561
15.74203
15.13037
14.4796
13.58014
12.32561
10.76552
9.06237
7.396057
5.904968
4.677116
3.673958
2.845261
2.064301
1.20768
0.1252441
-1.346085
-3.379578
-6.098541
-9.579163
-13.82224
-18.84627
-24.65025
-31.21277
-38.30391
-45.36852
-51.50465
-55.58635
-56.62643
-54.12946
-48.37886
-40.37437
-31.52791
-23.14487
-16.07309
-10.57324
-6.472595
-3.469238
-1.283127
0.2057037
1.071564
1.427872
1.534103
1.668152
2.137451
3.05632
4.363342
5.839218
7.24173
8.390427
9.232788
9.801239
10.2388
10.59924
10.89334
10.9614
10.5499
9.532806
7.906464
5.906754
3.821457
1.89447
0.1937561
-1.394775
-3.056351
-4.997787
-7.246292
-9.687592
-12.06656
-14.16833
-15.88977
-17.28116
-18.5609
-19.96489
-21.74643
-24.0553
-26.87169
-29.99553
-33.12965
-36.01414
-38.56104
-40.89911
-43.33223
-46.28003
-50.04754
-54.71465
-59.92919
-64.87781
-68.36924
-69.04392
-65.73663
-57.88902
-45.80309
-30.67542
-14.28421
1.550323
15.46368
26.76363
35.46179
41.99465
46.83526
50.32378
52.59107
53.70943
53.81222
53.2201
52.24054
51.16391
50.05901
48.82678
47.29462
45.34755
43.02986
40.56363
38.19858
36.04926
34.09856
32.11065
29.76824
26.82315
23.2299
19.15956
15.02108
11.29265
8.38969
6.509106
5.455498
4.78315
3.939171
2.443066
0.04398727
-3.148518
-6.833206
-10.61293
-14.18133
-17.51465
-20.80399
-24.30926
-28.32288
-32.96083
-38.14164
-43.58189
-48.86895
-53.58896
-57.6022
-61.03824
-64.25921
-67.84503
-72.38055
-78.12789
-84.93374
-92.03748
-98.03696
-101.1727
-99.64006
-92.20904
-78.74994
-60.41926
-39.39548
-18.29471
0.6613693
16.20739
28.15745
37.14393
44.01218
49.34695
53.40417
56.19361
57.71082
58.19066
58.10165
57.94312
58.05219
58.50029
59.0761
59.52976
59.68917
59.51787
59.1133
58.61559
57.99416
57.08453
55.63406
53.35352
50.21183
46.39433
42.32402
38.50388
35.32132
32.91289
31.11264
29.52455
27.67894
25.22643
21.97961
18.06662
13.74706
9.328278
5.102081
1.236359
-2.195709
-5.316223
-8.341171
-11.50935
-15.01407
-19.00455
-23.39714
-27.97427
-32.468
-36.60693
-40.25362
-43.42281
-46.29611
-49.17815
-52.43387
-56.46173
-61.42491
-67.15195
-72.90836
-77.34384
-78.75748
-75.58287
-66.95589
-53.09554
-35.41167
-16.05461
2.683792
19.00189
32.01959
41.71707
48.61334
53.40356
56.62274
58.60797
59.54245
59.61978
59.21576
58.7113
58.41811
58.4337
58.62839
58.69789
58.39209
57.60507
56.41133
55.00963
53.52724
51.92303
49.9747
47.48059
44.30013
40.49283
36.30539
32.04755
27.9772
24.25839
20.96935
18.04994
15.48232
13.17401
10.9882
8.846237
6.660645
4.479187
2.364014
0.4390717
-1.275238
-2.819244
-4.326965
-5.989883
-7.912399
-10.17673
-12.70786
-15.38159
-17.9958
-20.34119
-22.28941
-23.82033
-25.06813
-26.20511
-27.58649
-29.50476
-32.22354
-35.73729
-39.74669
-43.55261
-46.12947
-46.40218
-43.49797
-37.2468
-28.18129
-17.54425
-6.775299
2.84285
10.5397
16.1788
20.06107
22.65443
24.24808
24.99442
24.92992
24.15738
22.95485
21.74547
20.97401
20.8851
21.43999
22.31764
23.15256
23.6246
23.60588
23.15042
22.35783
21.29408
19.87155
17.93796
15.39392
12.35489
9.173706
6.332489
4.297318
3.26667
3.194092
3.72657
4.430733
4.916397
4.956245
4.497643
3.62764
2.538696
1.339088
0.09728241
-1.219513
-2.669403
-4.28199
-6.071815
-7.931488
-9.756592
-11.37869
-12.77019
-13.95367
-15.06594
-16.32217
-17.9853
-20.33648
-23.52736
-27.51743
-31.88638
-35.88779
-38.44117
-38.52216
-35.40322
-28.99546
-19.99911
