1570279733.56088
1570279733.57651
1570279733.59213
1570279733.60776
1570279733.62339
1570279733.63901
1570279733.65464
1570279733.67026
1570279733.68589
1570279733.70152
1570279733.71714
1570279733.73277
1570279733.74839
1570279733.76402
1570279733.77964
1570279733.79527
1570279733.8109
1570279733.82652
1570279733.84215
1570279733.85777
1570279733.8734
1570279733.88902
1570279733.90465
1570279733.92028
1570279733.9359
1570279733.95153
1570279733.96715
1570279733.98278
1570279733.9984
1570279734.01403
1570279734.02966
1570279734.04528
1570279734.06091
1570279734.07653
1570279734.09216
1570279734.10778
1570279734.12341
1570279734.13904
1570279734.15466
1570279734.17029
1570279734.18591
1570279734.20154
1570279734.21716
1570279734.23279
1570279734.24842
1570279734.26404
1570279734.27967
1570279734.29529
1570279734.31092
1570279734.32654
1570279734.34217
1570279734.3578
1570279734.37342
1570279734.38905
1570279734.40467
1570279734.4203
1570279734.43592
1570279734.45155
1570279734.46718
1570279734.4828
1570279734.49843
1570279734.51405
1570279734.52968
1570279734.5453
1570279734.56093
1570279734.57656
1570279734.59218
1570279734.60781
1570279734.62343
1570279734.63906
1570279734.65468
1570279734.67031
1570279734.68594
1570279734.70156
1570279734.71719
1570279734.73281
1570279734.74844
1570279734.76406
1570279734.77969
1570279734.79532
1570279734.81094
1570279734.82657
1570279734.84219
1570279734.85782
1570279734.87344
1570279734.88907
1570279734.9047
1570279734.92032
1570279734.93595
1570279734.95157
1570279734.9672
1570279734.98282
1570279734.99845
1570279735.01408
1570279735.0297
1570279735.04533
1570279735.06095
1570279735.07658
1570279735.0922
1570279735.10783
1570279735.12346
1570279735.13908
1570279735.15471
1570279735.17033
1570279735.18596
1570279735.20158
1570279735.21721
1570279735.23284
1570279735.24846
1570279735.26409
1570279735.27971
1570279735.29534
1570279735.31096
1570279735.32659
1570279735.34222
1570279735.35784
1570279735.37347
1570279735.38909
1570279735.40472
1570279735.42034
1570279735.43597
1570279735.4516
1570279735.46722
1570279735.48285
1570279735.49847
1570279735.5141
1570279735.52972
1570279735.54535
1570279735.56098
1570279735.5766
1570279735.59223
1570279735.60785
1570279735.62348
1570279735.6391
1570279735.65473
1570279735.67036
1570279735.68598
1570279735.70161
1570279735.71723
1570279735.73286
1570279735.74848
1570279735.76411
1570279735.77974
1570279735.79536
1570279735.81099
1570279735.82661
1570279735.84224
1570279735.85787
1570279735.87349
1570279735.88912
1570279735.90474
1570279735.92037
1570279735.93599
1570279735.95162
1570279735.96725
1570279735.98287
1570279735.9985
1570279736.01412
1570279736.02975
1570279736.04537
1570279736.061
1570279736.07663
1570279736.09225
1570279736.10788
1570279736.1235
1570279736.13913
1570279736.15475
1570279736.17038
1570279736.18601
1570279736.20163
1570279736.21726
1570279736.23288
1570279736.24851
1570279736.26413
1570279736.27976
1570279736.29539
1570279736.31101
1570279736.32664
1570279736.34226
1570279736.35789
1570279736.37351
1570279736.38914
1570279736.40477
1570279736.42039
1570279736.43602
1570279736.45164
1570279736.46727
1570279736.48289
1570279736.49852
1570279736.51415
1570279736.52977
1570279736.5454
1570279736.56102
1570279736.57665
1570279736.59227
1570279736.6079
1570279736.62353
1570279736.63915
1570279736.65478
1570279736.6704
1570279736.68603
1570279736.70165
1570279736.71728
1570279736.73291
1570279736.74853
1570279736.76416
1570279736.77978
1570279736.79541
1570279736.81103
1570279736.82666
1570279736.84229
1570279736.85791
1570279736.87354
1570279736.88916
1570279736.90479
1570279736.92041
1570279736.93604
1570279736.95167
1570279736.96729
1570279736.98292
1570279736.99854
1570279737.01417
1570279737.02979
1570279737.04542
1570279737.06105
1570279737.07667
1570279737.0923
1570279737.10792
1570279737.12355
1570279737.13917
1570279737.1548
1570279737.17043
1570279737.18605
1570279737.20168
1570279737.2173
1570279737.23293
1570279737.24855
1570279737.26418
1570279737.27981
1570279737.29543
1570279737.31106
1570279737.32668
1570279737.34231
1570279737.35793
1570279737.37356
1570279737.38919
1570279737.40481
1570279737.42044
1570279737.43606
1570279737.45169
1570279737.46731
1570279737.48294
1570279737.49857
1570279737.51419
1570279737.52982
1570279737.54544
1570279737.56107
1570279737.57669
1570279737.59232
1570279737.60795
1570279737.62357
1570279737.6392
1570279737.65482
1570279737.67045
1570279737.68607
1570279737.7017
1570279737.71733
1570279737.73295
1570279737.74858
1570279737.7642
1570279737.77983
1570279737.79545
1570279737.81108
1570279737.82671
1570279737.84233
1570279737.85796
1570279737.87358
1570279737.88921
1570279737.90483
1570279737.92046
1570279737.93609
1570279737.95171
1570279737.96734
1570279737.98296
1570279737.99859
1570279738.01421
1570279738.02984
1570279738.04547
1570279738.06109
1570279738.07672
1570279738.09234
1570279738.10797
1570279738.1236
1570279738.13922
1570279738.15485
1570279738.17047
1570279738.1861
1570279738.20172
1570279738.21735
1570279738.23298
1570279738.2486
1570279738.26423
1570279738.27985
1570279738.29548
1570279738.3111
1570279738.32673
1570279738.34236
1570279738.35798
1570279738.37361
1570279738.38923
1570279738.40486
1570279738.42048
1570279738.43611
1570279738.45174
1570279738.46736
1570279738.48299
1570279738.49861
1570279738.51424
1570279738.52986
1570279738.54549
1570279738.56112
1570279738.57674
1570279738.59237
1570279738.60799
1570279738.62362
1570279738.63924
1570279738.65487
1570279738.6705
1570279738.68612
1570279738.70175
1570279738.71737
1570279738.733
1570279738.74862
1570279738.76425
1570279738.77988
1570279738.7955
1570279738.81113
1570279738.82675
1570279738.84238
1570279738.858
1570279738.87363
1570279738.88926
1570279738.90488
1570279738.92051
1570279738.93613
1570279738.95176
1570279738.96738
1570279738.98301
1570279738.99864
1570279739.01426
1570279739.02989
1570279739.04551
1570279739.06114
1570279739.07676
1570279739.09239
1570279739.10802
1570279739.12364
1570279739.13927
1570279739.15489
1570279739.17052
1570279739.18614
1570279739.20177
1570279739.2174
1570279739.23302
1570279739.24865
1570279739.26427
1570279739.2799
1570279739.29552
1570279739.31115
1570279739.32678
1570279739.3424
1570279739.35803
1570279739.37365
1570279739.38928
1570279739.4049
1570279739.42053
1570279739.43616
1570279739.45178
1570279739.46741
1570279739.48303
1570279739.49866
1570279739.51428
1570279739.52991
1570279739.54554
1570279739.56116
1570279739.57679
1570279739.59241
1570279739.60804
1570279739.62366
1570279739.63929
1570279739.65492
1570279739.67054
1570279739.68617
1570279739.70179
1570279739.71742
1570279739.73304
1570279739.74867
1570279739.7643
1570279739.77992
1570279739.79555
1570279739.81117
1570279739.8268
1570279739.84242
1570279739.85805
1570279739.87368
1570279739.8893
1570279739.90493
1570279739.92055
1570279739.93618
1570279739.9518
1570279739.96743
1570279739.98306
1570279739.99868
1570279740.01431
1570279740.02993
1570279740.04556
1570279740.06118
1570279740.07681
1570279740.09244
1570279740.10806
1570279740.12369
1570279740.13931
1570279740.15494
1570279740.17056
1570279740.18619
1570279740.20182
1570279740.21744
1570279740.23307
1570279740.24869
1570279740.26432
1570279740.27994
1570279740.29557
1570279740.3112
1570279740.32682
1570279740.34245
1570279740.35807
1570279740.3737
1570279740.38932
1570279740.40495
1570279740.42058
1570279740.4362
1570279740.45183
1570279740.46745
1570279740.48308
1570279740.4987
1570279740.51433
1570279740.52996
1570279740.54558
1570279740.56121
1570279740.57683
1570279740.59246
1570279740.60808
1570279740.62371
1570279740.63934
1570279740.65496
1570279740.67059
1570279740.68621
1570279740.70184
1570279740.71746
1570279740.73309
1570279740.74872
1570279740.76434
1570279740.77997
1570279740.79559
1570279740.81122
1570279740.82685
1570279740.84247
1570279740.8581
1570279740.87372
1570279740.88935
1570279740.90497
1570279740.9206
1570279740.93623
1570279740.95185
1570279740.96748
1570279740.9831
1570279740.99873
1570279741.01435
1570279741.02998
1570279741.04561
1570279741.06123
1570279741.07686
1570279741.09248
1570279741.10811
1570279741.12373
1570279741.13936
1570279741.15499
1570279741.17061
1570279741.18624
1570279741.20186
1570279741.21749
1570279741.23311
1570279741.24874
1570279741.26437
1570279741.27999
1570279741.29562
1570279741.31124
1570279741.32687
1570279741.34249
1570279741.35812
1570279741.37375
1570279741.38937
1570279741.405
1570279741.42062
1570279741.43625
1570279741.45187
1570279741.4675
1570279741.48313
1570279741.49875
1570279741.51438
1570279741.53
1570279741.54563
1570279741.56125
1570279741.57688
1570279741.59251
1570279741.60813
1570279741.62376
1570279741.63938
1570279741.65501
1570279741.67063
1570279741.68626
1570279741.70189
1570279741.71751
1570279741.73314
1570279741.74876
1570279741.76439
1570279741.78001
1570279741.79564
1570279741.81127
1570279741.82689
1570279741.84252
1570279741.85814
1570279741.87377
1570279741.88939
1570279741.90502
1570279741.92065
1570279741.93627
1570279741.9519
1570279741.96752
1570279741.98315
1570279741.99877
1570279742.0144
1570279742.03003
1570279742.04565
1570279742.06128
1570279742.0769
1570279742.09253
1570279742.10815
1570279742.12378
1570279742.13941
1570279742.15503
1570279742.17066
1570279742.18628
1570279742.20191
1570279742.21753
1570279742.23316
1570279742.24879
1570279742.26441
1570279742.28004
1570279742.29566
1570279742.31129
1570279742.32691
1570279742.34254
1570279742.35817
1570279742.37379
1570279742.38942
1570279742.40504
1570279742.42067
1570279742.43629
1570279742.45192
1570279742.46755
1570279742.48317
1570279742.4988
1570279742.51442
1570279742.53005
1570279742.54567
1570279742.5613
1570279742.57693
1570279742.59255
1570279742.60818
1570279742.6238
1570279742.63943
1570279742.65505
1570279742.67068
1570279742.68631
1570279742.70193
1570279742.71756
1570279742.73318
1570279742.74881
1570279742.76443
1570279742.78006
1570279742.79569
1570279742.81131
1570279742.82694
1570279742.84256
1570279742.85819
1570279742.87381
1570279742.88944
1570279742.90507
1570279742.92069
1570279742.93632
1570279742.95194
1570279742.96757
1570279742.9832
1570279742.99882
1570279743.01445
1570279743.03007
1570279743.0457
1570279743.06132
1570279743.07695
1570279743.09258
1570279743.1082
1570279743.12383
1570279743.13945
1570279743.15508
1570279743.1707
1570279743.18633
1570279743.20196
1570279743.21758
1570279743.23321
1570279743.24883
1570279743.26446
1570279743.28008
1570279743.29571
1570279743.31134
1570279743.32696
1570279743.34259
1570279743.35821
1570279743.37384
1570279743.38946
1570279743.40509
1570279743.42072
1570279743.43634
1570279743.45197
1570279743.46759
1570279743.48322
1570279743.49884
1570279743.51447
1570279743.5301
1570279743.54572
1570279743.56135
1570279743.57697
1570279743.5926
1570279743.60822
1570279743.62385
1570279743.63948
1570279743.6551
1570279743.67073
1570279743.68635
1570279743.70198
1570279743.7176
1570279743.73323
1570279743.74886
1570279743.76448
1570279743.78011
1570279743.79573
1570279743.81136
1570279743.82698
1570279743.84261
1570279743.85824
1570279743.87386
1570279743.88949
1570279743.90511
1570279743.92074
1570279743.93636
1570279743.95199
1570279743.96762
1570279743.98324
1570279743.99887
1570279744.01449
1570279744.03012
1570279744.04574
1570279744.06137
1570279744.077
1570279744.09262
1570279744.10825
1570279744.12387
1570279744.1395
1570279744.15512
1570279744.17075
1570279744.18638
1570279744.202
1570279744.21763
1570279744.23325
1570279744.24888
1570279744.2645
1570279744.28013
1570279744.29576
1570279744.31138
1570279744.32701
1570279744.34263
1570279744.35826
1570279744.37388
1570279744.38951
1570279744.40514
1570279744.42076
1570279744.43639
1570279744.45201
1570279744.46764
1570279744.48326
1570279744.49889
1570279744.51452
1570279744.53014
1570279744.54577
1570279744.56139
1570279744.57702
1570279744.59264
1570279744.60827
1570279744.6239
1570279744.63952
1570279744.65515
1570279744.67077
1570279744.6864
1570279744.70202
1570279744.71765
1570279744.73328
1570279744.7489
1570279744.76453
1570279744.78015
1570279744.79578
1570279744.8114
1570279744.82703
1570279744.84266
1570279744.85828
1570279744.87391
1570279744.88953
1570279744.90516
1570279744.92078
1570279744.93641
1570279744.95204
1570279744.96766
1570279744.98329
1570279744.99891
1570279745.01454
1570279745.03016
1570279745.04579
1570279745.06142
1570279745.07704
1570279745.09267
1570279745.10829
1570279745.12392
1570279745.13954
1570279745.15517
1570279745.1708
1570279745.18642
1570279745.20205
1570279745.21767
1570279745.2333
1570279745.24892
1570279745.26455
1570279745.28018
1570279745.2958
1570279745.31143
1570279745.32705
1570279745.34268
1570279745.3583
1570279745.37393
1570279745.38956
1570279745.40518
1570279745.42081
1570279745.43643
1570279745.45206
1570279745.46768
1570279745.48331
1570279745.49894
1570279745.51456
1570279745.53019
1570279745.54581
1570279745.56144
1570279745.57706
1570279745.59269
1570279745.60832
1570279745.62394
1570279745.63957
1570279745.65519
1570279745.67082
1570279745.68645
1570279745.70207
1570279745.7177
1570279745.73332
1570279745.74895
1570279745.76457
1570279745.7802
1570279745.79583
1570279745.81145
1570279745.82708
1570279745.8427
1570279745.85833
1570279745.87395
1570279745.88958
1570279745.90521
1570279745.92083
1570279745.93646
1570279745.95208
1570279745.96771
1570279745.98333
1570279745.99896
1570279746.01459
1570279746.03021
1570279746.04584
1570279746.06146
1570279746.07709
1570279746.09271
1570279746.10834
1570279746.12397
1570279746.13959
1570279746.15522
1570279746.17084
1570279746.18647
1570279746.20209
1570279746.21772
1570279746.23335
1570279746.24897
1570279746.2646
1570279746.28022
1570279746.29585
1570279746.31147
1570279746.3271
1570279746.34273
1570279746.35835
1570279746.37398
1570279746.3896
1570279746.40523
1570279746.42085
1570279746.43648
1570279746.45211
1570279746.46773
1570279746.48336
1570279746.49898
1570279746.51461
1570279746.53023
1570279746.54586
1570279746.56149
1570279746.57711
1570279746.59274
1570279746.60836
1570279746.62399
1570279746.63961
1570279746.65524
1570279746.67087
1570279746.68649
1570279746.70212
1570279746.71774
1570279746.73337
1570279746.74899
1570279746.76462
1570279746.78025
1570279746.79587
1570279746.8115
1570279746.82712
1570279746.84275
1570279746.85837
1570279746.874
1570279746.88963
1570279746.90525
1570279746.92088
1570279746.9365
1570279746.95213
1570279746.96775
1570279746.98338
1570279746.99901
1570279747.01463
1570279747.03026
1570279747.04588
1570279747.06151
1570279747.07713
1570279747.09276
1570279747.10839
1570279747.12401
1570279747.13964
1570279747.15526
1570279747.17089
1570279747.18651
1570279747.20214
1570279747.21777
1570279747.23339
1570279747.24902
1570279747.26464
1570279747.28027
1570279747.29589
1570279747.31152
1570279747.32715
1570279747.34277
1570279747.3584
1570279747.37402
1570279747.38965
1570279747.40527
1570279747.4209
1570279747.43653
1570279747.45215
1570279747.46778
1570279747.4834
1570279747.49903
1570279747.51465
1570279747.53028
1570279747.54591
1570279747.56153
1570279747.57716
1570279747.59278
1570279747.60841
1570279747.62403
1570279747.63966
1570279747.65529
1570279747.67091
1570279747.68654
1570279747.70216
1570279747.71779
1570279747.73341
1570279747.74904
1570279747.76467
1570279747.78029
1570279747.79592
1570279747.81154
1570279747.82717
1570279747.8428
1570279747.85842
1570279747.87405
1570279747.88967
1570279747.9053
1570279747.92092
1570279747.93655
1570279747.95218
1570279747.9678
1570279747.98343
1570279747.99905
1570279748.01468
1570279748.0303
1570279748.04593
1570279748.06156
1570279748.07718
1570279748.09281
1570279748.10843
1570279748.12406
1570279748.13968
1570279748.15531
1570279748.17094
1570279748.18656
1570279748.20219
1570279748.21781
1570279748.23344
1570279748.24906
1570279748.26469
1570279748.28032
1570279748.29594
1570279748.31157
1570279748.32719
1570279748.34282
1570279748.35844
1570279748.37407
1570279748.3897
1570279748.40532
1570279748.42095
1570279748.43657
1570279748.4522
1570279748.46782
1570279748.48345
1570279748.49908
1570279748.5147
1570279748.53033
1570279748.54595
1570279748.56158
1570279748.5772
1570279748.59283
1570279748.60846
1570279748.62408
1570279748.63971
1570279748.65533
1570279748.67096
1570279748.68658
1570279748.70221
1570279748.71784
1570279748.73346
1570279748.74909
1570279748.76471
1570279748.78034
1570279748.79596
1570279748.81159
1570279748.82722
1570279748.84284
1570279748.85847
1570279748.87409
1570279748.88972
1570279748.90534
1570279748.92097
1570279748.9366
1570279748.95222
1570279748.96785
1570279748.98347
1570279748.9991
1570279749.01472
1570279749.03035
1570279749.04598
1570279749.0616
1570279749.07723
1570279749.09285
1570279749.10848
1570279749.1241
1570279749.13973
1570279749.15536
1570279749.17098
1570279749.18661
1570279749.20223
1570279749.21786
1570279749.23348
1570279749.24911
1570279749.26474
1570279749.28036
1570279749.29599
1570279749.31161
1570279749.32724
1570279749.34286
1570279749.35849
1570279749.37412
1570279749.38974
1570279749.40537
1570279749.42099
1570279749.43662
1570279749.45224
1570279749.46787
1570279749.4835
1570279749.49912
1570279749.51475
1570279749.53037
1570279749.546
1570279749.56162
1570279749.57725
1570279749.59288
1570279749.6085
1570279749.62413
1570279749.63975
1570279749.65538
1570279749.671
1570279749.68663
1570279749.70226
1570279749.71788
1570279749.73351
1570279749.74913
1570279749.76476
1570279749.78038
1570279749.79601
1570279749.81164
1570279749.82726
1570279749.84289
1570279749.85851
1570279749.87414
1570279749.88976
1570279749.90539
1570279749.92102
1570279749.93664
1570279749.95227
1570279749.96789
1570279749.98352
1570279749.99914
1570279750.01477
1570279750.0304
1570279750.04602
1570279750.06165
1570279750.07727
1570279750.0929
1570279750.10853
1570279750.12415
1570279750.13978
1570279750.1554
1570279750.17103
1570279750.18665
1570279750.20228
1570279750.21791
1570279750.23353
1570279750.24916
1570279750.26478
1570279750.28041
1570279750.29603
1570279750.31166
1570279750.32729
1570279750.34291
1570279750.35854
1570279750.37416
1570279750.38979
1570279750.40541
1570279750.42104
1570279750.43667
1570279750.45229
1570279750.46792
1570279750.48354
1570279750.49917
1570279750.51479
1570279750.53042
1570279750.54605
1570279750.56167
1570279750.5773
1570279750.59292
1570279750.60855
1570279750.62417
1570279750.6398
1570279750.65543
1570279750.67105
1570279750.68668
1570279750.7023
1570279750.71793
1570279750.73355
1570279750.74918
1570279750.76481
1570279750.78043
1570279750.79606
1570279750.81168
1570279750.82731
1570279750.84293
1570279750.85856
1570279750.87419
1570279750.88981
1570279750.90544
1570279750.92106
1570279750.93669
1570279750.95231
1570279750.96794
1570279750.98357
1570279750.99919
1570279751.01482
1570279751.03044
1570279751.04607
1570279751.06169
1570279751.07732
1570279751.09295
1570279751.10857
1570279751.1242
1570279751.13982
1570279751.15545
1570279751.17107
1570279751.1867
1570279751.20233
1570279751.21795
1570279751.23358
1570279751.2492
1570279751.26483
1570279751.28045
1570279751.29608
1570279751.31171
1570279751.32733
1570279751.34296
1570279751.35858
1570279751.37421
1570279751.38983
1570279751.40546
1570279751.42109
1570279751.43671
1570279751.45234
1570279751.46796
1570279751.48359
1570279751.49921
1570279751.51484
1570279751.53047
1570279751.54609
1570279751.56172
1570279751.57734
1570279751.59297
1570279751.60859
1570279751.62422
1570279751.63985
1570279751.65547
1570279751.6711
1570279751.68672
1570279751.70235
1570279751.71797
1570279751.7336
1570279751.74923
1570279751.76485
1570279751.78048
1570279751.7961
1570279751.81173
1570279751.82735
1570279751.84298
1570279751.85861
1570279751.87423
1570279751.88986
1570279751.90548
1570279751.92111
1570279751.93673
1570279751.95236
1570279751.96799
1570279751.98361
1570279751.99924
1570279752.01486
1570279752.03049
1570279752.04611
1570279752.06174
1570279752.07737
1570279752.09299
1570279752.10862
1570279752.12424
1570279752.13987
1570279752.15549
1570279752.17112
1570279752.18675
1570279752.20237
1570279752.218
1570279752.23362
1570279752.24925
1570279752.26487
1570279752.2805
1570279752.29613
1570279752.31175
1570279752.32738
1570279752.343
1570279752.35863
1570279752.37425
1570279752.38988
1570279752.40551
1570279752.42113
1570279752.43676
1570279752.45238
1570279752.46801
1570279752.48363
1570279752.49926
1570279752.51489
1570279752.53051
1570279752.54614
1570279752.56176
1570279752.57739
1570279752.59301
1570279752.60864
1570279752.62427
1570279752.63989
1570279752.65552
1570279752.67114
1570279752.68677
1570279752.7024
1570279752.71802
1570279752.73365
1570279752.74927
1570279752.7649
1570279752.78052
1570279752.79615
1570279752.81178
1570279752.8274
1570279752.84303
1570279752.85865
1570279752.87428
1570279752.8899
1570279752.90553
1570279752.92116
1570279752.93678
1570279752.95241
1570279752.96803
1570279752.98366
1570279752.99928
1570279753.01491
1570279753.03054
1570279753.04616
1570279753.06179
1570279753.07741
1570279753.09304
1570279753.10866
1570279753.12429
1570279753.13992
1570279753.15554
1570279753.17117
1570279753.18679
1570279753.20242
1570279753.21804
1570279753.23367
1570279753.2493
1570279753.26492
1570279753.28055
1570279753.29617
1570279753.3118
1570279753.32742
1570279753.34305
1570279753.35868
1570279753.3743
1570279753.38993
1570279753.40555
1570279753.42118
1570279753.4368
1570279753.45243
1570279753.46806
1570279753.48368
1570279753.49931
1570279753.51493
1570279753.53056
1570279753.54618
1570279753.56181
1570279753.57744
1570279753.59306
1570279753.60869
1570279753.62431
1570279753.63994
1570279753.65556
1570279753.67119
1570279753.68682
1570279753.70244
1570279753.71807
1570279753.73369
1570279753.74932
1570279753.76494
1570279753.78057
1570279753.7962
1570279753.81182
1570279753.82745
1570279753.84307
1570279753.8587
1570279753.87432
1570279753.88995
1570279753.90558
1570279753.9212
1570279753.93683
1570279753.95245
1570279753.96808
1570279753.9837
1570279753.99933
1570279754.01496
1570279754.03058
1570279754.04621
1570279754.06183
1570279754.07746
1570279754.09308
1570279754.10871
1570279754.12434
1570279754.13996
1570279754.15559
1570279754.17121
1570279754.18684
1570279754.20246
1570279754.21809
1570279754.23372
1570279754.24934
1570279754.26497
1570279754.28059
1570279754.29622
1570279754.31184
1570279754.32747
1570279754.3431
1570279754.35872
1570279754.37435
1570279754.38997
1570279754.4056
1570279754.42122
1570279754.43685
1570279754.45248
1570279754.4681
1570279754.48373
1570279754.49935
1570279754.51498
1570279754.5306
1570279754.54623
1570279754.56186
1570279754.57748
1570279754.59311
1570279754.60873
1570279754.62436
1570279754.63998
1570279754.65561
1570279754.67124
1570279754.68686
1570279754.70249
1570279754.71811
1570279754.73374
1570279754.74936
1570279754.76499
1570279754.78062
1570279754.79624
1570279754.81187
1570279754.82749
1570279754.84312
1570279754.85874
1570279754.87437
1570279754.89
1570279754.90562
1570279754.92125
1570279754.93687
1570279754.9525
1570279754.96813
1570279754.98375
1570279754.99938
1570279755.015
1570279755.03063
1570279755.04625
1570279755.06188
1570279755.07751
1570279755.09313
1570279755.10876
1570279755.12438
1570279755.14001
1570279755.15563
1570279755.17126
1570279755.18689
1570279755.20251
1570279755.21814
1570279755.23376
1570279755.24939
1570279755.26501
1570279755.28064
1570279755.29627
1570279755.31189
1570279755.32752
1570279755.34314
1570279755.35877
1570279755.37439
1570279755.39002
1570279755.40565
1570279755.42127
1570279755.4369
1570279755.45252
1570279755.46815
1570279755.48377
1570279755.4994
1570279755.51503
1570279755.53065
1570279755.54628
1570279755.5619
1570279755.57753
1570279755.59315
1570279755.60878
1570279755.62441
1570279755.64003
1570279755.65566
1570279755.67128
1570279755.68691
1570279755.70253
1570279755.71816
1570279755.73379
1570279755.74941
1570279755.76504
1570279755.78066
1570279755.79629
1570279755.81191
1570279755.82754
1570279755.84317
1570279755.85879
1570279755.87442
1570279755.89004
1570279755.90567
1570279755.92129
1570279755.93692
1570279755.95255
1570279755.96817
1570279755.9838
1570279755.99942
1570279756.01505
1570279756.03067
1570279756.0463
1570279756.06193
1570279756.07755
1570279756.09318
1570279756.1088
1570279756.12443
1570279756.14005
1570279756.15568
1570279756.17131
1570279756.18693
1570279756.20256
1570279756.21818
1570279756.23381
1570279756.24943
1570279756.26506
1570279756.28069
1570279756.29631
1570279756.31194
1570279756.32756
1570279756.34319
1570279756.35881
1570279756.37444
1570279756.39007
1570279756.40569
1570279756.42132
1570279756.43694
1570279756.45257
1570279756.46819
1570279756.48382
1570279756.49945
1570279756.51507
1570279756.5307
1570279756.54632
1570279756.56195
1570279756.57757
1570279756.5932
1570279756.60883
1570279756.62445
1570279756.64008
1570279756.6557
1570279756.67133
1570279756.68695
1570279756.70258
1570279756.71821
1570279756.73383
1570279756.74946
1570279756.76508
1570279756.78071
1570279756.79633
1570279756.81196
1570279756.82759
1570279756.84321
1570279756.85884
1570279756.87446
1570279756.89009
1570279756.90571
1570279756.92134
1570279756.93697
1570279756.95259
1570279756.96822
1570279756.98384
1570279756.99947
1570279757.01509
1570279757.03072
1570279757.04635
1570279757.06197
1570279757.0776
1570279757.09322
1570279757.10885
1570279757.12448
1570279757.1401
1570279757.15573
1570279757.17135
1570279757.18698
1570279757.2026
1570279757.21823
1570279757.23386
1570279757.24948
1570279757.26511
1570279757.28073
1570279757.29636
1570279757.31198
1570279757.32761
1570279757.34324
1570279757.35886
1570279757.37449
1570279757.39011
1570279757.40574
1570279757.42136
1570279757.43699
1570279757.45262
1570279757.46824
1570279757.48387
1570279757.49949
1570279757.51512
1570279757.53074
1570279757.54637
1570279757.562
1570279757.57762
1570279757.59325
1570279757.60887
1570279757.6245
1570279757.64012
1570279757.65575
1570279757.67138
1570279757.687
1570279757.70263
1570279757.71825
1570279757.73388
1570279757.7495
1570279757.76513
1570279757.78076
1570279757.79638
1570279757.81201
1570279757.82763
1570279757.84326
1570279757.85888
1570279757.87451
1570279757.89014
1570279757.90576
1570279757.92139
1570279757.93701
1570279757.95264
1570279757.96826
1570279757.98389
1570279757.99952
1570279758.01514
1570279758.03077
1570279758.04639
1570279758.06202
1570279758.07764
1570279758.09327
1570279758.1089
1570279758.12452
1570279758.14015
1570279758.15577
1570279758.1714
1570279758.18702
1570279758.20265
1570279758.21828
1570279758.2339
1570279758.24953
1570279758.26515
1570279758.28078
1570279758.2964
1570279758.31203
1570279758.32766
1570279758.34328
1570279758.35891
1570279758.37453
1570279758.39016
1570279758.40578
1570279758.42141
1570279758.43704
1570279758.45266
1570279758.46829
1570279758.48391
1570279758.49954
1570279758.51516
1570279758.53079
1570279758.54642
1570279758.56204
1570279758.57767
1570279758.59329
1570279758.60892
1570279758.62454
1570279758.64017
1570279758.6558
1570279758.67142
1570279758.68705
1570279758.70267
1570279758.7183
1570279758.73392
1570279758.74955
1570279758.76518
1570279758.7808
1570279758.79643
1570279758.81205
1570279758.82768
1570279758.8433
1570279758.85893
1570279758.87456
1570279758.89018
1570279758.90581
1570279758.92143
1570279758.93706
1570279758.95268
1570279758.96831
1570279758.98394
1570279758.99956
1570279759.01519
1570279759.03081
1570279759.04644
1570279759.06206
1570279759.07769
1570279759.09332
1570279759.10894
1570279759.12457
1570279759.14019
1570279759.15582
1570279759.17144
1570279759.18707
1570279759.2027
1570279759.21832
1570279759.23395
1570279759.24957
1570279759.2652
1570279759.28082
1570279759.29645
1570279759.31208
1570279759.3277
1570279759.34333
1570279759.35895
1570279759.37458
1570279759.3902
1570279759.40583
1570279759.42146
1570279759.43708
1570279759.45271
1570279759.46833
1570279759.48396
1570279759.49958
1570279759.51521
1570279759.53084
1570279759.54646
1570279759.56209
1570279759.57771
1570279759.59334
1570279759.60896
1570279759.62459
1570279759.64022
1570279759.65584
1570279759.67147
1570279759.68709
1570279759.70272
1570279759.71834
1570279759.73397
1570279759.7496
1570279759.76522
1570279759.78085
1570279759.79647
1570279759.8121
1570279759.82773
1570279759.84335
1570279759.85898
1570279759.8746
1570279759.89023
1570279759.90585
1570279759.92148
1570279759.93711
1570279759.95273
1570279759.96836
1570279759.98398
1570279759.99961
1570279760.01523
1570279760.03086
1570279760.04649
1570279760.06211
1570279760.07774
1570279760.09336
1570279760.10899
1570279760.12461
1570279760.14024
1570279760.15587
1570279760.17149
1570279760.18712
1570279760.20274
1570279760.21837
1570279760.23399
1570279760.24962
1570279760.26525
1570279760.28087
1570279760.2965
1570279760.31212
1570279760.32775
1570279760.34337
1570279760.359
1570279760.37463
1570279760.39025
1570279760.40588
1570279760.4215
1570279760.43713
1570279760.45275
1570279760.46838
1570279760.48401
1570279760.49963
1570279760.51526
1570279760.53088
1570279760.54651
1570279760.56213
1570279760.57776
1570279760.59339
1570279760.60901
1570279760.62464
1570279760.64026
1570279760.65589
1570279760.67151
1570279760.68714
1570279760.70277
1570279760.71839
1570279760.73402
1570279760.74964
1570279760.76527
1570279760.78089
1570279760.79652
1570279760.81215
1570279760.82777
1570279760.8434
1570279760.85902
1570279760.87465
1570279760.89027
1570279760.9059
1570279760.92153
1570279760.93715
1570279760.95278
1570279760.9684
1570279760.98403
1570279760.99965
1570279761.01528
1570279761.03091
1570279761.04653
1570279761.06216
1570279761.07778
1570279761.09341
1570279761.10903
1570279761.12466
1570279761.14029
1570279761.15591
1570279761.17154
1570279761.18716
1570279761.20279
1570279761.21841
1570279761.23404
1570279761.24967
1570279761.26529
1570279761.28092
1570279761.29654
1570279761.31217
1570279761.32779
1570279761.34342
1570279761.35905
1570279761.37467
1570279761.3903
1570279761.40592
1570279761.42155
1570279761.43717
1570279761.4528
1570279761.46843
1570279761.48405
1570279761.49968
1570279761.5153
1570279761.53093
1570279761.54655
1570279761.56218
1570279761.57781
1570279761.59343
1570279761.60906
1570279761.62468
1570279761.64031
1570279761.65593
1570279761.67156
1570279761.68719
1570279761.70281
1570279761.71844
1570279761.73406
1570279761.74969
1570279761.76531
1570279761.78094
1570279761.79657
1570279761.81219
1570279761.82782
1570279761.84344
1570279761.85907
1570279761.87469
1570279761.89032
1570279761.90595
1570279761.92157
1570279761.9372
1570279761.95282
1570279761.96845
1570279761.98408
1570279761.9997
1570279762.01533
1570279762.03095
1570279762.04658
1570279762.0622
1570279762.07783
1570279762.09346
1570279762.10908
1570279762.12471
1570279762.14033
1570279762.15596
1570279762.17158
1570279762.18721
1570279762.20284
1570279762.21846
1570279762.23409
1570279762.24971
1570279762.26534
1570279762.28096
1570279762.29659
1570279762.31222
1570279762.32784
1570279762.34347
1570279762.35909
1570279762.37472
1570279762.39034
1570279762.40597
1570279762.4216
1570279762.43722
1570279762.45285
1570279762.46847
1570279762.4841
1570279762.49972
1570279762.51535
1570279762.53098
1570279762.5466
1570279762.56223
1570279762.57785
1570279762.59348
1570279762.6091
1570279762.62473
1570279762.64036
1570279762.65598
1570279762.67161
1570279762.68723
1570279762.70286
1570279762.71848
1570279762.73411
1570279762.74974
1570279762.76536
1570279762.78099
1570279762.79661
1570279762.81224
1570279762.82786
1570279762.84349
1570279762.85912
1570279762.87474
1570279762.89037
1570279762.90599
1570279762.92162
1570279762.93724
1570279762.95287
1570279762.9685
1570279762.98412
1570279762.99975
1570279763.01537
1570279763.031
1570279763.04662
1570279763.06225
1570279763.07788
1570279763.0935
1570279763.10913
1570279763.12475
1570279763.14038
1570279763.156
1570279763.17163
1570279763.18726
1570279763.20288
1570279763.21851
1570279763.23413
1570279763.24976
1570279763.26538
1570279763.28101
1570279763.29664
1570279763.31226
1570279763.32789
1570279763.34351
1570279763.35914
1570279763.37476
1570279763.39039
1570279763.40602
1570279763.42164
1570279763.43727
1570279763.45289
1570279763.46852
1570279763.48414
1570279763.49977
1570279763.5154
1570279763.53102
1570279763.54665
1570279763.56227
1570279763.5779
1570279763.59352
1570279763.60915
1570279763.62478
1570279763.6404
1570279763.65603
1570279763.67165
1570279763.68728
1570279763.7029
1570279763.71853
1570279763.73416
1570279763.74978
1570279763.76541
1570279763.78103
1570279763.79666
1570279763.81228
1570279763.82791
1570279763.84354
1570279763.85916
1570279763.87479
1570279763.89041
1570279763.90604
1570279763.92166
1570279763.93729
1570279763.95292
1570279763.96854
1570279763.98417
1570279763.99979
1570279764.01542
1570279764.03104
1570279764.04667
1570279764.0623
1570279764.07792
1570279764.09355
1570279764.10917
1570279764.1248
1570279764.14042
1570279764.15605
1570279764.17168
1570279764.1873
1570279764.20293
1570279764.21855
1570279764.23418
1570279764.2498
1570279764.26543
1570279764.28106
1570279764.29668
1570279764.31231
1570279764.32793
1570279764.34356
1570279764.35918
1570279764.37481
1570279764.39044
1570279764.40606
1570279764.42169
1570279764.43731
1570279764.45294
1570279764.46856
1570279764.48419
1570279764.49982
1570279764.51544
1570279764.53107
1570279764.54669
1570279764.56232
1570279764.57794
1570279764.59357
1570279764.6092
1570279764.62482
1570279764.64045
1570279764.65607
1570279764.6717
1570279764.68733
1570279764.70295
1570279764.71858
1570279764.7342
1570279764.74983
1570279764.76545
1570279764.78108
1570279764.79671
1570279764.81233
1570279764.82796
1570279764.84358
1570279764.85921
1570279764.87483
1570279764.89046
1570279764.90609
1570279764.92171
1570279764.93734
1570279764.95296
1570279764.96859
1570279764.98421
1570279764.99984
1570279765.01547
1570279765.03109
1570279765.04672
1570279765.06234
1570279765.07797
1570279765.09359
1570279765.10922
1570279765.12485
1570279765.14047
1570279765.1561
1570279765.17172
1570279765.18735
1570279765.20297
1570279765.2186
1570279765.23423
1570279765.24985
1570279765.26548
1570279765.2811
1570279765.29673
1570279765.31235
1570279765.32798
1570279765.34361
1570279765.35923
1570279765.37486
1570279765.39048
1570279765.40611
1570279765.42173
1570279765.43736
1570279765.45299
1570279765.46861
1570279765.48424
1570279765.49986
1570279765.51549
1570279765.53111
1570279765.54674
1570279765.56237
1570279765.57799
1570279765.59362
1570279765.60924
1570279765.62487
1570279765.64049
1570279765.65612
1570279765.67175
1570279765.68737
1570279765.703
1570279765.71862
1570279765.73425
1570279765.74987
1570279765.7655
1570279765.78113
1570279765.79675
1570279765.81238
1570279765.828
1570279765.84363
1570279765.85925
1570279765.87488
1570279765.89051
1570279765.90613
1570279765.92176
1570279765.93738
1570279765.95301
1570279765.96863
1570279765.98426
1570279765.99989
1570279766.01551
1570279766.03114
1570279766.04676
1570279766.06239
1570279766.07801
1570279766.09364
1570279766.10927
1570279766.12489
1570279766.14052
1570279766.15614
1570279766.17177
1570279766.18739
1570279766.20302
1570279766.21865
1570279766.23427
1570279766.2499
1570279766.26552
1570279766.28115
1570279766.29677
1570279766.3124
1570279766.32803
1570279766.34365
1570279766.35928
1570279766.3749
1570279766.39053
1570279766.40615
1570279766.42178
1570279766.43741
1570279766.45303
1570279766.46866
1570279766.48428
1570279766.49991
1570279766.51553
1570279766.53116
1570279766.54679
1570279766.56241
1570279766.57804
1570279766.59366
1570279766.60929
1570279766.62491
1570279766.64054
1570279766.65617
1570279766.67179
1570279766.68742
1570279766.70304
1570279766.71867
1570279766.73429
1570279766.74992
1570279766.76555
1570279766.78117
1570279766.7968
1570279766.81242
1570279766.82805
1570279766.84367
1570279766.8593
1570279766.87493
1570279766.89055
1570279766.90618
1570279766.9218
1570279766.93743
1570279766.95306
1570279766.96868
1570279766.98431
1570279766.99993
1570279767.01556
1570279767.03118
1570279767.04681
1570279767.06244
1570279767.07806
1570279767.09369
1570279767.10931
1570279767.12494
1570279767.14056
1570279767.15619
1570279767.17182
1570279767.18744
1570279767.20307
1570279767.21869
1570279767.23432
1570279767.24994
1570279767.26557
1570279767.2812
1570279767.29682
1570279767.31245
1570279767.32807
1570279767.3437
1570279767.35932
1570279767.37495
1570279767.39058
1570279767.4062
1570279767.42183
1570279767.43745
1570279767.45308
1570279767.4687
1570279767.48433
1570279767.49996
1570279767.51558
1570279767.53121
1570279767.54683
1570279767.56246
1570279767.57808
1570279767.59371
1570279767.60934
1570279767.62496
1570279767.64059
1570279767.65621
1570279767.67184
1570279767.68746
1570279767.70309
1570279767.71872
1570279767.73434
1570279767.74997
1570279767.76559
1570279767.78122
1570279767.79684
1570279767.81247
1570279767.8281
1570279767.84372
1570279767.85935
1570279767.87497
1570279767.8906
1570279767.90622
1570279767.92185
1570279767.93748
1570279767.9531
1570279767.96873
1570279767.98435
1570279767.99998
1570279768.0156
1570279768.03123
1570279768.04686
1570279768.06248
1570279768.07811
1570279768.09373
1570279768.10936
1570279768.12498
1570279768.14061
1570279768.15624
1570279768.17186
1570279768.18749
1570279768.20311
1570279768.21874
1570279768.23436
1570279768.24999
1570279768.26562
1570279768.28124
1570279768.29687
1570279768.31249
1570279768.32812
1570279768.34374
1570279768.35937
1570279768.375
1570279768.39062
1570279768.40625
1570279768.42187
1570279768.4375
1570279768.45312
1570279768.46875
1570279768.48438
1570279768.5
1570279768.51563
1570279768.53125
1570279768.54688
1570279768.5625
1570279768.57813
1570279768.59376
1570279768.60938
1570279768.62501
1570279768.64063
1570279768.65626
1570279768.67188
1570279768.68751
1570279768.70314
1570279768.71876
1570279768.73439
1570279768.75001
1570279768.76564
1570279768.78126
1570279768.79689
1570279768.81252
1570279768.82814
1570279768.84377
1570279768.85939
1570279768.87502
1570279768.89064
1570279768.90627
1570279768.9219
1570279768.93752
1570279768.95315
1570279768.96877
1570279768.9844
1570279769.00002
1570279769.01565
1570279769.03128
1570279769.0469
1570279769.06253
1570279769.07815
1570279769.09378
1570279769.10941
1570279769.12503
1570279769.14066
1570279769.15628
1570279769.17191
1570279769.18753
1570279769.20316
1570279769.21879
1570279769.23441
1570279769.25004
1570279769.26566
1570279769.28129
1570279769.29691
1570279769.31254
1570279769.32817
1570279769.34379
1570279769.35942
1570279769.37504
1570279769.39067
1570279769.40629
1570279769.42192
1570279769.43755
1570279769.45317
1570279769.4688
1570279769.48442
1570279769.50005
1570279769.51567
1570279769.5313
1570279769.54693
1570279769.56255
1570279769.57818
1570279769.5938
1570279769.60943
1570279769.62505
1570279769.64068
1570279769.65631
1570279769.67193
1570279769.68756
1570279769.70318
1570279769.71881
1570279769.73443
1570279769.75006
1570279769.76569
1570279769.78131
1570279769.79694
1570279769.81256
1570279769.82819
1570279769.84381
1570279769.85944
1570279769.87507
1570279769.89069
1570279769.90632
1570279769.92194
1570279769.93757
1570279769.95319
1570279769.96882
1570279769.98445
1570279770.00007
1570279770.0157
1570279770.03132
1570279770.04695
1570279770.06257
1570279770.0782
1570279770.09383
1570279770.10945
1570279770.12508
1570279770.1407
1570279770.15633
1570279770.17195
1570279770.18758
1570279770.20321
1570279770.21883
1570279770.23446
1570279770.25008
1570279770.26571
1570279770.28133
1570279770.29696
1570279770.31259
1570279770.32821
1570279770.34384
1570279770.35946
1570279770.37509
1570279770.39071
1570279770.40634
1570279770.42197
1570279770.43759
1570279770.45322
1570279770.46884
1570279770.48447
1570279770.50009
1570279770.51572
1570279770.53135
1570279770.54697
1570279770.5626
1570279770.57822
1570279770.59385
1570279770.60947
1570279770.6251
1570279770.64073
1570279770.65635
1570279770.67198
1570279770.6876
1570279770.70323
1570279770.71885
1570279770.73448
1570279770.75011
1570279770.76573
1570279770.78136
1570279770.79698
1570279770.81261
1570279770.82823
1570279770.84386
1570279770.85949
1570279770.87511
1570279770.89074
1570279770.90636
1570279770.92199
1570279770.93761
1570279770.95324
1570279770.96887
1570279770.98449
1570279771.00012
1570279771.01574
1570279771.03137
1570279771.04699
1570279771.06262
1570279771.07825
1570279771.09387
1570279771.1095
1570279771.12512
1570279771.14075
1570279771.15637
1570279771.172
1570279771.18763
1570279771.20325
1570279771.21888
1570279771.2345
1570279771.25013
1570279771.26575
1570279771.28138
1570279771.29701
1570279771.31263
1570279771.32826
1570279771.34388
1570279771.35951
1570279771.37513
1570279771.39076
1570279771.40639
1570279771.42201
1570279771.43764
1570279771.45326
1570279771.46889
1570279771.48451
1570279771.50014
1570279771.51577
1570279771.53139
1570279771.54702
1570279771.56264
1570279771.57827
1570279771.59389
1570279771.60952
1570279771.62515
1570279771.64077
1570279771.6564
1570279771.67202
1570279771.68765
1570279771.70327
1570279771.7189
1570279771.73453
1570279771.75015
1570279771.76578
1570279771.7814
1570279771.79703
1570279771.81266
1570279771.82828
1570279771.84391
1570279771.85953
1570279771.87516
1570279771.89078
1570279771.90641
1570279771.92204
1570279771.93766
1570279771.95329
1570279771.96891
1570279771.98454
1570279772.00016
1570279772.01579
1570279772.03142
1570279772.04704
1570279772.06267
1570279772.07829
1570279772.09392
1570279772.10954
1570279772.12517
1570279772.1408
1570279772.15642
1570279772.17205
1570279772.18767
1570279772.2033
1570279772.21892
1570279772.23455
1570279772.25018
1570279772.2658
1570279772.28143
1570279772.29705
1570279772.31268
1570279772.3283
1570279772.34393
1570279772.35956
1570279772.37518
1570279772.39081
1570279772.40643
1570279772.42206
1570279772.43768
1570279772.45331
1570279772.46894
1570279772.48456
1570279772.50019
1570279772.51581
1570279772.53144
1570279772.54706
1570279772.56269
1570279772.57832
1570279772.59394
1570279772.60957
1570279772.62519
1570279772.64082
1570279772.65644
1570279772.67207
1570279772.6877
1570279772.70332
1570279772.71895
1570279772.73457
1570279772.7502
1570279772.76582
1570279772.78145
1570279772.79708
1570279772.8127
1570279772.82833
1570279772.84395
1570279772.85958
1570279772.8752
1570279772.89083
1570279772.90646
1570279772.92208
1570279772.93771
1570279772.95333
1570279772.96896
1570279772.98458
1570279773.00021
1570279773.01584
1570279773.03146
1570279773.04709
1570279773.06271
1570279773.07834
1570279773.09396
1570279773.10959
1570279773.12522
1570279773.14084
1570279773.15647
1570279773.17209
1570279773.18772
1570279773.20334
1570279773.21897
1570279773.2346
1570279773.25022
1570279773.26585
1570279773.28147
1570279773.2971
1570279773.31272
1570279773.32835
1570279773.34398
1570279773.3596
1570279773.37523
1570279773.39085
1570279773.40648
1570279773.4221
1570279773.43773
1570279773.45336
1570279773.46898
1570279773.48461
1570279773.50023
1570279773.51586
1570279773.53148
1570279773.54711
1570279773.56274
1570279773.57836
1570279773.59399
1570279773.60961
1570279773.62524
1570279773.64086
1570279773.65649
1570279773.67212
1570279773.68774
1570279773.70337
1570279773.71899
1570279773.73462
1570279773.75024
1570279773.76587
1570279773.7815
1570279773.79712
1570279773.81275
1570279773.82837
1570279773.844
1570279773.85962
1570279773.87525
1570279773.89088
1570279773.9065
1570279773.92213
1570279773.93775
1570279773.95338
1570279773.96901
1570279773.98463
1570279774.00026
1570279774.01588
1570279774.03151
1570279774.04713
1570279774.06276
1570279774.07839
1570279774.09401
1570279774.10964
1570279774.12526
1570279774.14089
1570279774.15651
1570279774.17214
1570279774.18777
1570279774.20339
1570279774.21902
1570279774.23464
1570279774.25027
1570279774.26589
1570279774.28152
1570279774.29715
1570279774.31277
1570279774.3284
1570279774.34402
1570279774.35965
1570279774.37527
1570279774.3909
1570279774.40653
1570279774.42215
1570279774.43778
1570279774.4534
1570279774.46903
1570279774.48465
1570279774.50028
1570279774.51591
1570279774.53153
1570279774.54716
1570279774.56278
1570279774.57841
1570279774.59403
1570279774.60966
1570279774.62529
1570279774.64091
1570279774.65654
1570279774.67216
1570279774.68779
1570279774.70341
1570279774.71904
1570279774.73467
1570279774.75029
1570279774.76592
1570279774.78154
1570279774.79717
1570279774.81279
1570279774.82842
1570279774.84405
1570279774.85967
1570279774.8753
1570279774.89092
1570279774.90655
1570279774.92217
1570279774.9378
1570279774.95343
1570279774.96905
1570279774.98468
1570279775.0003
1570279775.01593
1570279775.03155
1570279775.04718
1570279775.06281
1570279775.07843
1570279775.09406
1570279775.10968
1570279775.12531
1570279775.14093
1570279775.15656
1570279775.17219
1570279775.18781
1570279775.20344
1570279775.21906
1570279775.23469
1570279775.25031
1570279775.26594
1570279775.28157
1570279775.29719
1570279775.31282
1570279775.32844
1570279775.34407
1570279775.35969
1570279775.37532
1570279775.39095
1570279775.40657
1570279775.4222
1570279775.43782
1570279775.45345
1570279775.46907
1570279775.4847
1570279775.50033
1570279775.51595
1570279775.53158
1570279775.5472
1570279775.56283
1570279775.57845
1570279775.59408
1570279775.60971
1570279775.62533
1570279775.64096
1570279775.65658
1570279775.67221
1570279775.68783
1570279775.70346
1570279775.71909
1570279775.73471
1570279775.75034
1570279775.76596
1570279775.78159
1570279775.79721
1570279775.81284
1570279775.82847
1570279775.84409
1570279775.85972
1570279775.87534
1570279775.89097
1570279775.90659
1570279775.92222
1570279775.93785
1570279775.95347
1570279775.9691
1570279775.98472
1570279776.00035
1570279776.01597
1570279776.0316
1570279776.04723
1570279776.06285
1570279776.07848
1570279776.0941
1570279776.10973
1570279776.12535
1570279776.14098
1570279776.15661
1570279776.17223
1570279776.18786
1570279776.20348
1570279776.21911
1570279776.23474
1570279776.25036
1570279776.26599
1570279776.28161
1570279776.29724
1570279776.31286
1570279776.32849
1570279776.34412
1570279776.35974
1570279776.37537
1570279776.39099
1570279776.40662
1570279776.42224
1570279776.43787
1570279776.4535
1570279776.46912
1570279776.48475
1570279776.50037
1570279776.516
1570279776.53162
1570279776.54725
1570279776.56288
1570279776.5785
1570279776.59413
1570279776.60975
1570279776.62538
1570279776.641
1570279776.65663
1570279776.67226
1570279776.68788
1570279776.70351
1570279776.71913
1570279776.73476
1570279776.75038
1570279776.76601
1570279776.78164
1570279776.79726
1570279776.81289
1570279776.82851
1570279776.84414
1570279776.85976
1570279776.87539
1570279776.89102
1570279776.90664
1570279776.92227
1570279776.93789
1570279776.95352
1570279776.96914
1570279776.98477
1570279777.0004
1570279777.01602
1570279777.03165
1570279777.04727
1570279777.0629
1570279777.07852
1570279777.09415
1570279777.10978
1570279777.1254
1570279777.14103
1570279777.15665
1570279777.17228
1570279777.1879
1570279777.20353
1570279777.21916
1570279777.23478
1570279777.25041
1570279777.26603
1570279777.28166
1570279777.29728
1570279777.31291
1570279777.32854
1570279777.34416
1570279777.35979
1570279777.37541
1570279777.39104
1570279777.40666
1570279777.42229
1570279777.43792
1570279777.45354
1570279777.46917
1570279777.48479
1570279777.50042
1570279777.51604
1570279777.53167
1570279777.5473
1570279777.56292
1570279777.57855
1570279777.59417
1570279777.6098
1570279777.62542
1570279777.64105
1570279777.65668
1570279777.6723
1570279777.68793
1570279777.70355
1570279777.71918
1570279777.7348
1570279777.75043
1570279777.76606
1570279777.78168
1570279777.79731
1570279777.81293
1570279777.82856
1570279777.84418
1570279777.85981
1570279777.87544
1570279777.89106
1570279777.90669
1570279777.92231
1570279777.93794
1570279777.95356
1570279777.96919
1570279777.98482
1570279778.00044
1570279778.01607
1570279778.03169
1570279778.04732
1570279778.06294
1570279778.07857
1570279778.0942
1570279778.10982
1570279778.12545
1570279778.14107
1570279778.1567
1570279778.17232
1570279778.18795
1570279778.20358
1570279778.2192
1570279778.23483
1570279778.25045
1570279778.26608
1570279778.2817
1570279778.29733
1570279778.31296
1570279778.32858
1570279778.34421
1570279778.35983
1570279778.37546
1570279778.39108
1570279778.40671
1570279778.42234
1570279778.43796
1570279778.45359
1570279778.46921
1570279778.48484
1570279778.50046
1570279778.51609
1570279778.53172
1570279778.54734
1570279778.56297
1570279778.57859
1570279778.59422
1570279778.60984
1570279778.62547
1570279778.6411
1570279778.65672
1570279778.67235
1570279778.68797
1570279778.7036
1570279778.71922
1570279778.73485
1570279778.75048
1570279778.7661
1570279778.78173
1570279778.79735
1570279778.81298
1570279778.82861
1570279778.84423
1570279778.85986
1570279778.87548
1570279778.89111
1570279778.90673
1570279778.92236
1570279778.93799
1570279778.95361
1570279778.96924
1570279778.98486
1570279779.00049
1570279779.01611
1570279779.03174
1570279779.04737
1570279779.06299
1570279779.07862
1570279779.09424
1570279779.10987
1570279779.12549
1570279779.14112
1570279779.15675
1570279779.17237
1570279779.188
1570279779.20362
1570279779.21925
1570279779.23487
1570279779.2505
1570279779.26613
1570279779.28175
1570279779.29738
1570279779.313
1570279779.32863
1570279779.34425
1570279779.35988
1570279779.37551
1570279779.39113
1570279779.40676
1570279779.42238
1570279779.43801
1570279779.45363
1570279779.46926
1570279779.48489
1570279779.50051
1570279779.51614
1570279779.53176
1570279779.54739
1570279779.56301
1570279779.57864
1570279779.59427
1570279779.60989
1570279779.62552
1570279779.64114
1570279779.65677
1570279779.67239
1570279779.68802
1570279779.70365
1570279779.71927
1570279779.7349
1570279779.75052
1570279779.76615
1570279779.78177
1570279779.7974
1570279779.81303
1570279779.82865
1570279779.84428
1570279779.8599
1570279779.87553
1570279779.89115
1570279779.90678
1570279779.92241
1570279779.93803
1570279779.95366
1570279779.96928
1570279779.98491
1570279780.00053
1570279780.01616
1570279780.03179
1570279780.04741
1570279780.06304
1570279780.07866
1570279780.09429
1570279780.10991
1570279780.12554
1570279780.14117
1570279780.15679
1570279780.17242
1570279780.18804
1570279780.20367
1570279780.21929
1570279780.23492
1570279780.25055
1570279780.26617
1570279780.2818
1570279780.29742
1570279780.31305
1570279780.32867
1570279780.3443
1570279780.35993
1570279780.37555
1570279780.39118
1570279780.4068
1570279780.42243
1570279780.43805
1570279780.45368
1570279780.46931
1570279780.48493
1570279780.50056
1570279780.51618
1570279780.53181
1570279780.54743
1570279780.56306
1570279780.57869
1570279780.59431
1570279780.60994
1570279780.62556
1570279780.64119
1570279780.65681
1570279780.67244
1570279780.68807
1570279780.70369
1570279780.71932
1570279780.73494
1570279780.75057
1570279780.76619
1570279780.78182
1570279780.79745
1570279780.81307
1570279780.8287
1570279780.84432
1570279780.85995
1570279780.87557
1570279780.8912
1570279780.90683
1570279780.92245
1570279780.93808
1570279780.9537
1570279780.96933
1570279780.98495
1570279781.00058
1570279781.01621
1570279781.03183
1570279781.04746
1570279781.06308
1570279781.07871
1570279781.09434
1570279781.10996
1570279781.12559
1570279781.14121
1570279781.15684
1570279781.17246
1570279781.18809
1570279781.20372
1570279781.21934
1570279781.23497
1570279781.25059
1570279781.26622
1570279781.28184
1570279781.29747
1570279781.3131
1570279781.32872
1570279781.34435
1570279781.35997
1570279781.3756
1570279781.39122
1570279781.40685
1570279781.42248
1570279781.4381
1570279781.45373
1570279781.46935
1570279781.48498
1570279781.5006
1570279781.51623
1570279781.53186
1570279781.54748
1570279781.56311
1570279781.57873
1570279781.59436
1570279781.60998
1570279781.62561
1570279781.64124
1570279781.65686
1570279781.67249
1570279781.68811
1570279781.70374
1570279781.71936
1570279781.73499
1570279781.75062
1570279781.76624
1570279781.78187
1570279781.79749
1570279781.81312
1570279781.82874
1570279781.84437
1570279781.86
1570279781.87562
1570279781.89125
1570279781.90687
1570279781.9225
1570279781.93812
1570279781.95375
1570279781.96938
1570279781.985
1570279782.00063
1570279782.01625
1570279782.03188
1570279782.0475
1570279782.06313
1570279782.07876
1570279782.09438
1570279782.11001
1570279782.12563
1570279782.14126
1570279782.15688
1570279782.17251
1570279782.18814
1570279782.20376
1570279782.21939
1570279782.23501
1570279782.25064
1570279782.26626
1570279782.28189
1570279782.29752
1570279782.31314
1570279782.32877
1570279782.34439
1570279782.36002
1570279782.37564
1570279782.39127
1570279782.4069
1570279782.42252
1570279782.43815
1570279782.45377
1570279782.4694
1570279782.48502
1570279782.50065
1570279782.51628
1570279782.5319
1570279782.54753
1570279782.56315
1570279782.57878
1570279782.5944
1570279782.61003
1570279782.62566
1570279782.64128
1570279782.65691
1570279782.67253
1570279782.68816
1570279782.70378
1570279782.71941
1570279782.73504
1570279782.75066
1570279782.76629
1570279782.78191
1570279782.79754
1570279782.81316
1570279782.82879
1570279782.84442
1570279782.86004
1570279782.87567
1570279782.89129
1570279782.90692
1570279782.92254
1570279782.93817
1570279782.9538
1570279782.96942
1570279782.98505
1570279783.00067
1570279783.0163
1570279783.03192
1570279783.04755
1570279783.06318
1570279783.0788
1570279783.09443
1570279783.11005
1570279783.12568
1570279783.1413
1570279783.15693
1570279783.17256
1570279783.18818
1570279783.20381
1570279783.21943
1570279783.23506
1570279783.25068
1570279783.26631
1570279783.28194
1570279783.29756
1570279783.31319
1570279783.32881
1570279783.34444
1570279783.36006
1570279783.37569
1570279783.39132
1570279783.40694
1570279783.42257
1570279783.43819
1570279783.45382
1570279783.46944
1570279783.48507
1570279783.5007
1570279783.51632
1570279783.53195
1570279783.54757
1570279783.5632
1570279783.57883
1570279783.59445
1570279783.61008
1570279783.6257
1570279783.64133
1570279783.65695
1570279783.67258
1570279783.68821
1570279783.70383
1570279783.71946
1570279783.73508
1570279783.75071
1570279783.76633
1570279783.78196
1570279783.79759
1570279783.81321
1570279783.82884
1570279783.84446
1570279783.86009
1570279783.87571
1570279783.89134
1570279783.90697
1570279783.92259
1570279783.93822
1570279783.95384
1570279783.96947
1570279783.98509
1570279784.00072
1570279784.01635
1570279784.03197
1570279784.0476
1570279784.06322
1570279784.07885
1570279784.09447
1570279784.1101
1570279784.12573
1570279784.14135
1570279784.15698
1570279784.1726
1570279784.18823
1570279784.20385
1570279784.21948
1570279784.23511
1570279784.25073
1570279784.26636
1570279784.28198
1570279784.29761
1570279784.31323
1570279784.32886
1570279784.34449
1570279784.36011
1570279784.37574
1570279784.39136
1570279784.40699
1570279784.42261
1570279784.43824
1570279784.45387
1570279784.46949
1570279784.48512
1570279784.50074
1570279784.51637
1570279784.53199
1570279784.54762
1570279784.56325
1570279784.57887
1570279784.5945
1570279784.61012
1570279784.62575
1570279784.64137
1570279784.657
1570279784.67263
1570279784.68825
1570279784.70388
1570279784.7195
1570279784.73513
1570279784.75075
1570279784.76638
1570279784.78201
1570279784.79763
1570279784.81326
1570279784.82888
1570279784.84451
1570279784.86013
1570279784.87576
1570279784.89139
1570279784.90701
1570279784.92264
1570279784.93826
1570279784.95389
1570279784.96951
1570279784.98514
1570279785.00077
1570279785.01639
1570279785.03202
1570279785.04764
1570279785.06327
1570279785.07889
1570279785.09452
1570279785.11015
1570279785.12577
1570279785.1414
1570279785.15702
1570279785.17265
1570279785.18827
1570279785.2039
1570279785.21953
1570279785.23515
1570279785.25078
1570279785.2664
1570279785.28203
1570279785.29765
1570279785.31328
1570279785.32891
1570279785.34453
1570279785.36016
1570279785.37578
1570279785.39141
1570279785.40703
1570279785.42266
1570279785.43829
1570279785.45391
1570279785.46954
1570279785.48516
1570279785.50079
1570279785.51641
1570279785.53204
1570279785.54767
1570279785.56329
1570279785.57892
1570279785.59454
1570279785.61017
1570279785.62579
1570279785.64142
1570279785.65705
1570279785.67267
1570279785.6883
1570279785.70392
1570279785.71955
1570279785.73517
1570279785.7508
1570279785.76643
1570279785.78205
1570279785.79768
1570279785.8133
1570279785.82893
1570279785.84455
1570279785.86018
1570279785.87581
1570279785.89143
1570279785.90706
1570279785.92268
1570279785.93831
1570279785.95394
1570279785.96956
1570279785.98519
1570279786.00081
1570279786.01644
1570279786.03206
1570279786.04769
1570279786.06332
1570279786.07894
1570279786.09457
1570279786.11019
1570279786.12582
1570279786.14144
1570279786.15707
1570279786.1727
1570279786.18832
1570279786.20395
1570279786.21957
1570279786.2352
1570279786.25082
1570279786.26645
1570279786.28208
1570279786.2977
1570279786.31333
1570279786.32895
1570279786.34458
1570279786.3602
1570279786.37583
1570279786.39146
1570279786.40708
1570279786.42271
1570279786.43833
1570279786.45396
1570279786.46958
1570279786.48521
1570279786.50084
1570279786.51646
1570279786.53209
1570279786.54771
1570279786.56334
1570279786.57896
1570279786.59459
1570279786.61022
1570279786.62584
1570279786.64147
1570279786.65709
1570279786.67272
1570279786.68834
1570279786.70397
1570279786.7196
1570279786.73522
1570279786.75085
1570279786.76647
1570279786.7821
1570279786.79772
1570279786.81335
1570279786.82898
1570279786.8446
1570279786.86023
1570279786.87585
1570279786.89148
1570279786.9071
1570279786.92273
1570279786.93836
1570279786.95398
1570279786.96961
1570279786.98523
1570279787.00086
1570279787.01648
1570279787.03211
1570279787.04774
1570279787.06336
1570279787.07899
1570279787.09461
1570279787.11024
1570279787.12586
1570279787.14149
1570279787.15712
1570279787.17274
1570279787.18837
1570279787.20399
1570279787.21962
1570279787.23524
1570279787.25087
1570279787.2665
1570279787.28212
1570279787.29775
1570279787.31337
1570279787.329
1570279787.34462
1570279787.36025
1570279787.37588
1570279787.3915
1570279787.40713
1570279787.42275
1570279787.43838
1570279787.454
1570279787.46963
1570279787.48526
1570279787.50088
1570279787.51651
1570279787.53213
1570279787.54776
1570279787.56338
1570279787.57901
1570279787.59464
1570279787.61026
1570279787.62589
1570279787.64151
1570279787.65714
1570279787.67276
1570279787.68839
1570279787.70402
1570279787.71964
1570279787.73527
1570279787.75089
1570279787.76652
1570279787.78214
1570279787.79777
1570279787.8134
1570279787.82902
1570279787.84465
1570279787.86027
1570279787.8759
1570279787.89152
1570279787.90715
1570279787.92278
1570279787.9384
1570279787.95403
1570279787.96965
1570279787.98528
1570279788.0009
1570279788.01653
1570279788.03216
1570279788.04778
1570279788.06341
1570279788.07903
1570279788.09466
1570279788.11029
1570279788.12591
1570279788.14154
1570279788.15716
1570279788.17279
1570279788.18841
1570279788.20404
1570279788.21967
1570279788.23529
1570279788.25092
1570279788.26654
1570279788.28217
1570279788.29779
1570279788.31342
1570279788.32905
1570279788.34467
1570279788.3603
1570279788.37592
1570279788.39155
1570279788.40717
1570279788.4228
1570279788.43843
1570279788.45405
1570279788.46968
1570279788.4853
1570279788.50093
1570279788.51655
1570279788.53218
1570279788.54781
1570279788.56343
1570279788.57906
1570279788.59468
1570279788.61031
1570279788.62593
1570279788.64156
1570279788.65719
1570279788.67281
1570279788.68844
1570279788.70406
1570279788.71969
1570279788.73531
1570279788.75094
1570279788.76657
1570279788.78219
1570279788.79782
1570279788.81344
1570279788.82907
1570279788.84469
1570279788.86032
1570279788.87595
1570279788.89157
1570279788.9072
1570279788.92282
1570279788.93845
1570279788.95407
1570279788.9697
1570279788.98533
1570279789.00095
1570279789.01658
1570279789.0322
1570279789.04783
1570279789.06345
1570279789.07908
1570279789.09471
1570279789.11033
1570279789.12596
1570279789.14158
1570279789.15721
1570279789.17283
1570279789.18846
1570279789.20409
1570279789.21971
1570279789.23534
1570279789.25096
1570279789.26659
1570279789.28221
1570279789.29784
1570279789.31347
1570279789.32909
1570279789.34472
1570279789.36034
1570279789.37597
1570279789.39159
1570279789.40722
1570279789.42285
1570279789.43847
1570279789.4541
1570279789.46972
1570279789.48535
1570279789.50097
1570279789.5166
1570279789.53223
1570279789.54785
1570279789.56348
1570279789.5791
1570279789.59473
1570279789.61035
1570279789.62598
1570279789.64161
1570279789.65723
1570279789.67286
1570279789.68848
1570279789.70411
1570279789.71973
1570279789.73536
1570279789.75099
1570279789.76661
1570279789.78224
1570279789.79786
1570279789.81349
1570279789.82911
1570279789.84474
1570279789.86037
1570279789.87599
1570279789.89162
1570279789.90724
1570279789.92287
1570279789.93849
1570279789.95412
1570279789.96975
1570279789.98537
1570279790.001
1570279790.01662
1570279790.03225
1570279790.04787
1570279790.0635
1570279790.07913
1570279790.09475
1570279790.11038
1570279790.126
1570279790.14163
1570279790.15725
1570279790.17288
1570279790.18851
1570279790.20413
1570279790.21976
1570279790.23538
1570279790.25101
1570279790.26663
1570279790.28226
1570279790.29789
1570279790.31351
1570279790.32914
1570279790.34476
1570279790.36039
1570279790.37601
1570279790.39164
1570279790.40727
1570279790.42289
1570279790.43852
1570279790.45414
1570279790.46977
1570279790.48539
1570279790.50102
1570279790.51665
1570279790.53227
1570279790.5479
1570279790.56352
1570279790.57915
1570279790.59477
1570279790.6104
1570279790.62603
1570279790.64165
1570279790.65728
1570279790.6729
1570279790.68853
1570279790.70415
1570279790.71978
1570279790.73541
1570279790.75103
1570279790.76666
1570279790.78228
1570279790.79791
1570279790.81354
1570279790.82916
1570279790.84479
1570279790.86041
1570279790.87604
1570279790.89166
1570279790.90729
1570279790.92292
1570279790.93854
1570279790.95417
1570279790.96979
1570279790.98542
1570279791.00104
1570279791.01667
1570279791.0323
1570279791.04792
1570279791.06355
1570279791.07917
1570279791.0948
1570279791.11042
1570279791.12605
1570279791.14168
1570279791.1573
1570279791.17293
1570279791.18855
1570279791.20418
1570279791.2198
1570279791.23543
1570279791.25106
1570279791.26668
1570279791.28231
1570279791.29793
1570279791.31356
1570279791.32918
1570279791.34481
1570279791.36044
1570279791.37606
1570279791.39169
1570279791.40731
1570279791.42294
1570279791.43856
1570279791.45419
1570279791.46982
1570279791.48544
1570279791.50107
1570279791.51669
1570279791.53232
1570279791.54794
1570279791.56357
1570279791.5792
1570279791.59482
1570279791.61045
1570279791.62607
1570279791.6417
1570279791.65732
1570279791.67295
1570279791.68858
1570279791.7042
1570279791.71983
1570279791.73545
1570279791.75108
1570279791.7667
1570279791.78233
1570279791.79796
1570279791.81358
1570279791.82921
1570279791.84483
1570279791.86046
1570279791.87608
1570279791.89171
1570279791.90734
1570279791.92296
1570279791.93859
1570279791.95421
1570279791.96984
1570279791.98546
1570279792.00109
1570279792.01672
1570279792.03234
1570279792.04797
1570279792.06359
1570279792.07922
1570279792.09484
1570279792.11047
1570279792.1261
1570279792.14172
1570279792.15735
1570279792.17297
1570279792.1886
1570279792.20422
1570279792.21985
1570279792.23548
1570279792.2511
1570279792.26673
1570279792.28235
1570279792.29798
1570279792.3136
1570279792.32923
1570279792.34486
1570279792.36048
1570279792.37611
1570279792.39173
1570279792.40736
1570279792.42298
1570279792.43861
1570279792.45424
1570279792.46986
1570279792.48549
1570279792.50111
1570279792.51674
1570279792.53236
1570279792.54799
1570279792.56362
1570279792.57924
1570279792.59487
1570279792.61049
1570279792.62612
1570279792.64174
1570279792.65737
1570279792.673
1570279792.68862
1570279792.70425
1570279792.71987
1570279792.7355
1570279792.75112
1570279792.76675
1570279792.78238
1570279792.798
1570279792.81363
1570279792.82925
1570279792.84488
1570279792.8605
1570279792.87613
1570279792.89176
1570279792.90738
1570279792.92301
1570279792.93863
1570279792.95426
1570279792.96989
1570279792.98551
1570279793.00114
1570279793.01676
1570279793.03239
1570279793.04801
1570279793.06364
1570279793.07927
1570279793.09489
1570279793.11052
1570279793.12614
1570279793.14177
1570279793.15739
1570279793.17302
1570279793.18865
1570279793.20427
1570279793.2199
1570279793.23552
1570279793.25115
1570279793.26677
1570279793.2824
1570279793.29803
1570279793.31365
1570279793.32928
1570279793.3449
1570279793.36053
1570279793.37615
1570279793.39178
1570279793.40741
1570279793.42303
1570279793.43866
1570279793.45428
1570279793.46991
1570279793.48553
1570279793.50116
1570279793.51679
1570279793.53241
1570279793.54804
1570279793.56366
1570279793.57929
1570279793.59491
1570279793.61054
1570279793.62617
1570279793.64179
1570279793.65742
1570279793.67304
1570279793.68867
1570279793.70429
1570279793.71992
1570279793.73555
1570279793.75117
1570279793.7668
1570279793.78242
1570279793.79805
1570279793.81367
1570279793.8293
1570279793.84493
1570279793.86055
1570279793.87618
1570279793.8918
1570279793.90743
1570279793.92305
1570279793.93868
1570279793.95431
1570279793.96993
1570279793.98556
1570279794.00118
1570279794.01681
1570279794.03243
1570279794.04806
1570279794.06369
1570279794.07931
1570279794.09494
1570279794.11056
1570279794.12619
1570279794.14181
1570279794.15744
1570279794.17307
1570279794.18869
1570279794.20432
1570279794.21994
1570279794.23557
1570279794.25119
1570279794.26682
1570279794.28245
1570279794.29807
1570279794.3137
1570279794.32932
1570279794.34495
1570279794.36057
1570279794.3762
1570279794.39183
1570279794.40745
1570279794.42308
1570279794.4387
1570279794.45433
1570279794.46995
1570279794.48558
1570279794.50121
1570279794.51683
1570279794.53246
1570279794.54808
1570279794.56371
1570279794.57933
1570279794.59496
1570279794.61059
1570279794.62621
1570279794.64184
1570279794.65746
1570279794.67309
1570279794.68871
1570279794.70434
1570279794.71997
1570279794.73559
1570279794.75122
1570279794.76684
1570279794.78247
1570279794.79809
1570279794.81372
1570279794.82935
1570279794.84497
1570279794.8606
1570279794.87622
1570279794.89185
1570279794.90747
1570279794.9231
1570279794.93873
1570279794.95435
1570279794.96998
1570279794.9856
1570279795.00123
1570279795.01685
1570279795.03248
1570279795.04811
1570279795.06373
1570279795.07936
1570279795.09498
1570279795.11061
1570279795.12623
1570279795.14186
1570279795.15749
1570279795.17311
1570279795.18874
1570279795.20436
1570279795.21999
1570279795.23562
1570279795.25124
1570279795.26687
1570279795.28249
1570279795.29812
1570279795.31374
1570279795.32937
1570279795.345
1570279795.36062
1570279795.37625
1570279795.39187
1570279795.4075
1570279795.42312
1570279795.43875
1570279795.45438
1570279795.47
1570279795.48563
1570279795.50125
1570279795.51688
1570279795.5325
1570279795.54813
1570279795.56376
1570279795.57938
1570279795.59501
1570279795.61063
1570279795.62626
1570279795.64188
1570279795.65751
1570279795.67314
1570279795.68876
1570279795.70439
1570279795.72001
1570279795.73564
1570279795.75126
1570279795.76689
1570279795.78252
1570279795.79814
1570279795.81377
1570279795.82939
1570279795.84502
1570279795.86064
1570279795.87627
1570279795.8919
1570279795.90752
1570279795.92315
1570279795.93877
1570279795.9544
1570279795.97002
1570279795.98565
1570279796.00128
1570279796.0169
1570279796.03253
1570279796.04815
1570279796.06378
1570279796.0794
1570279796.09503
1570279796.11066
1570279796.12628
1570279796.14191
1570279796.15753
1570279796.17316
1570279796.18878
1570279796.20441
1570279796.22004
1570279796.23566
1570279796.25129
1570279796.26691
1570279796.28254
1570279796.29816
1570279796.31379
1570279796.32942
1570279796.34504
1570279796.36067
1570279796.37629
1570279796.39192
1570279796.40754
1570279796.42317
1570279796.4388
1570279796.45442
1570279796.47005
1570279796.48567
1570279796.5013
1570279796.51692
1570279796.53255
1570279796.54818
1570279796.5638
1570279796.57943
1570279796.59505
1570279796.61068
1570279796.6263
1570279796.64193
1570279796.65756
1570279796.67318
1570279796.68881
1570279796.70443
1570279796.72006
1570279796.73568
1570279796.75131
1570279796.76694
1570279796.78256
1570279796.79819
1570279796.81381
1570279796.82944
1570279796.84506
1570279796.86069
1570279796.87632
1570279796.89194
1570279796.90757
1570279796.92319
1570279796.93882
1570279796.95444
1570279796.97007
1570279796.9857
1570279797.00132
1570279797.01695
1570279797.03257
1570279797.0482
1570279797.06382
1570279797.07945
1570279797.09508
1570279797.1107
1570279797.12633
1570279797.14195
1570279797.15758
1570279797.1732
1570279797.18883
1570279797.20446
1570279797.22008
1570279797.23571
1570279797.25133
1570279797.26696
1570279797.28258
1570279797.29821
1570279797.31384
1570279797.32946
1570279797.34509
1570279797.36071
1570279797.37634
1570279797.39196
1570279797.40759
1570279797.42322
1570279797.43884
1570279797.45447
1570279797.47009
1570279797.48572
1570279797.50134
1570279797.51697
1570279797.5326
1570279797.54822
1570279797.56385
1570279797.57947
1570279797.5951
1570279797.61072
1570279797.62635
1570279797.64198
1570279797.6576
1570279797.67323
1570279797.68885
1570279797.70448
1570279797.7201
1570279797.73573
1570279797.75136
1570279797.76698
1570279797.78261
1570279797.79823
1570279797.81386
1570279797.82948
1570279797.84511
1570279797.86074
1570279797.87636
1570279797.89199
1570279797.90761
1570279797.92324
1570279797.93887
1570279797.95449
1570279797.97012
1570279797.98574
1570279798.00137
1570279798.01699
1570279798.03262
1570279798.04825
1570279798.06387
1570279798.0795
1570279798.09512
1570279798.11075
1570279798.12637
1570279798.142
1570279798.15763
1570279798.17325
1570279798.18888
1570279798.2045
1570279798.22013
1570279798.23575
1570279798.25138
1570279798.26701
1570279798.28263
1570279798.29826
1570279798.31388
1570279798.32951
1570279798.34513
1570279798.36076
1570279798.37639
1570279798.39201
1570279798.40764
1570279798.42326
1570279798.43889
1570279798.45451
1570279798.47014
1570279798.48577
1570279798.50139
1570279798.51702
1570279798.53264
1570279798.54827
1570279798.56389
1570279798.57952
1570279798.59515
1570279798.61077
1570279798.6264
1570279798.64202
1570279798.65765
1570279798.67327
1570279798.6889
1570279798.70453
1570279798.72015
1570279798.73578
1570279798.7514
1570279798.76703
1570279798.78265
1570279798.79828
1570279798.81391
1570279798.82953
1570279798.84516
1570279798.86078
1570279798.87641
1570279798.89203
1570279798.90766
1570279798.92329
1570279798.93891
1570279798.95454
1570279798.97016
1570279798.98579
1570279799.00141
1570279799.01704
1570279799.03267
1570279799.04829
1570279799.06392
1570279799.07954
1570279799.09517
1570279799.11079
1570279799.12642
1570279799.14205
1570279799.15767
1570279799.1733
1570279799.18892
1570279799.20455
1570279799.22017
1570279799.2358
1570279799.25143
1570279799.26705
1570279799.28268
1570279799.2983
1570279799.31393
1570279799.32955
1570279799.34518
1570279799.36081
1570279799.37643
1570279799.39206
1570279799.40768
1570279799.42331
1570279799.43893
1570279799.45456
1570279799.47019
1570279799.48581
1570279799.50144
1570279799.51706
1570279799.53269
1570279799.54831
1570279799.56394
1570279799.57957
1570279799.59519
1570279799.61082
1570279799.62644
1570279799.64207
1570279799.65769
1570279799.67332
1570279799.68895
1570279799.70457
1570279799.7202
1570279799.73582
1570279799.75145
1570279799.76707
1570279799.7827
1570279799.79833
1570279799.81395
1570279799.82958
1570279799.8452
1570279799.86083
1570279799.87645
1570279799.89208
1570279799.90771
1570279799.92333
1570279799.93896
1570279799.95458
1570279799.97021
1570279799.98583
1570279800.00146
1570279800.01709
1570279800.03271
1570279800.04834
1570279800.06396
1570279800.07959
1570279800.09522
1570279800.11084
1570279800.12647
1570279800.14209
1570279800.15772
1570279800.17334
1570279800.18897
1570279800.2046
1570279800.22022
1570279800.23585
1570279800.25147
1570279800.2671
1570279800.28272
1570279800.29835
1570279800.31398
1570279800.3296
1570279800.34523
1570279800.36085
1570279800.37648
1570279800.3921
1570279800.40773
1570279800.42336
1570279800.43898
1570279800.45461
1570279800.47023
1570279800.48586
1570279800.50148
1570279800.51711
1570279800.53274
1570279800.54836
1570279800.56399
1570279800.57961
1570279800.59524
1570279800.61086
1570279800.62649
1570279800.64212
1570279800.65774
1570279800.67337
1570279800.68899
1570279800.70462
1570279800.72024
1570279800.73587
1570279800.7515
1570279800.76712
1570279800.78275
1570279800.79837
1570279800.814
1570279800.82962
1570279800.84525
1570279800.86088
1570279800.8765
1570279800.89213
1570279800.90775
1570279800.92338
1570279800.939
1570279800.95463
1570279800.97026
1570279800.98588
1570279801.00151
1570279801.01713
1570279801.03276
1570279801.04838
1570279801.06401
1570279801.07964
1570279801.09526
1570279801.11089
1570279801.12651
1570279801.14214
1570279801.15776
1570279801.17339
1570279801.18902
1570279801.20464
1570279801.22027
1570279801.23589
1570279801.25152
1570279801.26714
1570279801.28277
1570279801.2984
1570279801.31402
1570279801.32965
1570279801.34527
1570279801.3609
1570279801.37652
1570279801.39215
1570279801.40778
1570279801.4234
1570279801.43903
1570279801.45465
1570279801.47028
1570279801.4859
1570279801.50153
1570279801.51716
1570279801.53278
1570279801.54841
1570279801.56403
1570279801.57966
1570279801.59528
1570279801.61091
1570279801.62654
1570279801.64216
1570279801.65779
1570279801.67341
1570279801.68904
1570279801.70466
1570279801.72029
1570279801.73592
1570279801.75154
1570279801.76717
1570279801.78279
1570279801.79842
1570279801.81404
1570279801.82967
1570279801.8453
1570279801.86092
1570279801.87655
1570279801.89217
1570279801.9078
1570279801.92342
1570279801.93905
1570279801.95468
1570279801.9703
1570279801.98593
1570279802.00155
1570279802.01718
1570279802.0328
1570279802.04843
1570279802.06406
1570279802.07968
1570279802.09531
1570279802.11093
1570279802.12656
1570279802.14218
1570279802.15781
1570279802.17344
1570279802.18906
1570279802.20469
1570279802.22031
1570279802.23594
1570279802.25156
1570279802.26719
1570279802.28282
1570279802.29844
1570279802.31407
1570279802.32969
1570279802.34532
1570279802.36094
1570279802.37657
1570279802.3922
1570279802.40782
1570279802.42345
1570279802.43907
1570279802.4547
1570279802.47032
1570279802.48595
1570279802.50158
1570279802.5172
1570279802.53283
1570279802.54845
1570279802.56408
1570279802.57971
1570279802.59533
1570279802.61096
1570279802.62658
1570279802.64221
1570279802.65783
1570279802.67346
1570279802.68909
1570279802.70471
1570279802.72034
1570279802.73596
1570279802.75159
1570279802.76721
1570279802.78284
1570279802.79847
1570279802.81409
1570279802.82972
1570279802.84534
1570279802.86097
1570279802.87659
1570279802.89222
1570279802.90785
1570279802.92347
1570279802.9391
1570279802.95472
1570279802.97035
1570279802.98597
1570279803.0016
1570279803.01723
1570279803.03285
1570279803.04848
1570279803.0641
1570279803.07973
1570279803.09535
1570279803.11098
1570279803.12661
1570279803.14223
1570279803.15786
1570279803.17348
1570279803.18911
1570279803.20473
1570279803.22036
1570279803.23599
1570279803.25161
1570279803.26724
1570279803.28286
1570279803.29849
1570279803.31411
1570279803.32974
1570279803.34537
1570279803.36099
1570279803.37662
1570279803.39224
1570279803.40787
1570279803.42349
1570279803.43912
1570279803.45475
1570279803.47037
1570279803.486
1570279803.50162
1570279803.51725
1570279803.53287
1570279803.5485
1570279803.56413
1570279803.57975
1570279803.59538
1570279803.611
1570279803.62663
1570279803.64225
1570279803.65788
1570279803.67351
1570279803.68913
1570279803.70476
1570279803.72038
1570279803.73601
1570279803.75163
1570279803.76726
1570279803.78289
1570279803.79851
1570279803.81414
1570279803.82976
1570279803.84539
1570279803.86101
1570279803.87664
1570279803.89227
1570279803.90789
1570279803.92352
1570279803.93914
1570279803.95477
1570279803.97039
1570279803.98602
1570279804.00165
1570279804.01727
1570279804.0329
1570279804.04852
1570279804.06415
1570279804.07977
1570279804.0954
1570279804.11103
1570279804.12665
1570279804.14228
1570279804.1579
1570279804.17353
1570279804.18915
1570279804.20478
1570279804.22041
1570279804.23603
1570279804.25166
1570279804.26728
1570279804.28291
1570279804.29853
1570279804.31416
1570279804.32979
1570279804.34541
1570279804.36104
1570279804.37666
1570279804.39229
1570279804.40791
1570279804.42354
1570279804.43917
1570279804.45479
1570279804.47042
1570279804.48604
1570279804.50167
1570279804.51729
1570279804.53292
1570279804.54855
1570279804.56417
1570279804.5798
1570279804.59542
1570279804.61105
1570279804.62667
1570279804.6423
1570279804.65793
1570279804.67355
1570279804.68918
1570279804.7048
1570279804.72043
1570279804.73605
1570279804.75168
1570279804.76731
1570279804.78293
1570279804.79856
1570279804.81418
1570279804.82981
1570279804.84543
1570279804.86106
1570279804.87669
1570279804.89231
1570279804.90794
1570279804.92356
1570279804.93919
1570279804.95482
1570279804.97044
1570279804.98607
1570279805.00169
1570279805.01732
1570279805.03294
1570279805.04857
1570279805.0642
1570279805.07982
1570279805.09545
1570279805.11107
1570279805.1267
1570279805.14232
1570279805.15795
1570279805.17358
1570279805.1892
1570279805.20483
1570279805.22045
1570279805.23608
1570279805.2517
1570279805.26733
1570279805.28296
1570279805.29858
1570279805.31421
1570279805.32983
1570279805.34546
1570279805.36108
1570279805.37671
1570279805.39234
1570279805.40796
1570279805.42359
1570279805.43921
1570279805.45484
1570279805.47046
1570279805.48609
1570279805.50172
1570279805.51734
1570279805.53297
1570279805.54859
1570279805.56422
1570279805.57984
1570279805.59547
1570279805.6111
1570279805.62672
1570279805.64235
1570279805.65797
1570279805.6736
1570279805.68922
1570279805.70485
1570279805.72048
1570279805.7361
1570279805.75173
1570279805.76735
1570279805.78298
1570279805.7986
1570279805.81423
1570279805.82986
1570279805.84548
1570279805.86111
1570279805.87673
1570279805.89236
1570279805.90798
1570279805.92361
1570279805.93924
1570279805.95486
1570279805.97049
1570279805.98611
1570279806.00174
1570279806.01736
1570279806.03299
1570279806.04862
1570279806.06424
1570279806.07987
1570279806.09549
1570279806.11112
1570279806.12674
1570279806.14237
1570279806.158
1570279806.17362
1570279806.18925
1570279806.20487
1570279806.2205
1570279806.23612
1570279806.25175
1570279806.26738
1570279806.283
1570279806.29863
1570279806.31425
1570279806.32988
1570279806.3455
1570279806.36113
1570279806.37676
1570279806.39238
1570279806.40801
1570279806.42363
1570279806.43926
1570279806.45488
1570279806.47051
1570279806.48614
1570279806.50176
1570279806.51739
1570279806.53301
1570279806.54864
1570279806.56426
1570279806.57989
1570279806.59552
1570279806.61114
1570279806.62677
1570279806.64239
1570279806.65802
1570279806.67364
1570279806.68927
1570279806.7049
1570279806.72052
1570279806.73615
1570279806.75177
1570279806.7674
1570279806.78302
1570279806.79865
1570279806.81428
1570279806.8299
1570279806.84553
1570279806.86115
1570279806.87678
1570279806.8924
1570279806.90803
1570279806.92366
1570279806.93928
1570279806.95491
1570279806.97053
1570279806.98616
1570279807.00178
1570279807.01741
1570279807.03304
1570279807.04866
1570279807.06429
1570279807.07991
1570279807.09554
1570279807.11116
1570279807.12679
1570279807.14242
1570279807.15804
1570279807.17367
1570279807.18929
1570279807.20492
1570279807.22055
1570279807.23617
1570279807.2518
1570279807.26742
1570279807.28305
1570279807.29867
1570279807.3143
1570279807.32993
1570279807.34555
1570279807.36118
1570279807.3768
1570279807.39243
1570279807.40805
1570279807.42368
1570279807.43931
1570279807.45493
1570279807.47056
1570279807.48618
1570279807.50181
1570279807.51743
1570279807.53306
1570279807.54869
1570279807.56431
1570279807.57994
1570279807.59556
1570279807.61119
1570279807.62681
1570279807.64244
1570279807.65807
1570279807.67369
1570279807.68932
1570279807.70494
1570279807.72057
1570279807.73619
1570279807.75182
1570279807.76745
1570279807.78307
1570279807.7987
1570279807.81432
1570279807.82995
1570279807.84557
1570279807.8612
1570279807.87683
1570279807.89245
1570279807.90808
1570279807.9237
1570279807.93933
1570279807.95495
1570279807.97058
1570279807.98621
1570279808.00183
1570279808.01746
1570279808.03308
1570279808.04871
1570279808.06433
1570279808.07996
1570279808.09559
1570279808.11121
1570279808.12684
1570279808.14246
1570279808.15809
1570279808.17371
1570279808.18934
1570279808.20497
1570279808.22059
1570279808.23622
1570279808.25184
1570279808.26747
1570279808.28309
1570279808.29872
1570279808.31435
1570279808.32997
1570279808.3456
1570279808.36122
1570279808.37685
1570279808.39247
1570279808.4081
1570279808.42373
1570279808.43935
1570279808.45498
1570279808.4706
1570279808.48623
1570279808.50185
1570279808.51748
1570279808.53311
1570279808.54873
1570279808.56436
1570279808.57998
1570279808.59561
1570279808.61123
1570279808.62686
1570279808.64249
1570279808.65811
1570279808.67374
1570279808.68936
1570279808.70499
1570279808.72061
1570279808.73624
1570279808.75187
1570279808.76749
1570279808.78312
1570279808.79874
1570279808.81437
1570279808.82999
1570279808.84562
1570279808.86125
1570279808.87687
1570279808.8925
1570279808.90812
1570279808.92375
1570279808.93937
1570279808.955
1570279808.97063
1570279808.98625
1570279809.00188
1570279809.0175
1570279809.03313
1570279809.04875
1570279809.06438
1570279809.08001
1570279809.09563
1570279809.11126
1570279809.12688
1570279809.14251
1570279809.15813
1570279809.17376
1570279809.18939
1570279809.20501
1570279809.22064
1570279809.23626
1570279809.25189
1570279809.26751
1570279809.28314
1570279809.29877
1570279809.31439
1570279809.33002
1570279809.34564
1570279809.36127
1570279809.37689
1570279809.39252
1570279809.40815
1570279809.42377
1570279809.4394
1570279809.45502
1570279809.47065
1570279809.48627
1570279809.5019
1570279809.51753
1570279809.53315
1570279809.54878
1570279809.5644
1570279809.58003
1570279809.59565
1570279809.61128
1570279809.62691
1570279809.64253
1570279809.65816
1570279809.67378
1570279809.68941
1570279809.70503
1570279809.72066
1570279809.73629
1570279809.75191
1570279809.76754
1570279809.78316
1570279809.79879
1570279809.81442
1570279809.83004
1570279809.84567
1570279809.86129
1570279809.87692
1570279809.89254
1570279809.90817
1570279809.9238
1570279809.93942
1570279809.95505
1570279809.97067
1570279809.9863
1570279810.00192
1570279810.01755
1570279810.03318
1570279810.0488
1570279810.06443
1570279810.08005
1570279810.09568
1570279810.1113
1570279810.12693
1570279810.14256
1570279810.15818
1570279810.17381
1570279810.18943
1570279810.20506
1570279810.22068
1570279810.23631
1570279810.25194
1570279810.26756
1570279810.28319
1570279810.29881
1570279810.31444
1570279810.33006
1570279810.34569
1570279810.36132
1570279810.37694
1570279810.39257
1570279810.40819
1570279810.42382
1570279810.43944
1570279810.45507
1570279810.4707
1570279810.48632
1570279810.50195
1570279810.51757
1570279810.5332
1570279810.54882
1570279810.56445
1570279810.58008
1570279810.5957
1570279810.61133
1570279810.62695
1570279810.64258
1570279810.6582
1570279810.67383
1570279810.68946
1570279810.70508
1570279810.72071
1570279810.73633
1570279810.75196
1570279810.76758
1570279810.78321
1570279810.79884
1570279810.81446
1570279810.83009
1570279810.84571
1570279810.86134
1570279810.87696
1570279810.89259
1570279810.90822
1570279810.92384
1570279810.93947
1570279810.95509
1570279810.97072
1570279810.98634
1570279811.00197
1570279811.0176
1570279811.03322
1570279811.04885
1570279811.06447
1570279811.0801
1570279811.09572
1570279811.11135
1570279811.12698
1570279811.1426
1570279811.15823
1570279811.17385
1570279811.18948
1570279811.2051
1570279811.22073
1570279811.23636
1570279811.25198
1570279811.26761
1570279811.28323
1570279811.29886
1570279811.31448
1570279811.33011
1570279811.34574
1570279811.36136
1570279811.37699
1570279811.39261
1570279811.40824
1570279811.42386
1570279811.43949
1570279811.45512
1570279811.47074
1570279811.48637
1570279811.50199
1570279811.51762
1570279811.53324
1570279811.54887
1570279811.5645
1570279811.58012
1570279811.59575
1570279811.61137
1570279811.627
1570279811.64262
1570279811.65825
1570279811.67388
1570279811.6895
1570279811.70513
1570279811.72075
1570279811.73638
1570279811.752
1570279811.76763
1570279811.78326
1570279811.79888
1570279811.81451
1570279811.83013
1570279811.84576
1570279811.86138
1570279811.87701
1570279811.89264
1570279811.90826
1570279811.92389
1570279811.93951
1570279811.95514
1570279811.97076
1570279811.98639
1570279812.00202
1570279812.01764
1570279812.03327
1570279812.04889
1570279812.06452
1570279812.08015
1570279812.09577
1570279812.1114
1570279812.12702
1570279812.14265
1570279812.15827
1570279812.1739
1570279812.18953
1570279812.20515
1570279812.22078
1570279812.2364
1570279812.25203
1570279812.26765
1570279812.28328
1570279812.29891
1570279812.31453
1570279812.33016
1570279812.34578
1570279812.36141
1570279812.37703
1570279812.39266
1570279812.40829
1570279812.42391
1570279812.43954
1570279812.45516
1570279812.47079
1570279812.48641
1570279812.50204
1570279812.51767
1570279812.53329
1570279812.54892
1570279812.56454
1570279812.58017
1570279812.59579
1570279812.61142
1570279812.62705
1570279812.64267
1570279812.6583
1570279812.67392
1570279812.68955
1570279812.70517
1570279812.7208
1570279812.73643
1570279812.75205
1570279812.76768
1570279812.7833
1570279812.79893
1570279812.81455
1570279812.83018
1570279812.84581
1570279812.86143
1570279812.87706
1570279812.89268
1570279812.90831
1570279812.92393
1570279812.93956
1570279812.95519
1570279812.97081
1570279812.98644
1570279813.00206
1570279813.01769
1570279813.03331
1570279813.04894
1570279813.06457
1570279813.08019
1570279813.09582
1570279813.11144
1570279813.12707
1570279813.14269
1570279813.15832
1570279813.17395
1570279813.18957
1570279813.2052
1570279813.22082
1570279813.23645
1570279813.25207
1570279813.2677
1570279813.28333
1570279813.29895
1570279813.31458
1570279813.3302
1570279813.34583
1570279813.36145
1570279813.37708
1570279813.39271
1570279813.40833
1570279813.42396
1570279813.43958
1570279813.45521
1570279813.47083
1570279813.48646
1570279813.50209
1570279813.51771
1570279813.53334
1570279813.54896
1570279813.56459
1570279813.58021
1570279813.59584
1570279813.61147
1570279813.62709
1570279813.64272
1570279813.65834
1570279813.67397
1570279813.68959
1570279813.70522
1570279813.72085
1570279813.73647
1570279813.7521
1570279813.76772
1570279813.78335
1570279813.79897
1570279813.8146
1570279813.83023
1570279813.84585
1570279813.86148
1570279813.8771
1570279813.89273
1570279813.90835
1570279813.92398
1570279813.93961
1570279813.95523
1570279813.97086
1570279813.98648
1570279814.00211
1570279814.01773
1570279814.03336
1570279814.04899
1570279814.06461
1570279814.08024
1570279814.09586
1570279814.11149
1570279814.12711
1570279814.14274
1570279814.15837
1570279814.17399
1570279814.18962
1570279814.20524
1570279814.22087
1570279814.2365
1570279814.25212
1570279814.26775
1570279814.28337
1570279814.299
1570279814.31462
1570279814.33025
1570279814.34588
1570279814.3615
1570279814.37713
1570279814.39275
1570279814.40838
1570279814.424
1570279814.43963
1570279814.45526
1570279814.47088
1570279814.48651
1570279814.50213
1570279814.51776
1570279814.53338
1570279814.54901
1570279814.56464
1570279814.58026
1570279814.59589
1570279814.61151
1570279814.62714
1570279814.64276
1570279814.65839
1570279814.67402
1570279814.68964
1570279814.70527
1570279814.72089
1570279814.73652
1570279814.75214
1570279814.76777
1570279814.7834
1570279814.79902
1570279814.81465
1570279814.83027
1570279814.8459
1570279814.86152
1570279814.87715
1570279814.89278
1570279814.9084
1570279814.92403
1570279814.93965
1570279814.95528
1570279814.9709
1570279814.98653
1570279815.00216
1570279815.01778
1570279815.03341
1570279815.04903
1570279815.06466
1570279815.08028
1570279815.09591
1570279815.11154
1570279815.12716
1570279815.14279
1570279815.15841
1570279815.17404
1570279815.18966
1570279815.20529
1570279815.22092
1570279815.23654
1570279815.25217
1570279815.26779
1570279815.28342
1570279815.29904
1570279815.31467
1570279815.3303
1570279815.34592
1570279815.36155
1570279815.37717
1570279815.3928
1570279815.40842
1570279815.42405
1570279815.43968
1570279815.4553
1570279815.47093
1570279815.48655
1570279815.50218
1570279815.5178
1570279815.53343
1570279815.54906
1570279815.56468
1570279815.58031
1570279815.59593
1570279815.61156
1570279815.62718
1570279815.64281
1570279815.65844
1570279815.67406
1570279815.68969
1570279815.70531
1570279815.72094
1570279815.73656
1570279815.75219
1570279815.76782
1570279815.78344
1570279815.79907
1570279815.81469
1570279815.83032
1570279815.84594
1570279815.86157
1570279815.8772
1570279815.89282
1570279815.90845
1570279815.92407
1570279815.9397
1570279815.95532
1570279815.97095
1570279815.98658
1570279816.0022
1570279816.01783
1570279816.03345
1570279816.04908
1570279816.0647
1570279816.08033
1570279816.09596
1570279816.11158
1570279816.12721
1570279816.14283
1570279816.15846
1570279816.17408
1570279816.18971
1570279816.20534
1570279816.22096
1570279816.23659
1570279816.25221
1570279816.26784
1570279816.28346
1570279816.29909
1570279816.31472
1570279816.33034
1570279816.34597
1570279816.36159
1570279816.37722
1570279816.39284
1570279816.40847
1570279816.4241
1570279816.43972
1570279816.45535
1570279816.47097
1570279816.4866
1570279816.50222
1570279816.51785
1570279816.53348
1570279816.5491
1570279816.56473
1570279816.58035
1570279816.59598
1570279816.6116
1570279816.62723
1570279816.64286
1570279816.65848
1570279816.67411
1570279816.68973
1570279816.70536
1570279816.72098
1570279816.73661
1570279816.75224
1570279816.76786
1570279816.78349
1570279816.79911
1570279816.81474
1570279816.83036
1570279816.84599
1570279816.86162
1570279816.87724
1570279816.89287
1570279816.90849
1570279816.92412
1570279816.93975
1570279816.95537
1570279816.971
1570279816.98662
1570279817.00225
1570279817.01787
1570279817.0335
1570279817.04913
1570279817.06475
1570279817.08038
1570279817.096
1570279817.11163
1570279817.12725
1570279817.14288
1570279817.15851
1570279817.17413
1570279817.18976
1570279817.20538
1570279817.22101
1570279817.23663
1570279817.25226
1570279817.26789
1570279817.28351
1570279817.29914
1570279817.31476
1570279817.33039
1570279817.34601
1570279817.36164
1570279817.37727
1570279817.39289
1570279817.40852
1570279817.42414
1570279817.43977
1570279817.45539
1570279817.47102
1570279817.48665
1570279817.50227
1570279817.5179
1570279817.53352
1570279817.54915
1570279817.56477
1570279817.5804
1570279817.59603
1570279817.61165
1570279817.62728
1570279817.6429
1570279817.65853
1570279817.67415
1570279817.68978
1570279817.70541
1570279817.72103
1570279817.73666
1570279817.75228
1570279817.76791
1570279817.78353
1570279817.79916
1570279817.81479
1570279817.83041
1570279817.84604
1570279817.86166
1570279817.87729
1570279817.89291
1570279817.90854
1570279817.92417
1570279817.93979
1570279817.95542
1570279817.97104
1570279817.98667
1570279818.00229
1570279818.01792
1570279818.03355
1570279818.04917
1570279818.0648
1570279818.08042
1570279818.09605
1570279818.11167
1570279818.1273
1570279818.14293
1570279818.15855
1570279818.17418
1570279818.1898
1570279818.20543
1570279818.22105
1570279818.23668
1570279818.25231
1570279818.26793
1570279818.28356
1570279818.29918
1570279818.31481
1570279818.33043
1570279818.34606
1570279818.36169
1570279818.37731
1570279818.39294
1570279818.40856
1570279818.42419
1570279818.43981
1570279818.45544
1570279818.47107
1570279818.48669
1570279818.50232
1570279818.51794
1570279818.53357
1570279818.54919
1570279818.56482
1570279818.58045
1570279818.59607
1570279818.6117
1570279818.62732
1570279818.64295
1570279818.65857
1570279818.6742
1570279818.68983
1570279818.70545
1570279818.72108
1570279818.7367
1570279818.75233
1570279818.76795
1570279818.78358
1570279818.79921
1570279818.81483
1570279818.83046
1570279818.84608
1570279818.86171
1570279818.87733
1570279818.89296
1570279818.90859
1570279818.92421
1570279818.93984
1570279818.95546
1570279818.97109
1570279818.98671
1570279819.00234
1570279819.01797
1570279819.03359
1570279819.04922
1570279819.06484
1570279819.08047
1570279819.0961
1570279819.11172
1570279819.12735
1570279819.14297
1570279819.1586
1570279819.17422
1570279819.18985
1570279819.20548
1570279819.2211
1570279819.23673
1570279819.25235
1570279819.26798
1570279819.2836
1570279819.29923
1570279819.31486
1570279819.33048
1570279819.34611
1570279819.36173
1570279819.37736
1570279819.39298
1570279819.40861
1570279819.42424
1570279819.43986
1570279819.45549
1570279819.47111
1570279819.48674
1570279819.50236
1570279819.51799
1570279819.53362
1570279819.54924
1570279819.56487
1570279819.58049
1570279819.59612
1570279819.61174
1570279819.62737
1570279819.643
1570279819.65862
1570279819.67425
1570279819.68987
1570279819.7055
1570279819.72112
1570279819.73675
1570279819.75238
1570279819.768
1570279819.78363
1570279819.79925
1570279819.81488
1570279819.8305
1570279819.84613
1570279819.86176
1570279819.87738
1570279819.89301
1570279819.90863
1570279819.92426
1570279819.93988
1570279819.95551
1570279819.97114
1570279819.98676
1570279820.00239
1570279820.01801
1570279820.03364
1570279820.04926
1570279820.06489
1570279820.08052
1570279820.09614
1570279820.11177
1570279820.12739
1570279820.14302
1570279820.15864
1570279820.17427
1570279820.1899
1570279820.20552
1570279820.22115
1570279820.23677
1570279820.2524
1570279820.26802
1570279820.28365
1570279820.29928
1570279820.3149
1570279820.33053
1570279820.34615
1570279820.36178
1570279820.3774
1570279820.39303
1570279820.40866
1570279820.42428
1570279820.43991
1570279820.45553
1570279820.47116
1570279820.48678
1570279820.50241
1570279820.51804
1570279820.53366
1570279820.54929
1570279820.56491
1570279820.58054
1570279820.59616
1570279820.61179
1570279820.62742
1570279820.64304
1570279820.65867
1570279820.67429
1570279820.68992
1570279820.70554
1570279820.72117
1570279820.7368
1570279820.75242
1570279820.76805
1570279820.78367
1570279820.7993
1570279820.81492
1570279820.83055
1570279820.84618
1570279820.8618
1570279820.87743
1570279820.89305
1570279820.90868
1570279820.9243
1570279820.93993
1570279820.95556
1570279820.97118
1570279820.98681
1570279821.00243
1570279821.01806
1570279821.03368
1570279821.04931
1570279821.06494
1570279821.08056
1570279821.09619
1570279821.11181
1570279821.12744
1570279821.14306
1570279821.15869
1570279821.17432
1570279821.18994
1570279821.20557
1570279821.22119
1570279821.23682
1570279821.25244
1570279821.26807
1570279821.2837
1570279821.29932
1570279821.31495
1570279821.33057
1570279821.3462
1570279821.36182
1570279821.37745
1570279821.39308
1570279821.4087
1570279821.42433
1570279821.43995
1570279821.45558
1570279821.47121
1570279821.48683
1570279821.50246
1570279821.51808
1570279821.53371
1570279821.54933
1570279821.56496
1570279821.58059
1570279821.59621
1570279821.61184
1570279821.62746
1570279821.64309
1570279821.65871
1570279821.67434
1570279821.68997
1570279821.70559
1570279821.72122
1570279821.73684
1570279821.75247
1570279821.76809
1570279821.78372
1570279821.79935
1570279821.81497
1570279821.8306
1570279821.84622
1570279821.86185
1570279821.87747
1570279821.8931
1570279821.90873
1570279821.92435
1570279821.93998
1570279821.9556
1570279821.97123
1570279821.98685
1570279822.00248
1570279822.01811
1570279822.03373
1570279822.04936
1570279822.06498
1570279822.08061
1570279822.09623
1570279822.11186
1570279822.12749
1570279822.14311
1570279822.15874
1570279822.17436
1570279822.18999
1570279822.20561
1570279822.22124
1570279822.23687
1570279822.25249
1570279822.26812
1570279822.28374
1570279822.29937
1570279822.31499
1570279822.33062
1570279822.34625
1570279822.36187
1570279822.3775
1570279822.39312
1570279822.40875
1570279822.42437
1570279822.44
1570279822.45563
1570279822.47125
1570279822.48688
1570279822.5025
1570279822.51813
1570279822.53375
1570279822.54938
1570279822.56501
1570279822.58063
1570279822.59626
1570279822.61188
1570279822.62751
1570279822.64313
1570279822.65876
1570279822.67439
1570279822.69001
1570279822.70564
1570279822.72126
1570279822.73689
1570279822.75251
1570279822.76814
1570279822.78377
1570279822.79939
1570279822.81502
1570279822.83064
1570279822.84627
1570279822.86189
1570279822.87752
1570279822.89315
1570279822.90877
1570279822.9244
1570279822.94002
1570279822.95565
1570279822.97127
1570279822.9869
1570279823.00253
1570279823.01815
1570279823.03378
1570279823.0494
1570279823.06503
1570279823.08065
1570279823.09628
1570279823.11191
1570279823.12753
1570279823.14316
1570279823.15878
1570279823.17441
1570279823.19003
1570279823.20566
1570279823.22129
1570279823.23691
1570279823.25254
1570279823.26816
1570279823.28379
1570279823.29941
1570279823.31504
1570279823.33067
1570279823.34629
1570279823.36192
1570279823.37754
1570279823.39317
1570279823.40879
1570279823.42442
1570279823.44005
1570279823.45567
1570279823.4713
1570279823.48692
1570279823.50255
1570279823.51817
1570279823.5338
1570279823.54943
1570279823.56505
1570279823.58068
1570279823.5963
1570279823.61193
1570279823.62755
1570279823.64318
1570279823.65881
1570279823.67443
1570279823.69006
1570279823.70568
1570279823.72131
1570279823.73693
1570279823.75256
1570279823.76819
1570279823.78381
1570279823.79944
1570279823.81506
1570279823.83069
1570279823.84631
1570279823.86194
1570279823.87757
1570279823.89319
1570279823.90882
1570279823.92444
1570279823.94007
1570279823.9557
1570279823.97132
1570279823.98695
1570279824.00257
1570279824.0182
1570279824.03382
1570279824.04945
1570279824.06508
1570279824.0807
1570279824.09633
1570279824.11195
1570279824.12758
1570279824.1432
1570279824.15883
1570279824.17446
1570279824.19008
1570279824.20571
1570279824.22133
1570279824.23696
1570279824.25258
1570279824.26821
1570279824.28384
1570279824.29946
1570279824.31509
1570279824.33071
1570279824.34634
1570279824.36196
1570279824.37759
1570279824.39322
1570279824.40884
1570279824.42447
1570279824.44009
1570279824.45572
1570279824.47134
1570279824.48697
1570279824.5026
1570279824.51822
1570279824.53385
1570279824.54947
1570279824.5651
1570279824.58072
1570279824.59635
1570279824.61198
1570279824.6276
1570279824.64323
1570279824.65885
1570279824.67448
1570279824.6901
1570279824.70573
1570279824.72136
1570279824.73698
1570279824.75261
1570279824.76823
1570279824.78386
1570279824.79948
1570279824.81511
1570279824.83074
1570279824.84636
1570279824.86199
1570279824.87761
1570279824.89324
1570279824.90886
1570279824.92449
1570279824.94012
1570279824.95574
1570279824.97137
1570279824.98699
1570279825.00262
1570279825.01824
1570279825.03387
1570279825.0495
1570279825.06512
1570279825.08075
1570279825.09637
1570279825.112
1570279825.12762
1570279825.14325
1570279825.15888
1570279825.1745
1570279825.19013
1570279825.20575
1570279825.22138
1570279825.237
1570279825.25263
1570279825.26826
1570279825.28388
1570279825.29951
1570279825.31513
1570279825.33076
1570279825.34638
1570279825.36201
1570279825.37764
1570279825.39326
1570279825.40889
1570279825.42451
1570279825.44014
1570279825.45576
1570279825.47139
1570279825.48702
1570279825.50264
1570279825.51827
1570279825.53389
1570279825.54952
1570279825.56514
1570279825.58077
1570279825.5964
1570279825.61202
1570279825.62765
1570279825.64327
1570279825.6589
1570279825.67452
1570279825.69015
1570279825.70578
1570279825.7214
1570279825.73703
1570279825.75265
1570279825.76828
1570279825.7839
1570279825.79953
1570279825.81516
1570279825.83078
1570279825.84641
1570279825.86203
1570279825.87766
1570279825.89328
1570279825.90891
1570279825.92454
1570279825.94016
1570279825.95579
1570279825.97141
1570279825.98704
1570279826.00266
1570279826.01829
1570279826.03392
1570279826.04954
1570279826.06517
1570279826.08079
1570279826.09642
1570279826.11204
1570279826.12767
1570279826.1433
1570279826.15892
1570279826.17455
1570279826.19017
1570279826.2058
1570279826.22143
1570279826.23705
1570279826.25268
1570279826.2683
1570279826.28393
1570279826.29955
1570279826.31518
1570279826.33081
1570279826.34643
1570279826.36206
1570279826.37768
1570279826.39331
1570279826.40893
1570279826.42456
1570279826.44019
1570279826.45581
1570279826.47144
1570279826.48706
1570279826.50269
1570279826.51831
1570279826.53394
1570279826.54957
1570279826.56519
1570279826.58082
1570279826.59644
1570279826.61207
1570279826.62769
1570279826.64332
1570279826.65895
1570279826.67457
1570279826.6902
1570279826.70582
1570279826.72145
1570279826.73707
1570279826.7527
1570279826.76833
1570279826.78395
1570279826.79958
1570279826.8152
1570279826.83083
1570279826.84645
1570279826.86208
1570279826.87771
1570279826.89333
1570279826.90896
1570279826.92458
1570279826.94021
1570279826.95583
1570279826.97146
1570279826.98709
1570279827.00271
1570279827.01834
1570279827.03396
1570279827.04959
1570279827.06521
1570279827.08084
1570279827.09647
1570279827.11209
1570279827.12772
1570279827.14334
1570279827.15897
1570279827.17459
1570279827.19022
1570279827.20585
1570279827.22147
1570279827.2371
1570279827.25272
1570279827.26835
1570279827.28397
1570279827.2996
1570279827.31523
1570279827.33085
1570279827.34648
1570279827.3621
1570279827.37773
1570279827.39335
1570279827.40898
1570279827.42461
1570279827.44023
1570279827.45586
1570279827.47148
1570279827.48711
1570279827.50273
1570279827.51836
1570279827.53399
1570279827.54961
1570279827.56524
1570279827.58086
1570279827.59649
1570279827.61211
1570279827.62774
1570279827.64337
1570279827.65899
1570279827.67462
1570279827.69024
1570279827.70587
1570279827.72149
1570279827.73712
1570279827.75275
1570279827.76837
1570279827.784
1570279827.79962
1570279827.81525
1570279827.83087
1570279827.8465
1570279827.86213
1570279827.87775
1570279827.89338
1570279827.909
1570279827.92463
1570279827.94025
1570279827.95588
1570279827.97151
1570279827.98713
1570279828.00276
1570279828.01838
1570279828.03401
1570279828.04963
1570279828.06526
1570279828.08089
1570279828.09651
1570279828.11214
1570279828.12776
1570279828.14339
1570279828.15901
1570279828.17464
1570279828.19027
1570279828.20589
1570279828.22152
1570279828.23714
1570279828.25277
1570279828.26839
1570279828.28402
1570279828.29965
1570279828.31527
1570279828.3309
1570279828.34652
1570279828.36215
1570279828.37777
1570279828.3934
1570279828.40903
1570279828.42465
1570279828.44028
1570279828.4559
1570279828.47153
1570279828.48715
1570279828.50278
1570279828.51841
1570279828.53403
1570279828.54966
1570279828.56528
1570279828.58091
1570279828.59653
1570279828.61216
1570279828.62779
1570279828.64341
1570279828.65904
1570279828.67466
1570279828.69029
1570279828.70591
1570279828.72154
1570279828.73717
1570279828.75279
1570279828.76842
1570279828.78404
1570279828.79967
1570279828.81529
1570279828.83092
1570279828.84655
1570279828.86217
1570279828.8778
1570279828.89342
1570279828.90905
1570279828.92468
1570279828.9403
1570279828.95593
1570279828.97155
1570279828.98718
1570279829.0028
1570279829.01843
1570279829.03406
1570279829.04968
1570279829.06531
1570279829.08093
1570279829.09656
1570279829.11218
1570279829.12781
1570279829.14344
1570279829.15906
1570279829.17469
1570279829.19031
1570279829.20594
1570279829.22156
1570279829.23719
1570279829.25282
1570279829.26844
1570279829.28407
1570279829.29969
1570279829.31532
1570279829.33094
1570279829.34657
1570279829.3622
1570279829.37782
1570279829.39345
1570279829.40907
1570279829.4247
1570279829.44032
1570279829.45595
1570279829.47158
1570279829.4872
1570279829.50283
1570279829.51845
1570279829.53408
1570279829.5497
1570279829.56533
1570279829.58096
1570279829.59658
1570279829.61221
1570279829.62783
1570279829.64346
1570279829.65908
1570279829.67471
1570279829.69034
1570279829.70596
1570279829.72159
1570279829.73721
1570279829.75284
1570279829.76846
1570279829.78409
1570279829.79972
1570279829.81534
1570279829.83097
1570279829.84659
1570279829.86222
1570279829.87784
1570279829.89347
1570279829.9091
1570279829.92472
1570279829.94035
1570279829.95597
1570279829.9716
1570279829.98722
1570279830.00285
1570279830.01848
1570279830.0341
1570279830.04973
1570279830.06535
1570279830.08098
1570279830.0966
1570279830.11223
1570279830.12786
1570279830.14348
1570279830.15911
1570279830.17473
1570279830.19036
1570279830.20598
1570279830.22161
1570279830.23724
1570279830.25286
1570279830.26849
1570279830.28411
1570279830.29974
1570279830.31536
1570279830.33099
1570279830.34662
1570279830.36224
1570279830.37787
1570279830.39349
1570279830.40912
1570279830.42474
1570279830.44037
1570279830.456
1570279830.47162
1570279830.48725
1570279830.50287
1570279830.5185
1570279830.53412
1570279830.54975
1570279830.56538
1570279830.581
1570279830.59663
1570279830.61225
1570279830.62788
1570279830.6435
1570279830.65913
1570279830.67476
1570279830.69038
1570279830.70601
1570279830.72163
1570279830.73726
1570279830.75288
1570279830.76851
1570279830.78414
1570279830.79976
1570279830.81539
1570279830.83101
1570279830.84664
1570279830.86226
1570279830.87789
1570279830.89352
1570279830.90914
1570279830.92477
1570279830.94039
1570279830.95602
1570279830.97164
1570279830.98727
1570279831.0029
1570279831.01852
1570279831.03415
1570279831.04977
1570279831.0654
1570279831.08103
1570279831.09665
1570279831.11228
1570279831.1279
1570279831.14353
1570279831.15915
1570279831.17478
1570279831.19041
1570279831.20603
1570279831.22166
1570279831.23728
1570279831.25291
1570279831.26853
1570279831.28416
1570279831.29979
1570279831.31541
1570279831.33104
1570279831.34666
1570279831.36229
1570279831.37791
1570279831.39354
1570279831.40917
1570279831.42479
1570279831.44042
1570279831.45604
1570279831.47167
1570279831.48729
1570279831.50292
1570279831.51855
1570279831.53417
1570279831.5498
1570279831.56542
1570279831.58105
1570279831.59667
1570279831.6123
1570279831.62793
1570279831.64355
1570279831.65918
1570279831.6748
1570279831.69043
1570279831.70605
1570279831.72168
1570279831.73731
1570279831.75293
1570279831.76856
1570279831.78418
1570279831.79981
1570279831.81543
1570279831.83106
1570279831.84669
1570279831.86231
1570279831.87794
1570279831.89356
1570279831.90919
1570279831.92481
1570279831.94044
1570279831.95607
1570279831.97169
1570279831.98732
1570279832.00294
1570279832.01857
1570279832.03419
1570279832.04982
1570279832.06545
1570279832.08107
1570279832.0967
1570279832.11232
1570279832.12795
1570279832.14357
1570279832.1592
1570279832.17483
1570279832.19045
1570279832.20608
1570279832.2217
1570279832.23733
1570279832.25295
1570279832.26858
1570279832.28421
1570279832.29983
1570279832.31546
1570279832.33108
1570279832.34671
1570279832.36233
1570279832.37796
1570279832.39359
1570279832.40921
1570279832.42484
1570279832.44046
1570279832.45609
1570279832.47171
1570279832.48734
1570279832.50297
1570279832.51859
1570279832.53422
1570279832.54984
1570279832.56547
1570279832.58109
1570279832.59672
1570279832.61235
1570279832.62797
1570279832.6436
1570279832.65922
1570279832.67485
1570279832.69047
1570279832.7061
1570279832.72173
1570279832.73735
1570279832.75298
1570279832.7686
1570279832.78423
1570279832.79985
1570279832.81548
1570279832.83111
1570279832.84673
1570279832.86236
1570279832.87798
1570279832.89361
1570279832.90923
1570279832.92486
1570279832.94049
1570279832.95611
1570279832.97174
1570279832.98736
1570279833.00299
1570279833.01861
1570279833.03424
1570279833.04987
1570279833.06549
1570279833.08112
1570279833.09674
1570279833.11237
1570279833.12799
1570279833.14362
1570279833.15925
1570279833.17487
1570279833.1905
1570279833.20612
1570279833.22175
1570279833.23737
1570279833.253
1570279833.26863
1570279833.28425
1570279833.29988
1570279833.3155
1570279833.33113
1570279833.34676
1570279833.36238
1570279833.37801
1570279833.39363
1570279833.40926
1570279833.42488
1570279833.44051
1570279833.45614
1570279833.47176
1570279833.48739
1570279833.50301
1570279833.51864
1570279833.53426
1570279833.54989
1570279833.56552
1570279833.58114
1570279833.59677
1570279833.61239
1570279833.62802
1570279833.64364
1570279833.65927
1570279833.6749
1570279833.69052
1570279833.70615
1570279833.72177
1570279833.7374
1570279833.75302
1570279833.76865
1570279833.78428
1570279833.7999
1570279833.81553
1570279833.83115
1570279833.84678
1570279833.8624
1570279833.87803
1570279833.89366
1570279833.90928
1570279833.92491
1570279833.94053
1570279833.95616
1570279833.97178
1570279833.98741
1570279834.00304
1570279834.01866
1570279834.03429
1570279834.04991
1570279834.06554
1570279834.08116
1570279834.09679
1570279834.11242
1570279834.12804
1570279834.14367
1570279834.15929
1570279834.17492
1570279834.19054
1570279834.20617
1570279834.2218
1570279834.23742
1570279834.25305
1570279834.26867
1570279834.2843
1570279834.29992
1570279834.31555
1570279834.33118
1570279834.3468
1570279834.36243
1570279834.37805
1570279834.39368
1570279834.4093
1570279834.42493
1570279834.44056
1570279834.45618
1570279834.47181
1570279834.48743
1570279834.50306
1570279834.51868
1570279834.53431
1570279834.54994
1570279834.56556
1570279834.58119
1570279834.59681
1570279834.61244
1570279834.62806
1570279834.64369
1570279834.65932
1570279834.67494
1570279834.69057
1570279834.70619
1570279834.72182
1570279834.73744
1570279834.75307
1570279834.7687
1570279834.78432
1570279834.79995
1570279834.81557
1570279834.8312
1570279834.84682
1570279834.86245
1570279834.87808
1570279834.8937
1570279834.90933
1570279834.92495
1570279834.94058
1570279834.9562
1570279834.97183
1570279834.98746
1570279835.00308
1570279835.01871
1570279835.03433
1570279835.04996
1570279835.06558
1570279835.08121
1570279835.09684
1570279835.11246
1570279835.12809
1570279835.14371
1570279835.15934
1570279835.17496
1570279835.19059
1570279835.20622
1570279835.22184
1570279835.23747
1570279835.25309
1570279835.26872
1570279835.28434
1570279835.29997
1570279835.3156
1570279835.33122
1570279835.34685
1570279835.36247
1570279835.3781
1570279835.39372
1570279835.40935
1570279835.42498
1570279835.4406
1570279835.45623
1570279835.47185
1570279835.48748
1570279835.5031
1570279835.51873
1570279835.53436
1570279835.54998
1570279835.56561
1570279835.58123
1570279835.59686
1570279835.61248
1570279835.62811
1570279835.64374
1570279835.65936
1570279835.67499
1570279835.69061
1570279835.70624
1570279835.72186
1570279835.73749
1570279835.75312
1570279835.76874
1570279835.78437
1570279835.79999
1570279835.81562
1570279835.83124
1570279835.84687
1570279835.8625
1570279835.87812
1570279835.89375
1570279835.90937
1570279835.925
1570279835.94063
1570279835.95625
1570279835.97188
1570279835.9875
1570279836.00313
1570279836.01875
1570279836.03438
1570279836.05001
1570279836.06563
1570279836.08126
1570279836.09688
1570279836.11251
1570279836.12813
1570279836.14376
1570279836.15939
1570279836.17501
1570279836.19064
1570279836.20626
1570279836.22189
1570279836.23751
1570279836.25314
1570279836.26877
1570279836.28439
1570279836.30002
1570279836.31564
1570279836.33127
1570279836.34689
1570279836.36252
1570279836.37815
1570279836.39377
1570279836.4094
1570279836.42502
1570279836.44065
1570279836.45627
1570279836.4719
1570279836.48753
1570279836.50315
1570279836.51878
1570279836.5344
1570279836.55003
1570279836.56565
1570279836.58128
1570279836.59691
1570279836.61253
1570279836.62816
1570279836.64378
1570279836.65941
1570279836.67503
1570279836.69066
1570279836.70629
1570279836.72191
1570279836.73754
1570279836.75316
1570279836.76879
1570279836.78441
1570279836.80004
1570279836.81567
1570279836.83129
1570279836.84692
1570279836.86254
1570279836.87817
1570279836.89379
1570279836.90942
1570279836.92505
1570279836.94067
1570279836.9563
1570279836.97192
1570279836.98755
1570279837.00317
1570279837.0188
1570279837.03443
1570279837.05005
1570279837.06568
1570279837.0813
1570279837.09693
1570279837.11255
1570279837.12818
1570279837.14381
1570279837.15943
1570279837.17506
1570279837.19068
1570279837.20631
1570279837.22193
1570279837.23756
1570279837.25319
1570279837.26881
1570279837.28444
1570279837.30006
1570279837.31569
1570279837.33131
1570279837.34694
1570279837.36257
1570279837.37819
1570279837.39382
1570279837.40944
1570279837.42507
1570279837.44069
1570279837.45632
1570279837.47195
1570279837.48757
1570279837.5032
1570279837.51882
1570279837.53445
1570279837.55007
1570279837.5657
1570279837.58133
1570279837.59695
1570279837.61258
1570279837.6282
1570279837.64383
1570279837.65945
1570279837.67508
1570279837.69071
1570279837.70633
1570279837.72196
1570279837.73758
1570279837.75321
1570279837.76883
1570279837.78446
1570279837.80009
1570279837.81571
1570279837.83134
1570279837.84696
1570279837.86259
1570279837.87821
1570279837.89384
1570279837.90947
1570279837.92509
1570279837.94072
1570279837.95634
1570279837.97197
1570279837.98759
1570279838.00322
1570279838.01885
1570279838.03447
1570279838.0501
1570279838.06572
1570279838.08135
1570279838.09697
1570279838.1126
1570279838.12823
1570279838.14385
1570279838.15948
1570279838.1751
1570279838.19073
1570279838.20636
1570279838.22198
1570279838.23761
1570279838.25323
1570279838.26886
1570279838.28448
1570279838.30011
1570279838.31574
1570279838.33136
1570279838.34699
1570279838.36261
1570279838.37824
1570279838.39386
1570279838.40949
1570279838.42512
1570279838.44074
1570279838.45637
1570279838.47199
1570279838.48762
1570279838.50324
1570279838.51887
1570279838.5345
1570279838.55012
1570279838.56575
1570279838.58137
1570279838.597
1570279838.61262
1570279838.62825
1570279838.64388
1570279838.6595
1570279838.67513
1570279838.69075
1570279838.70638
1570279838.722
1570279838.73763
1570279838.75326
1570279838.76888
1570279838.78451
1570279838.80013
1570279838.81576
1570279838.83138
1570279838.84701
1570279838.86264
1570279838.87826
1570279838.89389
1570279838.90951
1570279838.92514
1570279838.94076
1570279838.95639
1570279838.97202
1570279838.98764
1570279839.00327
1570279839.01889
1570279839.03452
1570279839.05014
1570279839.06577
1570279839.0814
1570279839.09702
1570279839.11265
1570279839.12827
1570279839.1439
1570279839.15952
1570279839.17515
1570279839.19078
1570279839.2064
1570279839.22203
1570279839.23765
1570279839.25328
1570279839.2689
1570279839.28453
1570279839.30016
1570279839.31578
1570279839.33141
1570279839.34703
1570279839.36266
1570279839.37828
1570279839.39391
1570279839.40954
1570279839.42516
1570279839.44079
1570279839.45641
1570279839.47204
1570279839.48766
1570279839.50329
1570279839.51892
1570279839.53454
1570279839.55017
1570279839.56579
1570279839.58142
1570279839.59704
1570279839.61267
1570279839.6283
1570279839.64392
1570279839.65955
1570279839.67517
1570279839.6908
1570279839.70642
1570279839.72205
1570279839.73768
1570279839.7533
1570279839.76893
1570279839.78455
1570279839.80018
1570279839.8158
1570279839.83143
1570279839.84706
1570279839.86268
1570279839.87831
1570279839.89393
1570279839.90956
1570279839.92518
1570279839.94081
1570279839.95644
1570279839.97206
1570279839.98769
1570279840.00331
1570279840.01894
1570279840.03456
1570279840.05019
1570279840.06582
1570279840.08144
1570279840.09707
1570279840.11269
1570279840.12832
1570279840.14394
1570279840.15957
1570279840.1752
1570279840.19082
1570279840.20645
1570279840.22207
1570279840.2377
1570279840.25332
1570279840.26895
1570279840.28458
1570279840.3002
1570279840.31583
1570279840.33145
1570279840.34708
1570279840.3627
1570279840.37833
1570279840.39396
1570279840.40958
1570279840.42521
1570279840.44083
1570279840.45646
1570279840.47209
1570279840.48771
1570279840.50334
1570279840.51896
1570279840.53459
1570279840.55021
1570279840.56584
1570279840.58147
1570279840.59709
1570279840.61272
1570279840.62834
1570279840.64397
1570279840.65959
1570279840.67522
1570279840.69085
1570279840.70647
1570279840.7221
1570279840.73772
1570279840.75335
1570279840.76897
1570279840.7846
1570279840.80023
1570279840.81585
1570279840.83148
1570279840.8471
1570279840.86273
1570279840.87835
1570279840.89398
1570279840.90961
1570279840.92523
1570279840.94086
1570279840.95648
1570279840.97211
1570279840.98773
1570279841.00336
1570279841.01899
1570279841.03461
1570279841.05024
1570279841.06586
1570279841.08149
1570279841.09711
1570279841.11274
1570279841.12837
1570279841.14399
1570279841.15962
1570279841.17524
1570279841.19087
1570279841.20649
1570279841.22212
1570279841.23775
1570279841.25337
1570279841.269
1570279841.28462
1570279841.30025
1570279841.31587
1570279841.3315
1570279841.34713
1570279841.36275
1570279841.37838
1570279841.394
1570279841.40963
1570279841.42525
1570279841.44088
1570279841.45651
1570279841.47213
1570279841.48776
1570279841.50338
1570279841.51901
1570279841.53463
1570279841.55026
1570279841.56589
1570279841.58151
1570279841.59714
1570279841.61276
1570279841.62839
1570279841.64401
1570279841.65964
1570279841.67527
1570279841.69089
1570279841.70652
1570279841.72214
1570279841.73777
1570279841.75339
1570279841.76902
1570279841.78465
1570279841.80027
1570279841.8159
1570279841.83152
1570279841.84715
1570279841.86277
1570279841.8784
1570279841.89403
1570279841.90965
1570279841.92528
1570279841.9409
1570279841.95653
1570279841.97215
1570279841.98778
1570279842.00341
1570279842.01903
1570279842.03466
1570279842.05028
1570279842.06591
1570279842.08153
1570279842.09716
1570279842.11279
1570279842.12841
1570279842.14404
1570279842.15966
1570279842.17529
1570279842.19091
1570279842.20654
1570279842.22217
1570279842.23779
1570279842.25342
1570279842.26904
1570279842.28467
1570279842.30029
1570279842.31592
1570279842.33155
1570279842.34717
1570279842.3628
1570279842.37842
1570279842.39405
1570279842.40967
1570279842.4253
1570279842.44093
1570279842.45655
1570279842.47218
1570279842.4878
1570279842.50343
1570279842.51905
1570279842.53468
1570279842.55031
1570279842.56593
1570279842.58156
1570279842.59718
1570279842.61281
1570279842.62843
1570279842.64406
1570279842.65969
1570279842.67531
1570279842.69094
1570279842.70656
1570279842.72219
1570279842.73781
1570279842.75344
1570279842.76907
1570279842.78469
1570279842.80032
1570279842.81594
1570279842.83157
1570279842.84719
1570279842.86282
1570279842.87845
1570279842.89407
1570279842.9097
1570279842.92532
1570279842.94095
1570279842.95657
1570279842.9722
1570279842.98783
1570279843.00345
1570279843.01908
1570279843.0347
1570279843.05033
1570279843.06596
1570279843.08158
1570279843.09721
1570279843.11283
1570279843.12846
1570279843.14408
1570279843.15971
1570279843.17534
1570279843.19096
1570279843.20659
1570279843.22221
1570279843.23784
1570279843.25346
1570279843.26909
1570279843.28472
1570279843.30034
1570279843.31597
1570279843.33159
1570279843.34722
1570279843.36284
1570279843.37847
1570279843.3941
1570279843.40972
1570279843.42535
1570279843.44097
1570279843.4566
1570279843.47222
1570279843.48785
1570279843.50348
1570279843.5191
1570279843.53473
1570279843.55035
1570279843.56598
1570279843.5816
1570279843.59723
1570279843.61286
1570279843.62848
1570279843.64411
1570279843.65973
1570279843.67536
1570279843.69098
1570279843.70661
1570279843.72224
1570279843.73786
1570279843.75349
1570279843.76911
1570279843.78474
1570279843.80036
1570279843.81599
1570279843.83162
1570279843.84724
1570279843.86287
1570279843.87849
1570279843.89412
1570279843.90974
1570279843.92537
1570279843.941
1570279843.95662
1570279843.97225
1570279843.98787
1570279844.0035
1570279844.01912
1570279844.03475
1570279844.05038
1570279844.066
1570279844.08163
1570279844.09725
1570279844.11288
1570279844.1285
1570279844.14413
1570279844.15976
1570279844.17538
1570279844.19101
1570279844.20663
1570279844.22226
1570279844.23788
1570279844.25351
1570279844.26914
1570279844.28476
1570279844.30039
1570279844.31601
1570279844.33164
1570279844.34726
1570279844.36289
1570279844.37852
1570279844.39414
1570279844.40977
1570279844.42539
1570279844.44102
1570279844.45664
1570279844.47227
1570279844.4879
1570279844.50352
1570279844.51915
1570279844.53477
1570279844.5504
1570279844.56602
