1570281605.64759
1570281605.66321
1570281605.67884
1570281605.69446
1570281605.71009
1570281605.72571
1570281605.74134
1570281605.75697
1570281605.77259
1570281605.78822
1570281605.80384
1570281605.81947
1570281605.83509
1570281605.85072
1570281605.86635
1570281605.88197
1570281605.8976
1570281605.91322
1570281605.92885
1570281605.94447
1570281605.9601
1570281605.97573
1570281605.99135
1570281606.00698
1570281606.0226
1570281606.03823
1570281606.05385
1570281606.06948
1570281606.08511
1570281606.10073
1570281606.11636
1570281606.13198
1570281606.14761
1570281606.16323
1570281606.17886
1570281606.19449
1570281606.21011
1570281606.22574
1570281606.24136
1570281606.25699
1570281606.27261
1570281606.28824
1570281606.30387
1570281606.31949
1570281606.33512
1570281606.35074
1570281606.36637
1570281606.38199
1570281606.39762
1570281606.41325
1570281606.42887
1570281606.4445
1570281606.46012
1570281606.47575
1570281606.49137
1570281606.507
1570281606.52263
1570281606.53825
1570281606.55388
1570281606.5695
1570281606.58513
1570281606.60075
1570281606.61638
1570281606.63201
1570281606.64763
1570281606.66326
1570281606.67888
1570281606.69451
1570281606.71013
1570281606.72576
1570281606.74139
1570281606.75701
1570281606.77264
1570281606.78826
1570281606.80389
1570281606.81951
1570281606.83514
1570281606.85077
1570281606.86639
1570281606.88202
1570281606.89764
1570281606.91327
1570281606.92889
1570281606.94452
1570281606.96015
1570281606.97577
1570281606.9914
1570281607.00702
1570281607.02265
1570281607.03827
1570281607.0539
1570281607.06953
1570281607.08515
1570281607.10078
1570281607.1164
1570281607.13203
1570281607.14765
1570281607.16328
1570281607.17891
1570281607.19453
1570281607.21016
1570281607.22578
1570281607.24141
1570281607.25703
1570281607.27266
1570281607.28829
1570281607.30391
1570281607.31954
1570281607.33516
1570281607.35079
1570281607.36641
1570281607.38204
1570281607.39767
1570281607.41329
1570281607.42892
1570281607.44454
1570281607.46017
1570281607.47579
1570281607.49142
1570281607.50705
1570281607.52267
1570281607.5383
1570281607.55392
1570281607.56955
1570281607.58518
1570281607.6008
1570281607.61643
1570281607.63205
1570281607.64768
1570281607.6633
1570281607.67893
1570281607.69456
1570281607.71018
1570281607.72581
1570281607.74143
1570281607.75706
1570281607.77268
1570281607.78831
1570281607.80394
1570281607.81956
1570281607.83519
1570281607.85081
1570281607.86644
1570281607.88206
1570281607.89769
1570281607.91332
1570281607.92894
1570281607.94457
1570281607.96019
1570281607.97582
1570281607.99144
1570281608.00707
1570281608.0227
1570281608.03832
1570281608.05395
1570281608.06957
1570281608.0852
1570281608.10082
1570281608.11645
1570281608.13208
1570281608.1477
1570281608.16333
1570281608.17895
1570281608.19458
1570281608.2102
1570281608.22583
1570281608.24146
1570281608.25708
1570281608.27271
1570281608.28833
1570281608.30396
1570281608.31958
1570281608.33521
1570281608.35084
1570281608.36646
1570281608.38209
1570281608.39771
1570281608.41334
1570281608.42896
1570281608.44459
1570281608.46022
1570281608.47584
1570281608.49147
1570281608.50709
1570281608.52272
1570281608.53834
1570281608.55397
1570281608.5696
1570281608.58522
1570281608.60085
1570281608.61647
1570281608.6321
1570281608.64772
1570281608.66335
1570281608.67898
1570281608.6946
1570281608.71023
1570281608.72585
1570281608.74148
1570281608.7571
1570281608.77273
1570281608.78836
1570281608.80398
1570281608.81961
1570281608.83523
1570281608.85086
1570281608.86648
1570281608.88211
1570281608.89774
1570281608.91336
1570281608.92899
1570281608.94461
1570281608.96024
1570281608.97586
1570281608.99149
1570281609.00712
1570281609.02274
1570281609.03837
1570281609.05399
1570281609.06962
1570281609.08524
1570281609.10087
1570281609.1165
1570281609.13212
1570281609.14775
1570281609.16337
1570281609.179
1570281609.19462
1570281609.21025
1570281609.22588
1570281609.2415
1570281609.25713
1570281609.27275
1570281609.28838
1570281609.304
1570281609.31963
1570281609.33526
1570281609.35088
1570281609.36651
1570281609.38213
1570281609.39776
1570281609.41338
1570281609.42901
1570281609.44464
1570281609.46026
1570281609.47589
1570281609.49151
1570281609.50714
1570281609.52276
1570281609.53839
1570281609.55402
1570281609.56964
1570281609.58527
1570281609.60089
1570281609.61652
1570281609.63214
1570281609.64777
1570281609.6634
1570281609.67902
1570281609.69465
1570281609.71027
1570281609.7259
1570281609.74152
1570281609.75715
1570281609.77278
1570281609.7884
1570281609.80403
1570281609.81965
1570281609.83528
1570281609.8509
1570281609.86653
1570281609.88216
1570281609.89778
1570281609.91341
1570281609.92903
1570281609.94466
1570281609.96028
1570281609.97591
1570281609.99154
1570281610.00716
1570281610.02279
1570281610.03841
1570281610.05404
1570281610.06966
1570281610.08529
1570281610.10092
1570281610.11654
1570281610.13217
1570281610.14779
1570281610.16342
1570281610.17904
1570281610.19467
1570281610.2103
1570281610.22592
1570281610.24155
1570281610.25717
1570281610.2728
1570281610.28843
1570281610.30405
1570281610.31968
1570281610.3353
1570281610.35093
1570281610.36655
1570281610.38218
1570281610.39781
1570281610.41343
1570281610.42906
1570281610.44468
1570281610.46031
1570281610.47593
1570281610.49156
1570281610.50719
1570281610.52281
1570281610.53844
1570281610.55406
1570281610.56969
1570281610.58531
1570281610.60094
1570281610.61657
1570281610.63219
1570281610.64782
1570281610.66344
1570281610.67907
1570281610.69469
1570281610.71032
1570281610.72595
1570281610.74157
1570281610.7572
1570281610.77282
1570281610.78845
1570281610.80407
1570281610.8197
1570281610.83533
1570281610.85095
1570281610.86658
1570281610.8822
1570281610.89783
1570281610.91345
1570281610.92908
1570281610.94471
1570281610.96033
1570281610.97596
1570281610.99158
1570281611.00721
1570281611.02283
1570281611.03846
1570281611.05409
1570281611.06971
1570281611.08534
1570281611.10096
1570281611.11659
1570281611.13221
1570281611.14784
1570281611.16347
1570281611.17909
1570281611.19472
1570281611.21034
1570281611.22597
1570281611.24159
1570281611.25722
1570281611.27285
1570281611.28847
1570281611.3041
1570281611.31972
1570281611.33535
1570281611.35097
1570281611.3666
1570281611.38223
1570281611.39785
1570281611.41348
1570281611.4291
1570281611.44473
1570281611.46035
1570281611.47598
1570281611.49161
1570281611.50723
1570281611.52286
1570281611.53848
1570281611.55411
1570281611.56973
1570281611.58536
1570281611.60099
1570281611.61661
1570281611.63224
1570281611.64786
1570281611.66349
1570281611.67911
1570281611.69474
1570281611.71037
1570281611.72599
1570281611.74162
1570281611.75724
1570281611.77287
1570281611.78849
1570281611.80412
1570281611.81975
1570281611.83537
1570281611.851
1570281611.86662
1570281611.88225
1570281611.89787
1570281611.9135
1570281611.92913
1570281611.94475
1570281611.96038
1570281611.976
1570281611.99163
1570281612.00725
1570281612.02288
1570281612.03851
1570281612.05413
1570281612.06976
1570281612.08538
1570281612.10101
1570281612.11663
1570281612.13226
1570281612.14789
1570281612.16351
1570281612.17914
1570281612.19476
1570281612.21039
1570281612.22601
1570281612.24164
1570281612.25727
1570281612.27289
1570281612.28852
1570281612.30414
1570281612.31977
1570281612.33539
1570281612.35102
1570281612.36665
1570281612.38227
1570281612.3979
1570281612.41352
1570281612.42915
1570281612.44478
1570281612.4604
1570281612.47603
1570281612.49165
1570281612.50728
1570281612.5229
1570281612.53853
1570281612.55416
1570281612.56978
1570281612.58541
1570281612.60103
1570281612.61666
1570281612.63228
1570281612.64791
1570281612.66354
1570281612.67916
1570281612.69479
1570281612.71041
1570281612.72604
1570281612.74166
1570281612.75729
1570281612.77292
1570281612.78854
1570281612.80417
1570281612.81979
1570281612.83542
1570281612.85104
1570281612.86667
1570281612.8823
1570281612.89792
1570281612.91355
1570281612.92917
1570281612.9448
1570281612.96042
1570281612.97605
1570281612.99168
1570281613.0073
1570281613.02293
1570281613.03855
1570281613.05418
1570281613.0698
1570281613.08543
1570281613.10106
1570281613.11668
1570281613.13231
1570281613.14793
1570281613.16356
1570281613.17918
1570281613.19481
1570281613.21044
1570281613.22606
1570281613.24169
1570281613.25731
1570281613.27294
1570281613.28856
1570281613.30419
1570281613.31982
1570281613.33544
1570281613.35107
1570281613.36669
1570281613.38232
1570281613.39794
1570281613.41357
1570281613.4292
1570281613.44482
1570281613.46045
1570281613.47607
1570281613.4917
1570281613.50732
1570281613.52295
1570281613.53858
1570281613.5542
1570281613.56983
1570281613.58545
1570281613.60108
1570281613.6167
1570281613.63233
1570281613.64796
1570281613.66358
1570281613.67921
1570281613.69483
1570281613.71046
1570281613.72608
1570281613.74171
1570281613.75734
1570281613.77296
1570281613.78859
1570281613.80421
1570281613.81984
1570281613.83546
1570281613.85109
1570281613.86672
1570281613.88234
1570281613.89797
1570281613.91359
1570281613.92922
1570281613.94484
1570281613.96047
1570281613.9761
1570281613.99172
1570281614.00735
1570281614.02297
1570281614.0386
1570281614.05422
1570281614.06985
1570281614.08548
1570281614.1011
1570281614.11673
1570281614.13235
1570281614.14798
1570281614.1636
1570281614.17923
1570281614.19486
1570281614.21048
1570281614.22611
1570281614.24173
1570281614.25736
1570281614.27298
1570281614.28861
1570281614.30424
1570281614.31986
1570281614.33549
1570281614.35111
1570281614.36674
1570281614.38236
1570281614.39799
1570281614.41362
1570281614.42924
1570281614.44487
1570281614.46049
1570281614.47612
1570281614.49174
1570281614.50737
1570281614.523
1570281614.53862
1570281614.55425
1570281614.56987
1570281614.5855
1570281614.60112
1570281614.61675
1570281614.63238
1570281614.648
1570281614.66363
1570281614.67925
1570281614.69488
1570281614.71051
1570281614.72613
1570281614.74176
1570281614.75738
1570281614.77301
1570281614.78863
1570281614.80426
1570281614.81989
1570281614.83551
1570281614.85114
1570281614.86676
1570281614.88239
1570281614.89801
1570281614.91364
1570281614.92927
1570281614.94489
1570281614.96052
1570281614.97614
1570281614.99177
1570281615.00739
1570281615.02302
1570281615.03865
1570281615.05427
1570281615.0699
1570281615.08552
1570281615.10115
1570281615.11677
1570281615.1324
1570281615.14803
1570281615.16365
1570281615.17928
1570281615.1949
1570281615.21053
1570281615.22615
1570281615.24178
1570281615.25741
1570281615.27303
1570281615.28866
1570281615.30428
1570281615.31991
1570281615.33553
1570281615.35116
1570281615.36679
1570281615.38241
1570281615.39804
1570281615.41366
1570281615.42929
1570281615.44491
1570281615.46054
1570281615.47617
1570281615.49179
1570281615.50742
1570281615.52304
1570281615.53867
1570281615.55429
1570281615.56992
1570281615.58555
1570281615.60117
1570281615.6168
1570281615.63242
1570281615.64805
1570281615.66367
1570281615.6793
1570281615.69493
1570281615.71055
1570281615.72618
1570281615.7418
1570281615.75743
1570281615.77305
1570281615.78868
1570281615.80431
1570281615.81993
1570281615.83556
1570281615.85118
1570281615.86681
1570281615.88243
1570281615.89806
1570281615.91369
1570281615.92931
1570281615.94494
1570281615.96056
1570281615.97619
1570281615.99181
1570281616.00744
1570281616.02307
1570281616.03869
1570281616.05432
1570281616.06994
1570281616.08557
1570281616.10119
1570281616.11682
1570281616.13245
1570281616.14807
1570281616.1637
1570281616.17932
1570281616.19495
1570281616.21057
1570281616.2262
1570281616.24183
1570281616.25745
1570281616.27308
1570281616.2887
1570281616.30433
1570281616.31995
1570281616.33558
1570281616.35121
1570281616.36683
1570281616.38246
1570281616.39808
1570281616.41371
1570281616.42933
1570281616.44496
1570281616.46059
1570281616.47621
1570281616.49184
1570281616.50746
1570281616.52309
1570281616.53871
1570281616.55434
1570281616.56997
1570281616.58559
1570281616.60122
1570281616.61684
1570281616.63247
1570281616.64809
1570281616.66372
1570281616.67935
1570281616.69497
1570281616.7106
1570281616.72622
1570281616.74185
1570281616.75747
1570281616.7731
1570281616.78873
1570281616.80435
1570281616.81998
1570281616.8356
1570281616.85123
1570281616.86685
1570281616.88248
1570281616.89811
1570281616.91373
1570281616.92936
1570281616.94498
1570281616.96061
1570281616.97623
1570281616.99186
1570281617.00749
1570281617.02311
1570281617.03874
1570281617.05436
1570281617.06999
1570281617.08561
1570281617.10124
1570281617.11687
1570281617.13249
1570281617.14812
1570281617.16374
1570281617.17937
1570281617.19499
1570281617.21062
1570281617.22625
1570281617.24187
1570281617.2575
1570281617.27312
1570281617.28875
1570281617.30437
1570281617.32
1570281617.33563
1570281617.35125
1570281617.36688
1570281617.3825
1570281617.39813
1570281617.41376
1570281617.42938
1570281617.44501
1570281617.46063
1570281617.47626
1570281617.49188
1570281617.50751
1570281617.52314
1570281617.53876
1570281617.55439
1570281617.57001
1570281617.58564
1570281617.60126
1570281617.61689
1570281617.63252
1570281617.64814
1570281617.66377
1570281617.67939
1570281617.69502
1570281617.71064
1570281617.72627
1570281617.7419
1570281617.75752
1570281617.77315
1570281617.78877
1570281617.8044
1570281617.82002
1570281617.83565
1570281617.85128
1570281617.8669
1570281617.88253
1570281617.89815
1570281617.91378
1570281617.9294
1570281617.94503
1570281617.96066
1570281617.97628
1570281617.99191
1570281618.00753
1570281618.02316
1570281618.03878
1570281618.05441
1570281618.07004
1570281618.08566
1570281618.10129
1570281618.11691
1570281618.13254
1570281618.14816
1570281618.16379
1570281618.17942
1570281618.19504
1570281618.21067
1570281618.22629
1570281618.24192
1570281618.25754
1570281618.27317
1570281618.2888
1570281618.30442
1570281618.32005
1570281618.33567
1570281618.3513
1570281618.36692
1570281618.38255
1570281618.39818
1570281618.4138
1570281618.42943
1570281618.44505
1570281618.46068
1570281618.4763
1570281618.49193
1570281618.50756
1570281618.52318
1570281618.53881
1570281618.55443
1570281618.57006
1570281618.58568
1570281618.60131
1570281618.61694
1570281618.63256
1570281618.64819
1570281618.66381
1570281618.67944
1570281618.69506
1570281618.71069
1570281618.72632
1570281618.74194
1570281618.75757
1570281618.77319
1570281618.78882
1570281618.80444
1570281618.82007
1570281618.8357
1570281618.85132
1570281618.86695
1570281618.88257
1570281618.8982
1570281618.91382
1570281618.92945
1570281618.94508
1570281618.9607
1570281618.97633
1570281618.99195
1570281619.00758
1570281619.0232
1570281619.03883
1570281619.05446
1570281619.07008
1570281619.08571
1570281619.10133
1570281619.11696
1570281619.13258
1570281619.14821
1570281619.16384
1570281619.17946
1570281619.19509
1570281619.21071
1570281619.22634
1570281619.24196
1570281619.25759
1570281619.27322
1570281619.28884
1570281619.30447
1570281619.32009
1570281619.33572
1570281619.35134
1570281619.36697
1570281619.3826
1570281619.39822
1570281619.41385
1570281619.42947
1570281619.4451
1570281619.46072
1570281619.47635
1570281619.49198
1570281619.5076
1570281619.52323
1570281619.53885
1570281619.55448
1570281619.57011
1570281619.58573
1570281619.60136
1570281619.61698
1570281619.63261
1570281619.64823
1570281619.66386
1570281619.67949
1570281619.69511
1570281619.71074
1570281619.72636
1570281619.74199
1570281619.75761
1570281619.77324
1570281619.78887
1570281619.80449
1570281619.82012
1570281619.83574
1570281619.85137
1570281619.86699
1570281619.88262
1570281619.89825
1570281619.91387
1570281619.9295
1570281619.94512
1570281619.96075
1570281619.97637
1570281619.992
1570281620.00763
1570281620.02325
1570281620.03888
1570281620.0545
1570281620.07013
1570281620.08575
1570281620.10138
1570281620.11701
1570281620.13263
1570281620.14826
1570281620.16388
1570281620.17951
1570281620.19513
1570281620.21076
1570281620.22639
1570281620.24201
1570281620.25764
1570281620.27326
1570281620.28889
1570281620.30451
1570281620.32014
1570281620.33577
1570281620.35139
1570281620.36702
1570281620.38264
1570281620.39827
1570281620.41389
1570281620.42952
1570281620.44515
1570281620.46077
1570281620.4764
1570281620.49202
1570281620.50765
1570281620.52327
1570281620.5389
1570281620.55453
1570281620.57015
1570281620.58578
1570281620.6014
1570281620.61703
1570281620.63265
1570281620.64828
1570281620.66391
1570281620.67953
1570281620.69516
1570281620.71078
1570281620.72641
1570281620.74203
1570281620.75766
1570281620.77329
1570281620.78891
1570281620.80454
1570281620.82016
1570281620.83579
1570281620.85141
1570281620.86704
1570281620.88267
1570281620.89829
1570281620.91392
1570281620.92954
1570281620.94517
1570281620.96079
1570281620.97642
1570281620.99205
1570281621.00767
1570281621.0233
1570281621.03892
1570281621.05455
1570281621.07017
1570281621.0858
1570281621.10143
1570281621.11705
1570281621.13268
1570281621.1483
1570281621.16393
1570281621.17955
1570281621.19518
1570281621.21081
1570281621.22643
1570281621.24206
1570281621.25768
1570281621.27331
1570281621.28893
1570281621.30456
1570281621.32019
1570281621.33581
1570281621.35144
1570281621.36706
1570281621.38269
1570281621.39831
1570281621.41394
1570281621.42957
1570281621.44519
1570281621.46082
1570281621.47644
1570281621.49207
1570281621.50769
1570281621.52332
1570281621.53895
1570281621.55457
1570281621.5702
1570281621.58582
1570281621.60145
1570281621.61707
1570281621.6327
1570281621.64833
1570281621.66395
1570281621.67958
1570281621.6952
1570281621.71083
1570281621.72645
1570281621.74208
1570281621.75771
1570281621.77333
1570281621.78896
1570281621.80458
1570281621.82021
1570281621.83583
1570281621.85146
1570281621.86709
1570281621.88271
1570281621.89834
1570281621.91396
1570281621.92959
1570281621.94521
1570281621.96084
1570281621.97647
1570281621.99209
1570281622.00772
1570281622.02334
1570281622.03897
1570281622.05459
1570281622.07022
1570281622.08585
1570281622.10147
1570281622.1171
1570281622.13272
1570281622.14835
1570281622.16398
1570281622.1796
1570281622.19523
1570281622.21085
1570281622.22648
1570281622.2421
1570281622.25773
1570281622.27336
1570281622.28898
1570281622.30461
1570281622.32023
1570281622.33586
1570281622.35148
1570281622.36711
1570281622.38274
1570281622.39836
1570281622.41399
1570281622.42961
1570281622.44524
1570281622.46086
1570281622.47649
1570281622.49212
1570281622.50774
1570281622.52337
1570281622.53899
1570281622.55462
1570281622.57024
1570281622.58587
1570281622.6015
1570281622.61712
1570281622.63275
1570281622.64837
1570281622.664
1570281622.67962
1570281622.69525
1570281622.71088
1570281622.7265
1570281622.74213
1570281622.75775
1570281622.77338
1570281622.789
1570281622.80463
1570281622.82026
1570281622.83588
1570281622.85151
1570281622.86713
1570281622.88276
1570281622.89838
1570281622.91401
1570281622.92964
1570281622.94526
1570281622.96089
1570281622.97651
1570281622.99214
1570281623.00776
1570281623.02339
1570281623.03902
1570281623.05464
1570281623.07027
1570281623.08589
1570281623.10152
1570281623.11714
1570281623.13277
1570281623.1484
1570281623.16402
1570281623.17965
1570281623.19527
1570281623.2109
1570281623.22652
1570281623.24215
1570281623.25778
1570281623.2734
1570281623.28903
1570281623.30465
1570281623.32028
1570281623.3359
1570281623.35153
1570281623.36716
1570281623.38278
1570281623.39841
1570281623.41403
1570281623.42966
1570281623.44528
1570281623.46091
1570281623.47654
1570281623.49216
1570281623.50779
1570281623.52341
1570281623.53904
1570281623.55466
1570281623.57029
1570281623.58592
1570281623.60154
1570281623.61717
1570281623.63279
1570281623.64842
1570281623.66404
1570281623.67967
1570281623.6953
1570281623.71092
1570281623.72655
1570281623.74217
1570281623.7578
1570281623.77342
1570281623.78905
1570281623.80468
1570281623.8203
1570281623.83593
1570281623.85155
1570281623.86718
1570281623.8828
1570281623.89843
1570281623.91406
1570281623.92968
1570281623.94531
1570281623.96093
1570281623.97656
1570281623.99218
1570281624.00781
1570281624.02344
1570281624.03906
1570281624.05469
1570281624.07031
1570281624.08594
1570281624.10156
1570281624.11719
1570281624.13282
1570281624.14844
1570281624.16407
1570281624.17969
1570281624.19532
1570281624.21094
1570281624.22657
1570281624.2422
1570281624.25782
1570281624.27345
1570281624.28907
1570281624.3047
1570281624.32032
1570281624.33595
1570281624.35158
1570281624.3672
1570281624.38283
1570281624.39845
1570281624.41408
1570281624.42971
1570281624.44533
1570281624.46096
1570281624.47658
1570281624.49221
1570281624.50783
1570281624.52346
1570281624.53909
1570281624.55471
1570281624.57034
1570281624.58596
1570281624.60159
1570281624.61721
1570281624.63284
1570281624.64847
1570281624.66409
1570281624.67972
1570281624.69534
1570281624.71097
1570281624.72659
1570281624.74222
1570281624.75785
1570281624.77347
1570281624.7891
1570281624.80472
1570281624.82035
1570281624.83597
1570281624.8516
1570281624.86723
1570281624.88285
1570281624.89848
1570281624.9141
1570281624.92973
1570281624.94535
1570281624.96098
1570281624.97661
1570281624.99223
1570281625.00786
1570281625.02348
1570281625.03911
1570281625.05473
1570281625.07036
1570281625.08599
1570281625.10161
1570281625.11724
1570281625.13286
1570281625.14849
1570281625.16411
1570281625.17974
1570281625.19537
1570281625.21099
1570281625.22662
1570281625.24224
1570281625.25787
1570281625.27349
1570281625.28912
1570281625.30475
1570281625.32037
1570281625.336
1570281625.35162
1570281625.36725
1570281625.38287
1570281625.3985
1570281625.41413
1570281625.42975
1570281625.44538
1570281625.461
1570281625.47663
1570281625.49225
1570281625.50788
1570281625.52351
1570281625.53913
1570281625.55476
1570281625.57038
1570281625.58601
1570281625.60163
1570281625.61726
1570281625.63289
1570281625.64851
1570281625.66414
1570281625.67976
1570281625.69539
1570281625.71101
1570281625.72664
1570281625.74227
1570281625.75789
1570281625.77352
1570281625.78914
1570281625.80477
1570281625.82039
1570281625.83602
1570281625.85165
1570281625.86727
1570281625.8829
1570281625.89852
1570281625.91415
1570281625.92977
1570281625.9454
1570281625.96103
1570281625.97665
1570281625.99228
1570281626.0079
1570281626.02353
1570281626.03915
1570281626.05478
1570281626.07041
1570281626.08603
1570281626.10166
1570281626.11728
1570281626.13291
1570281626.14853
1570281626.16416
1570281626.17979
1570281626.19541
1570281626.21104
1570281626.22666
1570281626.24229
1570281626.25791
1570281626.27354
1570281626.28917
1570281626.30479
1570281626.32042
1570281626.33604
1570281626.35167
1570281626.36729
1570281626.38292
1570281626.39855
1570281626.41417
1570281626.4298
1570281626.44542
1570281626.46105
1570281626.47667
1570281626.4923
1570281626.50793
1570281626.52355
1570281626.53918
1570281626.5548
1570281626.57043
1570281626.58605
1570281626.60168
1570281626.61731
1570281626.63293
1570281626.64856
1570281626.66418
1570281626.67981
1570281626.69544
1570281626.71106
1570281626.72669
1570281626.74231
1570281626.75794
1570281626.77356
1570281626.78919
1570281626.80482
1570281626.82044
1570281626.83607
1570281626.85169
1570281626.86732
1570281626.88294
1570281626.89857
1570281626.9142
1570281626.92982
1570281626.94545
1570281626.96107
1570281626.9767
1570281626.99232
1570281627.00795
1570281627.02358
1570281627.0392
1570281627.05483
1570281627.07045
1570281627.08608
1570281627.1017
1570281627.11733
1570281627.13296
1570281627.14858
1570281627.16421
1570281627.17983
1570281627.19546
1570281627.21108
1570281627.22671
1570281627.24234
1570281627.25796
1570281627.27359
1570281627.28921
1570281627.30484
1570281627.32046
1570281627.33609
1570281627.35172
1570281627.36734
1570281627.38297
1570281627.39859
1570281627.41422
1570281627.42984
1570281627.44547
1570281627.4611
1570281627.47672
1570281627.49235
1570281627.50797
1570281627.5236
1570281627.53922
1570281627.55485
1570281627.57048
1570281627.5861
1570281627.60173
1570281627.61735
1570281627.63298
1570281627.6486
1570281627.66423
1570281627.67986
1570281627.69548
1570281627.71111
1570281627.72673
1570281627.74236
1570281627.75798
1570281627.77361
1570281627.78924
1570281627.80486
1570281627.82049
1570281627.83611
1570281627.85174
1570281627.86736
1570281627.88299
1570281627.89862
1570281627.91424
1570281627.92987
1570281627.94549
1570281627.96112
1570281627.97674
1570281627.99237
1570281628.008
1570281628.02362
1570281628.03925
1570281628.05487
1570281628.0705
1570281628.08612
1570281628.10175
1570281628.11738
1570281628.133
1570281628.14863
1570281628.16425
1570281628.17988
1570281628.1955
1570281628.21113
1570281628.22676
1570281628.24238
1570281628.25801
1570281628.27363
1570281628.28926
1570281628.30488
1570281628.32051
1570281628.33614
1570281628.35176
1570281628.36739
1570281628.38301
1570281628.39864
1570281628.41426
1570281628.42989
1570281628.44552
1570281628.46114
1570281628.47677
1570281628.49239
1570281628.50802
1570281628.52364
1570281628.53927
1570281628.5549
1570281628.57052
1570281628.58615
1570281628.60177
1570281628.6174
1570281628.63302
1570281628.64865
1570281628.66428
1570281628.6799
1570281628.69553
1570281628.71115
1570281628.72678
1570281628.7424
1570281628.75803
1570281628.77366
1570281628.78928
1570281628.80491
1570281628.82053
1570281628.83616
1570281628.85178
1570281628.86741
1570281628.88304
1570281628.89866
1570281628.91429
1570281628.92991
1570281628.94554
1570281628.96116
1570281628.97679
1570281628.99242
1570281629.00804
1570281629.02367
1570281629.03929
1570281629.05492
1570281629.07054
1570281629.08617
1570281629.1018
1570281629.11742
1570281629.13305
1570281629.14867
1570281629.1643
1570281629.17992
1570281629.19555
1570281629.21118
1570281629.2268
1570281629.24243
1570281629.25805
1570281629.27368
1570281629.28931
1570281629.30493
1570281629.32056
1570281629.33618
1570281629.35181
1570281629.36743
1570281629.38306
1570281629.39869
1570281629.41431
1570281629.42994
1570281629.44556
1570281629.46119
1570281629.47681
1570281629.49244
1570281629.50807
1570281629.52369
1570281629.53932
1570281629.55494
1570281629.57057
1570281629.58619
1570281629.60182
1570281629.61745
1570281629.63307
1570281629.6487
1570281629.66432
1570281629.67995
1570281629.69557
1570281629.7112
1570281629.72683
1570281629.74245
1570281629.75808
1570281629.7737
1570281629.78933
1570281629.80495
1570281629.82058
1570281629.83621
1570281629.85183
1570281629.86746
1570281629.88308
1570281629.89871
1570281629.91433
1570281629.92996
1570281629.94559
1570281629.96121
1570281629.97684
1570281629.99246
1570281630.00809
1570281630.02371
1570281630.03934
1570281630.05497
1570281630.07059
1570281630.08622
1570281630.10184
1570281630.11747
1570281630.13309
1570281630.14872
1570281630.16435
1570281630.17997
1570281630.1956
1570281630.21122
1570281630.22685
1570281630.24247
1570281630.2581
1570281630.27373
1570281630.28935
1570281630.30498
1570281630.3206
1570281630.33623
1570281630.35185
1570281630.36748
1570281630.38311
1570281630.39873
1570281630.41436
1570281630.42998
1570281630.44561
1570281630.46123
1570281630.47686
1570281630.49249
1570281630.50811
1570281630.52374
1570281630.53936
1570281630.55499
1570281630.57061
1570281630.58624
1570281630.60187
1570281630.61749
1570281630.63312
1570281630.64874
1570281630.66437
1570281630.67999
1570281630.69562
1570281630.71125
1570281630.72687
1570281630.7425
1570281630.75812
1570281630.77375
1570281630.78937
1570281630.805
1570281630.82063
1570281630.83625
1570281630.85188
1570281630.8675
1570281630.88313
1570281630.89875
1570281630.91438
1570281630.93001
1570281630.94563
1570281630.96126
1570281630.97688
1570281630.99251
1570281631.00813
1570281631.02376
1570281631.03939
1570281631.05501
1570281631.07064
1570281631.08626
1570281631.10189
1570281631.11751
1570281631.13314
1570281631.14877
1570281631.16439
1570281631.18002
1570281631.19564
1570281631.21127
1570281631.22689
1570281631.24252
1570281631.25815
1570281631.27377
1570281631.2894
1570281631.30502
1570281631.32065
1570281631.33627
1570281631.3519
1570281631.36753
1570281631.38315
1570281631.39878
1570281631.4144
1570281631.43003
1570281631.44565
1570281631.46128
1570281631.47691
1570281631.49253
1570281631.50816
1570281631.52378
1570281631.53941
1570281631.55504
1570281631.57066
1570281631.58629
1570281631.60191
1570281631.61754
1570281631.63316
1570281631.64879
1570281631.66442
1570281631.68004
1570281631.69567
1570281631.71129
1570281631.72692
1570281631.74254
1570281631.75817
1570281631.7738
1570281631.78942
1570281631.80505
1570281631.82067
1570281631.8363
1570281631.85192
1570281631.86755
1570281631.88318
1570281631.8988
1570281631.91443
1570281631.93005
1570281631.94568
1570281631.9613
1570281631.97693
1570281631.99256
1570281632.00818
1570281632.02381
1570281632.03943
1570281632.05506
1570281632.07068
1570281632.08631
1570281632.10194
1570281632.11756
1570281632.13319
1570281632.14881
1570281632.16444
1570281632.18006
1570281632.19569
1570281632.21132
1570281632.22694
1570281632.24257
1570281632.25819
1570281632.27382
1570281632.28944
1570281632.30507
1570281632.3207
1570281632.33632
1570281632.35195
1570281632.36757
1570281632.3832
1570281632.39882
1570281632.41445
1570281632.43008
1570281632.4457
1570281632.46133
1570281632.47695
1570281632.49258
1570281632.5082
1570281632.52383
1570281632.53946
1570281632.55508
1570281632.57071
1570281632.58633
1570281632.60196
1570281632.61758
1570281632.63321
1570281632.64884
1570281632.66446
1570281632.68009
1570281632.69571
1570281632.71134
1570281632.72696
1570281632.74259
1570281632.75822
1570281632.77384
1570281632.78947
1570281632.80509
1570281632.82072
1570281632.83634
1570281632.85197
1570281632.8676
1570281632.88322
1570281632.89885
1570281632.91447
1570281632.9301
1570281632.94572
1570281632.96135
1570281632.97698
1570281632.9926
1570281633.00823
1570281633.02385
1570281633.03948
1570281633.0551
1570281633.07073
1570281633.08636
1570281633.10198
1570281633.11761
1570281633.13323
1570281633.14886
1570281633.16448
1570281633.18011
1570281633.19574
1570281633.21136
1570281633.22699
1570281633.24261
1570281633.25824
1570281633.27386
1570281633.28949
1570281633.30512
1570281633.32074
1570281633.33637
1570281633.35199
1570281633.36762
1570281633.38324
1570281633.39887
1570281633.4145
1570281633.43012
1570281633.44575
1570281633.46137
1570281633.477
1570281633.49262
1570281633.50825
1570281633.52388
1570281633.5395
1570281633.55513
1570281633.57075
1570281633.58638
1570281633.602
1570281633.61763
1570281633.63326
1570281633.64888
1570281633.66451
1570281633.68013
1570281633.69576
1570281633.71139
1570281633.72701
1570281633.74264
1570281633.75826
1570281633.77389
1570281633.78951
1570281633.80514
1570281633.82077
1570281633.83639
1570281633.85202
1570281633.86764
1570281633.88327
1570281633.89889
1570281633.91452
1570281633.93015
1570281633.94577
1570281633.9614
1570281633.97702
1570281633.99265
1570281634.00827
1570281634.0239
1570281634.03953
1570281634.05515
1570281634.07078
1570281634.0864
1570281634.10203
1570281634.11765
1570281634.13328
1570281634.14891
1570281634.16453
1570281634.18016
1570281634.19578
1570281634.21141
1570281634.22703
1570281634.24266
1570281634.25829
1570281634.27391
1570281634.28954
1570281634.30516
1570281634.32079
1570281634.33641
1570281634.35204
1570281634.36767
1570281634.38329
1570281634.39892
1570281634.41454
1570281634.43017
1570281634.44579
1570281634.46142
1570281634.47705
1570281634.49267
1570281634.5083
1570281634.52392
1570281634.53955
1570281634.55517
1570281634.5708
1570281634.58643
1570281634.60205
1570281634.61768
1570281634.6333
1570281634.64893
1570281634.66455
1570281634.68018
1570281634.69581
1570281634.71143
1570281634.72706
1570281634.74268
1570281634.75831
1570281634.77393
1570281634.78956
1570281634.80519
1570281634.82081
1570281634.83644
1570281634.85206
1570281634.86769
1570281634.88331
1570281634.89894
1570281634.91457
1570281634.93019
1570281634.94582
1570281634.96144
1570281634.97707
1570281634.99269
1570281635.00832
1570281635.02395
1570281635.03957
1570281635.0552
1570281635.07082
1570281635.08645
1570281635.10207
1570281635.1177
1570281635.13333
1570281635.14895
1570281635.16458
1570281635.1802
1570281635.19583
1570281635.21145
1570281635.22708
1570281635.24271
1570281635.25833
1570281635.27396
1570281635.28958
1570281635.30521
1570281635.32083
1570281635.33646
1570281635.35209
1570281635.36771
1570281635.38334
1570281635.39896
1570281635.41459
1570281635.43021
1570281635.44584
1570281635.46147
1570281635.47709
1570281635.49272
1570281635.50834
1570281635.52397
1570281635.53959
1570281635.55522
1570281635.57085
1570281635.58647
1570281635.6021
1570281635.61772
1570281635.63335
1570281635.64897
1570281635.6646
1570281635.68023
1570281635.69585
1570281635.71148
1570281635.7271
1570281635.74273
1570281635.75835
1570281635.77398
1570281635.78961
1570281635.80523
1570281635.82086
1570281635.83648
1570281635.85211
1570281635.86773
1570281635.88336
1570281635.89899
1570281635.91461
1570281635.93024
1570281635.94586
1570281635.96149
1570281635.97711
1570281635.99274
1570281636.00837
1570281636.02399
1570281636.03962
1570281636.05524
1570281636.07087
1570281636.08649
1570281636.10212
1570281636.11775
1570281636.13337
1570281636.149
1570281636.16462
1570281636.18025
1570281636.19587
1570281636.2115
1570281636.22713
1570281636.24275
1570281636.25838
1570281636.274
1570281636.28963
1570281636.30525
1570281636.32088
1570281636.33651
1570281636.35213
1570281636.36776
1570281636.38338
1570281636.39901
1570281636.41464
1570281636.43026
1570281636.44589
1570281636.46151
1570281636.47714
1570281636.49276
1570281636.50839
1570281636.52402
1570281636.53964
1570281636.55527
1570281636.57089
1570281636.58652
1570281636.60214
1570281636.61777
1570281636.6334
1570281636.64902
1570281636.66465
1570281636.68027
1570281636.6959
1570281636.71152
1570281636.72715
1570281636.74278
1570281636.7584
1570281636.77403
1570281636.78965
1570281636.80528
1570281636.8209
1570281636.83653
1570281636.85216
1570281636.86778
1570281636.88341
1570281636.89903
1570281636.91466
1570281636.93028
1570281636.94591
1570281636.96154
1570281636.97716
1570281636.99279
1570281637.00841
1570281637.02404
1570281637.03966
1570281637.05529
1570281637.07092
1570281637.08654
1570281637.10217
1570281637.11779
1570281637.13342
1570281637.14904
1570281637.16467
1570281637.1803
1570281637.19592
1570281637.21155
1570281637.22717
1570281637.2428
1570281637.25842
1570281637.27405
1570281637.28968
1570281637.3053
1570281637.32093
1570281637.33655
1570281637.35218
1570281637.3678
1570281637.38343
1570281637.39906
1570281637.41468
1570281637.43031
1570281637.44593
1570281637.46156
1570281637.47718
1570281637.49281
1570281637.50844
1570281637.52406
1570281637.53969
1570281637.55531
1570281637.57094
1570281637.58656
1570281637.60219
1570281637.61782
1570281637.63344
1570281637.64907
1570281637.66469
1570281637.68032
1570281637.69594
1570281637.71157
1570281637.7272
1570281637.74282
1570281637.75845
1570281637.77407
1570281637.7897
1570281637.80532
1570281637.82095
1570281637.83658
1570281637.8522
1570281637.86783
1570281637.88345
1570281637.89908
1570281637.9147
1570281637.93033
1570281637.94596
1570281637.96158
1570281637.97721
1570281637.99283
1570281638.00846
1570281638.02408
1570281638.03971
1570281638.05534
1570281638.07096
1570281638.08659
1570281638.10221
1570281638.11784
1570281638.13346
1570281638.14909
1570281638.16472
1570281638.18034
1570281638.19597
1570281638.21159
1570281638.22722
1570281638.24284
1570281638.25847
1570281638.2741
1570281638.28972
1570281638.30535
1570281638.32097
1570281638.3366
1570281638.35222
1570281638.36785
1570281638.38348
1570281638.3991
1570281638.41473
1570281638.43035
1570281638.44598
1570281638.4616
1570281638.47723
1570281638.49286
1570281638.50848
1570281638.52411
1570281638.53973
1570281638.55536
1570281638.57099
1570281638.58661
1570281638.60224
1570281638.61786
1570281638.63349
1570281638.64911
1570281638.66474
1570281638.68037
1570281638.69599
1570281638.71162
1570281638.72724
1570281638.74287
1570281638.75849
1570281638.77412
1570281638.78975
1570281638.80537
1570281638.821
1570281638.83662
1570281638.85225
1570281638.86787
1570281638.8835
1570281638.89913
1570281638.91475
1570281638.93038
1570281638.946
1570281638.96163
1570281638.97725
1570281638.99288
1570281639.00851
1570281639.02413
1570281639.03976
1570281639.05538
1570281639.07101
1570281639.08663
1570281639.10226
1570281639.11789
1570281639.13351
1570281639.14914
1570281639.16476
1570281639.18039
1570281639.19601
1570281639.21164
1570281639.22727
1570281639.24289
1570281639.25852
1570281639.27414
1570281639.28977
1570281639.30539
1570281639.32102
1570281639.33665
1570281639.35227
1570281639.3679
1570281639.38352
1570281639.39915
1570281639.41477
1570281639.4304
1570281639.44603
1570281639.46165
1570281639.47728
1570281639.4929
1570281639.50853
1570281639.52415
1570281639.53978
1570281639.55541
1570281639.57103
1570281639.58666
1570281639.60228
1570281639.61791
1570281639.63353
1570281639.64916
1570281639.66479
1570281639.68041
1570281639.69604
1570281639.71166
1570281639.72729
1570281639.74291
1570281639.75854
1570281639.77417
1570281639.78979
1570281639.80542
1570281639.82104
1570281639.83667
1570281639.85229
1570281639.86792
1570281639.88355
1570281639.89917
1570281639.9148
1570281639.93042
1570281639.94605
1570281639.96167
1570281639.9773
1570281639.99293
1570281640.00855
1570281640.02418
1570281640.0398
1570281640.05543
1570281640.07105
1570281640.08668
1570281640.10231
1570281640.11793
1570281640.13356
1570281640.14918
1570281640.16481
1570281640.18043
1570281640.19606
1570281640.21169
1570281640.22731
1570281640.24294
1570281640.25856
1570281640.27419
1570281640.28981
1570281640.30544
1570281640.32107
1570281640.33669
1570281640.35232
1570281640.36794
1570281640.38357
1570281640.39919
1570281640.41482
1570281640.43045
1570281640.44607
1570281640.4617
1570281640.47732
1570281640.49295
1570281640.50857
1570281640.5242
1570281640.53983
1570281640.55545
1570281640.57108
1570281640.5867
1570281640.60233
1570281640.61795
1570281640.63358
1570281640.64921
1570281640.66483
1570281640.68046
1570281640.69608
1570281640.71171
1570281640.72733
1570281640.74296
1570281640.75859
1570281640.77421
1570281640.78984
1570281640.80546
1570281640.82109
1570281640.83671
1570281640.85234
1570281640.86797
1570281640.88359
1570281640.89922
1570281640.91484
1570281640.93047
1570281640.94609
1570281640.96172
1570281640.97735
1570281640.99297
1570281641.0086
1570281641.02422
1570281641.03985
1570281641.05548
1570281641.0711
1570281641.08673
1570281641.10235
1570281641.11798
1570281641.1336
1570281641.14923
1570281641.16486
1570281641.18048
1570281641.19611
1570281641.21173
1570281641.22736
1570281641.24298
1570281641.25861
1570281641.27424
1570281641.28986
1570281641.30549
1570281641.32111
1570281641.33674
1570281641.35236
1570281641.36799
1570281641.38362
1570281641.39924
1570281641.41487
1570281641.43049
1570281641.44612
1570281641.46174
1570281641.47737
1570281641.493
1570281641.50862
1570281641.52425
1570281641.53987
1570281641.5555
1570281641.57112
1570281641.58675
1570281641.60238
1570281641.618
1570281641.63363
1570281641.64925
1570281641.66488
1570281641.6805
1570281641.69613
1570281641.71176
1570281641.72738
1570281641.74301
1570281641.75863
1570281641.77426
1570281641.78988
1570281641.80551
1570281641.82114
1570281641.83676
1570281641.85239
1570281641.86801
1570281641.88364
1570281641.89926
1570281641.91489
1570281641.93052
1570281641.94614
1570281641.96177
1570281641.97739
1570281641.99302
1570281642.00864
1570281642.02427
1570281642.0399
1570281642.05552
1570281642.07115
1570281642.08677
1570281642.1024
1570281642.11802
1570281642.13365
1570281642.14928
1570281642.1649
1570281642.18053
1570281642.19615
1570281642.21178
1570281642.2274
1570281642.24303
1570281642.25866
1570281642.27428
1570281642.28991
1570281642.30553
1570281642.32116
1570281642.33678
1570281642.35241
1570281642.36804
1570281642.38366
1570281642.39929
1570281642.41491
1570281642.43054
1570281642.44616
1570281642.46179
1570281642.47742
1570281642.49304
1570281642.50867
1570281642.52429
1570281642.53992
1570281642.55554
1570281642.57117
1570281642.5868
1570281642.60242
1570281642.61805
1570281642.63367
1570281642.6493
1570281642.66492
1570281642.68055
1570281642.69618
1570281642.7118
1570281642.72743
1570281642.74305
1570281642.75868
1570281642.7743
1570281642.78993
1570281642.80556
1570281642.82118
1570281642.83681
1570281642.85243
1570281642.86806
1570281642.88368
1570281642.89931
1570281642.91494
1570281642.93056
1570281642.94619
1570281642.96181
1570281642.97744
1570281642.99306
1570281643.00869
1570281643.02432
1570281643.03994
1570281643.05557
1570281643.07119
1570281643.08682
1570281643.10244
1570281643.11807
1570281643.1337
1570281643.14932
1570281643.16495
1570281643.18057
1570281643.1962
1570281643.21182
1570281643.22745
1570281643.24308
1570281643.2587
1570281643.27433
1570281643.28995
1570281643.30558
1570281643.3212
1570281643.33683
1570281643.35246
1570281643.36808
1570281643.38371
1570281643.39933
1570281643.41496
1570281643.43059
1570281643.44621
1570281643.46184
1570281643.47746
1570281643.49309
1570281643.50871
1570281643.52434
1570281643.53997
1570281643.55559
1570281643.57122
1570281643.58684
1570281643.60247
1570281643.61809
1570281643.63372
1570281643.64935
1570281643.66497
1570281643.6806
1570281643.69622
1570281643.71185
1570281643.72747
1570281643.7431
1570281643.75873
1570281643.77435
1570281643.78998
1570281643.8056
1570281643.82123
1570281643.83685
1570281643.85248
1570281643.86811
1570281643.88373
1570281643.89936
1570281643.91498
1570281643.93061
1570281643.94623
1570281643.96186
1570281643.97749
1570281643.99311
1570281644.00874
1570281644.02436
1570281644.03999
1570281644.05561
1570281644.07124
1570281644.08687
1570281644.10249
1570281644.11812
1570281644.13374
1570281644.14937
1570281644.16499
1570281644.18062
1570281644.19625
1570281644.21187
1570281644.2275
1570281644.24312
1570281644.25875
1570281644.27437
1570281644.29
1570281644.30563
1570281644.32125
1570281644.33688
1570281644.3525
1570281644.36813
1570281644.38375
1570281644.39938
1570281644.41501
1570281644.43063
1570281644.44626
1570281644.46188
1570281644.47751
1570281644.49313
1570281644.50876
1570281644.52439
1570281644.54001
1570281644.55564
1570281644.57126
1570281644.58689
1570281644.60251
1570281644.61814
1570281644.63377
1570281644.64939
1570281644.66502
1570281644.68064
1570281644.69627
1570281644.71189
1570281644.72752
1570281644.74315
1570281644.75877
1570281644.7744
1570281644.79002
1570281644.80565
1570281644.82127
1570281644.8369
1570281644.85253
1570281644.86815
1570281644.88378
1570281644.8994
1570281644.91503
1570281644.93065
1570281644.94628
1570281644.96191
1570281644.97753
1570281644.99316
1570281645.00878
1570281645.02441
1570281645.04003
1570281645.05566
1570281645.07129
1570281645.08691
1570281645.10254
1570281645.11816
1570281645.13379
1570281645.14941
1570281645.16504
1570281645.18067
1570281645.19629
1570281645.21192
1570281645.22754
1570281645.24317
1570281645.25879
1570281645.27442
1570281645.29005
1570281645.30567
1570281645.3213
1570281645.33692
1570281645.35255
1570281645.36817
1570281645.3838
1570281645.39943
1570281645.41505
1570281645.43068
1570281645.4463
1570281645.46193
1570281645.47755
1570281645.49318
1570281645.50881
1570281645.52443
1570281645.54006
1570281645.55568
1570281645.57131
1570281645.58693
1570281645.60256
1570281645.61819
1570281645.63381
1570281645.64944
1570281645.66506
1570281645.68069
1570281645.69632
1570281645.71194
1570281645.72757
1570281645.74319
1570281645.75882
1570281645.77444
1570281645.79007
1570281645.8057
1570281645.82132
1570281645.83695
1570281645.85257
1570281645.8682
1570281645.88382
1570281645.89945
1570281645.91508
1570281645.9307
1570281645.94633
1570281645.96195
1570281645.97758
1570281645.9932
1570281646.00883
1570281646.02446
1570281646.04008
1570281646.05571
1570281646.07133
1570281646.08696
1570281646.10258
1570281646.11821
1570281646.13384
1570281646.14946
1570281646.16509
1570281646.18071
1570281646.19634
1570281646.21196
1570281646.22759
1570281646.24322
1570281646.25884
1570281646.27447
1570281646.29009
1570281646.30572
1570281646.32134
1570281646.33697
1570281646.3526
1570281646.36822
1570281646.38385
1570281646.39947
1570281646.4151
1570281646.43072
1570281646.44635
1570281646.46198
1570281646.4776
1570281646.49323
1570281646.50885
1570281646.52448
1570281646.5401
1570281646.55573
1570281646.57136
1570281646.58698
1570281646.60261
1570281646.61823
1570281646.63386
1570281646.64948
1570281646.66511
1570281646.68074
1570281646.69636
1570281646.71199
1570281646.72761
1570281646.74324
1570281646.75886
1570281646.77449
1570281646.79012
1570281646.80574
1570281646.82137
1570281646.83699
1570281646.85262
1570281646.86824
1570281646.88387
1570281646.8995
1570281646.91512
1570281646.93075
1570281646.94637
1570281646.962
1570281646.97762
1570281646.99325
1570281647.00888
1570281647.0245
1570281647.04013
1570281647.05575
1570281647.07138
1570281647.087
1570281647.10263
1570281647.11826
1570281647.13388
1570281647.14951
1570281647.16513
1570281647.18076
1570281647.19638
1570281647.21201
1570281647.22764
1570281647.24326
1570281647.25889
1570281647.27451
1570281647.29014
1570281647.30576
1570281647.32139
1570281647.33702
1570281647.35264
1570281647.36827
1570281647.38389
1570281647.39952
1570281647.41514
1570281647.43077
1570281647.4464
1570281647.46202
1570281647.47765
1570281647.49327
1570281647.5089
1570281647.52452
1570281647.54015
1570281647.55578
1570281647.5714
1570281647.58703
1570281647.60265
1570281647.61828
1570281647.6339
1570281647.64953
1570281647.66516
1570281647.68078
1570281647.69641
1570281647.71203
1570281647.72766
1570281647.74328
1570281647.75891
1570281647.77454
1570281647.79016
1570281647.80579
1570281647.82141
1570281647.83704
1570281647.85266
1570281647.86829
1570281647.88392
1570281647.89954
1570281647.91517
1570281647.93079
1570281647.94642
1570281647.96204
1570281647.97767
1570281647.9933
1570281648.00892
1570281648.02455
1570281648.04017
1570281648.0558
1570281648.07142
1570281648.08705
1570281648.10268
1570281648.1183
1570281648.13393
1570281648.14955
1570281648.16518
1570281648.1808
1570281648.19643
1570281648.21206
1570281648.22768
1570281648.24331
1570281648.25893
1570281648.27456
1570281648.29018
1570281648.30581
1570281648.32144
1570281648.33706
1570281648.35269
1570281648.36831
1570281648.38394
1570281648.39957
1570281648.41519
1570281648.43082
1570281648.44644
1570281648.46207
1570281648.47769
1570281648.49332
1570281648.50895
1570281648.52457
1570281648.5402
1570281648.55582
1570281648.57145
1570281648.58707
1570281648.6027
1570281648.61833
1570281648.63395
1570281648.64958
1570281648.6652
1570281648.68083
1570281648.69645
1570281648.71208
1570281648.72771
1570281648.74333
1570281648.75896
1570281648.77458
1570281648.79021
1570281648.80583
1570281648.82146
1570281648.83709
1570281648.85271
1570281648.86834
1570281648.88396
1570281648.89959
1570281648.91521
1570281648.93084
1570281648.94647
1570281648.96209
1570281648.97772
1570281648.99334
1570281649.00897
1570281649.02459
1570281649.04022
1570281649.05585
1570281649.07147
1570281649.0871
1570281649.10272
1570281649.11835
1570281649.13397
1570281649.1496
1570281649.16523
1570281649.18085
1570281649.19648
1570281649.2121
1570281649.22773
1570281649.24335
1570281649.25898
1570281649.27461
1570281649.29023
1570281649.30586
1570281649.32148
1570281649.33711
1570281649.35273
1570281649.36836
1570281649.38399
1570281649.39961
1570281649.41524
1570281649.43086
1570281649.44649
1570281649.46211
1570281649.47774
1570281649.49337
1570281649.50899
1570281649.52462
1570281649.54024
1570281649.55587
1570281649.57149
1570281649.58712
1570281649.60275
1570281649.61837
1570281649.634
1570281649.64962
1570281649.66525
1570281649.68087
1570281649.6965
1570281649.71213
1570281649.72775
1570281649.74338
1570281649.759
1570281649.77463
1570281649.79025
1570281649.80588
1570281649.82151
1570281649.83713
1570281649.85276
1570281649.86838
1570281649.88401
1570281649.89963
1570281649.91526
1570281649.93089
1570281649.94651
1570281649.96214
1570281649.97776
1570281649.99339
1570281650.00901
1570281650.02464
1570281650.04027
1570281650.05589
1570281650.07152
1570281650.08714
1570281650.10277
1570281650.11839
1570281650.13402
1570281650.14965
1570281650.16527
1570281650.1809
1570281650.19652
1570281650.21215
1570281650.22777
1570281650.2434
1570281650.25903
1570281650.27465
1570281650.29028
1570281650.3059
1570281650.32153
1570281650.33715
1570281650.35278
1570281650.36841
1570281650.38403
1570281650.39966
1570281650.41528
1570281650.43091
1570281650.44653
1570281650.46216
1570281650.47779
1570281650.49341
1570281650.50904
1570281650.52466
1570281650.54029
1570281650.55592
1570281650.57154
1570281650.58717
1570281650.60279
1570281650.61842
1570281650.63404
1570281650.64967
1570281650.6653
1570281650.68092
1570281650.69655
1570281650.71217
1570281650.7278
1570281650.74342
1570281650.75905
1570281650.77468
1570281650.7903
1570281650.80593
1570281650.82155
1570281650.83718
1570281650.8528
1570281650.86843
1570281650.88406
1570281650.89968
1570281650.91531
1570281650.93093
1570281650.94656
1570281650.96218
1570281650.97781
1570281650.99344
1570281651.00906
1570281651.02469
1570281651.04031
1570281651.05594
1570281651.07156
1570281651.08719
1570281651.10282
1570281651.11844
1570281651.13407
1570281651.14969
1570281651.16532
1570281651.18094
1570281651.19657
1570281651.2122
1570281651.22782
1570281651.24345
1570281651.25907
1570281651.2747
1570281651.29032
1570281651.30595
1570281651.32158
1570281651.3372
1570281651.35283
1570281651.36845
1570281651.38408
1570281651.3997
1570281651.41533
1570281651.43096
1570281651.44658
1570281651.46221
1570281651.47783
1570281651.49346
1570281651.50908
1570281651.52471
1570281651.54034
1570281651.55596
1570281651.57159
1570281651.58721
1570281651.60284
1570281651.61846
1570281651.63409
1570281651.64972
1570281651.66534
1570281651.68097
1570281651.69659
1570281651.71222
1570281651.72784
1570281651.74347
1570281651.7591
1570281651.77472
1570281651.79035
1570281651.80597
1570281651.8216
1570281651.83722
1570281651.85285
1570281651.86848
1570281651.8841
1570281651.89973
1570281651.91535
1570281651.93098
1570281651.9466
1570281651.96223
1570281651.97786
1570281651.99348
1570281652.00911
1570281652.02473
1570281652.04036
1570281652.05598
1570281652.07161
1570281652.08724
1570281652.10286
1570281652.11849
1570281652.13411
1570281652.14974
1570281652.16536
1570281652.18099
1570281652.19662
1570281652.21224
1570281652.22787
1570281652.24349
1570281652.25912
1570281652.27474
1570281652.29037
1570281652.306
1570281652.32162
1570281652.33725
1570281652.35287
1570281652.3685
1570281652.38412
1570281652.39975
1570281652.41538
1570281652.431
1570281652.44663
1570281652.46225
1570281652.47788
1570281652.4935
1570281652.50913
1570281652.52476
1570281652.54038
1570281652.55601
1570281652.57163
1570281652.58726
1570281652.60288
1570281652.61851
1570281652.63414
1570281652.64976
1570281652.66539
1570281652.68101
1570281652.69664
1570281652.71226
1570281652.72789
1570281652.74352
1570281652.75914
1570281652.77477
1570281652.79039
1570281652.80602
1570281652.82165
1570281652.83727
1570281652.8529
1570281652.86852
1570281652.88415
1570281652.89977
1570281652.9154
1570281652.93103
1570281652.94665
1570281652.96228
1570281652.9779
1570281652.99353
1570281653.00915
1570281653.02478
1570281653.04041
1570281653.05603
1570281653.07166
1570281653.08728
1570281653.10291
1570281653.11853
1570281653.13416
1570281653.14979
1570281653.16541
1570281653.18104
1570281653.19666
1570281653.21229
1570281653.22791
1570281653.24354
1570281653.25917
1570281653.27479
1570281653.29042
1570281653.30604
1570281653.32167
1570281653.33729
1570281653.35292
1570281653.36855
1570281653.38417
1570281653.3998
1570281653.41542
1570281653.43105
1570281653.44667
1570281653.4623
1570281653.47793
1570281653.49355
1570281653.50918
1570281653.5248
1570281653.54043
1570281653.55605
1570281653.57168
1570281653.58731
1570281653.60293
1570281653.61856
1570281653.63418
1570281653.64981
1570281653.66543
1570281653.68106
1570281653.69669
1570281653.71231
1570281653.72794
1570281653.74356
1570281653.75919
1570281653.77481
1570281653.79044
1570281653.80607
1570281653.82169
1570281653.83732
1570281653.85294
1570281653.86857
1570281653.88419
1570281653.89982
1570281653.91545
1570281653.93107
1570281653.9467
1570281653.96232
1570281653.97795
1570281653.99357
1570281654.0092
1570281654.02483
1570281654.04045
1570281654.05608
1570281654.0717
1570281654.08733
1570281654.10295
1570281654.11858
1570281654.13421
1570281654.14983
1570281654.16546
1570281654.18108
1570281654.19671
1570281654.21233
1570281654.22796
1570281654.24359
1570281654.25921
1570281654.27484
1570281654.29046
1570281654.30609
1570281654.32171
1570281654.33734
1570281654.35297
1570281654.36859
1570281654.38422
1570281654.39984
1570281654.41547
1570281654.43109
1570281654.44672
1570281654.46235
1570281654.47797
1570281654.4936
1570281654.50922
1570281654.52485
1570281654.54047
1570281654.5561
1570281654.57173
1570281654.58735
1570281654.60298
1570281654.6186
1570281654.63423
1570281654.64985
1570281654.66548
1570281654.68111
1570281654.69673
1570281654.71236
1570281654.72798
1570281654.74361
1570281654.75923
1570281654.77486
1570281654.79049
1570281654.80611
1570281654.82174
1570281654.83736
1570281654.85299
1570281654.86861
1570281654.88424
1570281654.89987
1570281654.91549
1570281654.93112
1570281654.94674
1570281654.96237
1570281654.97799
1570281654.99362
1570281655.00925
1570281655.02487
1570281655.0405
1570281655.05612
1570281655.07175
1570281655.08737
1570281655.103
1570281655.11863
1570281655.13425
1570281655.14988
1570281655.1655
1570281655.18113
1570281655.19675
1570281655.21238
1570281655.22801
1570281655.24363
1570281655.25926
1570281655.27488
1570281655.29051
1570281655.30613
1570281655.32176
1570281655.33739
1570281655.35301
1570281655.36864
1570281655.38426
1570281655.39989
1570281655.41552
1570281655.43114
1570281655.44677
1570281655.46239
1570281655.47802
1570281655.49364
1570281655.50927
1570281655.5249
1570281655.54052
1570281655.55615
1570281655.57177
1570281655.5874
1570281655.60302
1570281655.61865
1570281655.63428
1570281655.6499
1570281655.66553
1570281655.68115
1570281655.69678
1570281655.7124
1570281655.72803
1570281655.74366
1570281655.75928
1570281655.77491
1570281655.79053
1570281655.80616
1570281655.82178
1570281655.83741
1570281655.85304
1570281655.86866
1570281655.88429
1570281655.89991
1570281655.91554
1570281655.93116
1570281655.94679
1570281655.96242
1570281655.97804
1570281655.99367
1570281656.00929
1570281656.02492
1570281656.04054
1570281656.05617
1570281656.0718
1570281656.08742
1570281656.10305
1570281656.11867
1570281656.1343
1570281656.14992
1570281656.16555
1570281656.18118
1570281656.1968
1570281656.21243
1570281656.22805
1570281656.24368
1570281656.2593
1570281656.27493
1570281656.29056
1570281656.30618
1570281656.32181
1570281656.33743
1570281656.35306
1570281656.36868
1570281656.38431
1570281656.39994
1570281656.41556
1570281656.43119
1570281656.44681
1570281656.46244
1570281656.47806
1570281656.49369
1570281656.50932
1570281656.52494
1570281656.54057
1570281656.55619
1570281656.57182
1570281656.58744
1570281656.60307
1570281656.6187
1570281656.63432
1570281656.64995
1570281656.66557
1570281656.6812
1570281656.69682
1570281656.71245
1570281656.72808
1570281656.7437
1570281656.75933
1570281656.77495
1570281656.79058
1570281656.8062
1570281656.82183
1570281656.83746
1570281656.85308
1570281656.86871
1570281656.88433
1570281656.89996
1570281656.91558
1570281656.93121
1570281656.94684
1570281656.96246
1570281656.97809
1570281656.99371
1570281657.00934
1570281657.02496
1570281657.04059
1570281657.05622
1570281657.07184
1570281657.08747
1570281657.10309
1570281657.11872
1570281657.13434
1570281657.14997
1570281657.1656
1570281657.18122
1570281657.19685
1570281657.21247
1570281657.2281
1570281657.24372
1570281657.25935
1570281657.27498
1570281657.2906
1570281657.30623
1570281657.32185
1570281657.33748
1570281657.3531
1570281657.36873
1570281657.38436
1570281657.39998
1570281657.41561
1570281657.43123
1570281657.44686
1570281657.46248
1570281657.47811
1570281657.49374
1570281657.50936
1570281657.52499
1570281657.54061
1570281657.55624
1570281657.57186
1570281657.58749
1570281657.60312
1570281657.61874
1570281657.63437
1570281657.64999
1570281657.66562
1570281657.68125
1570281657.69687
1570281657.7125
1570281657.72812
1570281657.74375
1570281657.75937
1570281657.775
1570281657.79063
1570281657.80625
1570281657.82188
1570281657.8375
1570281657.85313
1570281657.86875
1570281657.88438
1570281657.90001
1570281657.91563
1570281657.93126
1570281657.94688
1570281657.96251
1570281657.97813
1570281657.99376
1570281658.00939
1570281658.02501
1570281658.04064
1570281658.05626
1570281658.07189
1570281658.08751
1570281658.10314
1570281658.11877
1570281658.13439
1570281658.15002
1570281658.16564
1570281658.18127
1570281658.19689
1570281658.21252
1570281658.22815
1570281658.24377
1570281658.2594
1570281658.27502
1570281658.29065
1570281658.30627
1570281658.3219
1570281658.33753
1570281658.35315
1570281658.36878
1570281658.3844
1570281658.40003
1570281658.41565
1570281658.43128
1570281658.44691
1570281658.46253
1570281658.47816
1570281658.49378
1570281658.50941
1570281658.52503
1570281658.54066
1570281658.55629
1570281658.57191
1570281658.58754
1570281658.60316
1570281658.61879
1570281658.63441
1570281658.65004
1570281658.66567
1570281658.68129
1570281658.69692
1570281658.71254
1570281658.72817
1570281658.74379
1570281658.75942
1570281658.77505
1570281658.79067
1570281658.8063
1570281658.82192
1570281658.83755
1570281658.85317
1570281658.8688
1570281658.88443
1570281658.90005
1570281658.91568
1570281658.9313
1570281658.94693
1570281658.96255
1570281658.97818
1570281658.99381
1570281659.00943
1570281659.02506
1570281659.04068
1570281659.05631
1570281659.07193
1570281659.08756
1570281659.10319
1570281659.11881
1570281659.13444
1570281659.15006
1570281659.16569
1570281659.18131
1570281659.19694
1570281659.21257
1570281659.22819
1570281659.24382
1570281659.25944
1570281659.27507
1570281659.29069
1570281659.30632
1570281659.32195
1570281659.33757
1570281659.3532
1570281659.36882
1570281659.38445
1570281659.40007
1570281659.4157
1570281659.43133
1570281659.44695
1570281659.46258
1570281659.4782
1570281659.49383
1570281659.50945
1570281659.52508
1570281659.54071
1570281659.55633
1570281659.57196
1570281659.58758
1570281659.60321
1570281659.61883
1570281659.63446
1570281659.65009
1570281659.66571
1570281659.68134
1570281659.69696
1570281659.71259
1570281659.72821
1570281659.74384
1570281659.75947
1570281659.77509
1570281659.79072
1570281659.80634
1570281659.82197
1570281659.83759
1570281659.85322
1570281659.86885
1570281659.88447
1570281659.9001
1570281659.91572
1570281659.93135
1570281659.94697
1570281659.9626
1570281659.97823
1570281659.99385
1570281660.00948
1570281660.0251
1570281660.04073
1570281660.05636
1570281660.07198
1570281660.08761
1570281660.10323
1570281660.11886
1570281660.13448
1570281660.15011
1570281660.16574
1570281660.18136
1570281660.19699
1570281660.21261
1570281660.22824
1570281660.24386
1570281660.25949
1570281660.27512
1570281660.29074
1570281660.30637
1570281660.32199
1570281660.33762
1570281660.35324
1570281660.36887
1570281660.3845
1570281660.40012
1570281660.41575
1570281660.43137
1570281660.447
1570281660.46262
1570281660.47825
1570281660.49388
1570281660.5095
1570281660.52513
1570281660.54075
1570281660.55638
1570281660.572
1570281660.58763
1570281660.60326
1570281660.61888
1570281660.63451
1570281660.65013
1570281660.66576
1570281660.68138
1570281660.69701
1570281660.71264
1570281660.72826
1570281660.74389
1570281660.75951
1570281660.77514
1570281660.79076
1570281660.80639
1570281660.82202
1570281660.83764
1570281660.85327
1570281660.86889
1570281660.88452
1570281660.90014
1570281660.91577
1570281660.9314
1570281660.94702
1570281660.96265
1570281660.97827
1570281660.9939
1570281661.00952
1570281661.02515
1570281661.04078
1570281661.0564
1570281661.07203
1570281661.08765
1570281661.10328
1570281661.1189
1570281661.13453
1570281661.15016
1570281661.16578
1570281661.18141
1570281661.19703
1570281661.21266
1570281661.22828
1570281661.24391
1570281661.25954
1570281661.27516
1570281661.29079
1570281661.30641
1570281661.32204
1570281661.33766
1570281661.35329
1570281661.36892
1570281661.38454
1570281661.40017
1570281661.41579
1570281661.43142
1570281661.44704
1570281661.46267
1570281661.4783
1570281661.49392
1570281661.50955
1570281661.52517
1570281661.5408
1570281661.55642
1570281661.57205
1570281661.58768
1570281661.6033
1570281661.61893
1570281661.63455
1570281661.65018
1570281661.6658
1570281661.68143
1570281661.69706
1570281661.71268
1570281661.72831
1570281661.74393
1570281661.75956
1570281661.77518
1570281661.79081
1570281661.80644
1570281661.82206
1570281661.83769
1570281661.85331
1570281661.86894
1570281661.88456
1570281661.90019
1570281661.91582
1570281661.93144
1570281661.94707
1570281661.96269
1570281661.97832
1570281661.99394
1570281662.00957
1570281662.0252
1570281662.04082
1570281662.05645
1570281662.07207
1570281662.0877
1570281662.10332
1570281662.11895
1570281662.13458
1570281662.1502
1570281662.16583
1570281662.18145
1570281662.19708
1570281662.2127
1570281662.22833
1570281662.24396
1570281662.25958
1570281662.27521
1570281662.29083
1570281662.30646
1570281662.32208
1570281662.33771
1570281662.35334
1570281662.36896
1570281662.38459
1570281662.40021
1570281662.41584
1570281662.43146
1570281662.44709
1570281662.46272
1570281662.47834
1570281662.49397
1570281662.50959
1570281662.52522
1570281662.54085
1570281662.55647
1570281662.5721
1570281662.58772
1570281662.60335
1570281662.61897
1570281662.6346
1570281662.65023
1570281662.66585
1570281662.68148
1570281662.6971
1570281662.71273
1570281662.72835
1570281662.74398
1570281662.75961
1570281662.77523
1570281662.79086
1570281662.80648
1570281662.82211
1570281662.83773
1570281662.85336
1570281662.86899
1570281662.88461
1570281662.90024
1570281662.91586
1570281662.93149
1570281662.94711
1570281662.96274
1570281662.97837
1570281662.99399
1570281663.00962
1570281663.02524
1570281663.04087
1570281663.05649
1570281663.07212
1570281663.08775
1570281663.10337
1570281663.119
1570281663.13462
1570281663.15025
1570281663.16587
1570281663.1815
1570281663.19713
1570281663.21275
1570281663.22838
1570281663.244
1570281663.25963
1570281663.27525
1570281663.29088
1570281663.30651
1570281663.32213
1570281663.33776
1570281663.35338
1570281663.36901
1570281663.38463
1570281663.40026
1570281663.41589
1570281663.43151
1570281663.44714
1570281663.46276
1570281663.47839
1570281663.49401
1570281663.50964
1570281663.52527
1570281663.54089
1570281663.55652
1570281663.57214
1570281663.58777
1570281663.60339
1570281663.61902
1570281663.63465
1570281663.65027
1570281663.6659
1570281663.68152
1570281663.69715
1570281663.71277
1570281663.7284
1570281663.74403
1570281663.75965
1570281663.77528
1570281663.7909
1570281663.80653
1570281663.82215
1570281663.83778
1570281663.85341
1570281663.86903
1570281663.88466
1570281663.90028
1570281663.91591
1570281663.93153
1570281663.94716
1570281663.96279
1570281663.97841
1570281663.99404
1570281664.00966
1570281664.02529
1570281664.04091
1570281664.05654
1570281664.07217
1570281664.08779
1570281664.10342
1570281664.11904
1570281664.13467
1570281664.15029
1570281664.16592
1570281664.18155
1570281664.19717
1570281664.2128
1570281664.22842
1570281664.24405
1570281664.25967
1570281664.2753
1570281664.29093
1570281664.30655
1570281664.32218
1570281664.3378
1570281664.35343
1570281664.36905
1570281664.38468
1570281664.40031
1570281664.41593
1570281664.43156
1570281664.44718
1570281664.46281
1570281664.47843
1570281664.49406
1570281664.50969
1570281664.52531
1570281664.54094
1570281664.55656
1570281664.57219
1570281664.58781
1570281664.60344
1570281664.61907
1570281664.63469
1570281664.65032
1570281664.66594
1570281664.68157
1570281664.6972
1570281664.71282
1570281664.72845
1570281664.74407
1570281664.7597
1570281664.77532
1570281664.79095
1570281664.80658
1570281664.8222
1570281664.83783
1570281664.85345
1570281664.86908
1570281664.8847
1570281664.90033
1570281664.91596
1570281664.93158
1570281664.94721
1570281664.96283
1570281664.97846
1570281664.99408
1570281665.00971
1570281665.02534
1570281665.04096
1570281665.05659
1570281665.07221
1570281665.08784
1570281665.10346
1570281665.11909
1570281665.13472
1570281665.15034
1570281665.16597
1570281665.18159
1570281665.19722
1570281665.21284
1570281665.22847
1570281665.2441
1570281665.25972
1570281665.27535
1570281665.29097
1570281665.3066
1570281665.32222
1570281665.33785
1570281665.35348
1570281665.3691
1570281665.38473
1570281665.40035
1570281665.41598
1570281665.4316
1570281665.44723
1570281665.46286
1570281665.47848
1570281665.49411
1570281665.50973
1570281665.52536
1570281665.54098
1570281665.55661
1570281665.57224
1570281665.58786
1570281665.60349
1570281665.61911
1570281665.63474
1570281665.65036
1570281665.66599
1570281665.68162
1570281665.69724
1570281665.71287
1570281665.72849
1570281665.74412
1570281665.75974
1570281665.77537
1570281665.791
1570281665.80662
1570281665.82225
1570281665.83787
1570281665.8535
1570281665.86912
1570281665.88475
1570281665.90038
1570281665.916
1570281665.93163
1570281665.94725
1570281665.96288
1570281665.9785
1570281665.99413
1570281666.00976
1570281666.02538
1570281666.04101
1570281666.05663
1570281666.07226
1570281666.08788
1570281666.10351
1570281666.11914
1570281666.13476
1570281666.15039
1570281666.16601
1570281666.18164
1570281666.19726
1570281666.21289
1570281666.22852
1570281666.24414
1570281666.25977
1570281666.27539
1570281666.29102
1570281666.30664
1570281666.32227
1570281666.3379
1570281666.35352
1570281666.36915
1570281666.38477
1570281666.4004
1570281666.41602
1570281666.43165
1570281666.44728
1570281666.4629
1570281666.47853
1570281666.49415
1570281666.50978
1570281666.5254
1570281666.54103
1570281666.55666
1570281666.57228
1570281666.58791
1570281666.60353
1570281666.61916
1570281666.63478
1570281666.65041
1570281666.66604
1570281666.68166
1570281666.69729
1570281666.71291
1570281666.72854
1570281666.74416
1570281666.75979
1570281666.77542
1570281666.79104
1570281666.80667
1570281666.82229
1570281666.83792
1570281666.85354
1570281666.86917
1570281666.8848
1570281666.90042
1570281666.91605
1570281666.93167
1570281666.9473
1570281666.96292
1570281666.97855
1570281666.99418
1570281667.0098
1570281667.02543
1570281667.04105
1570281667.05668
1570281667.0723
1570281667.08793
1570281667.10356
1570281667.11918
1570281667.13481
1570281667.15043
1570281667.16606
1570281667.18168
1570281667.19731
1570281667.21294
1570281667.22856
1570281667.24419
1570281667.25981
1570281667.27544
1570281667.29106
1570281667.30669
1570281667.32232
1570281667.33794
1570281667.35357
1570281667.36919
1570281667.38482
1570281667.40045
1570281667.41607
1570281667.4317
1570281667.44732
1570281667.46295
1570281667.47857
1570281667.4942
1570281667.50983
1570281667.52545
1570281667.54108
1570281667.5567
1570281667.57233
1570281667.58795
1570281667.60358
1570281667.61921
1570281667.63483
1570281667.65046
1570281667.66608
1570281667.68171
1570281667.69733
1570281667.71296
1570281667.72859
1570281667.74421
1570281667.75984
1570281667.77546
1570281667.79109
1570281667.80671
1570281667.82234
1570281667.83797
1570281667.85359
1570281667.86922
1570281667.88484
1570281667.90047
1570281667.91609
1570281667.93172
1570281667.94735
1570281667.96297
1570281667.9786
1570281667.99422
1570281668.00985
1570281668.02547
1570281668.0411
1570281668.05673
1570281668.07235
1570281668.08798
1570281668.1036
1570281668.11923
1570281668.13485
1570281668.15048
1570281668.16611
1570281668.18173
1570281668.19736
1570281668.21298
1570281668.22861
1570281668.24423
1570281668.25986
1570281668.27549
1570281668.29111
1570281668.30674
1570281668.32236
1570281668.33799
1570281668.35361
1570281668.36924
1570281668.38487
1570281668.40049
1570281668.41612
1570281668.43174
1570281668.44737
1570281668.46299
1570281668.47862
1570281668.49425
1570281668.50987
1570281668.5255
1570281668.54112
1570281668.55675
1570281668.57237
1570281668.588
1570281668.60363
1570281668.61925
1570281668.63488
1570281668.6505
1570281668.66613
1570281668.68175
1570281668.69738
1570281668.71301
1570281668.72863
1570281668.74426
1570281668.75988
1570281668.77551
1570281668.79113
1570281668.80676
1570281668.82239
1570281668.83801
1570281668.85364
1570281668.86926
1570281668.88489
1570281668.90051
1570281668.91614
1570281668.93177
1570281668.94739
1570281668.96302
1570281668.97864
1570281668.99427
1570281669.00989
1570281669.02552
1570281669.04115
1570281669.05677
1570281669.0724
1570281669.08802
1570281669.10365
1570281669.11927
1570281669.1349
1570281669.15053
1570281669.16615
1570281669.18178
1570281669.1974
1570281669.21303
1570281669.22865
1570281669.24428
1570281669.25991
1570281669.27553
1570281669.29116
1570281669.30678
1570281669.32241
1570281669.33803
1570281669.35366
1570281669.36929
1570281669.38491
1570281669.40054
1570281669.41616
1570281669.43179
1570281669.44741
1570281669.46304
1570281669.47867
1570281669.49429
1570281669.50992
1570281669.52554
1570281669.54117
1570281669.5568
1570281669.57242
1570281669.58805
1570281669.60367
1570281669.6193
1570281669.63492
1570281669.65055
1570281669.66618
1570281669.6818
1570281669.69743
1570281669.71305
1570281669.72868
1570281669.7443
1570281669.75993
1570281669.77556
1570281669.79118
1570281669.80681
1570281669.82243
1570281669.83806
1570281669.85368
1570281669.86931
1570281669.88494
1570281669.90056
1570281669.91619
1570281669.93181
1570281669.94744
1570281669.96306
1570281669.97869
1570281669.99432
1570281670.00994
1570281670.02557
1570281670.04119
1570281670.05682
1570281670.07244
1570281670.08807
1570281670.1037
1570281670.11932
1570281670.13495
1570281670.15057
1570281670.1662
1570281670.18182
1570281670.19745
1570281670.21308
1570281670.2287
1570281670.24433
1570281670.25995
1570281670.27558
1570281670.2912
1570281670.30683
1570281670.32246
1570281670.33808
1570281670.35371
1570281670.36933
1570281670.38496
1570281670.40058
1570281670.41621
1570281670.43184
1570281670.44746
1570281670.46309
1570281670.47871
1570281670.49434
1570281670.50996
1570281670.52559
1570281670.54122
1570281670.55684
1570281670.57247
1570281670.58809
1570281670.60372
1570281670.61934
1570281670.63497
1570281670.6506
1570281670.66622
1570281670.68185
1570281670.69747
1570281670.7131
1570281670.72872
1570281670.74435
1570281670.75998
1570281670.7756
1570281670.79123
1570281670.80685
1570281670.82248
1570281670.8381
1570281670.85373
1570281670.86936
1570281670.88498
1570281670.90061
1570281670.91623
1570281670.93186
1570281670.94748
1570281670.96311
1570281670.97874
1570281670.99436
1570281671.00999
1570281671.02561
1570281671.04124
1570281671.05686
1570281671.07249
1570281671.08812
1570281671.10374
1570281671.11937
1570281671.13499
1570281671.15062
1570281671.16624
1570281671.18187
1570281671.1975
1570281671.21312
1570281671.22875
1570281671.24437
1570281671.26
1570281671.27562
1570281671.29125
1570281671.30688
1570281671.3225
1570281671.33813
1570281671.35375
1570281671.36938
1570281671.385
1570281671.40063
1570281671.41626
1570281671.43188
1570281671.44751
1570281671.46313
1570281671.47876
1570281671.49438
1570281671.51001
1570281671.52564
1570281671.54126
1570281671.55689
1570281671.57251
1570281671.58814
1570281671.60376
1570281671.61939
1570281671.63502
1570281671.65064
1570281671.66627
1570281671.68189
1570281671.69752
1570281671.71314
1570281671.72877
1570281671.7444
1570281671.76002
1570281671.77565
1570281671.79127
1570281671.8069
1570281671.82253
1570281671.83815
1570281671.85378
1570281671.8694
1570281671.88503
1570281671.90065
1570281671.91628
1570281671.93191
1570281671.94753
1570281671.96316
1570281671.97878
1570281671.99441
1570281672.01003
1570281672.02566
1570281672.04129
1570281672.05691
1570281672.07254
1570281672.08816
1570281672.10379
1570281672.11941
1570281672.13504
1570281672.15067
1570281672.16629
1570281672.18192
1570281672.19754
1570281672.21317
1570281672.22879
1570281672.24442
1570281672.26005
1570281672.27567
1570281672.2913
1570281672.30692
1570281672.32255
1570281672.33817
1570281672.3538
1570281672.36943
1570281672.38505
1570281672.40068
1570281672.4163
1570281672.43193
1570281672.44755
1570281672.46318
1570281672.47881
1570281672.49443
1570281672.51006
1570281672.52568
1570281672.54131
1570281672.55693
1570281672.57256
1570281672.58819
1570281672.60381
1570281672.61944
1570281672.63506
1570281672.65069
1570281672.66631
1570281672.68194
1570281672.69757
1570281672.71319
1570281672.72882
1570281672.74444
1570281672.76007
1570281672.77569
1570281672.79132
1570281672.80695
1570281672.82257
1570281672.8382
1570281672.85382
1570281672.86945
1570281672.88507
1570281672.9007
1570281672.91633
1570281672.93195
1570281672.94758
1570281672.9632
1570281672.97883
1570281672.99445
1570281673.01008
1570281673.02571
1570281673.04133
1570281673.05696
1570281673.07258
1570281673.08821
1570281673.10383
1570281673.11946
1570281673.13509
1570281673.15071
1570281673.16634
1570281673.18196
1570281673.19759
1570281673.21321
1570281673.22884
1570281673.24447
1570281673.26009
1570281673.27572
1570281673.29134
1570281673.30697
1570281673.32259
1570281673.33822
1570281673.35385
1570281673.36947
1570281673.3851
1570281673.40072
1570281673.41635
1570281673.43197
1570281673.4476
1570281673.46323
1570281673.47885
1570281673.49448
1570281673.5101
1570281673.52573
1570281673.54135
1570281673.55698
1570281673.57261
1570281673.58823
1570281673.60386
1570281673.61948
1570281673.63511
1570281673.65073
1570281673.66636
1570281673.68199
1570281673.69761
1570281673.71324
1570281673.72886
1570281673.74449
1570281673.76011
1570281673.77574
1570281673.79137
1570281673.80699
1570281673.82262
1570281673.83824
1570281673.85387
1570281673.86949
1570281673.88512
1570281673.90075
1570281673.91637
1570281673.932
1570281673.94762
1570281673.96325
1570281673.97887
1570281673.9945
1570281674.01013
1570281674.02575
1570281674.04138
1570281674.057
1570281674.07263
1570281674.08825
1570281674.10388
1570281674.11951
1570281674.13513
1570281674.15076
1570281674.16638
1570281674.18201
1570281674.19763
1570281674.21326
1570281674.22889
1570281674.24451
1570281674.26014
1570281674.27576
1570281674.29139
1570281674.30701
1570281674.32264
1570281674.33827
1570281674.35389
1570281674.36952
1570281674.38514
1570281674.40077
1570281674.41639
1570281674.43202
1570281674.44765
1570281674.46327
1570281674.4789
1570281674.49452
1570281674.51015
1570281674.52578
1570281674.5414
1570281674.55703
1570281674.57265
1570281674.58828
1570281674.6039
1570281674.61953
1570281674.63516
1570281674.65078
1570281674.66641
1570281674.68203
1570281674.69766
1570281674.71328
1570281674.72891
1570281674.74454
1570281674.76016
1570281674.77579
1570281674.79141
1570281674.80704
1570281674.82266
1570281674.83829
1570281674.85392
1570281674.86954
1570281674.88517
1570281674.90079
1570281674.91642
1570281674.93204
1570281674.94767
1570281674.9633
1570281674.97892
1570281674.99455
1570281675.01017
1570281675.0258
1570281675.04142
1570281675.05705
1570281675.07268
1570281675.0883
1570281675.10393
1570281675.11955
1570281675.13518
1570281675.1508
1570281675.16643
1570281675.18206
1570281675.19768
1570281675.21331
1570281675.22893
1570281675.24456
1570281675.26018
1570281675.27581
1570281675.29144
1570281675.30706
1570281675.32269
1570281675.33831
1570281675.35394
1570281675.36956
1570281675.38519
1570281675.40082
1570281675.41644
1570281675.43207
1570281675.44769
1570281675.46332
1570281675.47894
1570281675.49457
1570281675.5102
1570281675.52582
1570281675.54145
1570281675.55707
1570281675.5727
1570281675.58832
1570281675.60395
1570281675.61958
1570281675.6352
1570281675.65083
1570281675.66645
1570281675.68208
1570281675.6977
1570281675.71333
1570281675.72896
1570281675.74458
1570281675.76021
1570281675.77583
1570281675.79146
1570281675.80708
1570281675.82271
1570281675.83834
1570281675.85396
1570281675.86959
1570281675.88521
1570281675.90084
1570281675.91646
1570281675.93209
1570281675.94772
1570281675.96334
1570281675.97897
1570281675.99459
1570281676.01022
1570281676.02584
1570281676.04147
1570281676.0571
1570281676.07272
1570281676.08835
1570281676.10397
1570281676.1196
1570281676.13522
1570281676.15085
1570281676.16648
1570281676.1821
1570281676.19773
1570281676.21335
1570281676.22898
1570281676.2446
1570281676.26023
1570281676.27586
1570281676.29148
1570281676.30711
1570281676.32273
1570281676.33836
1570281676.35398
1570281676.36961
1570281676.38524
1570281676.40086
1570281676.41649
1570281676.43211
1570281676.44774
1570281676.46336
1570281676.47899
1570281676.49462
1570281676.51024
1570281676.52587
1570281676.54149
1570281676.55712
1570281676.57274
1570281676.58837
1570281676.604
1570281676.61962
1570281676.63525
1570281676.65087
1570281676.6665
1570281676.68213
1570281676.69775
1570281676.71338
1570281676.729
1570281676.74463
1570281676.76025
1570281676.77588
1570281676.79151
1570281676.80713
1570281676.82276
1570281676.83838
1570281676.85401
1570281676.86963
1570281676.88526
1570281676.90089
1570281676.91651
1570281676.93214
1570281676.94776
1570281676.96339
1570281676.97901
1570281676.99464
1570281677.01027
1570281677.02589
1570281677.04152
1570281677.05714
1570281677.07277
1570281677.08839
1570281677.10402
1570281677.11965
1570281677.13527
1570281677.1509
1570281677.16652
1570281677.18215
1570281677.19777
1570281677.2134
1570281677.22903
1570281677.24465
1570281677.26028
1570281677.2759
1570281677.29153
1570281677.30715
1570281677.32278
1570281677.33841
1570281677.35403
1570281677.36966
1570281677.38528
1570281677.40091
1570281677.41653
1570281677.43216
1570281677.44779
1570281677.46341
1570281677.47904
1570281677.49466
1570281677.51029
1570281677.52591
1570281677.54154
1570281677.55717
1570281677.57279
1570281677.58842
1570281677.60404
1570281677.61967
1570281677.63529
1570281677.65092
1570281677.66655
1570281677.68217
1570281677.6978
1570281677.71342
1570281677.72905
1570281677.74467
1570281677.7603
1570281677.77593
1570281677.79155
1570281677.80718
1570281677.8228
1570281677.83843
1570281677.85405
1570281677.86968
1570281677.88531
1570281677.90093
1570281677.91656
1570281677.93218
1570281677.94781
1570281677.96343
1570281677.97906
1570281677.99469
1570281678.01031
1570281678.02594
1570281678.04156
1570281678.05719
1570281678.07281
1570281678.08844
1570281678.10407
1570281678.11969
1570281678.13532
1570281678.15094
1570281678.16657
1570281678.18219
1570281678.19782
1570281678.21345
1570281678.22907
1570281678.2447
1570281678.26032
1570281678.27595
1570281678.29157
1570281678.3072
1570281678.32283
1570281678.33845
1570281678.35408
1570281678.3697
1570281678.38533
1570281678.40095
1570281678.41658
1570281678.43221
1570281678.44783
1570281678.46346
1570281678.47908
1570281678.49471
1570281678.51033
1570281678.52596
1570281678.54159
1570281678.55721
1570281678.57284
1570281678.58846
1570281678.60409
1570281678.61971
1570281678.63534
1570281678.65097
1570281678.66659
1570281678.68222
1570281678.69784
1570281678.71347
1570281678.72909
1570281678.74472
1570281678.76035
1570281678.77597
1570281678.7916
1570281678.80722
1570281678.82285
1570281678.83847
1570281678.8541
1570281678.86973
1570281678.88535
1570281678.90098
1570281678.9166
1570281678.93223
1570281678.94786
1570281678.96348
1570281678.97911
1570281678.99473
1570281679.01036
1570281679.02598
1570281679.04161
1570281679.05724
1570281679.07286
1570281679.08849
1570281679.10411
1570281679.11974
1570281679.13536
1570281679.15099
1570281679.16662
1570281679.18224
1570281679.19787
1570281679.21349
1570281679.22912
1570281679.24474
1570281679.26037
1570281679.276
1570281679.29162
1570281679.30725
1570281679.32287
1570281679.3385
1570281679.35412
1570281679.36975
1570281679.38538
1570281679.401
1570281679.41663
1570281679.43225
1570281679.44788
1570281679.4635
1570281679.47913
1570281679.49476
1570281679.51038
1570281679.52601
1570281679.54163
1570281679.55726
1570281679.57288
1570281679.58851
1570281679.60414
1570281679.61976
1570281679.63539
1570281679.65101
1570281679.66664
1570281679.68226
1570281679.69789
1570281679.71352
1570281679.72914
1570281679.74477
1570281679.76039
1570281679.77602
1570281679.79164
1570281679.80727
1570281679.8229
1570281679.83852
1570281679.85415
1570281679.86977
1570281679.8854
1570281679.90102
1570281679.91665
1570281679.93228
1570281679.9479
1570281679.96353
1570281679.97915
1570281679.99478
1570281680.0104
1570281680.02603
1570281680.04166
1570281680.05728
1570281680.07291
1570281680.08853
1570281680.10416
1570281680.11978
1570281680.13541
1570281680.15104
1570281680.16666
1570281680.18229
1570281680.19791
1570281680.21354
1570281680.22916
1570281680.24479
1570281680.26042
1570281680.27604
1570281680.29167
1570281680.30729
1570281680.32292
1570281680.33854
1570281680.35417
1570281680.3698
1570281680.38542
1570281680.40105
1570281680.41667
1570281680.4323
1570281680.44792
1570281680.46355
1570281680.47918
1570281680.4948
1570281680.51043
1570281680.52605
1570281680.54168
1570281680.5573
1570281680.57293
1570281680.58856
1570281680.60418
1570281680.61981
1570281680.63543
1570281680.65106
1570281680.66668
1570281680.68231
1570281680.69794
1570281680.71356
1570281680.72919
1570281680.74481
1570281680.76044
1570281680.77606
1570281680.79169
1570281680.80732
1570281680.82294
1570281680.83857
1570281680.85419
1570281680.86982
1570281680.88544
1570281680.90107
1570281680.9167
1570281680.93232
1570281680.94795
1570281680.96357
1570281680.9792
1570281680.99482
1570281681.01045
1570281681.02608
1570281681.0417
1570281681.05733
1570281681.07295
1570281681.08858
1570281681.1042
1570281681.11983
1570281681.13546
1570281681.15108
1570281681.16671
1570281681.18233
1570281681.19796
1570281681.21358
1570281681.22921
1570281681.24484
1570281681.26046
1570281681.27609
1570281681.29171
1570281681.30734
1570281681.32296
1570281681.33859
1570281681.35422
1570281681.36984
1570281681.38547
1570281681.40109
1570281681.41672
1570281681.43234
1570281681.44797
1570281681.4636
1570281681.47922
1570281681.49485
1570281681.51047
1570281681.5261
1570281681.54173
1570281681.55735
1570281681.57298
1570281681.5886
1570281681.60423
1570281681.61985
1570281681.63548
1570281681.65111
1570281681.66673
1570281681.68236
1570281681.69798
1570281681.71361
1570281681.72923
1570281681.74486
1570281681.76049
1570281681.77611
1570281681.79174
1570281681.80736
1570281681.82299
1570281681.83861
1570281681.85424
1570281681.86987
1570281681.88549
1570281681.90112
1570281681.91674
1570281681.93237
1570281681.94799
1570281681.96362
1570281681.97925
1570281681.99487
1570281682.0105
1570281682.02612
1570281682.04175
1570281682.05737
1570281682.073
1570281682.08863
1570281682.10425
1570281682.11988
1570281682.1355
1570281682.15113
1570281682.16675
1570281682.18238
1570281682.19801
1570281682.21363
1570281682.22926
1570281682.24488
1570281682.26051
1570281682.27613
1570281682.29176
1570281682.30739
1570281682.32301
1570281682.33864
1570281682.35426
1570281682.36989
1570281682.38551
1570281682.40114
1570281682.41677
1570281682.43239
1570281682.44802
1570281682.46364
1570281682.47927
1570281682.49489
1570281682.51052
1570281682.52615
1570281682.54177
1570281682.5574
1570281682.57302
1570281682.58865
1570281682.60427
1570281682.6199
1570281682.63553
1570281682.65115
1570281682.66678
1570281682.6824
1570281682.69803
1570281682.71365
1570281682.72928
1570281682.74491
1570281682.76053
1570281682.77616
1570281682.79178
1570281682.80741
1570281682.82303
1570281682.83866
1570281682.85429
1570281682.86991
1570281682.88554
1570281682.90116
1570281682.91679
1570281682.93241
1570281682.94804
1570281682.96367
1570281682.97929
1570281682.99492
1570281683.01054
1570281683.02617
1570281683.04179
1570281683.05742
1570281683.07305
1570281683.08867
1570281683.1043
1570281683.11992
1570281683.13555
1570281683.15117
1570281683.1668
1570281683.18243
1570281683.19805
1570281683.21368
1570281683.2293
1570281683.24493
1570281683.26055
1570281683.27618
1570281683.29181
1570281683.30743
1570281683.32306
1570281683.33868
1570281683.35431
1570281683.36993
1570281683.38556
1570281683.40119
1570281683.41681
1570281683.43244
1570281683.44806
1570281683.46369
1570281683.47931
1570281683.49494
1570281683.51057
1570281683.52619
1570281683.54182
1570281683.55744
1570281683.57307
1570281683.58869
1570281683.60432
1570281683.61995
1570281683.63557
1570281683.6512
1570281683.66682
1570281683.68245
1570281683.69807
1570281683.7137
1570281683.72933
1570281683.74495
1570281683.76058
1570281683.7762
1570281683.79183
1570281683.80746
1570281683.82308
1570281683.83871
1570281683.85433
1570281683.86996
1570281683.88558
1570281683.90121
1570281683.91684
1570281683.93246
1570281683.94809
1570281683.96371
1570281683.97934
1570281683.99496
1570281684.01059
1570281684.02622
1570281684.04184
1570281684.05747
1570281684.07309
1570281684.08872
1570281684.10434
1570281684.11997
1570281684.1356
1570281684.15122
1570281684.16685
1570281684.18247
1570281684.1981
1570281684.21372
1570281684.22935
1570281684.24498
1570281684.2606
1570281684.27623
1570281684.29185
1570281684.30748
1570281684.3231
1570281684.33873
1570281684.35436
1570281684.36998
1570281684.38561
1570281684.40123
1570281684.41686
1570281684.43248
1570281684.44811
1570281684.46374
1570281684.47936
1570281684.49499
1570281684.51061
1570281684.52624
1570281684.54186
1570281684.55749
1570281684.57312
1570281684.58874
1570281684.60437
1570281684.61999
1570281684.63562
1570281684.65124
1570281684.66687
1570281684.6825
1570281684.69812
1570281684.71375
1570281684.72937
1570281684.745
1570281684.76062
1570281684.77625
1570281684.79188
1570281684.8075
1570281684.82313
1570281684.83875
1570281684.85438
1570281684.87
1570281684.88563
1570281684.90126
1570281684.91688
1570281684.93251
1570281684.94813
1570281684.96376
1570281684.97938
1570281684.99501
1570281685.01064
1570281685.02626
1570281685.04189
1570281685.05751
1570281685.07314
1570281685.08876
1570281685.10439
1570281685.12002
1570281685.13564
1570281685.15127
1570281685.16689
1570281685.18252
1570281685.19814
1570281685.21377
1570281685.2294
1570281685.24502
1570281685.26065
1570281685.27627
1570281685.2919
1570281685.30752
1570281685.32315
1570281685.33878
1570281685.3544
1570281685.37003
1570281685.38565
1570281685.40128
1570281685.4169
1570281685.43253
1570281685.44816
1570281685.46378
1570281685.47941
1570281685.49503
1570281685.51066
1570281685.52628
1570281685.54191
1570281685.55754
1570281685.57316
1570281685.58879
1570281685.60441
1570281685.62004
1570281685.63566
1570281685.65129
1570281685.66692
1570281685.68254
1570281685.69817
1570281685.71379
1570281685.72942
1570281685.74504
1570281685.76067
1570281685.7763
1570281685.79192
1570281685.80755
1570281685.82317
1570281685.8388
1570281685.85442
1570281685.87005
1570281685.88568
1570281685.9013
1570281685.91693
1570281685.93255
1570281685.94818
1570281685.9638
1570281685.97943
1570281685.99506
1570281686.01068
1570281686.02631
1570281686.04193
1570281686.05756
1570281686.07318
1570281686.08881
1570281686.10444
1570281686.12006
1570281686.13569
1570281686.15131
1570281686.16694
1570281686.18256
1570281686.19819
1570281686.21382
1570281686.22944
1570281686.24507
1570281686.26069
1570281686.27632
1570281686.29194
1570281686.30757
1570281686.3232
1570281686.33882
1570281686.35445
1570281686.37007
1570281686.3857
1570281686.40133
1570281686.41695
1570281686.43258
1570281686.4482
1570281686.46383
1570281686.47945
1570281686.49508
1570281686.51071
1570281686.52633
1570281686.54196
1570281686.55758
1570281686.57321
1570281686.58883
1570281686.60446
1570281686.62009
1570281686.63571
1570281686.65134
1570281686.66696
1570281686.68259
1570281686.69821
1570281686.71384
1570281686.72947
1570281686.74509
1570281686.76072
1570281686.77634
1570281686.79197
1570281686.80759
1570281686.82322
1570281686.83885
1570281686.85447
1570281686.8701
1570281686.88572
1570281686.90135
1570281686.91697
1570281686.9326
1570281686.94823
1570281686.96385
1570281686.97948
1570281686.9951
1570281687.01073
1570281687.02635
1570281687.04198
1570281687.05761
1570281687.07323
1570281687.08886
1570281687.10448
1570281687.12011
1570281687.13573
1570281687.15136
1570281687.16699
1570281687.18261
1570281687.19824
1570281687.21386
1570281687.22949
1570281687.24511
1570281687.26074
1570281687.27637
1570281687.29199
1570281687.30762
1570281687.32324
1570281687.33887
1570281687.35449
1570281687.37012
1570281687.38575
1570281687.40137
1570281687.417
1570281687.43262
1570281687.44825
1570281687.46387
1570281687.4795
1570281687.49513
1570281687.51075
1570281687.52638
1570281687.542
1570281687.55763
1570281687.57325
1570281687.58888
1570281687.60451
1570281687.62013
1570281687.63576
1570281687.65138
1570281687.66701
1570281687.68263
1570281687.69826
1570281687.71389
1570281687.72951
1570281687.74514
1570281687.76076
1570281687.77639
1570281687.79201
1570281687.80764
1570281687.82327
1570281687.83889
1570281687.85452
1570281687.87014
1570281687.88577
1570281687.90139
1570281687.91702
1570281687.93265
1570281687.94827
1570281687.9639
1570281687.97952
1570281687.99515
1570281688.01077
1570281688.0264
1570281688.04203
1570281688.05765
1570281688.07328
1570281688.0889
1570281688.10453
1570281688.12015
1570281688.13578
1570281688.15141
1570281688.16703
1570281688.18266
1570281688.19828
1570281688.21391
1570281688.22953
1570281688.24516
1570281688.26079
1570281688.27641
1570281688.29204
1570281688.30766
1570281688.32329
1570281688.33891
1570281688.35454
1570281688.37017
1570281688.38579
1570281688.40142
1570281688.41704
1570281688.43267
1570281688.44829
1570281688.46392
1570281688.47955
1570281688.49517
1570281688.5108
1570281688.52642
1570281688.54205
1570281688.55767
1570281688.5733
1570281688.58893
1570281688.60455
1570281688.62018
1570281688.6358
1570281688.65143
1570281688.66706
1570281688.68268
1570281688.69831
1570281688.71393
1570281688.72956
1570281688.74518
1570281688.76081
1570281688.77644
1570281688.79206
1570281688.80769
1570281688.82331
1570281688.83894
1570281688.85456
1570281688.87019
1570281688.88582
1570281688.90144
1570281688.91707
1570281688.93269
1570281688.94832
1570281688.96394
1570281688.97957
1570281688.9952
1570281689.01082
1570281689.02645
1570281689.04207
1570281689.0577
1570281689.07332
1570281689.08895
1570281689.10458
1570281689.1202
1570281689.13583
1570281689.15145
1570281689.16708
1570281689.1827
1570281689.19833
1570281689.21396
1570281689.22958
1570281689.24521
1570281689.26083
1570281689.27646
1570281689.29208
1570281689.30771
1570281689.32334
1570281689.33896
1570281689.35459
1570281689.37021
1570281689.38584
1570281689.40146
1570281689.41709
1570281689.43272
1570281689.44834
1570281689.46397
1570281689.47959
1570281689.49522
1570281689.51084
1570281689.52647
1570281689.5421
1570281689.55772
1570281689.57335
1570281689.58897
1570281689.6046
1570281689.62022
1570281689.63585
1570281689.65148
1570281689.6671
1570281689.68273
1570281689.69835
1570281689.71398
1570281689.7296
1570281689.74523
1570281689.76086
1570281689.77648
1570281689.79211
1570281689.80773
1570281689.82336
1570281689.83898
1570281689.85461
1570281689.87024
1570281689.88586
1570281689.90149
1570281689.91711
1570281689.93274
1570281689.94836
1570281689.96399
1570281689.97962
1570281689.99524
1570281690.01087
1570281690.02649
1570281690.04212
1570281690.05774
1570281690.07337
1570281690.089
1570281690.10462
1570281690.12025
1570281690.13587
1570281690.1515
1570281690.16712
1570281690.18275
1570281690.19838
1570281690.214
1570281690.22963
1570281690.24525
1570281690.26088
1570281690.2765
1570281690.29213
1570281690.30776
1570281690.32338
1570281690.33901
1570281690.35463
1570281690.37026
1570281690.38588
1570281690.40151
1570281690.41714
1570281690.43276
1570281690.44839
1570281690.46401
1570281690.47964
1570281690.49526
1570281690.51089
1570281690.52652
1570281690.54214
1570281690.55777
1570281690.57339
1570281690.58902
1570281690.60464
1570281690.62027
1570281690.6359
1570281690.65152
1570281690.66715
1570281690.68277
1570281690.6984
1570281690.71402
1570281690.72965
1570281690.74528
1570281690.7609
1570281690.77653
1570281690.79215
1570281690.80778
1570281690.82341
1570281690.83903
1570281690.85466
1570281690.87028
1570281690.88591
1570281690.90153
1570281690.91716
1570281690.93279
1570281690.94841
1570281690.96404
1570281690.97966
1570281690.99529
1570281691.01091
1570281691.02654
1570281691.04217
1570281691.05779
1570281691.07342
1570281691.08904
1570281691.10467
1570281691.12029
1570281691.13592
1570281691.15155
1570281691.16717
1570281691.1828
1570281691.19842
1570281691.21405
1570281691.22967
1570281691.2453
1570281691.26093
1570281691.27655
1570281691.29218
1570281691.3078
1570281691.32343
1570281691.33905
1570281691.35468
1570281691.37031
1570281691.38593
1570281691.40156
1570281691.41718
1570281691.43281
1570281691.44843
1570281691.46406
1570281691.47969
1570281691.49531
1570281691.51094
1570281691.52656
1570281691.54219
1570281691.55781
1570281691.57344
1570281691.58907
1570281691.60469
1570281691.62032
1570281691.63594
1570281691.65157
1570281691.66719
1570281691.68282
1570281691.69845
1570281691.71407
1570281691.7297
1570281691.74532
1570281691.76095
1570281691.77657
1570281691.7922
1570281691.80783
1570281691.82345
1570281691.83908
1570281691.8547
1570281691.87033
1570281691.88595
1570281691.90158
1570281691.91721
1570281691.93283
1570281691.94846
1570281691.96408
1570281691.97971
1570281691.99533
1570281692.01096
1570281692.02659
1570281692.04221
1570281692.05784
1570281692.07346
1570281692.08909
1570281692.10471
1570281692.12034
1570281692.13597
1570281692.15159
1570281692.16722
1570281692.18284
1570281692.19847
1570281692.21409
1570281692.22972
1570281692.24535
1570281692.26097
1570281692.2766
1570281692.29222
1570281692.30785
1570281692.32347
1570281692.3391
1570281692.35473
1570281692.37035
1570281692.38598
1570281692.4016
1570281692.41723
1570281692.43285
1570281692.44848
1570281692.46411
1570281692.47973
1570281692.49536
1570281692.51098
1570281692.52661
1570281692.54223
1570281692.55786
1570281692.57349
1570281692.58911
1570281692.60474
1570281692.62036
1570281692.63599
1570281692.65161
1570281692.66724
1570281692.68287
1570281692.69849
1570281692.71412
1570281692.72974
1570281692.74537
1570281692.76099
1570281692.77662
1570281692.79225
1570281692.80787
1570281692.8235
1570281692.83912
1570281692.85475
1570281692.87037
1570281692.886
1570281692.90163
1570281692.91725
1570281692.93288
1570281692.9485
1570281692.96413
1570281692.97975
1570281692.99538
1570281693.01101
1570281693.02663
1570281693.04226
1570281693.05788
1570281693.07351
1570281693.08913
1570281693.10476
1570281693.12039
1570281693.13601
1570281693.15164
1570281693.16726
1570281693.18289
1570281693.19851
1570281693.21414
1570281693.22977
1570281693.24539
1570281693.26102
1570281693.27664
1570281693.29227
1570281693.30789
1570281693.32352
1570281693.33915
1570281693.35477
1570281693.3704
1570281693.38602
1570281693.40165
1570281693.41727
1570281693.4329
1570281693.44853
1570281693.46415
1570281693.47978
1570281693.4954
1570281693.51103
1570281693.52666
1570281693.54228
1570281693.55791
1570281693.57353
1570281693.58916
1570281693.60478
1570281693.62041
1570281693.63604
1570281693.65166
1570281693.66729
1570281693.68291
1570281693.69854
1570281693.71416
1570281693.72979
1570281693.74542
1570281693.76104
1570281693.77667
1570281693.79229
1570281693.80792
1570281693.82354
1570281693.83917
1570281693.8548
1570281693.87042
1570281693.88605
1570281693.90167
1570281693.9173
1570281693.93292
1570281693.94855
1570281693.96418
1570281693.9798
1570281693.99543
1570281694.01105
1570281694.02668
1570281694.0423
1570281694.05793
1570281694.07356
1570281694.08918
1570281694.10481
1570281694.12043
1570281694.13606
1570281694.15168
1570281694.16731
1570281694.18294
1570281694.19856
1570281694.21419
1570281694.22981
1570281694.24544
1570281694.26106
1570281694.27669
1570281694.29232
1570281694.30794
1570281694.32357
1570281694.33919
1570281694.35482
1570281694.37044
1570281694.38607
1570281694.4017
1570281694.41732
1570281694.43295
1570281694.44857
1570281694.4642
1570281694.47982
1570281694.49545
1570281694.51108
1570281694.5267
1570281694.54233
1570281694.55795
1570281694.57358
1570281694.5892
1570281694.60483
1570281694.62046
1570281694.63608
1570281694.65171
1570281694.66733
1570281694.68296
1570281694.69858
1570281694.71421
1570281694.72984
1570281694.74546
1570281694.76109
1570281694.77671
1570281694.79234
1570281694.80796
1570281694.82359
1570281694.83922
1570281694.85484
1570281694.87047
1570281694.88609
1570281694.90172
1570281694.91734
1570281694.93297
1570281694.9486
1570281694.96422
1570281694.97985
1570281694.99547
1570281695.0111
1570281695.02672
1570281695.04235
1570281695.05798
1570281695.0736
1570281695.08923
1570281695.10485
1570281695.12048
1570281695.1361
1570281695.15173
1570281695.16736
1570281695.18298
1570281695.19861
1570281695.21423
1570281695.22986
1570281695.24548
1570281695.26111
1570281695.27674
1570281695.29236
1570281695.30799
1570281695.32361
1570281695.33924
1570281695.35486
1570281695.37049
1570281695.38612
1570281695.40174
1570281695.41737
1570281695.43299
1570281695.44862
1570281695.46424
1570281695.47987
1570281695.4955
1570281695.51112
1570281695.52675
1570281695.54237
1570281695.558
1570281695.57362
1570281695.58925
1570281695.60488
1570281695.6205
1570281695.63613
1570281695.65175
1570281695.66738
1570281695.68301
1570281695.69863
1570281695.71426
1570281695.72988
1570281695.74551
1570281695.76113
1570281695.77676
1570281695.79239
1570281695.80801
1570281695.82364
1570281695.83926
1570281695.85489
1570281695.87051
1570281695.88614
1570281695.90177
1570281695.91739
1570281695.93302
1570281695.94864
1570281695.96427
1570281695.97989
1570281695.99552
1570281696.01115
1570281696.02677
1570281696.0424
1570281696.05802
1570281696.07365
1570281696.08927
1570281696.1049
1570281696.12053
1570281696.13615
1570281696.15178
1570281696.1674
1570281696.18303
1570281696.19865
1570281696.21428
1570281696.22991
1570281696.24553
1570281696.26116
1570281696.27678
1570281696.29241
1570281696.30803
1570281696.32366
1570281696.33929
1570281696.35491
1570281696.37054
1570281696.38616
1570281696.40179
1570281696.41741
1570281696.43304
1570281696.44867
1570281696.46429
1570281696.47992
1570281696.49554
1570281696.51117
1570281696.52679
1570281696.54242
1570281696.55805
1570281696.57367
1570281696.5893
1570281696.60492
1570281696.62055
1570281696.63617
1570281696.6518
1570281696.66743
1570281696.68305
1570281696.69868
1570281696.7143
1570281696.72993
1570281696.74555
1570281696.76118
1570281696.77681
1570281696.79243
1570281696.80806
1570281696.82368
1570281696.83931
1570281696.85493
1570281696.87056
1570281696.88619
1570281696.90181
1570281696.91744
1570281696.93306
1570281696.94869
1570281696.96431
1570281696.97994
1570281696.99557
1570281697.01119
1570281697.02682
1570281697.04244
1570281697.05807
1570281697.07369
1570281697.08932
1570281697.10495
1570281697.12057
1570281697.1362
1570281697.15182
1570281697.16745
1570281697.18307
1570281697.1987
1570281697.21433
1570281697.22995
1570281697.24558
1570281697.2612
1570281697.27683
1570281697.29245
1570281697.30808
1570281697.32371
1570281697.33933
1570281697.35496
1570281697.37058
1570281697.38621
1570281697.40183
1570281697.41746
1570281697.43309
1570281697.44871
1570281697.46434
1570281697.47996
1570281697.49559
1570281697.51121
1570281697.52684
1570281697.54247
1570281697.55809
1570281697.57372
1570281697.58934
1570281697.60497
1570281697.62059
1570281697.63622
1570281697.65185
1570281697.66747
1570281697.6831
1570281697.69872
1570281697.71435
1570281697.72997
1570281697.7456
1570281697.76123
1570281697.77685
1570281697.79248
1570281697.8081
1570281697.82373
1570281697.83935
1570281697.85498
1570281697.87061
1570281697.88623
1570281697.90186
1570281697.91748
1570281697.93311
1570281697.94874
1570281697.96436
1570281697.97999
1570281697.99561
1570281698.01124
1570281698.02686
1570281698.04249
1570281698.05812
1570281698.07374
1570281698.08937
1570281698.10499
1570281698.12062
1570281698.13624
1570281698.15187
1570281698.1675
1570281698.18312
1570281698.19875
1570281698.21437
1570281698.23
1570281698.24562
1570281698.26125
1570281698.27688
1570281698.2925
1570281698.30813
1570281698.32375
1570281698.33938
1570281698.355
1570281698.37063
1570281698.38626
1570281698.40188
1570281698.41751
1570281698.43313
1570281698.44876
1570281698.46438
1570281698.48001
1570281698.49564
1570281698.51126
1570281698.52689
1570281698.54251
1570281698.55814
1570281698.57376
1570281698.58939
1570281698.60502
1570281698.62064
1570281698.63627
1570281698.65189
1570281698.66752
1570281698.68314
1570281698.69877
1570281698.7144
1570281698.73002
1570281698.74565
1570281698.76127
1570281698.7769
1570281698.79252
1570281698.80815
1570281698.82378
1570281698.8394
1570281698.85503
1570281698.87065
1570281698.88628
1570281698.9019
1570281698.91753
1570281698.93316
1570281698.94878
1570281698.96441
1570281698.98003
1570281698.99566
1570281699.01128
1570281699.02691
1570281699.04254
1570281699.05816
1570281699.07379
1570281699.08941
1570281699.10504
1570281699.12066
1570281699.13629
1570281699.15192
1570281699.16754
1570281699.18317
1570281699.19879
1570281699.21442
1570281699.23004
1570281699.24567
1570281699.2613
1570281699.27692
1570281699.29255
1570281699.30817
1570281699.3238
1570281699.33942
1570281699.35505
1570281699.37068
1570281699.3863
1570281699.40193
1570281699.41755
1570281699.43318
1570281699.4488
1570281699.46443
1570281699.48006
1570281699.49568
1570281699.51131
1570281699.52693
1570281699.54256
1570281699.55818
1570281699.57381
1570281699.58944
1570281699.60506
1570281699.62069
1570281699.63631
1570281699.65194
1570281699.66756
1570281699.68319
1570281699.69882
1570281699.71444
1570281699.73007
1570281699.74569
1570281699.76132
1570281699.77694
1570281699.79257
1570281699.8082
1570281699.82382
1570281699.83945
1570281699.85507
1570281699.8707
1570281699.88632
1570281699.90195
1570281699.91758
1570281699.9332
1570281699.94883
1570281699.96445
1570281699.98008
1570281699.9957
1570281700.01133
1570281700.02696
1570281700.04258
1570281700.05821
1570281700.07383
1570281700.08946
1570281700.10508
1570281700.12071
1570281700.13634
1570281700.15196
1570281700.16759
1570281700.18321
1570281700.19884
1570281700.21446
1570281700.23009
1570281700.24572
1570281700.26134
1570281700.27697
1570281700.29259
1570281700.30822
1570281700.32384
1570281700.33947
1570281700.3551
1570281700.37072
1570281700.38635
1570281700.40197
1570281700.4176
1570281700.43322
1570281700.44885
1570281700.46448
1570281700.4801
1570281700.49573
1570281700.51135
1570281700.52698
1570281700.54261
1570281700.55823
1570281700.57386
1570281700.58948
1570281700.60511
1570281700.62073
1570281700.63636
1570281700.65199
1570281700.66761
1570281700.68324
1570281700.69886
1570281700.71449
1570281700.73011
1570281700.74574
1570281700.76137
1570281700.77699
1570281700.79262
1570281700.80824
1570281700.82387
1570281700.83949
1570281700.85512
1570281700.87075
1570281700.88637
1570281700.902
1570281700.91762
1570281700.93325
1570281700.94887
1570281700.9645
1570281700.98013
1570281700.99575
1570281701.01138
1570281701.027
1570281701.04263
1570281701.05825
1570281701.07388
1570281701.08951
1570281701.10513
1570281701.12076
1570281701.13638
1570281701.15201
1570281701.16763
1570281701.18326
1570281701.19889
1570281701.21451
1570281701.23014
1570281701.24576
1570281701.26139
1570281701.27701
1570281701.29264
1570281701.30827
1570281701.32389
1570281701.33952
1570281701.35514
1570281701.37077
1570281701.38639
1570281701.40202
1570281701.41765
1570281701.43327
1570281701.4489
1570281701.46452
1570281701.48015
1570281701.49577
1570281701.5114
1570281701.52703
1570281701.54265
1570281701.55828
1570281701.5739
1570281701.58953
1570281701.60515
1570281701.62078
1570281701.63641
1570281701.65203
1570281701.66766
1570281701.68328
1570281701.69891
1570281701.71453
1570281701.73016
1570281701.74579
1570281701.76141
1570281701.77704
1570281701.79266
1570281701.80829
1570281701.82391
1570281701.83954
1570281701.85517
1570281701.87079
1570281701.88642
1570281701.90204
1570281701.91767
1570281701.93329
1570281701.94892
1570281701.96455
1570281701.98017
1570281701.9958
1570281702.01142
1570281702.02705
1570281702.04267
1570281702.0583
1570281702.07393
1570281702.08955
1570281702.10518
1570281702.1208
1570281702.13643
1570281702.15205
1570281702.16768
1570281702.18331
1570281702.19893
1570281702.21456
1570281702.23018
1570281702.24581
1570281702.26143
1570281702.27706
1570281702.29269
1570281702.30831
1570281702.32394
1570281702.33956
1570281702.35519
1570281702.37081
1570281702.38644
1570281702.40207
1570281702.41769
1570281702.43332
1570281702.44894
1570281702.46457
1570281702.48019
1570281702.49582
1570281702.51145
1570281702.52707
1570281702.5427
1570281702.55832
1570281702.57395
1570281702.58957
1570281702.6052
1570281702.62083
1570281702.63645
1570281702.65208
1570281702.6677
1570281702.68333
1570281702.69895
1570281702.71458
1570281702.73021
1570281702.74583
1570281702.76146
1570281702.77708
1570281702.79271
1570281702.80834
1570281702.82396
1570281702.83959
1570281702.85521
1570281702.87084
1570281702.88646
1570281702.90209
1570281702.91772
1570281702.93334
1570281702.94897
1570281702.96459
1570281702.98022
1570281702.99584
1570281703.01147
1570281703.0271
1570281703.04272
1570281703.05835
1570281703.07397
1570281703.0896
1570281703.10522
1570281703.12085
1570281703.13648
1570281703.1521
1570281703.16773
1570281703.18335
1570281703.19898
1570281703.2146
1570281703.23023
1570281703.24586
1570281703.26148
1570281703.27711
1570281703.29273
1570281703.30836
1570281703.32398
1570281703.33961
1570281703.35524
1570281703.37086
1570281703.38649
1570281703.40211
1570281703.41774
1570281703.43336
1570281703.44899
1570281703.46462
1570281703.48024
1570281703.49587
1570281703.51149
1570281703.52712
1570281703.54274
1570281703.55837
1570281703.574
1570281703.58962
1570281703.60525
1570281703.62087
1570281703.6365
1570281703.65212
1570281703.66775
1570281703.68338
1570281703.699
1570281703.71463
1570281703.73025
1570281703.74588
1570281703.7615
1570281703.77713
1570281703.79276
1570281703.80838
1570281703.82401
1570281703.83963
1570281703.85526
1570281703.87088
1570281703.88651
1570281703.90214
1570281703.91776
1570281703.93339
1570281703.94901
1570281703.96464
1570281703.98026
1570281703.99589
1570281704.01152
1570281704.02714
1570281704.04277
1570281704.05839
1570281704.07402
1570281704.08964
1570281704.10527
1570281704.1209
1570281704.13652
1570281704.15215
1570281704.16777
1570281704.1834
1570281704.19902
1570281704.21465
1570281704.23028
1570281704.2459
1570281704.26153
1570281704.27715
1570281704.29278
1570281704.3084
1570281704.32403
1570281704.33966
1570281704.35528
1570281704.37091
1570281704.38653
1570281704.40216
1570281704.41778
1570281704.43341
1570281704.44904
1570281704.46466
1570281704.48029
1570281704.49591
1570281704.51154
1570281704.52716
1570281704.54279
1570281704.55842
1570281704.57404
1570281704.58967
1570281704.60529
1570281704.62092
1570281704.63654
1570281704.65217
1570281704.6678
1570281704.68342
1570281704.69905
1570281704.71467
1570281704.7303
1570281704.74592
1570281704.76155
1570281704.77718
1570281704.7928
1570281704.80843
1570281704.82405
1570281704.83968
1570281704.8553
1570281704.87093
1570281704.88656
1570281704.90218
1570281704.91781
1570281704.93343
1570281704.94906
1570281704.96468
1570281704.98031
1570281704.99594
1570281705.01156
1570281705.02719
1570281705.04281
1570281705.05844
1570281705.07406
1570281705.08969
1570281705.10532
1570281705.12094
1570281705.13657
1570281705.15219
1570281705.16782
1570281705.18344
1570281705.19907
1570281705.2147
1570281705.23032
1570281705.24595
1570281705.26157
1570281705.2772
1570281705.29282
1570281705.30845
1570281705.32408
1570281705.3397
1570281705.35533
1570281705.37095
1570281705.38658
1570281705.4022
1570281705.41783
1570281705.43346
1570281705.44908
1570281705.46471
1570281705.48033
1570281705.49596
1570281705.51159
1570281705.52721
1570281705.54284
1570281705.55846
1570281705.57409
1570281705.58971
1570281705.60534
1570281705.62097
1570281705.63659
1570281705.65222
1570281705.66784
1570281705.68347
1570281705.69909
1570281705.71472
1570281705.73035
1570281705.74597
1570281705.7616
1570281705.77722
1570281705.79285
1570281705.80847
1570281705.8241
1570281705.83973
1570281705.85535
1570281705.87098
1570281705.8866
1570281705.90223
1570281705.91785
1570281705.93348
1570281705.94911
1570281705.96473
1570281705.98036
1570281705.99598
1570281706.01161
1570281706.02723
1570281706.04286
1570281706.05849
1570281706.07411
1570281706.08974
1570281706.10536
1570281706.12099
1570281706.13661
1570281706.15224
1570281706.16787
1570281706.18349
1570281706.19912
1570281706.21474
1570281706.23037
1570281706.24599
1570281706.26162
1570281706.27725
1570281706.29287
1570281706.3085
1570281706.32412
1570281706.33975
1570281706.35537
1570281706.371
1570281706.38663
1570281706.40225
1570281706.41788
1570281706.4335
1570281706.44913
1570281706.46475
1570281706.48038
1570281706.49601
1570281706.51163
1570281706.52726
1570281706.54288
1570281706.55851
1570281706.57413
1570281706.58976
1570281706.60539
1570281706.62101
1570281706.63664
1570281706.65226
1570281706.66789
1570281706.68351
1570281706.69914
1570281706.71477
1570281706.73039
1570281706.74602
1570281706.76164
1570281706.77727
1570281706.79289
1570281706.80852
1570281706.82415
1570281706.83977
1570281706.8554
1570281706.87102
1570281706.88665
1570281706.90227
1570281706.9179
1570281706.93353
1570281706.94915
1570281706.96478
1570281706.9804
1570281706.99603
1570281707.01165
1570281707.02728
1570281707.04291
1570281707.05853
1570281707.07416
1570281707.08978
1570281707.10541
1570281707.12103
1570281707.13666
1570281707.15229
1570281707.16791
1570281707.18354
1570281707.19916
1570281707.21479
1570281707.23041
1570281707.24604
1570281707.26167
1570281707.27729
1570281707.29292
1570281707.30854
1570281707.32417
1570281707.33979
1570281707.35542
1570281707.37105
1570281707.38667
1570281707.4023
1570281707.41792
1570281707.43355
1570281707.44917
1570281707.4648
1570281707.48043
1570281707.49605
1570281707.51168
1570281707.5273
1570281707.54293
1570281707.55855
1570281707.57418
1570281707.58981
1570281707.60543
1570281707.62106
1570281707.63668
1570281707.65231
1570281707.66794
1570281707.68356
1570281707.69919
1570281707.71481
1570281707.73044
1570281707.74606
1570281707.76169
1570281707.77732
1570281707.79294
1570281707.80857
1570281707.82419
1570281707.83982
1570281707.85544
1570281707.87107
1570281707.8867
1570281707.90232
1570281707.91795
1570281707.93357
1570281707.9492
1570281707.96482
1570281707.98045
1570281707.99608
1570281708.0117
1570281708.02733
1570281708.04295
1570281708.05858
1570281708.0742
1570281708.08983
1570281708.10546
1570281708.12108
1570281708.13671
1570281708.15233
1570281708.16796
1570281708.18358
1570281708.19921
1570281708.21484
1570281708.23046
1570281708.24609
1570281708.26171
1570281708.27734
1570281708.29296
1570281708.30859
1570281708.32422
1570281708.33984
1570281708.35547
1570281708.37109
1570281708.38672
1570281708.40234
1570281708.41797
1570281708.4336
1570281708.44922
1570281708.46485
1570281708.48047
1570281708.4961
1570281708.51172
1570281708.52735
1570281708.54298
1570281708.5586
1570281708.57423
1570281708.58985
1570281708.60548
1570281708.6211
1570281708.63673
1570281708.65236
1570281708.66798
1570281708.68361
1570281708.69923
1570281708.71486
1570281708.73048
1570281708.74611
1570281708.76174
1570281708.77736
1570281708.79299
1570281708.80861
1570281708.82424
1570281708.83986
1570281708.85549
1570281708.87112
1570281708.88674
1570281708.90237
1570281708.91799
1570281708.93362
1570281708.94924
1570281708.96487
1570281708.9805
1570281708.99612
1570281709.01175
1570281709.02737
1570281709.043
1570281709.05862
1570281709.07425
1570281709.08988
1570281709.1055
1570281709.12113
1570281709.13675
1570281709.15238
1570281709.168
1570281709.18363
1570281709.19926
1570281709.21488
1570281709.23051
1570281709.24613
1570281709.26176
1570281709.27738
1570281709.29301
1570281709.30864
1570281709.32426
1570281709.33989
1570281709.35551
1570281709.37114
1570281709.38676
1570281709.40239
1570281709.41802
1570281709.43364
1570281709.44927
1570281709.46489
1570281709.48052
1570281709.49614
1570281709.51177
1570281709.5274
1570281709.54302
1570281709.55865
1570281709.57427
1570281709.5899
1570281709.60552
1570281709.62115
1570281709.63678
1570281709.6524
1570281709.66803
1570281709.68365
1570281709.69928
1570281709.7149
1570281709.73053
1570281709.74616
1570281709.76178
1570281709.77741
1570281709.79303
1570281709.80866
1570281709.82428
1570281709.83991
1570281709.85554
1570281709.87116
1570281709.88679
1570281709.90241
1570281709.91804
1570281709.93367
1570281709.94929
1570281709.96492
1570281709.98054
1570281709.99617
1570281710.01179
1570281710.02742
1570281710.04305
1570281710.05867
1570281710.0743
1570281710.08992
1570281710.10555
1570281710.12117
1570281710.1368
1570281710.15243
1570281710.16805
1570281710.18368
1570281710.1993
1570281710.21493
1570281710.23055
1570281710.24618
1570281710.26181
1570281710.27743
1570281710.29306
1570281710.30868
1570281710.32431
1570281710.33993
1570281710.35556
1570281710.37119
1570281710.38681
1570281710.40244
1570281710.41806
1570281710.43369
1570281710.44931
1570281710.46494
1570281710.48057
1570281710.49619
1570281710.51182
1570281710.52744
1570281710.54307
1570281710.55869
1570281710.57432
1570281710.58995
1570281710.60557
1570281710.6212
1570281710.63682
1570281710.65245
1570281710.66807
1570281710.6837
1570281710.69933
1570281710.71495
1570281710.73058
1570281710.7462
1570281710.76183
1570281710.77745
1570281710.79308
1570281710.80871
1570281710.82433
1570281710.83996
1570281710.85558
1570281710.87121
1570281710.88683
1570281710.90246
1570281710.91809
1570281710.93371
1570281710.94934
1570281710.96496
1570281710.98059
1570281710.99621
1570281711.01184
1570281711.02747
1570281711.04309
1570281711.05872
1570281711.07434
1570281711.08997
1570281711.10559
1570281711.12122
1570281711.13685
1570281711.15247
1570281711.1681
1570281711.18372
1570281711.19935
1570281711.21497
1570281711.2306
1570281711.24623
1570281711.26185
1570281711.27748
1570281711.2931
1570281711.30873
1570281711.32435
1570281711.33998
1570281711.35561
1570281711.37123
1570281711.38686
1570281711.40248
1570281711.41811
1570281711.43373
1570281711.44936
1570281711.46499
1570281711.48061
1570281711.49624
1570281711.51186
1570281711.52749
1570281711.54311
1570281711.55874
1570281711.57437
1570281711.58999
1570281711.60562
1570281711.62124
1570281711.63687
1570281711.65249
1570281711.66812
1570281711.68375
1570281711.69937
1570281711.715
1570281711.73062
1570281711.74625
1570281711.76187
1570281711.7775
1570281711.79313
1570281711.80875
1570281711.82438
1570281711.84
1570281711.85563
1570281711.87125
1570281711.88688
1570281711.90251
1570281711.91813
1570281711.93376
1570281711.94938
1570281711.96501
1570281711.98063
1570281711.99626
1570281712.01189
1570281712.02751
1570281712.04314
1570281712.05876
1570281712.07439
1570281712.09001
1570281712.10564
1570281712.12127
1570281712.13689
1570281712.15252
1570281712.16814
1570281712.18377
1570281712.19939
1570281712.21502
1570281712.23065
1570281712.24627
1570281712.2619
1570281712.27752
1570281712.29315
1570281712.30877
1570281712.3244
1570281712.34003
1570281712.35565
1570281712.37128
1570281712.3869
1570281712.40253
1570281712.41815
1570281712.43378
1570281712.44941
1570281712.46503
1570281712.48066
1570281712.49628
1570281712.51191
1570281712.52754
1570281712.54316
1570281712.55879
1570281712.57441
1570281712.59004
1570281712.60566
1570281712.62129
1570281712.63692
1570281712.65254
1570281712.66817
1570281712.68379
1570281712.69942
1570281712.71504
1570281712.73067
1570281712.7463
1570281712.76192
1570281712.77755
1570281712.79317
1570281712.8088
1570281712.82442
1570281712.84005
1570281712.85568
1570281712.8713
1570281712.88693
1570281712.90255
1570281712.91818
1570281712.9338
1570281712.94943
1570281712.96506
1570281712.98068
1570281712.99631
1570281713.01193
1570281713.02756
1570281713.04318
1570281713.05881
1570281713.07444
1570281713.09006
1570281713.10569
1570281713.12131
1570281713.13694
1570281713.15256
1570281713.16819
1570281713.18382
1570281713.19944
1570281713.21507
1570281713.23069
1570281713.24632
1570281713.26194
1570281713.27757
1570281713.2932
1570281713.30882
1570281713.32445
1570281713.34007
1570281713.3557
1570281713.37132
1570281713.38695
1570281713.40258
1570281713.4182
1570281713.43383
1570281713.44945
1570281713.46508
1570281713.4807
1570281713.49633
1570281713.51196
1570281713.52758
1570281713.54321
1570281713.55883
1570281713.57446
1570281713.59008
1570281713.60571
1570281713.62134
1570281713.63696
1570281713.65259
1570281713.66821
1570281713.68384
1570281713.69946
1570281713.71509
1570281713.73072
1570281713.74634
1570281713.76197
1570281713.77759
1570281713.79322
1570281713.80884
1570281713.82447
1570281713.8401
1570281713.85572
1570281713.87135
1570281713.88697
1570281713.9026
1570281713.91822
1570281713.93385
1570281713.94948
1570281713.9651
1570281713.98073
1570281713.99635
1570281714.01198
1570281714.0276
1570281714.04323
1570281714.05886
1570281714.07448
1570281714.09011
1570281714.10573
1570281714.12136
1570281714.13698
1570281714.15261
1570281714.16824
1570281714.18386
1570281714.19949
1570281714.21511
1570281714.23074
1570281714.24636
1570281714.26199
1570281714.27762
1570281714.29324
1570281714.30887
1570281714.32449
1570281714.34012
1570281714.35574
1570281714.37137
1570281714.387
1570281714.40262
1570281714.41825
1570281714.43387
1570281714.4495
1570281714.46512
1570281714.48075
1570281714.49638
1570281714.512
1570281714.52763
1570281714.54325
1570281714.55888
1570281714.5745
1570281714.59013
1570281714.60576
1570281714.62138
1570281714.63701
1570281714.65263
1570281714.66826
1570281714.68388
1570281714.69951
1570281714.71514
1570281714.73076
1570281714.74639
1570281714.76201
1570281714.77764
1570281714.79327
1570281714.80889
1570281714.82452
1570281714.84014
1570281714.85577
1570281714.87139
1570281714.88702
1570281714.90265
1570281714.91827
1570281714.9339
1570281714.94952
1570281714.96515
1570281714.98077
1570281714.9964
1570281715.01203
1570281715.02765
1570281715.04328
1570281715.0589
1570281715.07453
1570281715.09015
1570281715.10578
1570281715.12141
1570281715.13703
1570281715.15266
1570281715.16828
1570281715.18391
1570281715.19953
1570281715.21516
1570281715.23079
1570281715.24641
1570281715.26204
1570281715.27766
1570281715.29329
1570281715.30891
1570281715.32454
1570281715.34017
1570281715.35579
1570281715.37142
1570281715.38704
1570281715.40267
1570281715.41829
1570281715.43392
1570281715.44955
1570281715.46517
1570281715.4808
1570281715.49642
1570281715.51205
1570281715.52767
1570281715.5433
1570281715.55893
1570281715.57455
1570281715.59018
1570281715.6058
1570281715.62143
1570281715.63705
1570281715.65268
1570281715.66831
1570281715.68393
1570281715.69956
1570281715.71518
1570281715.73081
1570281715.74643
1570281715.76206
1570281715.77769
1570281715.79331
1570281715.80894
1570281715.82456
1570281715.84019
1570281715.85581
1570281715.87144
1570281715.88707
1570281715.90269
1570281715.91832
1570281715.93394
1570281715.94957
1570281715.96519
1570281715.98082
1570281715.99645
1570281716.01207
1570281716.0277
1570281716.04332
1570281716.05895
1570281716.07457
1570281716.0902
1570281716.10583
1570281716.12145
1570281716.13708
1570281716.1527
1570281716.16833
1570281716.18395
1570281716.19958
1570281716.21521
1570281716.23083
1570281716.24646
1570281716.26208
1570281716.27771
1570281716.29333
1570281716.30896
1570281716.32459
1570281716.34021
1570281716.35584
1570281716.37146
1570281716.38709
1570281716.40271
1570281716.41834
1570281716.43397
1570281716.44959
1570281716.46522
1570281716.48084
1570281716.49647
1570281716.51209
1570281716.52772
1570281716.54335
1570281716.55897
1570281716.5746
1570281716.59022
1570281716.60585
1570281716.62147
1570281716.6371
