11.42986
12.17299
12.48751
12.46619
12.20889
11.95326
11.87199
12.09123
12.56808
13.17149
13.68594
13.97696
14.01089
13.77881
13.3429
12.68267
11.76667
10.54252
9.015938
7.224937
5.327301
3.481827
1.803101
0.3762589
-0.7658463
-1.686234
-2.467361
-3.216133
-4.032379
-4.983337
-6.068352
-7.242058
-8.438263
-9.572296
-10.74272
-12.07326
-13.70377
-15.68645
-18.00296
-20.51825
-23.074
-25.36161
-27.02863
-27.69257
-27.02445
-24.87227
-21.36604
-16.93385
-12.12138
-7.502563
-3.361885
0.1830521
3.166718
5.67469
7.754875
9.46064
10.86662
12.12
13.32628
14.49476
15.51209
16.14176
16.22721
15.77934
15.00082
14.23051
13.78701
13.79331
14.11936
14.53307
14.75425
14.65902
14.26134
13.68376
13.05053
12.41684
11.74446
10.91705
9.847294
8.510281
6.974571
5.320637
3.710747
2.33168
1.274666
0.6076317
0.2337494
-0.0264473
-0.4601364
-1.321705
-2.776684
-4.774117
-7.088264
-9.472496
-11.72347
-13.78714
-15.68947
-17.58517
-19.60635
-21.85751
-24.32718
-26.82623
-28.96264
-30.23678
-30.14943
-28.37369
-24.95947
-20.28668
-15.04138
-9.904892
-5.400887
-1.761475
1.061287
3.235504
4.956844
6.411018
7.759644
9.076469
10.40719
11.73011
12.97209
14.10748
15.03093
15.71199
16.12547
16.30063
16.30718
16.21099
16.1611
16.31779
16.77649
17.49668
18.33499
19.00635
19.29715
19.05429
18.2364
16.99633
15.50916
13.99068
12.55899
11.28453
10.07962
8.838135
7.433899
5.789547
4.008221
2.233368
0.6782303
-0.5689392
-1.537083
-2.410175
-3.444801
-4.822166
-6.636497
-8.770603
-11.01509
-13.12931
-14.9289
-16.36784
-17.53719
-18.56557
-19.55378
-20.61665
-21.76966
-23.06276
-24.46713
-25.80566
-26.82565
-27.10843
-26.27021
-24.06327
-20.57648
-16.10638
-11.1744
-6.314438
-1.858574
2.027979
5.368574
8.228596
10.63095
12.52706
13.84175
14.49873
14.4988
13.96894
13.12569
12.25225
11.57228
11.22324
11.26044
11.58846
12.09889
12.68588
13.26936
13.80733
14.30565
14.74627
15.1149
15.43957
15.69157
15.83625
15.80931
15.55575
15.04109
14.2907
13.33983
12.23156
10.94262
9.44549
7.710127
5.860172
4.042877
2.425901
1.131388
0.1100979
-0.7382889
-1.562975
-2.486443
-3.570957
-4.771486
-6.072348
-7.435707
-8.850615
-10.2889
-11.65471
-12.87131
-13.87775
-14.71537
-15.50381
-16.41962
-17.5808
-18.91116
-20.21853
-21.12691
-21.27557
-20.42945
-18.46384
-15.49596
-11.84272
-7.915955
-4.081495
-0.7352448
1.962234
4.015156
5.492319
6.60586
7.480152
8.153231
8.665747
9.058926
9.340183
9.537775
9.711863
9.913368
10.23518
10.74918
11.43303
12.22699
12.95993
13.4593
13.61257
13.3975
12.89864
12.29827
11.72105
11.15083
10.62009
10.05651
9.437756
8.730331
7.849766
6.689732
5.25898
3.647137
2.020313
0.6773605
-0.2600632
-0.7931137
-1.152824
-1.648312
-2.528881
-3.871056
-5.597401
-7.543804
-9.520077
-11.45798
-13.23052
-14.70979
-15.82913
-16.57451
-17.11209
-17.71746
-18.61921
-19.87891
-21.3499
-22.62114
-23.17137
-22.65154
-20.90724
-18.01131
-14.24784
-9.968002
-5.55661
-1.373581
2.298115
5.267948
7.489811
9.043655
10.07747
10.72902
11.07238
11.08661
10.77391
10.21346
9.598488
9.105064
8.931286
9.096432
9.545406
10.1773
10.91018
11.73116
12.63858
13.67991
14.74065
15.68156
16.2558
16.3145
15.88056
15.06899
14.05677
13.01966
11.97622
10.8604
9.545834
7.929821
6.079525
4.11655
2.196388
0.4336662
-1.105427
-2.463398
-3.668663
-4.749554
-5.760319
-6.7948
-7.959229
-9.411366
-11.1902
-13.22858
-15.39261
-17.49894
-19.40103
-20.98493
-22.25827
-23.18266
-23.81856
-24.12833
-24.0311
-23.42539
-22.12142
-20.025
-17.17784
-13.78169
-10.1619
-6.727722
-3.72554
-1.304279
0.5404358
1.936203
2.991486
3.830791
4.574982
5.36124
6.31229
7.533089
8.948055
10.44185
11.86509
13.03884
13.8661
14.31863
14.46287
14.49006
14.56794
14.8116
15.21753
15.72307
16.1374
16.31665
16.19843
15.7827
15.18355
14.44177
13.62041
12.65236
11.5606
10.34676
9.081192
7.840977
6.610596
5.376808
4.005325
2.484615
0.7840729
-0.9682961
-2.647442
-4.10289
-5.336224
-6.537556
-7.880325
-9.464901
-11.19615
-12.82344
-14.01099
-14.57989
-14.62537
-14.54369
-14.96532
-16.31755
-18.69065
-21.698
-24.62439
-26.68951
-27.30516
-26.28428
-23.76266
-20.15924
-15.92145
-11.46455
-7.097275
-3.069756
0.4034767
3.183571
5.130196
6.25108
6.617027
6.437267
5.978382
5.529926
5.289345
5.316658
5.530003
5.852184
6.217754
6.654537
7.255554
8.143261
9.405563
11.07489
13.08891
15.31075
17.5867
19.61765
21.09364
21.6655
21.08973
19.29439
16.45842
12.92004
9.08379
5.364796
2.017185
-0.7670746
-2.976665
-4.67004
-5.983437
-7.065174
-8.034431
-8.911427
-9.661091
-10.23425
-10.63177
-10.94624
-11.39066
-12.13514
-13.27625
-14.76501
-16.40926
-17.93734
-19.0274
-19.39875
-18.8139
-17.20999
-14.60794
-11.24285
-7.421619
-3.527077
0.1539497
3.470791
6.38731
8.926991
11.04062
12.71655
13.82434
14.25749
13.91381
12.89235
11.41521
9.836384
8.495239
7.560123
7.049129
6.79977
6.619335
6.400543
6.196331
6.091274
6.17321
6.399494
6.63847
6.73687
6.630562
6.357288
6.008507
5.702908
5.43961
5.172752
4.822121
4.358685
3.759071
3.006393
2.069153
0.9349327
-0.4416733
-2.101868
-4.006161
-6.063507
-8.164257
-10.16927
-11.9943
-13.70306
-15.4044
-17.2846
-19.45123
-21.82393
-24.15135
-26.0475
-27.05474
-26.81066
-25.17558
-22.20134
-18.15206
-13.4948
-8.762497
-4.498146
-1.149292
1.126598
2.411846
3.011326
3.348804
3.772102
4.436565
5.357265
6.399612
7.401394
8.305267
9.136204
10.00974
11.05817
12.33205
13.72805
15.09539
16.24659
17.04168
17.45816
17.49251
17.20577
16.57391
15.58657
14.21777
12.63021
11.0691
9.776249
8.950211
8.524185
8.250652
7.766712
6.817741
5.345814
3.566381
1.754711
0.08755875
-1.367388
-2.824341
-4.533398
-6.67976
-9.239281
-12.01321
-14.6367
-16.75148
-18.23445
-19.1206
-19.73316
-20.44106
-21.49591
-22.92948
-24.5488
-26.03917
-26.99352
-27.1357
-26.22026
-24.1878
-21.08936
-17.06742
-12.48155
-7.81044
-3.536098
0.01305389
2.662016
4.546724
5.870243
6.880795
7.774921
8.649927
9.507245
10.36748
11.23923
12.10403
13.00271
13.93908
14.87782
15.7701
16.47303
16.84298
16.75319
16.12574
15.01209
13.60587
12.18002
10.98008
10.16847
9.749716
9.622124
9.616535
9.521317
9.161407
8.477064
7.436694
6.117271
4.651188
3.158835
1.776616
0.589103
-0.3707799
-1.162881
-1.841388
-2.496612
-3.177532
-3.952301
-4.880941
-5.986001
-7.225657
-8.441468
-9.494833
-10.33012
-11.07442
-11.94849
-13.26466
-15.11205
-17.29381
-19.3662
-20.75667
-21.02236
-20.00065
-17.8779
-14.98539
-11.74652
-8.506687
-5.457482
-2.764565
-0.5100813
1.284924
2.644028
3.666748
4.495393
5.273396
6.092983
7.010519
7.991327
8.978453
9.961021
10.91116
11.83702
12.72167
13.57659
14.40657
15.21321
15.93438
16.47359
16.75901
16.69173
16.36323
15.8696
15.38583
14.94049
14.52583
14.00199
13.21656
12.11075
10.58727
8.724459
6.631721
4.465261
2.376957
0.5281429
-0.9693756
-2.114485
-2.92704
-3.616549
-4.40671
-5.486629
-7.007133
-8.960972
-11.22455
-13.57293
-15.7877
-17.6163
-18.95354
-19.82143
-20.36296
-20.88775
-21.54447
-22.29337
-22.86586
-22.87735
-21.85954
-19.60857
-16.25198
-12.16532
-7.97674
-4.146063
-0.9696999
1.520977
3.427544
4.987217
6.36729
7.645679
8.900806
10.10535
11.23249
12.2126
12.93889
13.28897
13.22632
12.78566
12.1437
11.62595
11.5163
12.00396
13.06175
14.4856
15.94556
17.10448
17.6769
17.56832
16.91973
15.93736
14.92413
14.09318
13.53304
13.20562
12.9068
12.46422
11.75021
10.86017
9.860592
8.826065
7.745117
6.488319
4.953754
3.133659
1.21867
-0.4915047
-1.68895
-2.264194
-2.357304
-2.24197
-2.320824
-2.894699
-4.129284
-6.038517
-8.506039
-11.35296
-14.35392
-17.33961
-20.1216
-22.63914
-24.84289
-26.77064
-28.43318
-29.84231
-30.95531
-31.54153
-31.36647
-30.08527
-27.56187
-23.85088
-19.27935
-14.43805
-9.907104
-6.143353
-3.218708
-0.9991913
0.8359833
2.551746
4.274582
6.078247
7.846684
9.569672
11.23464
12.83541
14.3559
15.73899
16.92343
17.90662
18.77473
19.55292
20.29259
20.96192
21.47052
21.68881
21.55887
21.01559
20.08288
18.8311
17.34644
15.81571
14.41144
13.30898
12.60778
12.25368
12.13851
12.09139
11.97727
11.70242
11.20557
10.46519
9.453491
8.169651
6.586082
4.705608
2.599957
0.3992882
-1.691368
-3.462265
-4.777294
-5.626884
-6.171684
-6.670437
-7.390446
-8.479198
-9.910633
-11.55055
-13.21772
-14.82937
-16.33335
-17.7974
-19.29436
-20.94331
-22.81477
-24.90846
-27.05637
-28.96692
-30.21071
-30.27633
-28.83442
-25.71053
-21.1293
-15.60496
-9.821239
-4.438612
0.000919342
3.218891
5.248775
6.27014
6.687004
6.92111
7.303717
8.01778
9.05777
10.22315
11.2492
11.9771
12.403
12.7386
13.25105
14.07498
15.15375
16.2228
17.03047
17.35354
17.19286
16.68316
16.03487
15.37151
14.67172
13.92037
13.07197
12.22672
11.49004
10.95087
10.54303
10.11363
9.501028
8.547432
7.27532
5.81831
4.371166
3.143812
2.253147
1.703878
1.442415
1.395136
1.436577
1.39937
1.060732
0.2116508
-1.329899
-3.584299
-6.389932
-9.466599
-12.43369
-14.95108
-16.82898
-18.05757
-18.75515
-19.16028
-19.53498
-20.11175
-21.02046
-22.1288
-23.10942
-23.43942
-22.6289
-20.44878
-16.99657
-12.68568
-8.124432
-3.843278
-0.191328
2.740259
5.006384
6.736516
7.949681
8.630474
8.793337
8.511835
7.98128
7.477497
7.1602
7.138714
7.414111
7.918073
8.541868
9.252306
10.02862
10.8005
11.55351
12.17373
12.60099
12.81194
12.81133
12.63615
12.3563
11.99569
11.61062
11.24143
10.91628
10.68152
10.46036
10.12791
9.483829
8.37854
6.68959
4.487846
1.950801
-0.6646304
-3.102099
-5.220765
-6.99202
-8.439628
-9.600277
-10.48815
-11.09789
-11.43358
-11.57319
-11.71733
-12.05882
-12.82116
-14.11321
-15.93352
-18.21033
-20.76629
-23.35122
-25.60864
-27.10539
-27.42316
-26.23385
-23.46563
-19.32258
-14.24614
-8.79001
-3.501585
1.245955
5.206168
8.232228
10.29805
11.40291
11.68026
11.28618
10.43567
9.342486
8.171116
7.098285
6.27783
5.93167
6.160572
7.011002
8.317724
9.807858
11.20227
12.25515
12.96007
13.36134
13.61816
13.71142
13.60257
13.21358
12.52221
11.60154
10.55005
9.51851
8.525309
7.555151
6.486034
5.29192
4.009968
2.749479
1.651556
0.8207474
0.2295456
-0.3549423
-1.167004
-2.427082
-4.190022
-6.316229
-8.595524
-10.76759
-12.61657
-14.03144
-15.03526
-15.73209
-16.29305
-16.95341
-17.93104
-19.37908
-21.18665
-23.07023
-24.5423
-25.13249
-24.50204
-22.60121
-19.59279
-15.85399
-11.79948
-7.810156
-4.260262
-1.329947
0.9375744
2.706869
4.172293
5.559761
6.944935
8.298689
9.563364
10.69543
11.75743
12.82592
13.9606
15.08289
16.05534
16.77571
17.18824
17.37271
17.38529
17.22523
16.77228
15.8647
14.46165
12.6517
10.715
8.949125
7.665146
6.944546
6.809544
7.051584
7.370955
7.449665
7.011005
5.933935
4.282871
2.328102
0.3161926
-1.487213
-3.083157
-4.620691
-6.297108
-8.281023
-10.56021
-12.94123
-15.12914
-16.91363
-18.19498
-19.11486
-19.94611
-20.97121
-22.37515
-24.10531
-25.86589
-27.20344
-27.57044
-26.60184
-24.19674
-20.5644
-16.13956
-11.44347
-6.88903
-2.764561
0.7695274
3.707979
6.073023
7.919802
9.29398
10.27611
10.95899
11.51663
12.08292
12.64854
13.21919
13.69795
14.02743
14.13779
14.06289
13.84603
13.58537
13.37784
13.24012
13.20415
13.19091
13.13179
12.88394
12.32132
11.36816
9.995285
8.272735
6.293528
4.222599
2.220737
0.4734449
-0.8883905
-1.869463
-2.583624
-3.277875
-4.168285
-5.437681
-7.070999
-8.927941
-10.77241
-12.36383
-13.67719
-14.7796
-15.89299
-17.16119
-18.66312
-20.23666
-21.575
-22.30625
-22.05034
-20.62038
-17.96039
-14.26765
-9.829489
-5.122966
-0.600276
3.360931
6.468631
8.659916
9.912136
10.34571
10.03241
9.178303
8.011194
6.866837
6.080469
5.805125
6.088515
6.741133
7.598381
8.476768
9.413754
10.48089
11.77862
13.27335
14.74451
15.92115
16.57416
16.63093
16.11149
15.17736
13.92218
12.4388
10.79161
9.006749
7.140893
5.190967
3.103273
0.7716393
-1.828425
-4.650377
-7.485519
-9.987965
-11.90818
-13.12885
-13.77933
-14.1218
-14.47739
-15.06292
-16.04357
-17.49093
-19.35564
-21.60191
-23.99276
-26.2317
-27.82479
-28.31918
-27.36264
-24.99048
-21.51037
-17.38329
-13.16853
-9.198954
-5.64163
-2.535717
0.1223183
2.426855
4.387466
6.035521
7.42066
8.568277
9.521776
10.29665
10.90467
11.39013
11.93757
12.63142
13.53623
14.60392
15.67845
16.65945
17.49871
18.18859
18.76896
19.23041
19.50751
19.51561
19.25665
18.75214
18.11922
17.43097
16.70376
15.87239
14.83
13.47256
11.80341
9.967449
8.138554
6.561905
5.42408
4.726795
4.224384
3.62513
2.574814
0.9611549
-1.059177
-3.190971
-5.042973
-6.382
-7.200996
-7.734875
-8.262283
-9.060455
-10.22178
-11.7305
-13.48559
-15.33791
-17.22585
-19.11724
-21.05018
-23.0554
-25.17491
-27.38177
-29.5391
-31.38428
-32.546
-32.67435
-31.49453
-28.9486
-25.17953
-20.56519
-15.55317
-10.56342
-5.93552
-1.795696
1.856419
5.081532
7.969513
10.54822
12.69999
14.32199
15.3557
15.84194
15.95412
15.88328
15.73528
15.53265
15.22242
14.74693
14.13181
13.54402
13.26021
13.53264
14.43538
15.86427
17.49879
18.99609
20.11267
20.75748
21.01614
20.98643
20.71479
20.12071
19.07254
17.48002
15.39889
13.03791
10.72794
8.733627
7.21471
6.190601
5.550339
5.173046
4.936607
4.724762
4.444828
4.056816
3.47718
2.677139
1.68684
0.53302
-0.7448502
-2.117195
-3.591675
-5.114788
-6.631374
-8.105244
-9.53524
-10.93868
-12.36763
-13.88787
-15.48842
-17.20581
-19.08222
-21.16019
-23.5481
-26.23082
-29.11591
-31.90899
-34.12107
-35.17807
-34.62233
-32.23409
-28.16158
-23.00018
-17.43479
-12.18081
-7.675842
-4.011982
-1.057655
1.363823
3.443043
5.317036
7.025738
8.634602
10.18418
11.65484
13.00895
14.18202
15.12954
15.85038
16.43723
16.9377
17.36202
17.68871
17.86707
17.94866
17.98047
18.06387
18.11151
17.99279
17.52839
16.6701
15.4743
14.10416
12.78111
11.6046
10.62428
9.725594
8.810692
7.823959
6.817352
5.849075
4.914314
3.969025
2.966499
1.932831
0.9414215
0.1313324
-0.4496918
-0.859848
-1.22541
-1.744339
-2.563118
-3.669373
-4.975784
-6.411514
-7.935211
-9.60154
-11.52283
-13.73768
-16.31904
-19.24298
-22.39877
-25.56586
-28.39156
-30.4668
-31.35675
-30.80328
-28.66889
-25.12359
-20.48583
-15.21857
-9.807968
-4.678009
-0.1509323
3.638603
6.562943
8.697815
10.09074
10.87273
11.17614
11.15929
11.0399
10.99433
11.15234
11.52949
12.15186
13.04713
14.29111
15.90433
17.79384
19.81677
21.6929
23.17753
24.11523
24.41891
24.0983
23.15741
21.61706
19.52438
17.07598
14.53091
12.21902
10.35606
8.980507
7.970161
7.079483
6.136475
5.031189
3.771065
2.4328
1.120544
-0.1427536
-1.414413
-2.720558
-4.127403
-5.643715
-7.273979
-9.068985
-11.03877
-13.16216
-15.3456
-17.49499
-19.42067
-21.01505
-22.30266
-23.37105
-24.42048
-25.61745
-26.98938
-28.36924
-29.50189
-30.03889
-29.68914
-28.29474
-25.84259
-22.46693
-18.47182
-14.17041
-9.775852
-5.46146
-1.401806
2.227192
5.247654
7.569263
9.265114
10.49634
11.45272
12.26818
12.9981
13.58025
13.96542
14.19923
14.46755
14.94287
15.69135
16.66698
17.66019
18.47942
19.03207
19.34232
19.47083
19.51498
19.50315
19.36417
19.07094
18.63097
18.01621
17.26771
16.39568
15.25555
13.70119
11.68777
9.256531
6.692833
4.395363
2.576675
1.322388
0.4750252
-0.2925987
-1.249989
-2.526604
-4.097801
-5.8456
-7.664902
-9.554344
-11.48183
-13.40135
-15.2119
-16.81154
-18.1681
-19.37742
-20.62157
-22.09061
-23.92855
-26.05165
-28.23484
-30.09416
-31.1615
-31.03277
-29.47031
-26.46957
-22.24622
-17.30487
-12.16938
-7.394585
-3.326843
-0.07449341
2.398094
4.261417
5.767391
7.118923
8.457523
9.801041
10.99478
11.82918
12.18337
12.04755
11.67574
11.4453
11.68962
12.49848
13.68628
14.96691
16.04457
16.80462
17.19781
17.24989
16.9175
16.18457
15.02889
13.58514
12.10738
10.79765
9.819748
9.153847
8.698139
8.313541
7.914093
7.479782
7.027504
6.573647
6.089405
5.545517
4.84816
3.88184
2.527355
0.6789474
-1.642509
-4.273418
-6.953754
-9.454632
-11.49406
-12.95239
-13.89441
-14.51421
-15.10962
-16.00109
-17.33822
-19.06306
-20.90399
-22.34059
-22.83673
-22.01731
-19.79626
-16.36137
-12.1367
-7.621605
-3.31213
0.4159126
3.307114
5.288349
6.436119
6.981834
7.200703
7.357384
7.616783
7.985996
8.409206
8.799549
9.100681
9.343391
9.614971
9.974445
10.45876
11.07405
11.78967
12.53743
13.27813
13.91493
14.35863
14.45727
14.13944
13.37497
12.19699
10.70763
9.026478
7.289093
5.64362
4.193676
2.897438
1.736179
0.6468315
-0.4163475
-1.407894
-2.294483
-3.103214
-3.900433
-4.854893
-6.162041
-7.867439
-9.921986
-12.1405
-14.32935
-16.44564
-18.60346
-20.92973
-23.5152
-26.19429
-28.527
-29.98493
-30.07521
-28.4929
-25.30016
-20.83527
-15.62836
-10.2369
-5.148106
-0.5847473
3.370918
6.715084
9.502827
11.70713
13.28625
14.16959
14.39421
14.09728
13.54016
12.93357
12.40171
12.02576
11.81467
11.79829
12.00826
12.43058
13.00163
13.60444
13.99631
13.98503
13.54832
12.76402
11.86977
11.11133
10.68422
10.56799
10.59698
10.54172
10.20055
9.577492
8.696091
7.667828
6.592949
5.479168
4.25449
2.804028
1.14397
-0.7025986
-2.588062
-4.45657
-6.290894
-8.119869
-10.04964
-12.12821
-14.35546
-16.62965
-18.8448
-20.89809
-22.82166
-24.71882
-26.70121
-28.81574
-30.84604
-32.42724
-33.06637
-32.34047
-29.98814
-26.11054
-21.09242
-15.56507
-10.23447
-5.545418
-1.742985
1.202072
3.489204
5.347286
6.888519
8.152637
9.120781
9.797623
10.2969
10.73291
11.21035
11.83145
12.64307
13.71143
15.06698
16.71635
18.55978
20.44908
22.17027
23.57061
24.58158
25.18465
25.42569
25.29868
24.72715
23.57638
21.7061
19.09548
15.94254
12.61607
9.48563
6.86689
4.88736
3.400238
2.20079
1.069096
-0.09849167
-1.227707
-2.254421
-3.239426
-4.362415
-5.816525
-7.771126
-10.13428
-12.61243
-14.83184
-16.43293
-17.34092
-17.74744
-17.97461
-18.34784
-19.10137
-20.34145
-22.06506
-24.22448
-26.65082
-29.00441
-30.75425
-31.28242
-30.09297
-27.00245
-22.29663
-16.5921
-10.75238
-5.456478
-1.126846
2.221146
4.821083
6.906487
8.676765
10.14401
11.28127
12.01628
12.45395
12.72783
13.00359
13.34203
13.66794
13.85326
13.77453
13.49947
13.18441
13.14021
13.57566
14.51825
15.80305
17.16465
18.32403
19.08249
19.39145
19.2421
18.68243
17.78089
16.60044
15.23969
13.7574
12.1865
10.54451
8.820942
7.072884
5.318024
3.56464
1.78233
-0.07587051
-2.063728
-4.111721
-6.127174
-7.935448
-9.475063
-10.75736
-11.86264
-12.91666
-13.96501
-15.05017
-16.12972
-17.27157
-18.56111
-20.09535
-21.84413
-23.53439
-24.75106
-24.95279
-23.73429
-20.93575
-16.80166
-11.87805
-6.864948
-2.348808
1.331074
4.120583
6.231461
7.894169
9.254604
10.27403
10.81662
10.78833
10.24186
9.350887
8.380287
7.616177
7.214424
7.23612
7.63991
8.340303
9.254763
10.32489
11.46439
12.58751
13.5215
14.08866
14.0949
13.48659
12.36415
10.92766
9.452679
8.194925
7.357832
6.925182
6.770555
6.692366
6.523575
6.131668
5.44364
4.444155
3.134542
1.550165
-0.2623463
-2.288942
-4.433556
-6.577507
-8.561068
-10.2445
-11.5975
-12.68656
-13.69928
-14.85588
-16.33343
-18.18642
-20.36964
-22.72172
-24.99929
-26.91058
-28.08659
-28.1895
-26.94266
-24.24693
-20.32187
-15.64879
-10.80776
-6.317568
-2.527878
0.5480862
3.005354
5.017788
6.743631
8.262737
9.575228
10.6676
11.59227
12.35365
13.01202
13.56837
14.0434
14.51144
15.02495
15.67053
16.42874
17.24565
17.98023
18.45282
18.50761
18.0778
17.19753
15.97353
14.4993
12.8737
11.17809
9.616488
8.385855
7.642958
7.391043
7.483343
7.546708
7.222997
6.301079
4.767597
2.871973
0.9521523
-0.7670164
-2.301815
-3.787047
-5.4627
-7.437441
-9.659225
-11.96478
-14.15121
-16.03077
-17.45571
-18.41218
-18.96128
-19.29441
-19.70041
-20.50256
-21.93192
-24.07609
-26.62555
-29.01515
-30.49651
-30.46742
-28.59692
-24.94567
-19.95111
-14.2933
-8.700884
-3.713742
0.3331232
3.43141
5.724033
7.412838
8.736631
9.833731
10.80449
11.69659
12.5732
13.38201
13.99945
14.33138
14.27921
13.96293
13.60803
13.49859
13.82089
14.60446
15.65233
16.72604
17.66201
18.33344
18.74534
18.81118
18.46808
17.65322
16.38709
14.78683
13.11341
11.58965
10.30233
9.237803
8.16003
6.868377
5.286048
3.460023
1.621219
0.06378222
-0.9958682
-1.580896
-1.819575
-1.992296
-2.352123
-3.019328
-4.066009
-5.437072
-7.114036
-9.051099
-11.27413
-13.6662
-16.15808
-18.6142
-20.94629
-23.17591
-25.31075
-27.37386
-29.24719
-30.69637
-31.29675
-30.72831
-28.7584
-25.42578
-21.05067
-16.06523
-11.00068
-6.316501
-2.26263
1.172442
4.056804
6.547617
8.687222
10.3789
11.52155
12.05081
12.00852
11.63735
11.23877
11.06145
11.23785
11.74312
12.36573
12.95779
13.43941
13.81428
14.26325
14.88195
15.66827
16.44574
16.97375
16.96063
16.3474
15.26924
13.98108
12.76366
11.71954
10.8445
10.04779
9.242985
8.353649
7.414764
6.435272
5.425207
4.368299
3.218742
1.999112
0.7712665
-0.492651
-1.851618
-3.39709
-5.234972
-7.31681
-9.502296
-11.53484
-13.19453
-14.26695
-14.8104
-15.0074
-15.21233
-15.7943
-16.96322
-18.69204
-20.65111
-22.36441
-23.23928
-22.88794
-21.15476
-18.19767
-14.34124
-9.97256
-5.455682
-1.100552
2.772547
5.920946
8.131098
9.370154
9.677425
9.22091
8.224096
6.933714
5.610067
4.517569
3.903583
3.974761
4.813475
6.347748
8.338307
10.46621
12.37932
13.83461
14.72202
15.00947
14.78722
14.21709
13.47672
12.71902
12.0336
11.42935
10.82694
10.11356
9.137272
7.760641
5.969345
3.812788
1.390808
-1.139893
-3.671019
-6.120102
-8.427752
-10.48791
-12.17945
-13.42267
-14.20692
-14.67797
-15.09388
-15.76113
-16.90508
-18.64433
-20.88117
-23.3082
-25.46645
-26.82081
-26.81692
-25.05283
-21.49367
-16.47109
-10.67991
-4.962257
0.002830505
3.868916
6.597183
8.46228
9.828617
10.91086
11.78974
12.42038
12.69892
12.65998
12.44778
12.23308
12.09247
11.99458
11.9249
11.82518
11.82046
12.0768
12.7221
13.70322
14.80748
15.68301
15.97554
15.60623
14.64244
13.32553
11.86559
10.4157
8.914518
7.27141
5.457092
3.494404
1.511387
-0.325407
-1.936888
-3.368689
-4.68573
-6.018114
-7.396349
-8.706161
-9.83741
-10.70125
-11.29625
-11.72453
-12.15494
-12.77427
-13.67595
-14.89563
-16.39703
-18.20142
-20.30976
-22.76227
-25.46296
-28.03826
-29.95275
-30.53693
-29.29389
-26.11045
-21.41527
-15.93835
-10.52938
-5.836798
-2.063633
0.9359818
3.465267
5.836607
8.17712
10.39734
12.36861
13.91163
14.97095
15.53821
15.71142
15.55458
15.17616
14.63737
14.03838
13.56275
13.36709
13.5535
14.07701
14.70133
15.12638
15.13235
14.6022
13.64546
12.56382
11.64149
11.03705
10.73763
10.53619
10.20813
9.573277
8.543867
7.150419
5.554031
3.907349
2.344345
0.960413
-0.1924343
-1.116285
-1.85593
-2.536665
-3.360395
-4.516586
-6.191587
-8.381983
-10.95403
-13.65843
-16.3547
-18.94579
-21.44911
-23.90017
-26.27317
-28.47723
-30.27562
-31.3488
-31.34089
-29.97035
-27.05473
-22.71453
-17.33965
-11.53467
-5.975087
-1.176679
2.5816
5.31465
7.184176
8.470499
9.409844
10.13857
10.82857
11.55556
12.3516
13.14371
13.80631
14.19219
14.27778
14.1776
14.04298
14.13005
14.52446
15.20324
15.99992
16.66273
16.90049
16.5501
15.5652
14.08148
12.4187
10.89655
9.791615
9.191586
8.955832
8.794388
8.4408
7.693456
6.509997
5.006179
3.317921
1.621694
0.1159906
-1.111448
-2.083176
-2.902639
-3.792446
-4.935252
-6.381724
-8.069943
-9.815025
-11.41972
-12.81889
-14.05045
-15.24224
-16.56675
-18.10547
-19.84868
-21.69386
-23.41396
-24.67695
-25.11559
-24.37826
-22.29719
-18.959
-14.74359
-10.19646
-5.949627
-2.436025
0.1389685
1.801122
2.794304
3.434332
3.991728
4.679335
5.580564
6.606421
7.642962
8.523665
9.167542
9.645954
10.14514
10.86111
11.9495
13.39283
14.96968
16.35412
17.18159
17.2531
16.59904
15.45111
14.11332
12.82905
11.68825
10.60594
9.44561
8.076035
6.500563
4.872151
3.407468
2.297786
1.612534
1.245245
0.8801432
0.1646695
-1.226385
-3.375146
-6.103399
-9.078131
-11.85559
-14.09966
-15.63492
-16.56491
-17.07059
-17.48337
-18.10032
-19.15455
-20.77579
-22.83212
-24.96994
-26.66182
-27.25603
-26.24607
-23.50613
-19.31594
-14.30186
-9.237219
-4.749085
-1.14078
1.570891
3.709988
5.60271
7.437977
9.255022
10.9597
12.37526
13.37917
13.96608
14.24014
14.44958
14.75425
15.19219
15.70808
16.15664
16.47313
16.66901
16.92244
17.40552
18.22481
19.24621
20.22718
20.86724
20.91314
20.30304
19.1462
17.66139
16.014
14.33329
12.59315
10.75165
8.779646
6.695969
4.642708
2.846876
1.425232
0.3178692
-0.68643
-1.91004
-3.575665
-5.751232
-8.263851
-10.80854
-13.08233
-14.98893
-16.55256
-17.93382
-19.2252
-20.42311
-21.52532
-22.57711
-23.69504
-25.06689
-26.79988
-28.76196
-30.60176
-31.79704
-31.83101
-30.37734
-27.42043
-23.17635
-18.06089
-12.58109
-7.201736
-2.32048
1.845781
5.262869
7.990646
10.11176
11.74963
13.0284
14.09763
15.12358
16.14678
17.12533
17.94955
18.44276
18.55894
18.40628
18.19608
18.19098
18.5855
19.3383
20.22091
20.94418
21.20029
20.86168
19.94858
18.60938
17.03045
15.4402
13.94021
12.57964
11.37166
10.28435
9.335037
8.541191
7.949081
7.537323
7.264904
6.96278
6.423061
5.525013
4.261456
2.802872
1.398174
0.2702866
-0.5113144
-1.028259
-1.548092
-2.322857
-3.51239
-5.16296
-7.217285
-9.58287
-12.15443
-14.84425
-17.47873
-19.92074
-22.07829
-23.96988
-25.73331
-27.53636
-29.44421
-31.34429
-32.92636
-33.69568
-33.22372
-31.27104
-27.85112
-23.2972
-18.08211
-12.72102
-7.703377
-3.338535
0.2842255
3.274597
5.828274
8.138008
10.25019
12.13124
13.71251
14.94624
15.85614
16.52833
17.03293
17.38404
17.58122
17.60141
17.53614
17.56717
17.90173
18.58762
19.54915
20.50313
21.19176
21.39198
20.98978
20.00418
18.52271
16.71616
14.71131
12.71247
10.83644
9.281006
8.088318
7.196285
6.445789
5.634159
4.626472
3.401711
2.095161
0.8365707
-0.2487488
-1.120647
-1.848221
-2.534489
-3.269634
-4.13217
-5.176929
-6.407244
-7.884096
-9.661718
-11.6995
-13.9705
-16.34186
-18.72054
-21.01466
-23.17825
-25.20483
-27.03752
-28.55293
-29.41284
-29.28275
-27.78424
-24.87301
-20.70289
-15.73725
-10.63401
-5.929653
-2.01227
1.046677
3.346258
5.132793
6.52562
7.581984
8.30163
8.636389
8.679026
8.633257
8.755075
9.228064
10.13487
11.35959
12.69426
14.01723
15.22743
16.31435
17.29582
18.1636
18.84943
19.23562
19.22967
18.77233
17.90885
16.72466
15.36206
13.95286
12.57793
11.27397
9.951048
8.531116
6.968491
5.303667
3.638891
2.150372
0.9220791
-0.1051979
-1.056822
-2.160419
-3.48662
-4.977165
-6.486948
-7.812386
-8.80489
-9.505104
-10.1115
-10.88508
-12.08067
-13.78954
-16.02186
-18.64441
-21.37871
-23.88929
-25.83273
-26.89319
-26.81977
-25.48039
-22.82423
-19.04008
-14.40366
-9.300209
-4.179887
0.5838795
4.737863
8.163446
10.84905
12.83658
14.1196
14.74154
14.77794
14.29088
13.40745
12.32372
11.20654
10.25632
9.639511
9.421672
9.626613
10.19618
10.97512
11.7872
12.50337
12.96193
13.0741
12.75341
11.96493
10.74784
9.248974
7.573016
5.894022
4.273963
2.749061
1.319966
-0.05328989
-1.411816
-2.783705
-4.155965
-5.542436
-6.863687
-8.076645
-9.161049
-10.12513
-10.99382
-11.85166
-12.7426
-13.69433
-14.7609
-16.01703
-17.55136
-19.36477
-21.26165
-22.77148
-23.37992
-22.61088
-20.31426
-16.70498
-12.29125
-7.655295
-3.250477
0.7361025
4.278633
7.412556
10.11644
12.26262
13.73212
14.46942
14.53178
14.05899
13.23409
12.20951
11.08436
9.997847
9.081897
8.494986
8.414314
8.928658
9.93726
11.19697
12.35325
13.0669
13.20458
12.80805
12.00524
10.9774
9.872127
8.762168
7.77902
7.0148
6.565933
6.44955
6.52538
6.582378
6.417459
5.899508
5.002448
3.729707
2.108891
0.1684198
-2.081524
-4.536809
-7.016926
-9.302162
-11.20126
-12.65742
-13.74535
-14.59872
-15.33205
-16.12637
-17.15651
-18.57205
-20.48831
-22.93408
-25.78344
-28.68806
-31.10358
-32.42531
-32.15015
-30.05109
-26.1981
-21.02904
-15.22146
-9.412598
-4.051355
0.6484604
4.677811
8.10507
10.99757
13.37097
15.20389
16.47246
17.2142
17.54793
17.5542
17.25651
16.66508
15.8073
14.73825
13.50534
12.26752
11.16265
10.37113
10.02514
10.13116
10.5804
11.1714
11.71329
12.06018
12.25441
12.38889
12.55806
12.79448
13.02943
13.09799
12.88445
12.40054
11.68355
10.84368
9.90938
8.768917
7.322515
5.555508
3.52317
1.433367
-0.442728
-1.982979
-3.15807
-4.076366
-4.933002
-5.874249
-6.984398
-8.320488
-9.873665
-11.62003
-13.56247
-15.61622
-17.69411
-19.72484
-21.61494
-23.37199
-25.09833
-26.84456
-28.60722
-30.24088
-31.42079
-31.73602
-30.85301
-28.50744
-24.77013
-19.97997
-14.61502
-9.316753
-4.631596
-0.8870049
1.821274
3.600971
4.747227
5.569839
6.291515
7.08522
7.943989
8.851467
9.769875
10.62557
11.35729
11.88052
12.16761
12.28549
12.39832
12.70331
13.40676
14.60234
16.12475
17.6751
18.8891
19.51599
19.4781
18.8724
17.81737
16.52202
15.14357
13.73098
12.35639
11.01858
9.747139
8.571537
7.499199
6.496834
5.494812
4.420216
3.135231
1.634418
-0.03406143
-1.725578
-3.254059
-4.554192
-5.647049
-6.737
-8.014755
-9.612804
-11.4703
-13.39384
-15.16471
-16.59307
-17.65331
-18.42349
-19.14035
-20.06175
-21.41453
-23.25637
-25.46297
-27.72713
-29.56499
-30.53942
-30.3026
-28.77787
-26.11118
-22.61279
-18.60939
-14.39536
-10.20972
-6.194942
-2.437687
1.048014
4.284742
7.274462
10.0401
12.49698
14.52877
15.96612
16.69628
16.72985
16.16042
15.22234
14.18032
13.3712
13.03822
13.32893
14.22111
15.60161
17.23784
18.85924
20.19441
20.96701
21.04633
20.34647
18.91905
16.90224
14.53244
12.00619
9.517523
7.207962
5.207766
3.622042
2.450918
1.629681
1.00526
0.4337311
-0.1724472
-0.8470993
-1.622641
-2.56801
-3.846821
-5.588566
-7.752985
-10.18045
-12.56066
-14.61586
-16.22113
-17.54198
-18.86642
-20.44783
-22.43034
-24.74521
-27.27989
-29.82961
-32.12373
-33.78722
-34.40907
-33.56411
-30.95872
-26.66239
-21.07069
-14.84379
-8.662285
-2.991028
1.923915
6.077596
9.543101
12.39721
14.67199
16.40925
17.65532
18.49616
19.00466
19.1853
19.10522
18.74912
18.17474
17.42586
16.6175
15.83174
15.19497
14.7712
14.59115
14.68147
14.88849
15.01105
14.83887
14.33145
13.56582
12.76535
12.07813
11.56504
11.10952
10.51679
9.644308
8.513371
7.22544
5.896126
4.602232
3.347326
2.150387
1.039439
0.01498747
-0.9598083
-2.010272
-3.352602
-5.109957
-7.237065
-9.538969
-11.68998
-13.46218
-14.84742
-15.96932
-17.05605
-18.3729
-20.02575
-22.01647
-24.19132
-26.23105
-27.71119
-28.19626
-27.29185
-24.89693
-21.22942
-16.84027
-12.41296
-8.550688
-5.495602
-3.145119
-1.137881
0.9291267
3.224568
5.652379
7.952959
9.869871
11.22424
12.08391
12.59798
12.90096
13.10871
13.18368
13.13614
13.01929
12.97971
13.14201
13.61609
14.44116
15.56179
16.8667
18.09318
18.99288
19.28133
18.79317
17.44119
15.32555
12.65008
9.655739
6.559452
3.490469
0.6298714
-1.840385
-3.739538
-4.975624
-5.577656
-5.827379
-6.101515
-6.696449
-7.733768
-9.095852
-10.49966
-11.71116
-12.61845
-13.37201
-14.36366
-16.02377
-18.54206
-21.78435
-25.2268
-28.11471
-29.70009
-29.4204
-27.11554
-23.03229
-17.74797
-11.86466
-6.009674
-0.6352654
3.95929
7.685314
10.5554
12.68818
14.2667
15.4606
16.43991
17.26966
17.97073
18.44399
18.64758
18.56783
18.27256
17.84107
17.40946
17.01794
16.72728
16.58418
16.61333
16.81524
17.13598
17.50085
17.74969
17.70354
17.1961
16.21995
14.88011
13.41279
12.00983
10.83345
9.917278
9.176392
8.399513
7.374741
5.9706
4.11824
1.870342
-0.6940231
-3.500175
-6.411201
-9.269596
-11.98235
-14.45008
-16.61822
-18.44532
-19.98547
-21.28535
-22.54009
-23.80783
-25.14603
-26.56959
-28.08558
-29.75679
-31.56868
-33.44682
-35.06926
-36.01216
-35.67137
-33.65865
-29.90818
-24.78252
-18.94666
-13.08629
-7.650555
-2.705669
1.856159
6.210308
10.31374
13.96799
16.89084
18.8591
19.90882
20.29507
20.36149
20.34833
20.30803
20.16877
19.88553
19.53166
19.22041
19.08237
19.1825
19.49548
19.87313
20.13286
20.14861
19.85222
19.26814
18.42525
17.41543
16.34366
15.35666
14.5078
13.81216
13.17681
12.49199
11.68138
10.80251
9.941742
9.150833
8.429741
7.671127
6.80584
5.757011
4.533623
3.154007
1.676933
0.1484528
-1.443283
-3.131126
-4.9888
-7.041515
-9.288353
-11.66331
-14.0295
-16.20959
-18.11723
-19.75007
-21.25573
-22.86037
-24.71226
-26.86161
-29.25829
-31.71981
-33.97755
-35.71009
-36.548
-36.09151
-34.1053
-30.52714
-25.59612
-19.80523
-13.75298
-7.985245
-2.876099
1.437927
5.035858
8.06292
10.67294
12.96988
15.00275
16.86798
18.61546
20.19527
21.51638
22.38847
22.65054
22.29649
21.5248
20.64118
19.93958
19.54481
19.36752
19.27615
19.14731
18.98782
18.91016
19.01644
19.23617
19.3825
19.21892
18.56807
17.43085
15.96103
14.34286
12.76461
11.36246
10.14455
9.101891
8.200653
7.333336
6.397537
5.283554
3.96003
2.518669
1.060047
-0.2842751
-1.426067
-2.365128
-3.262081
-4.275436
-5.584782
-7.283932
-9.328743
-11.6344
-14.05918
-16.44691
-18.69449
-20.7744
-22.60556
-24.19445
-25.62262
-26.98826
-28.37541
-29.76918
-30.97388
-31.69703
-31.56882
-30.22639
-27.54645
-23.67839
-19.02444
-14.07141
-9.301189
-5.023254
-1.366489
1.727432
4.394646
6.70575
8.70499
10.40287
11.84048
13.11
14.32616
15.53733
16.70961
17.69854
18.31538
18.50458
18.36494
18.13231
18.07375
18.351
18.9692
19.75866
20.51126
20.99555
21.08388
20.67213
19.73663
18.30429
16.47762
14.38845
12.12285
9.804535
7.547565
5.413063
3.484638
1.82201
0.4730339
-0.5880699
-1.423935
-2.164993
-2.968666
-3.960262
-5.22493
-6.792511
-8.527832
-10.25446
-11.73867
-12.82961
-13.55623
-14.12876
-14.89614
-16.12317
-17.85766
-19.85636
-21.67733
-22.81957
-22.98994
-22.07875
-20.16022
-17.3944
-13.98404
-10.08501
-5.963902
-1.96624
1.652143
4.614779
6.887363
8.535757
9.693577
10.45733
10.88816
11.00972
10.88573
10.66861
10.49246
10.44629
10.56658
10.80346
11.1474
11.61545
12.20481
12.95365
13.79766
14.56545
15.06999
15.16627
14.80494
14.1424
13.34821
12.59401
12.00523
11.61724
11.33043
11.0119
10.51795
9.670732
8.436684
6.797557
4.786936
2.511798
0.1429315
-2.166492
-4.291956
-6.239792
-8.15315
-10.15011
-12.26625
-14.4157
-16.35441
-17.86337
-18.8053
-19.21125
-19.35616
-19.62522
-20.39743
-21.86852
-23.93402
-26.18303
-28.07531
-28.93926
-28.29464
-25.9523
-22.07992
-17.15064
-11.76936
-6.499474
-1.758147
2.149585
5.156486
7.305897
8.72447
9.590989
10.04224
10.22044
10.24982
10.22804
10.22872
10.30093
10.4772
10.83863
11.4599
12.45976
13.89927
15.75929
17.82355
19.8458
21.47721
22.42745
22.54572
21.80388
20.27125
18.12077
15.6022
13.0001
10.66182
8.793915
7.417171
6.367079
5.396614
4.283674
3.014534
1.696157
0.5312061
-0.34095
-0.9576893
-1.491856
-2.150665
-3.114094
-4.463161
-6.138859
-8.098068
-10.17866
-12.20459
-14.0431
-15.66066
-17.05923
-18.39894
-19.85917
-21.59432
-23.69769
-26.09315
-28.59105
-30.91247
-32.69063
-33.40659
-32.6101
-29.92188
-25.38397
-19.40574
-12.72204
-6.149841
-0.3621864
4.324722
7.924698
10.58537
12.56568
13.91951
14.71326
14.97581
14.85431
14.49186
14.08812
13.75446
13.50051
13.35987
13.29981
13.36579
13.59933
14.04448
14.63507
15.2965
15.85369
16.1766
16.23474
16.0165
15.57772
14.99544
14.29872
13.5083
12.61557
11.61308
10.4861
9.263794
7.917931
6.452675
4.906876
3.335732
1.873268
0.5504379
-0.5840836
-1.691071
-2.970947
-4.623291
-6.687447
-9.069084
-11.5146
-13.67276
-15.42081
-16.73322
-17.83218
-18.98067
-20.38564
-22.06809
-23.99607
-26.12122
-28.31783
-30.42709
-32.1053
-32.87644
-32.21868
-29.83457
-25.79321
-20.55109
-14.81753
-9.293495
-4.475815
-0.5475159
2.49939
4.829643
6.68325
8.255394
9.726074
11.21725
12.67294
13.93668
14.78079
15.0665
14.79572
14.22433
13.61267
13.20846
13.1413
13.40269
13.9269
14.57018
15.20467
15.71575
15.99467
15.92239
15.49799
14.7781
13.87873
12.96771
12.10592
11.22286
10.2441
9.05201
7.578323
5.846001
3.980278
2.045021
0.1678619
-1.541344
-3.050339
-4.319603
-5.389626
-6.336655
-7.313454
-8.371223
-9.53212
-10.75218
-11.94991
-13.046
-14.1019
-15.33247
-16.9597
-19.1564
-21.8448
-24.62882
-26.93657
-28.18309
-27.92557
-25.97578
-22.4839
-17.82217
-12.48783
-7.020348
-1.942688
2.326729
5.482185
7.387077
8.242592
8.362442
8.150024
7.929161
7.918076
8.198555
8.825218
9.84494
11.18911
12.73035
14.18861
15.29505
15.89909
16.06901
16.00672
15.90493
15.853
15.74056
15.42928
14.8039
13.92222
12.89594
11.79991
10.58105
9.12545
7.341537
5.252724
3.065765
0.9776459
-0.8832397
-2.53788
-4.094543
-5.639381
-7.173584
-8.61898
-9.943161
-11.13768
-12.26573
-13.39568
-14.57327
-15.79137
-16.93204
-17.92248
-18.73895
-19.49526
-20.30731
-21.28535
-22.3812
-23.3801
-23.93682
-23.61272
-22.12024
-19.33732
-15.48967
-11.01926
-6.427231
-2.134705
1.58902
4.650223
7.066582
8.872299
10.14614
10.91221
11.19032
11.10979
10.82966
10.49566
10.21461
10.06078
10.08756
10.40826
11.0723
12.02453
13.12951
14.17777
15.01712
15.60999
16.06199
16.47003
16.84741
17.04521
16.81242
15.98453
14.54836
12.74831
10.90314
9.282585
7.950386
6.825577
5.693115
4.373367
2.815002
1.031273
-0.8581543
-2.771027
-4.748528
-6.858292
-9.059479
-11.25275
-13.19974
-14.66961
-15.59866
-16.15559
-16.66853
-17.5648
-19.12022
-21.33463
-23.99967
-26.85888
-29.65103
-32.1258
-33.98756
-34.81252
-34.11507
-31.5592
-27.19809
-21.43745
-15.0464
-8.78244
-3.206917
1.475372
5.318069
8.491821
11.11784
13.19444
14.72859
15.72647
16.30302
16.54597
16.56657
16.40787
16.09058
15.65342
15.1334
14.60231
14.12915
13.81593
13.679
13.75874
14.12671
14.79474
15.71117
16.70132
17.45014
17.61156
16.98938
15.66924
13.92718
12.19558
10.77372
9.740402
8.93679
8.104691
7.066177
5.797218
4.507355
3.397659
2.604538
2.131775
1.814667
1.441261
0.8164444
-0.1441803
-1.492561
-3.175919
-5.204987
-7.550171
-10.14055
-12.87267
-15.54633
-18.01888
-20.14438
-21.94514
-23.49232
-24.97437
-26.56842
-28.30244
-30.0993
-31.67023
-32.62518
-32.49277
-30.88136
-27.55567
-22.63895
-16.64367
-10.26214
-4.289299
0.7118301
4.558136
7.338463
9.357193
10.89167
12.03483
12.69028
12.7979
12.39601
11.67391
10.93404
10.36231
10.06742
10.04973
10.29182
10.81318
11.73699
13.09649
14.80736
16.67976
18.3515
19.49355
19.89498
19.52505
18.55954
17.27985
15.96976
14.82246
13.92972
13.19861
12.47874
11.60397
10.47971
9.067032
7.33712
5.2798
2.934219
0.4622345
-2.011131
-4.349167
-6.442673
-8.29718
-9.923988
-11.24567
-12.23558
-12.86107
-13.09212
-13.08916
-13.05212
-13.10928
-13.36867
-13.89005
-14.65569
-15.78603
-17.38747
-19.4295
-21.64232
-23.55698
-24.57029
-24.21878
-22.36615
-19.22041
-15.28362
-11.13728
-7.257385
-3.834869
-0.9350433
1.562454
3.727745
5.558586
6.954933
7.788567
8.05703
7.901489
7.576431
7.379028
7.584198
8.234474
9.264542
10.56074
11.97028
13.41225
14.7749
15.88634
16.62447
16.95004
16.87646
16.48167
15.80064
14.80458
13.39034
11.53201
9.280411
6.858009
4.533844
2.498993
0.8518372
-0.3987579
-1.246468
-1.72805
-1.87188
-1.841949
-1.88282
-2.22934
-3.018715
-4.212074
-5.6474
-7.131142
-8.574791
-9.99369
-11.49953
-13.21586
-15.25031
-17.62992
-20.23539
-22.75436
-24.7352
-25.62757
-24.94109
-22.44707
-18.29448
-12.97574
-7.213165
-1.657646
3.200935
7.069504
9.890404
11.68313
12.62113
12.90385
12.75041
12.33751
11.75531
11.029
10.11971
9.064255
8.011063
7.200226
6.884125
7.184265
8.099503
9.419174
10.89281
12.25601
13.34412
14.08966
14.40582
14.29736
13.76401
12.88553
11.78889
10.64364
9.640869
8.830177
8.094582
7.166771
5.873932
4.16568
2.228897
0.3592911
-1.22226
-2.470741
-3.574287
-4.808594
-6.42276
-8.371803
-10.43568
-12.30436
-13.80836
-14.9828
-16.04093
-17.23635
-18.67939
-20.4211
-22.40087
-24.54318
-26.75136
-28.86479
-30.59139
-31.46146
-31.04783
-29.02316
-25.37566
-20.47952
-14.89384
-9.204971
-3.890167
0.7061005
4.435799
7.27636
9.218483
10.38823
10.87445
10.82431
10.40633
9.866844
9.362671
9.053421
9.010727
9.298828
9.955322
10.96954
12.29205
13.7842
15.37622
16.9456
18.37153
19.52121
20.2989
20.6823
20.66486
20.29478
19.6008
18.6234
17.40159
16.0219
14.58644
13.23621
12.11906
11.2554
10.51792
9.719772
8.552536
6.837082
4.612625
2.056061
-0.5843735
-3.087059
-5.375603
-7.449478
-9.340523
-11.09989
-12.73656
-14.25339
-15.67435
-17.10101
-18.60374
-20.21335
-21.89322
-23.54547
-25.10508
-26.60636
-28.12762
-29.694
-31.2406
-32.52031
-33.1639
-32.76855
-31.03716
-27.87665
-23.4811
-18.28593
-12.83504
-7.688969
-3.249779
0.2797737
2.928825
4.906311
6.486336
7.945438
9.462063
11.16678
13.04742
15.00414
16.86224
18.41286
19.50971
20.13427
20.38255
20.44974
20.54772
20.81686
21.3152
21.93488
22.47182
22.65168
22.22337
21.04333
19.16242
16.86454
14.54384
12.60868
11.28761
10.53538
10.13848
9.822763
9.350424
8.649578
7.752611
6.6991
5.533865
4.271999
2.899719
1.426195
-0.07468987
-1.581394
-3.058002
-4.505291
-6.005623
-7.579832
-9.277756
-11.10604
-13.01793
-14.86632
-16.44666
-17.65376
-18.51259
-19.31639
-20.46125
-22.2735
-24.87435
-27.99965
-31.08346
-33.39477
-34.27524
-33.39027
-30.79995
-26.8916
-22.19202
-17.21957
-12.34568
-7.807552
-3.758362
-0.279109
2.624508
4.946992
6.848271
8.563498
10.25597
11.98923
13.64704
15.0408
16.05483
16.72393
17.19944
17.71138
18.41903
19.29888
20.27432
21.2087
22.01803
22.68056
23.11027
23.20159
22.83064
21.87442
20.30861
18.26646
15.98757
13.70152
11.62756
9.898776
8.53392
7.541112
6.807315
6.126287
5.357452
4.377639
3.107678
1.647138
0.1435919
-1.287207
-2.601438
-3.854832
-5.174355
-6.623519
-8.190045
-9.8436
-11.50919
-13.17913
-14.9102
-16.82596
-18.96789
-21.36231
-23.96685
-26.5707
-28.89724
-30.50365
-30.92056
-29.78384
-26.96398
-22.62889
-17.28655
-11.51526
-5.874256
-0.7463093
3.718586
7.465208
10.45911
12.68284
14.1198
14.78232
14.8555
14.64841
14.44695
14.47287
14.79128
15.29461
15.82864
16.26596
16.55014
16.74108
16.94971
17.17178
17.33712
17.3339
17.0596
16.51002
15.74367
14.86975
13.9478
13.01534
12.03341
11.02153
9.993011
8.979118
8.015497
7.088491
6.151728
5.135281
3.997421
2.717432
1.367393
0.01495361
-1.35874
-2.818712
-4.505068
-6.503166
-8.765049
-11.08449
-13.20639
-14.89717
-16.06258
-16.7919
-17.31842
-17.95278
-18.98697
-20.61662
-22.85254
-25.52853
-28.27716
-30.59703
-31.92675
-31.81548
-30.08475
-26.88984
-22.63411
-17.8424
-12.97578
-8.311409
-3.985405
-0.04117966
3.492779
6.587132
9.153168
11.20013
12.80701
14.1402
15.33696
16.47922
17.56491
18.52353
19.29352
19.83836
20.15447
20.26538
20.19826
19.92572
19.49527
18.94933
18.4023
17.93192
17.62765
17.46126
17.37175
17.23268
16.90239
16.2737
15.28769
13.95702
12.3455
10.63924
9.048294
7.826393
7.137413
7.006737
7.232349
7.501759
7.474003
6.965496
5.972698
4.628807
3.108105
1.507057
-0.2387657
-2.30957
-4.887638
-7.988991
-11.42305
-14.92719
-18.19662
-21.02422
-23.2947
-25.03889
-26.34156
-27.42984
-28.56055
-29.95288
-31.71179
-33.65411
-35.33125
-36.08852
-35.40462
-32.9683
-28.93858
-23.78839
-18.17873
-12.70139
-7.744522
-3.424484
0.3412933
3.68792
6.749954
9.552979
12.08203
14.29079
16.13439
17.59675
18.66161
19.36265
19.77365
20.00174
20.15031
20.31172
20.54722
20.87666
21.28544
21.73564
22.11604
22.29998
22.11522
21.44846
20.2202
18.5295
16.56683
14.599
12.87836
11.53648
10.60762
9.99754
9.560974
9.101845
8.505638
7.68235
6.632492
5.409645
4.114231
2.850609
1.719383
0.7438087
-0.1065941
-0.9498787
-1.913525
-3.142738
-4.746574
-6.708492
-8.984333
-11.43335
-13.87598
-16.12366
-17.98666
-19.32155
-20.16465
-20.71156
-21.28694
-22.27428
-23.91253
-26.18245
-28.71706
-30.88574
-31.9091
-31.13664
-28.32314
-23.69632
-17.92521
-11.88359
-6.331947
-1.717449
1.847702
4.505714
6.494926
7.968212
9.003639
9.685883
10.10149
10.4423
10.88641
11.53216
12.42345
13.46804
14.59974
15.74711
16.83584
17.80614
18.60322
19.18672
19.51765
19.59815
19.4273
19.02299
18.41873
17.67094
16.82296
15.98285
15.17286
14.33939
13.38128
12.11759
10.48862
8.524445
6.425449
4.417267
2.76984
1.576458
0.7488174
0.1259918
-0.4896317
-1.184593
-1.961475
-2.774998
-3.620407
-4.563404
-5.674587
-6.978802
-8.412724
-9.880245
-11.32297
-12.77197
-14.3387
-16.16757
-18.36844
-20.96825
-23.86134
-26.75862
-29.29007
-30.99902
-31.4325
-30.23578
-27.30785
-22.88353
-17.47635
-11.81431
-6.473579
-1.936222
1.623903
4.256041
6.15148
7.534557
8.609787
9.518435
10.27024
10.88615
11.29984
11.48529
11.4491
11.30552
11.18172
11.24528
11.58901
12.16163
12.8956
13.65778
14.37075
14.96424
15.36554
15.50706
15.34394
14.88897
14.13108
13.09756
11.73221
10.02623
8.023981
5.808392
3.587101
1.61808
0.07414818
-1.086536
-2.015789
-3.000858
-4.194124
-5.603266
-7.132626
-8.607712
-9.87114
-10.82993
-11.62466
-12.33552
-13.22446
-14.41953
-15.99936
-17.98281
-20.25224
-22.53202
-24.38629
-25.35403
-24.89285
-22.73882
-18.91319
-13.77951
-8.008724
-2.350096
2.574375
6.42872
9.155743
10.94467
11.97095
12.37199
12.26775
11.75774
10.96486
10.07854
9.276209
8.733028
8.569847
8.84388
9.521717
10.62755
12.08042
13.76492
15.47404
16.9244
17.86971
18.14861
17.73016
16.68265
15.23881
13.54564
11.82957
10.18133
8.573624
6.929785
5.133627
3.119883
0.8927975
-1.378998
-3.536673
-5.402153
-6.956003
-8.292093
-9.550455
-10.84435
-12.19253
-13.55975
-14.90689
-16.22766
-17.61569
-19.20413
-21.11551
-23.34014
-25.76329
-28.11814
-29.98334
-30.91627
-30.46178
-28.41153
-24.83924
-20.14774
-14.89425
-9.692236
-4.984821
-0.9281731
2.483557
5.423597
7.998159
10.24562
12.10783
13.54712
14.54272
15.174
15.59579
15.86523
16.04099
16.09809
16.00521
15.80857
15.57629
15.40565
15.45573
15.82388
16.41294
17.06749
17.50133
17.44319
16.83731
15.73427
14.39967
13.18304
12.30744
11.73029
11.23314
10.4893
9.157108
7.123512
4.428654
1.352697
-1.698582
-4.33695
-6.374775
-7.816774
-8.848463
-9.827003
-10.99695
-12.45992
-14.0862
-15.57278
-16.7077
-17.46822
-18.02652
-18.74369
-19.9541
-21.76159
-24.11892
-26.74528
-29.23495
-31.13833
-31.92009
-31.10471
-28.47731
-24.15012
-18.59391
-12.56605
-6.845814
-2.029089
1.653788
4.350803
6.346378
7.928829
9.204472
10.1979
10.89591
11.36177
11.79002
12.35221
13.12675
14.04506
14.94037
15.70211
16.31443
16.88737
17.53861
18.33897
19.1974
19.93184
20.3293
20.30717
19.86922
19.11377
18.12158
16.98942
15.81958
14.72015
13.78532
12.98995
12.20588
11.16543
9.626381
7.503145
4.943102
2.243887
-0.2698555
-2.398663
-4.170351
-5.759571
-7.404247
-9.198671
-11.0778
-12.856
-14.39065
-15.66458
-16.78032
-17.87564
-19.05263
-20.30999
-21.57476
-22.83986
-24.18007
-25.63795
-27.15908
-28.42966
-28.98307
-28.34847
-26.25436
-22.79848
-18.37251
-13.49852
-8.574762
-3.890673
0.4335175
4.261642
7.48369
10.04325
11.99591
13.50684
14.74665
15.85447
16.8142
17.55048
17.92125
17.90282
17.52499
16.87245
16.00698
14.95544
13.84866
12.84501
12.18909
12.02909
12.33619
12.88149
13.35851
13.51942
13.24798
12.64302
11.8903
11.15621
10.51656
9.881992
9.126358
8.139141
6.954155
5.683559
4.456539
3.32288
2.248182
1.137377
-0.1424656
-1.662848
-3.401596
-5.201349
-6.891285
-8.333651
-9.565958
-10.74042
-12.07206
-13.78165
-15.96583
-18.52203
-21.12586
-23.3001
-24.5519
-24.52474
-23.06835
-20.22378
-16.21289
-11.45181
-6.466843
-1.820024
2.054977
4.953318
6.887224
8.106874
8.901783
9.588173
10.31834
11.11829
11.88935
12.57081
13.12848
13.51345
13.69348
13.60131
13.25413
12.66662
11.94298
11.21419
10.6604
10.3935
10.39348
10.5459
10.57596
10.31385
9.610483
8.550888
7.297703
6.064468
5.046198
4.208673
3.492371
2.675821
1.623329
0.304493
-1.1648
-2.657287
-4.080661
-5.409184
-6.725196
-8.050564
-9.431623
-10.83093
-12.23225
-13.60535
-15.07853
-16.83503
-18.975
-21.42243
-23.78462
-25.54393
-26.0653
-24.95259
-22.04455
-17.60071
-12.19963
-6.515961
-1.213566
3.330088
6.929055
9.637101
11.56691
12.84024
13.51502
13.63857
13.33355
12.72842
12.0665
11.52259
11.24148
11.17747
11.26227
11.41092
11.56453
11.74817
11.88379
11.87517
11.55784
10.8704
9.837837
8.634365
7.472561
6.454072
5.588109
4.747792
3.871033
2.97687
2.189183
1.63699
1.350997
1.243491
1.117661
0.8044014
0.1789203
-0.7534657
-1.952634
-3.3347
-4.857277
-6.504859
-8.243546
-10.10415
-12.03906
-14.02323
-16.03799
-18.1132
-20.26443
-22.51256
-24.76265
-26.79179
-28.20934
-28.56729
-27.48636
-24.78245
-20.55692
-15.18268
-9.233207
-3.359124
1.818087
5.902503
8.729953
10.40635
11.23079
11.57699
11.80554
12.08249
12.44901
12.84635
13.1419
13.30543
13.3544
13.30868
13.22284
13.17101
13.15511
13.21051
13.36327
13.57363
13.86889
14.23146
14.60191
14.92406
15.14251
15.17332
14.98488
14.59144
14.04625
13.45108
12.90376
12.50832
12.2221
11.94753
11.53523
10.86149
9.87244
8.603365
7.129576
5.519445
3.808018
1.91626
-0.2555351
-2.746498
-5.41164
-8.043697
-10.37973
-12.20967
-13.53545
-14.46783
-15.19246
-15.88553
-16.61304
-17.33605
-18.09887
-18.99378
-20.136
-21.61071
-23.33753
-25.17548
-26.9518
-28.52468
-29.76354
-30.43401
-30.19815
-28.71152
-25.78543
-21.52641
-16.41731
-11.13181
-6.274384
-2.225075
1.030186
3.651154
5.82851
7.640392
9.110054
10.21688
10.97363
11.45756
11.76306
12.04208
12.37935
12.8751
13.53829
14.34507
15.20869
15.97209
16.51514
16.73623
16.65046
16.30186
15.82719
15.31879
14.88813
14.57962
14.43226
14.39188
14.34534
14.215
13.91021
13.47052
13.01205
12.57265
12.11321
11.48336
10.40969
8.718307
6.42886
3.783691
1.099129
-1.291737
-3.315666
-5.015301
-6.548492
-8.047256
-9.498589
-10.82132
-11.88268
-12.73731
-13.49744
-14.34936
-15.35376
-16.47675
-17.61815
-18.66417
-19.6169
-20.63495
-21.94708
-23.71272
-25.90523
-28.15536
-29.97189
-30.80878
-30.19198
-27.89854
-24.02098
-18.91525
-13.1787
-7.430237
-2.242607
2.046577
5.268456
7.512573
8.966957
9.872665
10.50666
10.98832
11.43172
11.79778
12.1126
12.30124
12.41605
12.51501
12.73151
13.2719
14.18459
15.44093
16.85281
18.20909
19.26415
19.89248
20.0365
19.70325
18.89928
17.53862
15.59137
13.15738
10.56671
8.251633
6.588402
5.678284
5.279808
4.947182
4.216698
2.957733
1.345108
-0.20578
-1.299225
-1.841934
-2.055069
-2.410393
-3.297691
-4.963783
-7.309471
-10.06625
-12.93432
-15.59068
-17.88279
-19.7067
-21.1078
-22.1806
-23.11723
-24.15032
-25.46543
-27.13927
-28.92831
-30.36375
-30.84153
-29.9024
-27.33877
-23.33665
-18.33829
-12.92832
-7.665993
-2.938446
1.067261
4.321815
6.858116
8.823524
10.34856
11.58129
12.65236
13.60905
14.45642
15.12941
15.59604
15.85985
15.94189
15.94833
15.97887
16.10667
16.30898
16.48734
16.49996
16.23093
15.69565
14.90357
13.90915
12.70438
11.25671
9.590874
7.810799
6.11779
4.66362
3.543762
2.707817
1.974495
1.205315
0.3352585
-0.6411285
-1.68782
-2.835167
-4.18055
-5.793846
-7.622818
-9.51899
-11.27213
-12.64891
-13.5328
-14.01775
-14.34731
-14.92416
-16.10857
-18.07465
-20.69868
-23.4549
-25.58972
-26.31004
-25.11542
-21.94281
-17.22047
-11.67857
-6.071304
-1.023819
3.146973
6.340408
8.604813
10.05054
10.80727
11.00863
10.82635
10.49232
10.1709
10.02547
10.09387
10.30634
10.5448
10.6888
10.63454
10.37223
9.986488
9.547035
9.214752
9.046478
9.04641
9.131676
9.175613
9.021698
8.607346
7.953606
7.120804
6.291389
5.557777
4.93541
4.353996
3.674866
2.750931
1.487923
-0.1153183
-2.012558
-4.062897
-6.121056
-8.085274
-9.893478
-11.61008
-13.34642
-15.24407
-17.34447
-19.57742
-21.75236
-23.56068
-24.62302
-24.5299
-23.02924
-20.03627
-15.79427
-10.82638
-5.805656
-1.33432
2.180145
4.719398
6.483414
7.737549
8.6856
9.393936
9.766312
9.766983
9.46907
9.044502
8.686401
8.500137
8.485222
8.522346
8.589241
8.630035
8.688423
8.771591
8.828064
8.756138
8.376423
7.611313
6.46817
5.114616
3.765713
2.595776
1.626774
0.7605476
-0.175293
-1.413937
-3.055721
-5.053886
-7.252724
-9.405655
-11.28965
-12.78514
-13.90072
-14.6705
-15.24754
-15.812
-16.58073
-17.76118
-19.39106
-21.22926
-22.73443
-23.30879
-22.41886
-19.93098
-16.13336
-11.67812
-7.336739
-3.613728
-0.69944
1.620522
3.62991
5.532848
7.422417
9.254021
10.96369
12.51802
13.96
15.2611
16.32045
16.95951
16.96746
16.33716
15.1984
13.86112
12.59465
11.60335
10.86983
10.25004
9.579063
8.741449
7.731737
6.584621
5.427877
4.373808
3.532326
2.878117
2.345362
1.822548
1.10453
0.02033997
-1.550486
-3.583642
-5.896811
-8.272453
-10.50663
-12.50969
-14.21338
-15.68958
-17.07351
-18.52662
-20.28545
-22.46769
-25.07205
-27.78301
-30.14811
-31.4998
-31.30933
-29.3299
-25.62674
-20.67377
-15.11813
-9.581713
-4.472065
-0.04121876
3.736855
6.973784
9.812263
12.40973
14.8008
16.91095
18.61267
19.76977
20.30683
20.2542
19.7962
19.14273
18.56116
18.18705
18.01751
17.98177
17.95119
17.87069
17.69748
17.43116
16.97668
16.32031
15.43998
14.33199
13.13309
11.89977
10.66102
9.401489
8.048252
6.478127
4.695229
2.66357
0.4044113
-1.959774
-4.291832
-6.469372
-8.284672
-9.688286
-10.81099
-11.91787
-13.3597
-15.47515
-18.34898
-21.86003
-25.74748
-29.56547
-32.85612
-35.15329
-36.00926
-35.10204
-32.40059
-28.06981
-22.67092
-16.86501
-11.23679
-6.186012
-1.843697
1.94767
5.360382
8.533943
11.53416
14.2079
16.39819
17.95502
18.83527
19.06619
18.9194
18.63503
18.43894
18.43329
18.54655
18.64493
18.63889
18.56517
18.46142
18.44348
18.47629
18.3923
17.97322
17.0247
15.50074
13.53738
11.33172
9.090904
6.934525
4.893066
2.869286
0.7931747
-1.445847
-3.833824
-6.304108
-8.80275
-11.22799
-13.65919
-16.241
-19.20168
-22.62336
-26.39017
-30.04453
-32.95855
-34.46851
-34.0631
-31.59892
-27.25605
-21.53941
-15.08092
-8.524139
-2.371635
3.057098
7.624649
11.35028
14.31424
16.58876
18.19897
19.14224
19.46759
19.20885
18.52304
17.53229
16.41948
15.34558
14.47762
13.95093
13.74345
13.85565
14.05811
14.20863
14.10777
13.70924
12.97224
11.94563
10.73611
9.356842
7.895248
6.36232
4.823517
3.241409
1.571854
-0.2940979
-2.430298
-4.817566
-7.451553
-10.27432
-13.28577
-16.48207
-19.78459
-22.96341
-25.54382
-26.99138
-26.80902
-24.84912
-21.31171
-16.7041
-11.62794
-6.566254
-1.854218
2.464417
6.335815
9.758453
12.64941
14.98248
16.7774
18.14427
19.24768
20.15277
20.89911
21.4348
21.74599
21.84189
21.85448
21.93027
22.14365
22.4967
22.87405
23.14488
23.20215
23.05402
22.74585
22.25562
21.51723
20.38344
18.77113
16.74718
14.5202
12.35188
10.49251
9.013535
7.757355
6.509125
5.120193
3.586044
2.017273
0.5411682
-0.8416748
-2.171219
-3.542542
-5.005478
-6.548843
-8.095703
-9.592834
-11.06236
-12.60541
-14.30849
-16.19287
-18.28008
-20.53375
-22.98767
-25.62378
-28.34535
-30.88507
-32.82043
-33.62396
-32.78345
-30.1593
-25.93452
-20.71193
-15.23759
-10.19363
-5.952713
-2.480209
0.4655151
3.172653
5.741364
8.039505
9.775711
10.81351
11.20926
11.25119
11.38002
11.87378
12.75807
13.78438
14.6295
15.0448
15.07578
14.92583
14.8486
14.99129
15.19612
15.2298
14.80305
13.83408
12.4718
11.02609
9.810623
8.958725
8.509918
8.22963
7.876816
7.251511
6.182022
4.5923
2.524414
0.07907104
-2.603333
-5.226105
-7.632294
-9.675827
-11.321
-12.69142
-14.01102
-15.53195
-17.38516
-19.54091
-21.64781
-23.21054
-23.64284
-22.55333
-19.84074
-15.74403
-10.81084
-5.668671
-0.9075317
3.165344
6.367599
8.727356
10.33965
11.26302
11.62721
11.59181
11.33994
11.07242
10.97119
11.06815
11.30739
11.69003
12.1396
12.68011
13.36021
14.17899
15.03554
15.78612
16.24152
16.27438
15.89211
15.13394
14.09329
12.89365
11.6797
10.59538
9.796463
9.318802
9.08783
8.909561
8.493713
7.617569
6.260742
4.476807
2.446915
0.2902679
-1.997345
-4.480438
-7.236465
-10.26987
-13.47624
-16.65106
-19.62573
-22.24664
-24.47
-26.38062
-28.06625
-29.6274
-31.13312
-32.57175
-33.81886
-34.62591
-34.5753
-33.24327
-30.36095
-25.93147
-20.29805
-14.08078
-7.941948
-2.388374
2.343605
6.304787
9.666603
12.58295
15.12744
17.20905
18.71979
19.63279
20.04665
20.15376
20.14762
20.12229
20.07381
19.90057
19.48605
18.7921
17.94114
17.1549
16.65084
16.52245
16.67796
16.88015
16.88345
16.52823
15.82376
14.88906
13.86266
12.84506
11.85149
10.86378
9.854828
8.792816
7.612892
6.272781
4.660957
2.691277
0.3360062
-2.34613
-5.177795
-7.955322
-10.45819
-12.62476
-14.45844
-16.08658
-17.59515
-18.97274
-20.17787
-21.16533
-22.04726
-23.0328
-24.4083
-26.25552
-28.36418
-30.19841
-31.09884
-30.5803
-28.47715
-24.99609
-20.57358
-15.74271
-10.96062
-6.539131
-2.650421
0.6734009
3.496292
5.945503
8.159019
10.22407
12.11923
13.8113
15.19709
16.21703
16.87537
17.22149
17.41279
17.57338
17.82688
18.17855
18.58666
18.92765
19.18101
19.31717
19.39035
19.45569
19.43141
19.17614
18.51918
17.39838
15.90284
14.28367
12.72971
11.28184
9.788879
8.018364
5.831512
3.305328
0.7518463
-1.519333
-3.320747
-4.700104
-5.938507
-7.282753
-8.90435
-10.74889
-12.65353
-14.39389
-15.87645
-17.13538
-18.27763
-19.43993
-20.66579
-22.0277
-23.4766
-24.95961
-26.31762
-27.30209
-27.60241
-26.93723
-25.08091
-21.99731
-17.85659
-12.98141
-7.77552
-2.709122
1.82238
5.532631
8.325294
10.29802
11.66276
12.66215
13.47371
14.14342
14.56615
14.61447
14.22662
13.50375
12.6715
11.97705
11.56055
11.45207
11.60318
11.94262
12.49665
13.28849
14.26117
15.20646
15.78565
15.69352
14.82395
13.29071
11.36902
9.396465
7.544205
5.833588
4.189064
2.479532
0.6300869
-1.371649
-3.510773
-5.69371
-7.737488
-9.477551
-10.7879
-11.67726
-12.32471
-13.01841
-14.02671
-15.54654
-17.54017
-19.75561
-21.82619
-23.27147
-23.63852
-22.58861
-19.99527
-16.02538
-11.20364
-6.203249
-1.68952
1.913475
4.5154
6.302312
7.547428
8.499234
9.278004
9.856263
10.14504
10.1437
9.938408
9.683883
9.527193
9.492937
9.528786
9.574268
9.588188
9.566666
9.614135
9.808155
10.17083
10.6096
10.92185
10.89644
10.33236
9.191441
7.556264
5.645209
3.684482
1.906893
0.4262114
-0.7548881
-1.765226
-2.825057
-4.11628
-5.740107
-7.611134
-9.569926
-11.34125
-12.74647
-13.75581
-14.61253
-15.66188
-17.21527
-19.43857
-22.15081
-24.92207
-27.1126
-28.15924
-27.67488
-25.63467
-22.21661
-17.76206
-12.71863
-7.536493
-2.654646
1.6383
5.158607
7.94968
10.12621
11.82765
13.12523
13.9631
14.28794
14.10152
13.59457
13.06137
12.76961
12.84503
13.17365
13.5833
13.79888
13.72342
13.35283
12.8003
12.23674
11.7776
11.44946
11.21517
11.02989
10.78471
10.48274
10.09654
9.601986
9.009621
8.260658
7.277252
5.996441
4.411613
2.517712
0.4176674
-1.853539
-4.28643
-6.895424
-9.657425
-12.50161
-15.32217
-17.94759
-20.1967
-21.90977
-23.07712
-23.87772
-24.59972
-25.53318
-26.8662
-28.49616
-30.04546
-30.92051
-30.52154
-28.50613
-24.91149
-20.12662
-14.74842
-9.405117
-4.49337
-0.2526627
3.314388
6.302303
8.784012
10.8506
12.58366
14.0259
15.20423
16.15797
16.87247
17.34866
17.58706
17.61702
17.45619
17.17067
16.76074
16.26951
15.77827
15.41656
15.28452
15.37801
15.57173
15.58762
15.2099
14.34513
13.09744
11.771
10.6652
9.915493
9.466648
9.082432
8.498131
7.56601
6.29332
4.760757
3.046043
1.194256
-0.8030891
-2.930691
-5.208614
-7.636959
-10.19151
-12.74547
-15.1653
-17.29413
-19.04521
-20.43937
-21.56907
-22.6503
-23.92244
-25.52918
-27.45589
-29.53491
-31.39482
-32.6074
-32.72696
-31.34354
-28.28822
-23.63696
-17.76971
-11.34911
-5.114235
0.3120041
4.542625
7.532379
9.520554
10.90385
12.03188
13.07017
13.98507
14.59579
14.80595
14.64841
14.2957
13.9848
13.91988
14.11862
14.5267
15.04359
15.58106
16.15516
16.73629
17.27404
17.61012
17.57907
17.0154
15.92892
14.38356
12.50664
10.51525
8.584183
6.940147
5.734703
5.024139
4.740547
4.698196
4.650986
4.36644
3.752357
2.78463
1.513962
0.002044678
-1.768387
-3.812225
-6.135994
-8.651634
-11.21097
-13.60538
-15.71519
-17.4665
-18.8754
-20.05006
-21.11197
-22.25652
-23.66234
-25.44293
-27.5192
-29.57761
-31.04428
-31.31557
-29.97945
-26.96417
-22.59255
-17.43427
-12.10239
-7.055748
-2.562515
1.325226
4.603836
7.283813
9.390961
10.9649
12.10468
12.97213
13.7111
14.37709
14.97794
15.51443
16.01137
16.56582
17.2009
17.9279
18.66824
19.29115
19.66098
19.70303
19.35554
18.62083
17.50581
16.00983
14.24581
12.37646
10.58009
9.008186
7.728035
6.667397
5.657494
4.523064
3.134285
1.531593
-0.09185791
-1.546097
-2.692421
-3.548027
-4.249992
-4.991798
-5.867348
-6.931236
-8.127106
-9.363777
-10.69991
-12.22429
-14.06335
-16.26576
-18.73689
-21.24993
-23.5788
-25.49093
-26.81282
-27.43543
-27.18338
-25.88992
-23.42677
-19.79379
-15.24303
-10.30559
-5.582016
-1.572968
1.469635
3.677025
5.359474
6.794411
8.111465
9.305626
10.25909
10.96509
11.5336
12.09123
12.82095
13.72187
14.6309
15.34902
15.77183
15.90765
15.9123
15.89983
15.8662
15.75402
15.42683
14.79609
13.84572
12.67747
11.36465
9.927223
8.381248
6.692856
4.948517
3.238503
1.646835
0.2199326
-1.031235
-2.145622
-3.172234
-4.049088
-4.83934
-5.558838
-6.346214
-7.324028
-8.505859
-9.817734
-11.14603
-12.46179
-13.77325
-15.26849
-17.0013
-18.85214
-20.41344
-21.16962
-20.62756
-18.59821
-15.27851
-11.06832
-6.562386
-2.229759
1.650536
4.961037
7.609482
9.556557
10.74072
11.13458
10.90497
10.17747
9.191803
8.153236
7.194252
6.403999
5.834709
5.443756
5.245689
5.323929
5.68605
6.333336
7.155548
7.951019
8.525467
8.755096
8.604851
8.153831
7.543129
6.798386
5.955566
5.034103
4.056252
3.031815
1.969582
0.7918701
-0.6244278
-2.305023
-4.247269
-6.294006
-8.262329
-10.02309
-11.57171
-12.96938
-14.34369
-15.81577
-17.49454
-19.49298
-21.68199
-23.78791
-25.30823
-25.61172
-24.21411
-20.97141
-16.19938
-10.58482
-4.959541
0.0079422
3.870644
6.513191
8.057556
8.733109
8.840714
8.710121
8.629677
8.806236
9.266808
9.930809
10.64902
11.33523
12.00202
12.69771
13.4104
14.08241
14.5366
14.58008
14.12658
13.24035
12.1253
10.97955
10.00441
9.206375
8.505646
7.825058
7.121468
6.462624
5.955544
5.651627
5.456947
5.141304
4.390999
2.948746
0.7354965
-2.107269
-5.310387
-8.592751
-11.79236
-14.74509
-17.38726
-19.59087
-21.2963
-22.55232
-23.49923
-24.38203
-25.37918
-26.52175
-27.57343
-28.18463
-27.92364
-26.5011
-23.84595
-20.12873
-15.71462
-11.05158
-6.561195
-2.547913
0.8068542
3.500084
5.614357
7.257347
8.539841
9.523735
10.2959
10.94826
11.58523
12.23876
12.95328
13.75299
14.62022
15.58146
16.61843
17.73017
18.87394
19.99388
20.95928
21.648
21.90927
21.5781
20.62181
19.06976
17.10428
14.94946
12.84299
10.94632
9.320068
7.915119
6.650589
5.480503
4.38279
3.371296
2.46286
1.618813
0.7226486
-0.358448
-1.765839
-3.579094
-5.808296
-8.395691
-11.2528
-14.16135
-16.84694
-19.06171
-20.62715
-21.57828
-22.24473
-23.10759
-24.63006
-26.98827
-29.86158
-32.52225
-34.1446
-34.04343
-31.92329
-28.01647
-22.8315
-16.98962
-11.07686
-5.523205
-0.6237869
3.407883
6.566895
8.989613
10.895
12.55336
14.12924
15.65658
17.07259
18.30758
19.26409
19.93738
20.313
20.41307
20.3027
20.07607
19.89332
19.87836
20.15463
20.62648
21.08582
21.27023
20.95821
20.0916
18.72487
16.99589
15.10991
13.27872
11.68385
10.44465
9.595078
9.034527
8.59914
8.085175
7.327507
6.248894
4.851933
3.218491
1.497608
-0.155304
-1.624111
-2.865452
-3.958946
-5.06432
-6.461315
-8.296455
-10.6215
-13.30685
-15.99694
-18.35727
-20.07681
-21.05199
-21.45767
-21.75071
-22.38618
-23.75209
-25.90987
-28.5285
-31.0141
-32.67889
-32.95895
-31.57752
-28.61649
-24.32675
-19.12775
-13.47761
-7.789803
-2.467617
2.117561
5.703438
8.203304
9.704746
10.52286
11.0432
11.54826
12.18138
12.89467
13.56776
14.16035
14.69081
15.23602
15.8435
16.48381
17.04634
17.48022
17.77855
17.99824
18.21101
18.38176
18.39706
18.13637
17.54547
16.65313
15.60768
14.5201
13.44606
12.39999
11.36502
10.32765
9.287111
8.218246
6.991001
5.542864
3.881968
2.066998
0.334362
-1.114012
-2.201189
-2.984314
-3.705353
-4.582003
-5.74896
-7.072996
-8.424608
-9.680359
-10.82603
-12.01163
-13.335
-14.87275
-16.6084
-18.50615
-20.415
-22.1839
-23.55342
-24.14961
-23.59814
-21.61122
-18.18358
-13.65656
-8.617491
-3.591465
0.9606705
4.869146
8.09428
10.59885
12.39038
13.45332
13.85623
13.7205
13.29061
12.71965
12.11181
11.51175
10.85659
10.14856
9.496017
9.08145
9.10177
9.670006
10.71381
12.03892
13.32061
14.15577
14.31116
13.76172
12.68663
11.36479
10.04508
8.781063
7.557198
6.292572
4.880524
3.393867
2.00005
0.9018059
0.2290077
-0.03050232
-0.08420563
-0.2735062
-0.9329529
-2.331024
-4.421761
-6.969437
-9.562992
-11.88928
-13.77026
-15.26657
-16.5789
-17.89354
-19.38981
-21.11042
-23.10043
-25.23737
-27.37389
-29.15055
-30.06649
-29.63505
-27.43771
-23.4267
-17.93193
-11.63963
-5.297684
0.4452667
5.260612
9.075237
11.95739
14.08354
15.57418
16.50539
16.92398
16.87132
16.40567
15.59946
14.56476
13.37122
12.2067
11.24988
10.64995
10.46589
10.67134
11.16685
11.79215
12.50152
13.1856
13.82411
14.36013
14.70131
14.7674
14.4932
13.87907
12.96866
11.84579
10.49025
8.845745
6.837532
4.462048
1.832108
-0.8514404
-3.291378
-5.201954
-6.439075
-6.979015
-6.973396
-6.662064
-6.322536
-6.238689
-6.682663
-7.828281
-9.702545
-12.15479
-14.87359
-17.48375
-19.64272
-21.27765
-22.48706
-23.56458
-24.80153
-26.27598
-27.74836
-28.76061
-28.73199
-27.22965
-24.23873
-20.04681
-15.17688
-10.19836
-5.531437
-1.40213
2.042862
4.724255
6.595684
7.749672
8.433643
9.05999
9.979324
11.30873
12.90016
14.38244
15.43343
15.89169
15.83019
15.45729
14.97593
14.49708
14.10888
13.88116
13.91896
14.33287
15.11901
16.11029
17.07864
17.77076
18.05501
17.92796
17.4979
16.8913
16.14387
15.20977
13.92759
12.18687
9.94278
7.349617
4.621479
2.041626
-0.2307587
-2.150105
-3.780952
-5.208004
-6.507767
-7.726208
-8.871437
-10.03655
-11.34885
-12.89638
-14.68655
-16.63993
-18.62654
-20.64296
-22.7706
-25.15618
-27.93438
-31.0426
-34.16249
-36.75371
-38.21695
-38.05219
-36.01719
-32.13398
-26.75782
-20.45617
-13.88696
-7.699661
-2.34737
1.95681
5.24144
7.718636
9.682594
11.37403
12.91955
14.34525
15.5609
16.50638
17.26857
18.0176
18.86659
19.84995
20.83641
21.60461
21.99116
21.90741
21.32576
20.35818
19.15973
17.84627
16.5492
15.3856
14.44342
13.79085
13.42104
13.21488
13.03787
12.7389
12.26283
11.62679
10.85164
9.963173
8.921738
7.686359
6.184879
4.458267
2.528873
0.4943657
-1.580139
-3.725605
-5.987259
-8.426361
-11.0118
-13.66659
-16.22941
-18.54074
-20.52818
-22.11778
-23.33072
-24.29702
-25.18536
-26.22288
-27.56257
-29.21965
-30.92308
-32.24819
-32.6766
-31.85752
-29.69601
-26.36461
-22.21034
-17.56173
-12.74411
-8.003983
-3.596638
0.3168755
3.544456
6.086006
8.059872
9.682873
11.21732
12.81707
14.5161
16.22154
17.8152
19.17513
20.21856
20.94632
21.37443
21.58
21.63758
21.59783
21.50807
21.32097
20.95012
20.3051
19.327
18.03101
16.51925
14.94337
13.41261
11.98231
10.5254
8.906403
7.068901
5.119333
3.333651
1.993647
1.216858
0.8725281
0.6190815
0.03444099
-1.160278
-2.954927
-5.183306
-7.527584
-9.70536
-11.52146
-12.88741
-13.81932
-14.50808
-15.22284
-16.26899
-17.98627
-20.49885
-23.67222
-27.03739
-29.93352
-31.62947
-31.56521
-29.4374
-25.32359
-19.75199
-13.46245
-7.292562
-1.88656
2.428102
5.65041
7.991121
9.744719
11.08101
12.05291
12.65092
12.89573
12.88307
12.76337
12.62552
12.44233
12.12308
11.58328
10.89284
10.29389
10.05952
10.39294
11.31215
12.57089
13.82209
14.69693
14.98177
14.68447
13.95103
12.99793
11.9606
10.8942
9.700659
8.253204
6.501272
4.4915
2.447213
0.5563393
-1.105637
-2.580736
-4.009689
-5.494915
-7.065315
-8.640104
-10.1204
-11.50119
-12.89015
-14.43984
-16.27965
-18.43913
-20.76213
-22.92088
-24.49223
-25.03114
-24.17842
-21.82341
-18.04766
-13.21021
-7.821689
-2.406406
2.583773
6.866452
10.25924
12.71478
14.25118
14.91611
14.7962
13.96427
12.57422
10.84758
9.105317
7.702592
6.928492
6.951441
7.706329
8.896551
10.18283
11.27873
12.03753
12.50448
12.7613
12.91433
12.98472
13.00198
12.90625
12.70592
12.41735
11.9725
11.31463
10.41649
9.305088
8.034862
6.729958
5.443099
4.145239
2.716516
0.9364538
-1.337042
-4.128658
-7.248147
-10.43924
-13.42818
-16.00265
-18.0383
-19.49075
-20.43432
-20.97572
-21.38582
-21.9631
-22.99722
-24.66271
-26.82741
-29.09168
-30.85366
-31.55983
-30.81546
-28.54001
-24.91004
-20.29033
-15.10404
-9.733741
-4.503413
0.3446646
4.581591
8.04458
10.67993
12.49061
13.65138
14.37465
14.91991
15.35285
15.66102
15.78082
15.68918
15.5165
15.45445
15.72891
16.43991
17.55845
18.80513
19.93497
20.74651
21.15963
21.19793
20.89925
20.2771
19.35868
18.22456
16.9728
15.7993
14.85815
14.1664
13.59898
12.9517
11.9945
10.60737
8.743152
6.481698
3.931422
1.247496
-1.473863
-4.071007
-6.382195
-8.281262
-9.719268
-10.79685
-11.71515
-12.69037
-13.88274
-15.33654
-16.95536
-18.62653
-20.24372
-21.82076
-23.46249
-25.35187
-27.55527
-30.01287
-32.44851
-34.38638
-35.3334
-34.83138
-32.72888
-29.14902
-24.43936
-19.08296
-13.57514
-8.319102
-3.546257
0.6223089
4.180929
7.164326
9.688356
11.90887
13.96229
15.88654
17.58697
18.95238
19.87306
20.27719
20.17869
19.72828
19.08196
18.44545
17.95101
17.63591
17.56348
17.79823
18.34653
19.19776
20.25408
21.26723
21.93949
22.03669
21.40265
20.13882
18.48169
16.66619
14.83236
12.98952
11.05949
9.008287
6.942602
5.003574
3.375543
2.084556
1.013349
-0.01044774
-1.17846
-2.596754
-4.247163
-6.070963
-8.069593
-10.20161
-12.50101
-14.97153
-17.49919
-19.99622
-22.33043
-24.35767
-25.9296
-27.02464
-27.68639
-28.18833
-28.86687
-29.94079
-31.47405
-33.11549
-34.29658
-34.25747
-32.48406
-28.81406
-23.55255
-17.31876
-10.80161
-4.650778
0.7852527
5.32237
9.023088
12.01946
14.46522
16.45613
18.02358
19.1814
19.88895
20.17602
20.0421
19.54991
18.80481
17.95344
17.20021
16.71035
16.6372
17.00645
17.74341
18.63287
19.44414
19.96634
20.0611
19.70088
18.85527
17.59207
16.03765
14.36186
12.7344
11.29499
10.03156
8.839738
7.558648
6.023067
4.198008
2.16453
0.09306479
-1.842
-3.497051
-4.801762
-5.809556
-6.541216
-7.093259
-7.558229
-8.064487
-8.752879
-9.809954
-11.29921
-13.18463
-15.29933
-17.3646
-19.22254
-20.94031
-22.83887
-25.25585
-28.36377
-31.94668
-35.43091
-38.02267
-38.95769
-37.7887
-34.47605
-29.39719
-23.14298
-16.38529
-9.722012
-3.596462
1.785621
6.397084
10.29312
13.48852
15.99879
17.80415
18.92779
19.47638
19.59533
19.44019
19.18791
18.89357
18.58448
18.30159
18.04348
17.83936
17.67562
17.52169
17.33919
17.13944
16.89578
16.56873
16.13271
15.58035
14.97981
14.46764
14.1145
13.89385
13.67038
13.21664
12.29479
10.80787
8.832949
6.558041
4.224245
1.995712
-0.003395081
-1.737551
-3.229733
-4.572474
-5.919739
-7.409781
-9.099638
-10.93212
-12.80584
-14.54176
-16.04119
-17.28887
-18.33956
-19.35201
-20.50073
-21.91577
-23.55564
-25.28426
-26.75138
-27.51235
-27.08985
-25.09698
-21.42929
-16.39198
-10.5126
-4.43577
1.156713
5.832565
9.344418
11.7025
13.06702
13.61402
13.47502
12.79072
11.74713
10.52879
9.444633
8.728874
8.563622
9.021023
9.940653
11.11804
12.37083
13.59259
14.76191
15.9488
17.10941
18.06867
18.66203
18.65516
18.00892
16.88638
15.54197
14.19903
13.03467
11.95652
10.73799
9.265846
7.41662
5.301428
3.108324
1.051159
-0.7469788
-2.224771
-3.503401
-4.825959
-6.350391
-8.253417
-10.46442
-12.80402
-15.0084
-16.83272
-18.16074
-19.10279
-19.93785
-20.93534
-22.35115
-24.18819
-26.23393
-28.10485
-29.27315
-29.17805
-27.39935
-23.82616
-18.66262
-12.53265
-6.211205
-0.4012566
4.404212
8.039924
10.56695
12.22816
13.22225
13.73124
13.85475
13.65234
13.25049
12.78176
12.43094
12.33681
12.60326
13.21625
14.12477
15.19757
16.30835
17.31794
18.10497
18.52756
18.51012
17.99915
17.04185
15.86263
14.7112
13.77832
13.11792
12.65133
12.18321
11.62791
10.92775
10.04678
8.983925
7.641442
5.874207
3.637424
1.042719
-1.652746
-4.083953
-6.033398
-7.525248
-8.814177
-10.27099
-12.14231
-14.45343
-16.90182
-19.11663
-20.73292
-21.61123
-21.93339
-22.01487
-22.32617
-23.19041
-24.80443
-27.11994
-29.93272
-32.82803
-35.17496
-36.32749
-35.64597
-32.78952
-27.80855
-21.20406
-13.79546
-6.487603
0.02111387
5.37956
9.544426
12.64502
14.85617
16.3312
17.13544
17.3951
17.23916
16.84886
16.46228
16.25408
16.37936
16.83797
17.59069
18.45943
19.22466
19.70066
19.80737
19.61893
19.28164
18.99673
18.82331
18.68054
18.39007
17.76382
16.65751
15.12885
13.38103
11.63085
10.09963
8.868756
7.895913
7.077668
6.291971
5.408272
4.362965
3.188786
1.872413
0.4865444
-0.9168304
-2.269689
-3.506769
-4.616021
-5.663977
-6.830734
-8.274823
-10.13935
-12.32417
-14.57792
-16.57967
-18.10492
-19.15836
-20.01288
-21.08625
-22.74522
-25.20916
-28.30898
-31.63099
-34.57876
-36.49694
-36.74179
-34.9001
-30.88662
-25.05929
-18.18128
-11.1508
-4.766451
0.4623728
4.45676
7.429274
9.688148
11.52971
13.0846
14.43034
15.63496
16.75793
17.76475
18.59503
19.06822
19.02291
18.42641
17.42168
16.26524
15.36425
14.99172
15.23099
15.99047
16.97714
17.78824
18.07908
17.71708
16.72074
15.36965
13.99793
12.9167
12.28793
12.06501
11.96758
11.62674
10.78156
9.30135
7.262594
4.911797
2.573944
0.4929338
-1.212826
-2.603245
-3.835937
-5.100604
-6.538879
-8.270682
-10.32175
-12.60002
-14.96147
-17.23713
-19.23126
-20.85325
-22.17356
-23.39433
-24.81678
-26.67488
-28.93805
-31.23185
-32.91193
-33.25964
-31.8019
-28.5153
-23.75537
-18.14127
-12.25024
-6.48981
-1.084664
3.876101
8.278511
11.95249
14.72486
16.54958
17.49552
17.83056
17.80515
17.5493
17.12299
16.49411
15.66056
14.74202
13.90111
13.30089
13.07171
13.19552
13.52796
13.87689
14.09264
14.08139
13.81242
13.29207
12.50912
11.47989
10.22764
8.767431
7.176429
5.505687
3.808076
2.164132
0.6958437
-0.5115366
-1.416878
-2.087823
-2.709229
-3.452872
-4.43226
-5.625847
-6.928256
-8.173346
-9.286254
-10.29235
-11.36127
-12.60375
-14.08688
-15.82433
-17.76243
-19.92436
-22.34006
-25.02423
-27.79037
-30.27244
-31.86581
-31.96528
-30.17912
-26.445
-21.16209
-15.03183
-8.820097
-3.129532
1.726678
5.758167
9.096539
11.83521
13.9988
15.50427
16.30161
16.43666
16.12737
15.67409
15.3573
15.33794
15.59183
16.0739
16.70713
17.41444
18.13962
18.81121
19.31462
19.51
19.32952
18.68878
17.67083
16.37067
14.8824
13.3138
11.7611
10.30305
8.95009
7.709353
6.535842
5.421694
4.301322
3.171418
2.042379
0.9070339
-0.2161157
-1.297632
-2.304962
-3.229927
-4.080556
-4.992221
-6.089308
-7.457813
-9.101074
-11.0044
-13.03077
-15.10927
-17.21581
-19.3768
-21.6588
-24.09026
-26.65365
-29.26549
-31.79146
-33.96712
-35.4764
-35.94825
-35.0225
-32.44711
-28.25295
-22.74479
-16.4859
-10.11817
-4.183857
0.9511155
5.161381
8.477756
11.04206
13.01943
14.45777
15.45145
16.04189
16.26573
16.20838
15.96187
15.66188
15.42929
15.41842
15.60593
15.99249
16.45768
16.85316
17.10804
17.23164
17.27304
17.30846
17.37825
17.37345
17.15686
16.56232
15.52738
14.14319
12.65262
11.28775
10.21336
9.472391
8.913194
8.402473
7.77709
6.996529
6.102983
5.122556
4.035835
2.7605
1.217042
-0.7168365
-3.035129
-5.739062
-8.786501
-12.04093
-15.35679
-18.51243
-21.27404
-23.45
-25.08316
-26.33459
-27.56778
-29.10331
-31.02095
-33.10705
-34.85428
-35.61956
-34.882
-32.44435
-28.33277
-22.87002
-16.54109
-9.821258
-3.308774
2.519948
7.260092
10.73879
12.99191
14.33392
15.17482
15.86124
16.58277
17.24384
17.73273
17.90723
17.84609
17.69856
17.69788
18.00859
18.6442
19.54746
20.54948
21.51165
22.31728
22.91354
23.21634
23.11617
22.52276
21.37887
19.76277
17.78872
15.67763
13.67926
11.95049
10.57576
9.430466
8.339064
7.093722
5.658054
4.049081
2.408071
0.868474
-0.4780169
-1.594846
-2.581665
-3.557416
-4.716182
-6.161882
-7.971997
-10.13449
-12.56098
-15.0565
-17.39395
-19.35037
-20.79765
-21.78447
-22.47015
-23.10495
-24.00925
-25.49063
-27.66167
-30.36968
-33.13032
-35.21041
-35.88768
-34.63096
-31.32588
-26.28845
-20.15578
-13.66268
-7.423959
-1.79338
3.032581
6.930677
9.838739
11.73575
12.76155
13.25127
13.64233
14.32362
15.45967
16.92908
18.33075
19.33869
19.72633
19.5263
18.99094
18.49448
18.29627
18.45014
18.83051
19.12123
19.09701
18.62477
17.73047
16.50438
15.12843
13.65986
12.07207
10.36227
8.533118
6.743092
5.178776
4.000321
3.176388
2.555021
1.900233
0.9870405
-0.2199135
-1.701445
-3.317144
-4.957675
-6.599132
-8.245742
-9.917599
-11.55441
-13.06938
-14.31199
-15.33982
-16.36976
-17.66147
-19.47614
-21.79304
-24.2909
-26.35569
-27.31812
-26.55301
-23.94513
-19.75373
-14.52509
-8.923936
-3.461173
1.499103
5.797274
9.30403
12.03923
13.95084
15.0731
15.52994
15.40511
14.87446
14.08784
13.21325
12.36359
11.68661
11.19642
10.91052
10.87825
11.08389
11.58368
12.3835
13.39035
14.36512
15.03379
15.1462
14.5856
13.43324
11.87033
10.14356
8.446125
6.878479
5.459065
4.211493
3.180499
2.299588
1.495452
0.5218396
-0.8811784
-2.888654
-5.511664
-8.5144
-11.56194
-14.29287
-16.58985
-18.43214
-20.02681
-21.64355
-23.46669
-25.58666
-27.84078
-29.91521
-31.27415
-31.44007
-29.97227
-26.72433
-21.9235
-16.07169
-9.900709
-4.131597
0.7291172
4.481173
7.254826
9.357944
11.09871
12.64133
14.02801
15.16241
15.87694
16.07367
15.73156
14.94502
13.89707
12.88818
12.21549
12.16358
12.86387
14.2071
15.91219
17.56064
18.78829
19.31725
19.16573
18.43074
17.40284
16.30808
15.27723
14.33619
13.38409
12.28973
10.89719
9.168284
7.112983
4.868487
2.603522
0.5171299
-1.219718
-2.506636
-3.414957
-4.140142
-4.96749
-6.224544
-8.094377
-10.55603
-13.43284
-16.40841
-19.17354
-21.52189
-23.34947
-24.67674
-25.64478
-26.4964
-27.53008
-29.0657
-31.15051
-33.54841
-35.64864
-36.65548
-35.89653
-33.01245
-28.22856
-22.15973
-15.68065
-9.544966
-4.263425
0.04778194
3.552197
6.525247
9.262203
11.9008
14.48487
16.9213
19.08256
20.83597
22.09341
22.83496
23.05141
22.82949
22.24546
21.46291
20.64599
19.89896
19.25863
18.73159
18.29962
17.88148
17.41708
16.79902
16.01118
15.13152
14.23359
13.48306
13.0074
12.75476
12.57108
12.18672
11.36073
10.01598
8.265169
6.229919
4.133557
2.175617
0.4489751
-1.001235
-2.224064
-3.465247
-4.94286
-6.834635
-9.217479
-11.92708
-14.64999
-17.14071
-19.26155
-20.97392
-22.45742
-23.84978
-25.29856
-27.0279
-29.14784
-31.70184
-34.48441
-36.94855
-38.35607
-38.06807
-35.67479
-31.26326
-25.3497
-18.67317
-12.025
-6.0269
-1.000202
2.977976
5.98221
8.273924
10.17127
11.92883
13.76913
15.74724
17.75664
19.65694
21.27801
22.45495
23.17052
23.52949
23.60888
23.56269
23.38887
23.03112
22.44812
21.57522
20.38016
18.92242
17.28135
15.57972
13.93325
12.37012
10.89553
9.501136
8.171136
6.940019
5.834826
4.832962
3.908723
2.979582
1.994316
0.9243348
-0.1540115
-1.124766
-1.871269
-2.378037
-2.774206
-3.243708
-4.024237
-5.269681
-7.042252
-9.212347
-11.64318
-14.18872
-16.85202
-19.71379
-22.85067
-26.27344
-29.86972
-33.38875
-36.48568
-38.79237
-39.8716
-39.33696
-36.88393
-32.45452
-26.38477
-19.30067
-12.02687
-5.350661
0.1952962
4.413036
7.387471
9.400285
10.80483
11.91455
12.99883
14.25193
15.67324
17.12041
18.3574
19.14151
19.31621
18.96955
18.33744
17.70266
17.25235
17.01446
16.94507
17.00869
17.1761
17.38997
17.56923
17.53276
17.10528
16.17249
14.78205
13.2219
11.78926
10.64064
9.737323
8.844804
7.696727
6.176524
4.3786
2.49468
0.7287807
-0.8434334
-2.341916
-3.933429
-5.765615
-7.932039
-10.37319
-12.91973
-15.40421
-17.74393
-19.96324
-22.22497
-24.77666
-27.76211
-31.14846
-34.59242
-37.44382
-38.94876
-38.49995
-35.85231
-31.26025
-25.32198
-18.85135
-12.56168
-6.925442
-2.120703
1.916746
5.37936
8.42168
11.06836
13.30536
15.07623
16.34985
17.11002
17.43104
17.42138
17.27542
17.21268
17.35721
17.74092
18.30975
18.88496
19.28145
19.41558
19.27592
18.92314
18.4474
17.85489
17.10201
16.13185
14.95549
13.70637
12.58656
11.79677
11.41844
11.33548
11.27031
10.84109
9.717096
7.728895
4.919861
1.534262
-2.095123
-5.618774
-8.776848
-11.45854
-13.6695
-15.4736
-16.95196
-18.22594
-19.38327
-20.5948
-21.98724
-23.53794
-25.02131
-26.00182
-25.88536
-24.21653
-20.90503
-16.28879
-11.05534
-5.956284
-1.524921
2.03186
4.781208
6.872845
8.444508
9.527523
10.14215
10.35471
10.32845
10.28058
10.34845
10.55364
10.85419
11.20873
11.64472
12.2395
13.0141
13.92368
14.86927
15.74014
16.4262
16.8542
16.97011
16.71372
16.06659
15.00467
13.57129
11.85172
9.964241
7.956554
5.85994
3.669979
1.381607
-0.964489
-3.280254
-5.477764
-7.477425
-9.280888
-10.93091
-12.47312
-13.95134
-15.38792
-16.83184
-18.39021
-20.17962
-22.24829
-24.43657
-26.2681
-27.12869
-26.43356
-23.92631
-19.8457
-14.77716
-9.52845
-4.776932
-0.9387169
1.941998
3.998619
5.462948
6.539101
7.355793
8.021175
8.606312
9.248749
10.08191
11.21152
12.6291
14.19545
15.69202
16.8654
17.53987
17.67755
17.43897
17.06581
16.76212
16.60194
16.47487
16.20477
15.59229
14.62012
13.36515
11.96063
10.55204
9.19936
7.918709
6.657209
5.399773
4.067505
2.628946
1.028683
-0.7981567
-2.910995
-5.306702
-7.910999
-10.64683
-13.38589
-16.02232
-18.4483
-20.59284
-22.35638
-23.73536
-24.84844
-25.883
-27.06967
-28.4421
-29.71406
-30.36923
-29.84821
-27.83998
-24.43244
-20.09086
-15.38153
-10.77534
-6.459625
-2.43358
1.343599
4.834343
7.90844
10.46914
12.50975
14.16271
15.52515
16.64073
17.41301
17.79636
17.82851
17.71141
17.68814
17.96253
18.62678
19.55841
20.58825
21.49854
22.14769
22.49163
22.52219
22.21037
21.49194
20.30931
18.6797
16.7721
14.83295
13.15631
11.91256
11.04896
10.37613
9.618435
8.626354
7.438597
6.191637
5.019043
3.938307
2.783064
1.309557
-0.6031895
-3.00102
-5.722454
-8.554241
-11.34017
-13.95278
-16.28661
-18.31692
-20.08316
-21.62313
-23.04634
-24.54751
-26.2946
-28.44212
-31.05664
-33.97932
-36.86658
-39.16143
-40.21709
-39.47882
-36.75941
-32.26025
-26.5822
-20.58577
-14.97013
-10.12167
-5.981904
-2.233163
1.452248
5.244903
9.093465
12.72696
15.79755
18.08939
19.49442
20.10189
20.1035
19.72113
19.21647
18.84904
18.77516
19.0386
19.68496
20.56859
21.51899
22.36252
22.93213
23.13628
22.99143
22.54001
21.76498
20.77072
19.55391
18.09023
16.45184
14.67138
12.8455
11.01988
9.168427
7.188049
4.981474
2.57609
0.09679985
-2.1883
-4.096667
-5.558907
-6.628141
-7.543664
-8.569059
-9.912004
-11.63907
-13.6528
-15.72406
-17.66277
-19.32045
-20.688
-21.91422
-23.24418
-24.94241
-27.16052
-29.79923
-32.44887
-34.53226
-35.36062
-34.4819
-31.76352
-27.42553
-22.01306
-16.13238
-10.30995
-4.903771
-0.1060662
3.971677
7.258075
9.731831
11.4645
12.68628
13.67541
14.71304
15.87056
17.093
18.15254
18.817
18.94629
18.57456
17.87265
17.07555
16.46881
16.22722
16.49303
17.26941
18.42541
19.66902
20.64429
20.97411
20.48653
19.30209
17.69281
16.06896
14.72283
13.6675
12.70431
11.53055
9.847712
7.598183
4.959237
2.193971
-0.4680562
-2.936202
-5.251145
-7.488035
-9.697288
-11.86016
-13.90301
-15.72771
-17.32528
-18.73656
-20.01286
-21.2427
-22.46263
-23.74892
-25.24384
-27.06884
-29.28638
-31.83292
-34.36596
-36.30939
-37.07238
-36.10072
-33.1702
-28.48904
-22.54248
-16.03528
-9.655989
-3.881031
1.080085
5.220525
8.70349
11.69152
14.21608
16.26409
17.71103
18.47146
18.5713
18.0758
17.14341
15.99279
14.84791
13.84485
13.16451
12.8723
13.01644
13.62002
14.52558
15.53149
16.41812
16.97031
17.02244
16.55469
15.57656
14.16346
12.46591
10.60596
8.734516
6.99375
5.452662
4.124138
2.945831
1.743459
0.3548059
-1.266508
-3.129268
-5.112625
-7.097429
-9.018077
-10.87822
-12.74385
-14.75421
-16.9711
-19.38564
-21.97703
-24.54914
-26.84176
-28.47429
-28.96522
-27.94339
-25.3073
-21.2398
-16.17673
-10.72223
-5.36114
-0.4781175
3.708993
7.100723
9.667038
11.44245
12.55875
13.19421
13.5215
13.74999
13.96938
14.1935
14.37376
14.43806
14.33594
14.05841
13.67836
13.28454
13.03686
12.94861
13.00042
13.08827
13.03317
12.73816
12.10806
11.13604
9.85982
8.421378
6.925482
5.483221
4.178331
2.895333
1.486525
-0.2814636
-2.511561
-5.145841
-7.972512
-10.67334
-13.02555
-14.88636
-16.38823
-17.71371
-19.16031
-20.95193
-23.15388
-25.6615
-28.10844
-29.97079
-30.65986
-29.83576
-27.33486
-23.32182
-18.20488
-12.39545
-6.367538
-0.4776516
4.916182
9.516125
12.98631
15.18036
16.13679
16.06073
15.33155
14.29932
13.2584
12.3695
11.75267
11.43281
11.43174
11.75331
12.36349
13.24311
14.32312
15.5927
17.02668
18.55563
19.95791
20.92218
21.07843
20.19195
18.31388
15.70889
12.78279
9.903986
7.307194
4.964367
2.777943
0.6298542
-1.526407
-3.611574
-5.56249
-7.389378
-9.217064
-11.11067
-13.16337
-15.27698
-17.32864
-19.21325
-20.91785
-22.5589
-24.31552
-26.399
-28.84545
-31.5775
-34.22132
-36.25167
-37.06491
-36.144
-33.27102
-28.56553
-22.55607
-15.88768
-9.26807
-3.216436
2.002031
6.318796
9.87236
12.83036
15.3218
17.36955
18.96473
20.02224
20.55024
20.63237
20.39484
20.03568
19.65607
19.27595
18.86077
18.41971
17.99485
17.71305
17.61013
17.63253
17.60708
17.25945
16.44167
15.17516
13.67547
12.22493
11.06204
10.22473
9.580704
8.902538
8.006329
6.79805
5.323727
3.658058
1.791664
-0.2832108
-2.562172
-4.938534
-7.206287
-9.125076
-10.57641
-11.58173
-12.41294
-13.41838
-14.8956
-17.03328
-19.82176
-23.09888
-26.60406
-29.90818
-32.49902
-33.84872
-33.48892
-31.16648
-27.0133
-21.4347
-15.11396
-8.784176
-2.999054
1.928513
5.937237
9.081295
11.50765
13.26885
14.40672
15.00138
15.19186
15.13111
15.02212
15.02691
15.20615
15.62418
16.25996
17.055
17.91645
18.72185
19.33282
19.65025
19.65595
19.34915
18.81124
18.11424
17.35903
16.61969
15.94562
15.30326
14.4924
13.35176
11.7066
9.600754
7.233425
4.902561
2.900387
1.304226
-0.0329361
-1.369972
-2.92667
-4.81599
-6.921894
-9.144276
-11.38169
-13.5755
-15.77253
-18.0326
-20.32667
-22.62165
-24.92244
-27.21164
-29.46183
-31.62221
-33.44436
-34.55112
-34.48988
-32.84816
-29.39803
-24.32626
-18.15563
-11.63647
-5.6175
-0.7016182
2.849209
5.162197
6.651333
7.791176
8.92321
10.27039
11.86776
13.68493
15.62214
17.52444
19.19254
20.47433
21.32019
21.80233
22.15387
22.54932
23.07763
23.68321
24.18193
24.3119
23.95331
23.12169
21.94309
20.61428
19.2803
18.00554
16.7959
15.60243
14.34364
12.93826
11.38437
9.639923
7.753395
5.708923
3.568089
1.413681
-0.6254158
-2.380074
-3.798626
-4.882858
-5.837605
-6.805012
-7.933578
-9.267117
-10.74575
-12.29824
-13.81546
-15.26184
-16.64812
-18.00311
-19.27153
-20.40256
-21.43695
-22.49105
-23.84952
-25.76104
-28.33649
-31.32027
-34.1008
-35.79186
-35.62624
-33.22659
-28.7115
-22.76042
-16.21555
-9.902122
-4.328175
0.2822456
3.999023
6.943909
9.241806
11.0737
12.51999
13.71144
14.74208
15.66907
16.47219
17.16727
17.71404
18.13705
18.51337
18.90224
19.36169
19.91678
20.55014
21.18813
21.73594
22.09716
22.16375
21.82885
21.04695
19.90205
18.55253
17.19321
16.01186
15.04429
14.22011
13.32989
12.15019
10.47793
8.317234
5.802738
3.176052
0.7189331
-1.363255
-2.972191
-4.137794
-4.97028
-5.685101
-6.463814
-7.505424
-8.909573
-10.73167
-12.86942
-15.16362
-17.4415
-19.56297
-21.47698
-23.18541
-24.8191
-26.52184
-28.48203
-30.758
-33.21402
-35.48001
-36.98853
-37.10447
-35.3686
-31.69028
-26.39538
-20.15939
-13.75489
-7.779732
-2.537857
2.002644
6.00565
9.618813
12.83838
15.53675
17.56049
18.85577
19.53774
19.77885
19.77161
19.57012
19.16925
18.55643
17.83234
17.18634
16.78849
16.75762
17.01078
17.36413
17.52893
17.3747
16.91493
16.32069
15.79904
15.43457
15.18661
14.88213
14.31926
13.30661
11.80178
9.895092
7.763149
5.665073
3.763805
2.124821
0.6731834
-0.7421913
-2.299751
-4.074394
-5.997326
-7.881538
-9.497547
-10.76339
-11.74281
-12.68205
-13.9084
-15.65519
-18.06481
-21.05796
-24.38414
-27.50199
-29.78335
-30.505
-29.09519
-25.37323
-19.64251
-12.70771
-5.601547
0.7549839
5.855482
9.566267
12.08973
13.72558
14.66933
15.01456
14.82763
14.2407
13.448
12.71039
12.20339
11.95155
11.89094
11.94272
12.05857
12.21181
12.41057
12.62763
12.7877
12.82514
12.63123
12.14744
11.32946
10.1972
8.780807
7.195299
5.568258
4.043535
2.729397
1.645554
0.6683598
-0.4670582
-1.95475
-3.948456
-6.365364
-9.02085
-11.60195
-13.90799
-15.83157
-17.4012
-18.82334
-20.24387
-21.72421
-23.19873
-24.56283
-25.55856
-25.91991
-25.36474
-23.62919
-20.61111
-16.43019
-11.45265
-6.221911
-1.311485
2.903162
6.304987
8.96474
11.04169
12.62477
13.74489
14.31939
14.31002
13.7975
12.92444
11.91879
10.92624
10.08039
9.444111
9.107934
9.071873
9.348406
9.885382
10.54041
11.14458
11.43586
11.26752
10.52534
9.252518
7.586022
5.82766
4.280249
3.169595
2.564389
2.224282
1.807852
0.9118152
-0.7426744
-3.252267
-6.43815
-9.960335
-13.45074
-16.54599
-19.04094
-20.87289
-22.10191
-22.93153
-23.61714
-24.35801
-25.16428
-25.80592
-25.80572
-24.61516
-21.93172
-17.80009
-12.67216
-7.198621
-1.987375
2.592437
6.406082
9.511799
11.96889
13.76039
14.86178
15.26403
15.11775
14.65434
14.10983
13.61259
13.23647
12.96535
12.84097
13.00694
13.61149
14.66907
16.07486
17.51242
18.63072
19.19155
19.09397
18.41993
17.33513
16.00045
14.46319
12.85183
11.2566
9.871809
8.91213
8.434841
8.314148
8.229111
7.79941
6.721595
4.954512
2.647148
0.1025085
-2.327706
-4.401681
-6.049564
-7.393818
-8.665019
-10.12595
-11.88352
-13.9377
-16.09375
-18.02558
-19.50021
-20.40288
-20.89051
-21.28508
-22.03404
-23.50611
-25.91063
-29.07156
-32.43092
-35.1678
-36.40757
-35.52391
-32.32775
-27.19012
-20.80318
-13.97379
-7.380116
-1.473812
3.500336
7.4202
10.2809
12.20634
13.40218
14.1796
14.7756
15.3222
15.839
16.24589
16.49429
16.59744
16.62654
16.65728
16.75528
16.9478
17.23997
17.64744
18.14313
18.65711
19.06454
19.19729
18.8998
18.10304
16.83961
15.23287
13.51572
11.87811
10.45112
9.271971
8.261845
7.29475
6.20714
4.931744
3.475357
1.953962
0.4664955
-0.9381676
-2.323019
-3.81459
-5.591999
-7.763559
-10.317
-13.07543
-15.75105
-18.0265
-19.69258
-20.73123
-21.32949
-21.85279
-22.67326
-24.19758
-26.53496
-29.55439
-32.72723
-35.26572
-36.31416
-35.22114
-31.81575
-26.39821
-19.74413
-12.74008
-6.231497
-0.7089386
3.65641
6.979921
9.56282
11.67506
13.54547
15.24199
16.72231
17.84432
18.52954
18.69172
18.33684
17.66242
16.8226
16.08679
15.624
15.54102
15.82255
16.41184
17.17445
17.89676
18.48561
18.73814
18.5305
17.77604
16.50975
14.82985
12.93952
11.03039
9.225912
7.635294
6.191629
4.853891
3.532101
2.131552
0.5848713
-1.141811
-3.013792
-4.923912
-6.685226
-8.307011
-9.768087
-11.19074
-12.73755
-14.44414
-16.30362
-18.20399
-20.07639
-21.91667
-23.90292
-26.11684
-28.51391
-30.76658
-32.26727
-32.30173
-30.34331
-26.26514
-20.40183
-13.5015
-6.4077
0.09912682
5.54517
9.813234
12.95954
15.18786
16.64844
17.45375
17.70587
17.48003
16.82939
15.79073
14.48803
13.04746
11.68805
10.61344
10.04736
10.10595
10.74415
11.77987
12.96705
14.11312
15.06812
15.75704
16.0836
16.04285
15.58473
14.70681
13.48582
12.05666
10.58331
9.133213
7.709642
6.151758
4.279243
1.952667
-0.8793106
-4.08099
-7.413082
-10.60385
-13.46885
-15.90535
-17.91931
-19.61557
-21.12524
-22.57618
-24.05469
-25.64222
-27.34453
-29.01861
-30.38091
-31.06626
-30.64235
-28.82602
-25.44833
-20.65499
-14.86843
-8.716595
-2.83466
2.24371
6.250542
9.190826
11.30562
12.94335
14.34235
15.59187
16.54438
17.0114
16.85581
16.14322
15.11406
14.14376
13.56316
13.571
14.18255
15.23047
16.41173
17.42891
18.06374
18.21982
17.91871
17.28296
16.47511
15.57853
14.70714
13.82264
12.96291
12.14644
11.37868
10.60347
9.700588
8.519844
6.907646
4.864555
2.479633
0.03302765
-2.211369
-4.053806
-5.474537
-6.599304
-7.702061
-9.063698
-10.8181
-12.91829
-15.18909
-17.41652
-19.44273
-21.19997
-22.77591
-24.35548
-26.13437
-28.22669
-30.61037
-33.05767
-35.20525
-36.55723
-36.56944
-34.90507
-31.49651
-26.57409
-20.6152
-14.22424
-7.920223
-2.077282
3.105057
7.579353
11.29379
14.28223
16.58858
18.28988
19.41999
20.01849
20.07772
19.58682
18.63504
17.44385
16.37283
15.74274
15.72794
16.28888
17.19822
18.15143
18.88036
19.22866
19.15795
18.72187
17.94566
16.88337
15.67177
14.50394
13.55383
12.87083
12.37285
11.82278
11.01339
9.782619
8.167789
6.309006
4.360622
2.387539
0.3683701
-1.764538
-4.0415
-6.406017
-8.742008
-10.95003
-12.98137
-14.83083
-16.45425
-17.83856
-19.01574
-20.12334
-21.47279
-23.40543
-26.17918
-29.74345
-33.67034
-37.13968
-39.29265
-39.46533
-37.39812
-33.3451
-27.82596
-21.53786
-15.06918
-8.890495
-3.243149
1.678383
5.7873
9.035046
11.48005
13.32101
14.87556
16.42603
18.13784
19.95705
21.66209
22.96974
23.71045
23.87938
23.72447
23.56033
23.58419
23.81038
24.04776
24.02135
23.51239
22.47757
20.93669
19.07438
16.99369
14.76474
12.44125
10.11803
7.945423
6.057991
4.545345
3.375675
2.465862
1.707943
1.040958
0.4011116
-0.2149696
-0.9359779
-1.902126
-3.247917
-5.085571
-7.438004
-10.23317
-13.30367
-16.41886
-19.32993
-21.91912
-24.18768
-26.35894
-28.74236
-31.5757
-34.77652
-37.8896
-40.09121
-40.57677
-38.78552
-34.6576
-28.63313
-21.53467
-14.20663
-7.36483
-1.444801
3.402626
7.173813
9.951965
11.8826
13.22684
14.22122
15.12873
16.09872
17.09278
18.01791
18.74723
19.24715
19.54816
19.70771
19.7137
19.53507
19.144
18.59372
18.06705
17.74977
17.78632
18.09435
18.38033
18.26964
17.48135
16.02911
14.17045
12.31961
10.68503
9.319775
7.994007
6.355545
4.1828
1.460159
-1.581448
-4.642633
-7.454788
-9.999163
-12.39347
-14.74536
-17.1404
-19.54902
-21.87585
-24.10047
-26.27972
-28.41951
-30.336
-31.58678
-31.51717
-29.60849
-25.70133
-20.20605
-13.90099
-7.706242
-2.296162
2.064157
5.434561
8.059246
10.06656
11.57771
12.64245
13.35086
13.87283
14.35279
14.86362
15.37205
15.8119
16.02968
15.99061
15.70716
15.19786
14.56384
13.94047
13.39907
12.99356
12.71891
12.35835
11.63984
10.35827
8.457483
6.146982
3.819666
1.829319
0.3383675
-0.7006912
-1.554075
-2.538353
-3.786295
-5.326212
-6.972513
-8.530319
-9.889032
-11.04477
-12.10465
-13.22193
-14.55265
-16.15166
-18.05688
-20.10186
-21.97238
-23.29177
-23.5933
-22.54887
-20.03875
-16.20578
-11.4193
-6.240963
-1.192595
3.303185
6.916729
9.627048
11.53564
12.87274
13.82596
14.50391
14.88556
14.92532
14.64484
14.10773
13.5347
13.08621
12.87292
12.84189
12.88703
12.90256
12.86133
12.86996
13.01988
13.43454
14.09029
14.78397
15.24778
15.15984
14.31314
12.64122
10.31128
7.600239
4.810989
2.171654
-0.263588
-2.510918
-4.685017
-6.841381
-8.995949
-11.04427
-12.86416
-14.42258
-15.74891
-16.97424
-18.21175
-19.55109
-21.02557
-22.74019
-24.74799
-27.07042
-29.58589
-31.88188
-33.32941
-33.24496
-31.2091
-27.20824
-21.70476
-15.44496
-9.239353
-3.683819
1.036583
4.942677
8.182697
10.8764
13.03631
14.6763
15.81466
16.48687
16.80406
16.91703
16.90597
16.80996
16.67368
16.51957
16.46409
16.64964
17.16521
17.97074
18.94176
19.83285
20.38253
20.47974
20.05697
19.20253
18.04039
16.70535
15.20475
13.54858
11.72276
9.741772
7.720356
5.671368
3.673328
1.673176
-0.3907089
-2.637123
-5.147552
-7.899483
-10.76678
-13.51678
-15.97971
-18.0188
-19.67719
-21.06478
-22.37403
-23.7934
-25.49921
-27.61
-30.13504
-32.87511
-35.38576
-36.96384
-36.85223
-34.52379
-29.90356
-23.49563
-16.19662
-8.950348
-2.50692
2.792789
6.977749
10.22775
12.71325
14.5599
15.88611
16.80718
17.50789
18.08047
18.54433
18.80491
18.74743
18.30615
17.59036
16.87569
16.43973
16.47755
16.97525
17.7659
18.61162
19.2361
19.37137
18.85222
17.62286
15.72325
13.38823
10.91401
8.623417
6.706974
5.220741
4.065741
3.076906
2.131512
1.087317
-0.06324577
-1.370113
-2.843538
-4.495089
-6.30378
-8.19631
-10.12915
-12.04525
-13.99544
-15.9072
-17.87891
-19.94275
-22.22339
-24.83817
-27.74313
-30.67224
-33.13215
-34.45042
-33.97607
-31.43009
-26.94921
-21.07683
-14.62168
-8.364611
-2.882196
1.580278
5.043644
7.706661
9.740511
11.2269
12.22851
12.75089
12.86905
12.72597
12.55526
12.49555
12.60958
12.82398
13.01451
13.14796
13.28946
13.69562
14.51839
15.81808
17.35524
18.62159
19.05781
18.25949
16.12309
12.95628
9.396997
6.123505
3.658039
2.174423
1.430891
1.012568
0.5253773
-0.2683125
-1.325405
-2.45167
-3.509111
-4.440105
-5.338022
-6.383505
-7.729805
-9.483746
-11.70678
-14.42233
-17.59044
-21.07619
-24.55049
-27.50484
-29.33549
-29.52114
-27.80506
-24.26227
-19.26985
-13.46139
-7.530752
-2.048138
2.585665
6.219191
8.906721
10.77066
11.98747
12.74581
13.16335
13.30179
13.19994
12.86821
12.35466
11.84115
11.489
11.48745
11.91102
12.67525
13.57764
14.3809
14.87599
14.93211
14.5562
13.73303
12.49148
10.87157
8.963021
6.944453
4.98033
3.174578
1.491493
-0.1504431
-1.90586
-3.74213
-5.595881
-7.326333
-8.849982
-10.26625
-11.71585
-13.46024
-15.63716
-18.26907
-21.12094
-23.78613
-25.75849
-26.5407
-25.86368
-23.60514
-19.95194
-15.28417
-10.05565
-4.709043
0.4305415
5.147955
9.302488
12.783
15.48496
17.268
18.03272
17.82227
16.7457
15.11579
13.28397
11.59645
10.28946
9.461411
8.979721
8.727528
8.625891
8.587471
8.631264
8.77164
8.965695
9.110167
9.089839
8.725003
7.85281
6.388378
4.300329
1.709734
-1.144477
-4.040374
-6.82931
-9.458465
-11.97494
-14.43486
-16.82073
-19.12463
-21.25941
-23.20892
-25.06683
-26.88273
-28.56669
-29.8152
-30.09168
-28.8108
-25.62763
-20.58486
-14.20869
-7.304597
-0.7464657
4.880988
9.345535
12.71217
15.20709
16.97714
18.04938
18.3771
17.97496
16.96626
15.64654
14.33715
13.28906
12.67525
12.49005
12.66261
13.16127
13.93734
14.98244
16.23809
17.50241
18.42438
18.64304
17.84046
15.96034
13.26818
10.13533
6.966702
4.097282
1.624104
-0.538805
-2.529642
-4.501625
-6.570129
-8.725239
-10.96301
-13.29592
-15.61974
-17.82249
-19.80979
-21.521
-23.11649
-24.88261
-27.05675
-29.72195
-32.67033
-35.31868
-36.92453
-36.78645
-34.4591
-29.98309
-23.82218
-16.70489
-9.453472
-2.794178
2.851772
7.368366
10.94616
13.93149
16.56532
18.89861
20.7821
22.03287
22.54914
22.42762
21.82579
20.99664
20.10937
19.22567
18.38935
17.68657
17.23507
17.11145
17.31897
17.61293
17.72855
17.46227
16.69716
15.49963
14.04883
12.51701
10.93685
9.270325
7.323311
4.896931
1.954906
-1.444756
-5.033295
-8.471119
-11.43963
-13.84505
-15.74087
-17.31837
-18.83193
-20.41223
-22.12202
-23.94099
-25.96079
-28.1659
-30.40874
-32.22169
-32.97674
-32.06299
-29.11946
-24.35883
-18.34748
-11.99004
-6.076935
-1.10463
2.886971
6.102699
8.846169
11.42101
13.87484
16.15065
18.10248
19.54319
20.43543
20.85813
20.98042
21.00481
21.14123
21.4263
21.80997
22.1567
22.28944
22.17655
21.83079
21.3177
20.66487
19.80512
18.54458
16.75465
14.36768
11.54369
8.655602
6.118919
4.241409
3.026245
2.218369
1.412941
0.3115616
-1.145714
-2.762711
-4.263153
-5.505104
-6.540115
-7.634926
-9.141144
-11.28799
-14.16335
-17.7177
-21.72554
-25.81715
-29.49255
-32.05238
-32.7951
-31.23854
-27.28562
-21.33975
-14.27007
-7.095665
-0.6751633
4.438866
8.201347
10.82397
12.66602
13.9967
14.8671
15.26433
15.16166
14.64319
13.94842
13.37045
13.09485
13.14327
13.36942
13.49374
13.44862
13.32592
13.30765
13.55946
14.05382
14.50781
14.49181
13.68044
11.96857
9.646179
7.213715
5.148949
3.690331
2.789619
2.145149
1.342079
0.1554489
-1.454033
-3.295883
-5.135887
-6.869484
-8.492401
-10.10417
-11.82014
-13.74558
-15.9389
-18.46243
-21.29072
-24.26183
-26.95847
-28.70493
-28.80049
-26.7625
-22.61374
-16.87288
-10.45055
-4.308121
0.8529129
4.755257
7.52494
9.508636
11.04952
12.36828
13.52646
14.4278
14.97257
15.19033
15.19852
15.21478
15.41992
15.91164
16.60722
17.40532
18.10544
18.62947
19.01964
19.37545
19.77274
20.17178
20.43946
20.33741
19.71799
18.51238
16.81626
14.89656
13.01502
11.3232
9.838409
8.428558
6.869492
5.043839
2.989647
0.8676224
-1.06076
-2.630997
-3.857254
-4.968254
-6.226913
-7.870811
-9.900009
-12.20761
-14.62267
-16.93682
-19.08264
-20.9851
-22.6872
-24.20497
-25.67943
-27.2165
-28.98444
-30.98749
-32.89629
-34.15324
-34.06064
-32.12736
-28.2467
-22.80981
-16.47382
-10.01112
-4.016312
1.196716
5.547951
9.065521
11.8638
14.01422
15.59476
16.71368
17.4915
18.04479
18.46793
18.8018
19.05589
19.21366
19.25762
19.23812
19.21168
19.24693
19.38721
19.59433
19.79656
19.92796
19.90482
19.62246
19.01606
18.02228
16.66063
15.0755
13.48821
12.14038
11.14404
10.41282
9.700031
8.72831
7.312225
5.475792
3.419281
1.361565
-0.4309998
-1.798409
-2.738426
-3.34351
-3.855106
-4.505383
-5.548218
-7.066868
-9.098999
-11.52157
-14.09839
-16.6909
-19.10093
-21.32518
-23.38174
-25.40056
-27.50033
-29.79633
-32.26537
-34.67933
-36.68466
-37.68856
-37.17842
-34.81587
-30.60829
-24.95861
-18.53151
-12.04969
-6.043751
-0.859787
3.543402
7.24585
10.32694
12.81085
14.64784
15.89557
16.69881
17.42275
18.27866
19.40288
20.59218
21.51595
21.93834
21.80542
21.3532
20.8419
20.53564
20.4187
20.28424
19.8317
18.85299
17.36069
15.51636
13.61372
11.88204
10.47502
9.420658
8.646431
8.03194
7.449008
6.87682
6.305172
5.78013
5.319674
4.8293
4.10665
2.93567
1.129465
-1.393544
-4.511334
-7.977259
-11.46951
-14.68918
-17.38167
-19.50353
-21.09988
-22.33026
-23.47347
-24.79604
-26.50298
-28.62087
-31.01155
-33.26424
-34.91195
-35.42749
-34.39256
-31.65023
-27.28791
-21.66919
-15.32129
-8.872764
-2.818107
2.461555
6.863421
10.47292
13.41709
15.85904
17.77949
19.13338
19.7909
19.72412
18.9313
17.5771
15.92507
14.22427
12.84254
12.00539
11.91892
12.58615
13.87408
15.4698
16.97521
18.09022
18.60638
18.6313
18.25708
17.62058
16.66751
15.21996
13.10932
10.324
7.171379
4.116169
1.736824
0.235733
-0.504385
-0.9353065
-1.597557
-2.82683
-4.665289
-6.84273
-9.031801
-10.94348
-12.57765
-14.03352
-15.46374
-17.02747
-18.78493
-20.78114
-22.99763
-25.37415
-27.71488
-29.65751
-30.71454
-30.2987
-28.05215
-23.90485
-18.27425
-11.88912
-5.655567
-0.3373184
3.682632
6.37701
8.083023
9.179813
10.03942
10.77252
11.41742
11.88839
12.21751
12.52062
12.88603
13.30966
13.65213
13.76763
13.51003
12.94085
12.22371
11.60673
11.25955
11.20761
11.25737
11.17751
10.7806
10.00286
8.910172
7.62484
6.260975
4.847801
3.368649
1.738049
-0.1166916
-2.194275
-4.445286
-6.773857
-9.074543
-11.21952
-13.10072
-14.63116
-15.79549
-16.72631
-17.64805
-18.86626
-20.55782
-22.6521
-24.74094
-26.15263
-26.21851
-24.50516
-21.03731
-16.25752
-10.88339
-5.560375
-0.7194672
3.463825
6.986343
9.866692
12.12453
13.73895
14.75938
15.21078
15.21479
14.90224
14.32605
13.63606
12.99135
12.55934
12.38686
12.45154
12.54693
12.521
12.33435
12.04704
11.8485
11.85014
12.00773
12.07127
11.75452
10.83905
9.335251
7.528038
5.726295
4.21151
3.006897
1.906631
0.596405
-1.191322
-3.498955
-6.203896
-8.977402
-11.57372
-13.79166
-15.67751
-17.36421
-18.99805
-20.74811
-22.69087
-24.90466
-27.40314
-30.11981
-32.65663
-34.48389
-34.91331
-33.38346
-29.73761
-24.27122
-17.70103
-10.88551
-4.557327
0.9094315
5.389107
8.967186
11.76797
13.82439
15.21762
16.00349
16.33056
16.40264
16.43455
16.56113
16.8102
17.18472
17.58387
17.95964
18.23783
18.33382
18.22871
17.89967
17.31247
16.4494
15.29551
13.85738
12.2376
10.54792
8.91906
7.458031
6.182167
5.036415
3.97364
2.897057
1.731247
0.4126129
-1.158691
-3.008018
-5.105515
-7.322563
-9.474762
-11.28219
-12.62212
-13.47158
-13.96399
-14.29523
-14.69284
-15.31352
-16.3582
-18.01126
-20.33684
-23.30132
-26.62492
-29.76863
-32.0542
-32.87158
-31.84641
-28.95932
-24.52416
-19.06959
-13.20061
-7.43055
-2.080811
2.65918
6.743683
10.12492
12.77834
14.72645
16.05014
16.85545
17.28571
17.51344
17.58809
17.58698
17.52074
17.46058
17.47835
17.64434
17.94926
18.2849
18.51582
18.45889
17.99292
17.10488
15.88564
14.47514
13.02871
11.6181
10.25114
8.928337
7.606064
6.258415
4.913963
3.617569
2.400917
1.2799
0.2559738
-0.7006607
-1.626785
-2.6399
-3.866737
-5.426559
-7.370659
-9.663261
-12.18728
-14.78156
-17.32684
-19.79135
-22.2401
-24.78492
-27.44028
-30.08558
-32.38422
-33.82318
-33.86569
-32.16383
-28.71636
-23.82273
-18.05877
-12.00144
-6.143715
-0.802681
3.858986
7.714836
10.68497
12.69273
13.80525
14.20513
14.12605
13.82912
13.4874
13.20525
13.03368
12.97363
12.94498
12.88784
12.74136
12.49584
12.30753
12.38277
12.89922
13.88094
15.09373
16.12652
16.53982
16.03333
14.55103
12.39092
9.923546
7.545914
5.460884
3.695549
2.152405
0.6643219
-0.860054
-2.472672
-4.030312
-5.423065
-6.603027
-7.64698
-8.76149
-10.13967
-11.92812
-14.17499
-16.81693
-19.62809
-22.38754
-24.86677
-26.79855
-27.90488
-27.89241
-26.47034
-23.52643
-19.23332
-13.94064
-8.223129
-2.613342
2.536369
7.01786
10.75282
13.68697
15.79684
16.97713
17.24156
16.7262
15.75415
14.74291
14.0078
13.67807
13.64439
13.75207
13.76186
13.61268
13.39127
13.26344
13.31231
13.4979
13.65466
13.62852
13.3241
12.75781
12.04125
11.27583
10.45751
9.485962
8.169891
6.422165
4.333107
2.095688
-0.03175354
-1.839142
-3.319832
-4.720718
-6.348602
-8.476151
-11.036
-13.72169
-16.0418
-17.6293
-18.37782
-18.52647
-18.55513
-18.91367
-19.97809
-21.84541
-24.39209
-27.28548
-30.03941
-32.07946
-32.84644
-31.83962
-28.85204
-24.03044
-17.9023
-11.2105
-4.731621
0.9390335
5.495087
8.90062
11.42332
13.40305
15.11031
16.68174
18.07896
19.16775
19.8183
19.97003
19.70869
19.21887
18.69633
18.25829
17.96682
17.73233
17.4825
17.18546
16.86072
16.61724
16.5285
16.58331
16.70515
16.74052
16.5174
15.92623
14.93759
13.67967
12.32014
11.00124
9.726227
8.401047
6.887581
5.096573
3.125542
1.155228
-0.5883484
-2.028664
-3.256882
-4.445702
-5.782425
-7.350685
-9.170647
-11.19455
-13.367
-15.6478
-17.94382
-20.11936
-21.96252
-23.40185
-24.50058
-25.52483
-26.83598
-28.69717
-31.07767
-33.64491
-35.74494
-36.59357
-35.62231
-32.52586
-27.47722
-21.0257
-13.98267
-7.128929
-1.059425
3.890121
7.755356
10.65348
12.83324
14.50169
15.79494
16.8146
17.61652
18.24496
18.68094
18.92513
18.96403
18.84502
18.6208
18.35297
18.10562
17.88585
17.7244
17.62986
17.62882
17.71777
17.89257
18.04107
17.95122
17.4306
16.38469
14.82396
12.91779
10.92172
9.025501
7.292038
5.715683
4.086941
2.289303
0.3751907
-1.502029
-3.13723
-4.411022
-5.373833
-6.230415
-7.167988
-8.349373
-9.762314
-11.27814
-12.76714
-14.18179
-15.6013
-17.15764
-18.99325
-21.11335
-23.45043
-25.83788
-28.06437
-29.88257
-30.94634
-30.9338
-29.64799
-27.04778
-23.21183
-18.39344
-12.94849
-7.254459
-1.75853
3.202087
7.370911
10.58366
12.79525
14.17111
14.90853
15.27077
15.48145
15.70964
16.08967
16.67123
17.41075
18.15815
18.71015
18.88285
18.63574
18.09182
17.44014
16.91736
16.65598
16.6591
16.7989
16.86473
16.64872
16.00719
14.98888
13.60785
11.972
10.22088
8.494122
6.914429
5.591663
4.531376
3.66766
2.920246
2.066807
0.9239502
-0.6168098
-2.563385
-4.786911
-7.078556
-9.247906
-11.14317
-12.71231
-14.02123
-15.20343
-16.42294
-17.92979
-19.86415
-22.27222
-25.03176
-27.83936
-30.14891
-31.34358
-30.89661
-28.46358
-24.19875
-18.56458
-12.3367
-6.300293
-1.019051
3.341881
6.84536
9.711201
12.06039
13.80699
14.85295
15.16154
14.89939
14.4376
14.2317
14.54071
15.37374
16.47383
17.43844
17.94172
17.86335
17.24538
16.29102
15.15933
13.95697
12.77357
11.6433
10.5213
9.352444
8.125298
6.785259
5.415432
4.096001
2.923027
2.006424
1.344456
0.7803955
0.1523056
-0.6472778
-1.684044
-2.881218
-4.182507
-5.562702
-7.030724
-8.625134
-10.39466
-12.25389
-14.0807
-15.80821
-17.41188
-19.03447
-20.86184
-22.94386
-25.08964
-26.78291
-27.32283
-26.13002
-22.9677
-18.0576
-12.04585
-5.808456
-0.07197571
4.652557
8.188332
10.66196
12.25017
13.1171
13.43933
13.35284
13.02258
12.68832
12.53306
12.62502
12.99288
13.53174
14.09797
14.56457
14.82772
14.85699
14.65894
14.25716
13.65102
12.85345
11.87883
10.76628
9.615417
8.489708
7.483635
6.626221
5.856232
5.042374
4.079193
2.859398
1.450165
0.03416443
-1.316811
-2.57869
-3.829376
-5.193512
-6.738472
-8.385292
-10.07602
-11.74765
-13.37408
-15.04799
-16.85459
-18.78239
-20.75668
-22.71404
-24.66642
-26.70937
-28.93201
-31.18655
-33.02884
-33.82165
-32.8929
-29.88935
-24.90954
-18.5528
-11.64722
-5.04007
0.6656494
5.205315
8.599487
11.06581
12.83256
14.08826
14.90753
15.31834
15.36469
15.2001
14.99122
14.89731
14.97443
15.10179
15.13308
14.98953
14.81754
14.95879
15.78679
17.42038
19.60568
21.76453
23.20057
23.42635
22.35453
20.25679
17.63076
14.98452
12.61196
10.53104
8.620823
6.655987
4.486645
2.102345
-0.3524818
-2.726078
-4.865078
-6.760967
-8.576141
-10.44647
-12.51398
-14.72917
-16.93009
-18.9079
-20.5174
-21.71544
-22.53815
-23.09561
-23.46172
-23.80974
-24.33172
-25.2581
-26.73324
-28.67476
-30.63057
-31.92817
-31.84046
-29.87945
-26.06855
-20.88275
-15.07219
-9.372566
-4.279324
0.04265213
3.723484
6.945515
9.869328
12.44998
14.52278
15.97002
16.78051
17.11747
17.19411
17.25687
17.45016
17.79947
18.21442
18.58967
18.84604
18.97643
19.0708
19.18459
19.33065
19.48441
19.55312
19.41123
19.02501
18.35176
17.37351
16.10031
14.52312
12.65384
10.54311
8.295139
6.058655
4.02858
2.279404
0.7951126
-0.542244
-1.867538
-3.267002
-4.747795
-6.296074
-7.855602
-9.454395
-11.21205
-13.1773
-15.35792
-17.61993
-19.73822
-21.60373
-23.28791
-25.05059
-27.19628
-29.90795
-32.94628
-35.75149
-37.50042
-37.43361
-35.14961
-30.75381
-24.74644
-17.89087
-10.98501
-4.625177
0.7875786
5.107187
8.369678
10.71683
12.30991
13.33335
13.93868
14.25965
14.4245
14.51903
14.63599
14.81627
15.07009
15.40052
15.82283
16.3774
17.12814
18.1004
19.21849
20.29569
21.10898
21.41659
21.11756
20.16861
18.63877
16.65133
14.41812
12.17898
10.12728
8.352548
6.794707
5.35017
3.893905
2.370497
0.7945671
-0.7526617
-2.164971
-3.409294
-4.483742
-5.465108
-6.443826
-7.506892
-8.733877
-10.19456
-11.90993
-13.86931
-16.09875
-18.55897
-21.21449
-23.96495
-26.5825
-28.74489
-30.02593
-30.05202
-28.6296
-25.8365
-21.94191
-17.3448
-12.42729
-7.502069
-2.769784
1.603336
5.50079
8.788772
11.3669
13.23621
14.432
14.99555
15.00575
14.54096
13.81441
13.15726
12.90949
13.31156
14.35825
15.75689
17.07526
17.98615
18.34572
18.25409
17.86843
17.26416
16.39429
15.17461
13.52421
11.53562
9.400921
7.322773
5.44529
3.813965
2.383532
1.120365
0.009807587
-0.9609032
-1.87281
-2.816872
-3.949114
-5.321953
-6.892075
-8.586115
-10.28335
-11.95664
-13.64483
-15.50023
-17.6657
-20.22304
-23.08567
-25.98248
-28.46297
-29.98224
-30.08807
-28.49702
-25.22882
-20.57449
-15.06064
-9.242275
-3.623528
1.485474
5.903774
9.533508
12.35213
14.39326
15.71824
16.39778
16.48893
16.10803
15.42751
14.68285
14.13388
13.97099
14.30209
15.02226
15.99235
17.03412
18.04017
18.99493
19.86764
20.59149
21.00298
20.96001
20.30181
19.07235
17.4102
15.53408
13.70445
12.1349
10.92912
10.0478
9.298664
8.375732
7.076813
5.316433
3.21339
1.006195
-1.077347
-2.918404
-4.576252
-6.180317
-7.887318
-9.724033
-11.62751
-13.45121
-15.04971
-16.43084
-17.68081
-18.90442
-20.18032
-21.49728
-22.78798
-24.05939
-25.46822
-27.22409
-29.53533
-32.36115
-35.21655
-37.31155
-37.77637
-36.0008
-32.01616
-26.39565
-19.9958
-13.64679
-7.877869
-2.834602
1.550014
5.388256
8.783573
11.73782
14.23686
16.35668
18.09877
19.45046
20.30829
20.60871
20.41132
19.94571
19.49425
19.35288
19.70117
20.47016
21.56821
22.80943
23.99053
24.90452
25.41254
25.39042
24.91698
24.22102
23.52976
23.04811
22.70807
22.18997
21.0835
19.21888
16.6672
13.81225
11.16887
9.026714
7.432526
6.127811
4.726089
2.966408
0.8612938
-1.353149
-3.361324
-4.877789
-5.888828
-6.516499
-7.055992
-7.817238
-8.860958
-10.14955
-11.5216
-12.83312
-14.08995
-15.45564
-17.06861
-19.00836
-21.2999
-23.83081
-26.54817
-29.38895
-32.27305
-34.94451
-37.06122
-38.09482
-37.54483
-35.11875
-30.78822
-24.92873
-18.08956
-10.95063
-4.149948
1.818481
6.703766
10.47092
13.25697
15.3032
16.76432
17.78227
18.44387
18.82169
19.01602
19.15775
19.29779
19.4497
19.61527
19.79122
20.0479
20.49715
21.18498
22.09092
23.05036
23.82752
24.16038
23.92387
23.13447
21.94658
20.56667
19.1163
17.69873
16.27499
14.84015
13.41437
12.07918
10.83492
9.645947
8.324871
6.676235
4.641888
2.295551
-0.09422684
-2.268166
-4.112095
-5.783459
-7.552013
-9.661358
-12.10296
-14.61638
-16.85971
-18.53223
-19.58604
-20.1888
-20.64573
-21.24061
-22.15645
-23.52888
-25.47742
-28.10314
-31.23512
-34.38556
-36.73161
-37.36052
-35.60593
-31.39262
-25.33912
-18.46693
-11.84872
-6.127964
-1.442781
2.438559
5.869112
9.020823
11.86984
14.25045
16.09023
17.48053
18.5724
19.46893
20.10159
20.28998
19.854
18.76897
17.19173
15.50713
14.1197
13.30713
13.13587
13.46419
13.96808
14.29365
14.20213
13.60887
12.71975
11.78108
10.9613
10.26912
9.610323
8.829939
7.869099
6.77742
5.719173
4.862337
4.198664
3.547894
2.708561
1.55365
0.1070194
-1.447807
-2.991259
-4.478468
-5.960546
-7.565092
-9.37491
-11.30144
-13.24015
-15.1419
-17.04408
-19.14665
-21.68621
-24.64472
-27.75533
-30.42333
-31.83912
-31.44987
-29.0588
-24.90224
-19.5819
-13.80947
-8.162769
-3.046391
1.416244
5.303937
8.662543
11.5277
13.87974
15.65646
16.82948
17.4255
17.49747
17.14296
16.47792
15.57868
14.55094
13.50933
12.60483
11.958
11.75281
12.05083
12.88334
14.11636
15.47601
16.703
17.54496
17.84144
17.54574
16.7558
15.60542
14.28137
12.86398
11.32679
9.59378
7.611835
5.3896
3.068264
0.8612118
-1.058278
-2.597018
-3.854832
-5.041419
-6.368432
-7.984129
-9.847254
-11.77878
-13.5715
-15.06004
-16.18844
-17.0453
-17.8404
-18.77635
-20.09151
-21.91653
-24.26189
-26.98313
-29.74018
-32.02265
-33.19962
-32.72768
-30.30341
-26.02912
-20.42054
-14.22183
-8.195055
-2.89399
1.424797
4.785439
7.361746
9.333145
10.81834
11.94715
12.80081
13.43376
13.95339
14.38563
14.71016
14.94796
15.1219
15.28067
15.53628
15.92492
16.38313
16.79984
17.11791
17.32186
17.42958
17.49644
17.46215
17.1386
16.31398
14.87295
12.90838
10.7866
8.953018
7.674824
6.958862
6.528931
5.944977
4.867069
3.281914
1.421513
-0.4197769
-2.022091
-3.422192
-4.827286
-6.439156
-8.320709
-10.35956
-12.31135
-13.9558
-15.28472
-16.44365
-17.66498
-19.1048
-20.79504
-22.6059
-24.3915
-26.09522
-27.72305
-29.29278
-30.66436
-31.45769
-31.1728
-29.37463
-25.93766
-21.12
-15.53366
-9.911427
-4.83633
-0.5639038
2.93322
5.841106
8.382984
10.66865
12.81369
14.79834
16.61369
18.19637
19.40955
20.12576
20.20139
19.58041
18.34172
16.79533
15.30537
14.28489
13.95148
14.30826
15.11488
15.98457
16.53894
16.56391
16.0825
15.26127
14.31442
13.36355
12.41096
11.33371
9.975239
8.26767
6.284317
4.193489
2.175251
0.3225136
-1.373165
-3.002476
-4.594181
-6.224403
-7.875
-9.452679
-10.94639
-12.38355
-13.83339
-15.37879
-17.0448
-18.75557
-20.4718
-22.1826
-23.94493
-25.82536
-27.80911
-29.57651
-30.62961
-30.40799
-28.47435
-24.80103
-19.71414
-13.87608
-7.989147
-2.600471
2.056385
5.92672
9.04554
11.47663
13.20188
14.28493
14.84377
15.00809
14.96416
14.8205
14.57324
14.1738
13.58193
12.79385
11.90473
11.06408
10.45258
10.19253
10.34723
10.83472
11.46114
12.03047
12.28067
12.05277
11.27127
10.00852
8.44017
6.777405
5.24781
3.970848
2.973007
2.078926
1.060326
-0.3465805
-2.264488
-4.632172
-7.213829
-9.720711
-11.87652
-13.54987
-14.81423
-15.85529
-16.94813
-18.33465
-20.15083
-22.309
-24.56876
-26.50704
-27.59521
-27.36275
-25.53255
-22.08123
-17.35836
-11.91567
-6.414612
-1.427544
2.692352
5.873558
8.265427
10.05885
11.44849
12.47817
13.10071
13.29463
13.11087
12.70782
12.30726
12.04855
11.88928
11.68209
11.27541
10.66824
10.05114
9.750675
9.977905
10.74603
11.78426
12.5957
12.72367
11.91681
10.22773
8.001766
5.697132
3.686703
2.164215
1.139267
0.4225845
-0.2331352
-1.068523
-2.261211
-3.862469
-5.872871
-8.235027
-10.85544
-13.61421
-16.43527
-19.27433
-22.14598
-25.10101
-28.08709
-30.91925
-33.26637
-34.6619
-34.63176
-32.88445
-29.34066
-24.25827
-18.16195
-11.68645
-5.437279
0.09741592
4.630901
8.073051
10.51421
12.1774
13.27684
13.97355
14.34054
14.35301
13.99478
13.27999
12.34571
11.42176
10.79379
10.69922
11.16363
12.1127
13.28672
14.41612
15.26845
15.73459
15.823
15.60434
15.21675
14.70249
14.11203
13.39001
12.44551
11.17717
9.532139
7.50877
5.182377
2.778957
0.5496712
-1.301872
-2.724117
-3.859188
-5.012039
-6.502338
-8.47353
-10.82
-13.18731
-15.22494
-16.77079
-17.94253
-19.11565
-20.63588
-22.78969
-25.56466
-28.7234
-31.81711
-34.32506
-35.69027
-35.36369
-33.07836
-28.78865
-22.89136
-16.07106
-9.201668
-3.003418
2.114712
6.154572
9.411901
12.16363
14.59054
16.68124
18.34757
19.45745
20.04272
20.22308
20.21038
20.15928
20.1502
20.17175
20.1882
20.16462
20.12035
20.10704
20.2086
20.51037
20.99625
21.56425
22.07634
22.31067
22.15153
21.64295
20.953
20.29164
19.78169
19.38885
18.89405
18.08979
16.83414
15.23703
13.5113
11.97059
10.8025
10.05362
9.680894
9.542679
9.527491
9.474373
9.277454
8.773416
7.885839
6.560524
4.853539
2.934493
0.9734936
-0.8502369
-2.460392
-3.765364
-4.783792
-5.616373
-6.39077
-7.325447
-8.565041
-10.19201
-12.11662
-14.16796
-16.11759
-17.75917
-19.08028
-20.13181
-21.01899
-21.76134
-22.36559
-22.8446
-23.33665
-24.02846
-25.14433
-26.81209
-28.99955
-31.59709
-34.36325
-37.04199
-39.28411
-40.68309
-40.79091
-39.22932
-35.82761
-30.72238
-24.40125
-17.50902
-10.70998
-4.520947
0.7329865
4.969519
8.259504
10.77091
12.67129
14.08868
15.08549
15.74617
16.1872
16.51136
16.86062
17.32984
17.9409
18.67793
19.5037
20.45879
21.62443
23.08376
24.73815
26.32313
27.44377
27.73714
27.06547
25.59491
23.771
22.07425
20.89529
20.28183
20.0289
19.78444
19.28517
18.47168
17.45501
16.38721
15.35945
14.38461
13.33269
12.13663
10.76272
9.231466
7.625776
5.889071
3.854393
1.430862
-1.333303
-4.184046
-6.684111
-8.515942
-9.614023
-10.20789
-10.79077
-11.8103
-13.488
-15.68296
-18.07253
-20.24657
-21.97587
-23.30617
-24.38364
-25.43214
-26.58692
-27.92468
-29.44342
-31.22111
-33.22808
-35.35912
-37.33157
-38.623
-38.66727
-36.97215
-33.37196
-28.14927
-21.93447
-15.41282
-9.227293
-3.66955
1.246264
5.640572
9.629639
13.16464
16.13782
18.42389
20.03187
21.04063
21.60806
21.84664
21.77489
21.35709
20.62167
19.68863
18.82412
18.25615
18.10753
18.34187
18.84255
19.43234
19.97126
20.4101
20.69776
20.83678
20.76768
20.52141
20.14689
19.71095
19.18534
18.4481
17.27988
15.47978
13.00051
10.02071
6.92881
4.092464
1.74254
-0.1173277
-1.582278
-2.82739
-3.969839
-5.072405
-6.107023
-7.033823
-7.853861
-8.657312
-9.552071
-10.68344
-12.13743
-13.9299
-16.00649
-18.23265
-20.50222
-22.76588
-25.10578
-27.58182
-30.24225
-32.87448
-35.00326
-36.01371
-35.3721
-32.83881
-28.56264
-23.01739
-16.82803
-10.60846
-4.803785
0.3192253
4.622305
8.03442
10.57463
12.32037
13.49338
14.32192
15.04277
15.774
16.52257
17.20915
17.68584
17.85345
17.66898
17.29379
16.97665
17.02329
17.57228
18.57487
19.73668
20.7108
21.24238
21.26521
20.95781
20.51802
20.06982
19.51585
18.69379
17.49025
16.0034
14.47029
13.10554
11.93396
10.7398
9.178608
6.959597
4.055632
0.7735176
-2.42507
-5.064268
-6.857389
-7.825918
-8.195164
-8.340219
-8.616152
-9.256666
-10.34472
-11.87199
-13.73231
-15.8036
-17.98737
-20.14378
-22.19774
-24.10964
-25.94534
-27.77963
-29.67421
-31.45071
-32.73473
-33.02308
-31.88438
-29.11823
-24.86127
-19.54819
-13.72214
-7.921947
-2.45718
2.492008
6.850704
10.57407
13.6362
15.99633
17.63976
18.55725
18.737
18.28417
17.40882
16.34661
15.32302
14.49172
13.87192
13.43325
13.13653
13.02829
13.24565
13.87323
14.87359
16.04011
17.11448
17.8466
18.11131
17.94574
17.43338
16.70358
15.79633
14.75911
13.63576
12.47426
11.26764
9.966038
8.486881
6.753021
4.754105
2.546333
0.3196754
-1.71833
-3.45396
-4.990452
-6.493225
-8.16774
-10.10811
-12.24772
-14.40782
-16.40516
-18.13841
-19.61483
-20.92639
-22.13034
-23.28607
-24.4508
-25.66396
-26.90174
-28.03789
-28.78852
-28.70934
-27.35204
-24.41911
-20.01054
-14.53661
-8.58033
-2.763756
2.45118
6.761482
10.09493
12.50496
14.11498
14.99503
15.23752
14.99751
14.43105
13.77728
13.27401
13.10784
13.26596
13.61285
13.88659
13.91227
13.68208
13.28733
12.96287
12.84771
13.01537
13.33651
13.67411
13.92193
13.96055
13.73825
13.1621
12.23384
10.91708
9.245743
7.299095
5.229874
3.205544
1.326134
-0.2965851
-1.674652
-2.791382
-3.76078
-4.666862
-5.56266
-6.372978
-7.030113
-7.568924
-8.006729
-8.514008
-9.191597
-10.1114
-11.20352
-12.39448
-13.63031
-14.96077
-16.51321
-18.15514
-19.57718
-20.22574
-19.49825
-17.04137
-12.96011
-7.812843
-2.414505
2.412346
6.156685
8.639374
9.979584
10.46666
10.33427
9.736496
8.753342
7.468689
5.985794
4.539627
3.355934
2.668129
2.662895
3.354065
4.654236
6.399956
8.36969
10.30715
12.00057
13.20211
13.7639
13.6294
12.83342
11.51418
9.915665
8.251297
6.672188
5.260689
3.964333
2.686348
1.299713
-0.2735367
-2.103226
-4.127518
-6.252045
-8.31369
-10.18964
-11.79454
-13.08078
-14.0481
-14.70206
-15.08502
-15.28535
-15.47487
-15.87912
-16.72183
-18.13849
-20.0415
-22.06305
-23.6032
-24.0452
-22.91968
-20.11879
-15.88081
-10.68073
-5.121201
0.2480927
4.987549
8.791702
11.44572
12.89862
13.25586
12.82088
12.03001
11.2289
10.60709
10.11119
9.581635
8.908157
8.144318
7.535568
7.391113
7.901108
9.069199
10.62029
12.18269
13.33595
13.83128
13.63489
12.89963
11.84601
10.69196
9.575333
8.494659
7.410156
6.231857
4.899017
3.457458
1.94136
0.3857422
-1.182449
-2.754959
-4.318161
-5.863449
-7.441574
-9.139603
-11.00607
-13.04799
-15.1857
-17.315
-19.30128
-21.04088
-22.53827
-23.85849
-25.15823
-26.55482
-28.09665
-29.68796
-30.9978
-31.52319
-30.64467
-27.95177
-23.40889
-17.39832
-10.64423
-3.976425
1.934753
6.810425
10.58739
13.41605
15.40181
16.54631
16.90157
16.54451
15.66635
14.53165
13.45013
12.55663
11.92445
11.49086
11.15405
10.89145
10.73103
10.77646
11.10619
11.7493
12.58157
13.42274
14.10384
14.49295
14.54088
14.22835
13.54442
12.48306
11.01419
9.192383
7.167709
5.148361
3.297134
1.680283
0.1999969
-1.305893
-2.921829
-4.708862
-6.563629
-8.349548
-9.989563
-11.4805
-12.88535
-14.36028
-15.92822
-17.51414
-19.07079
-20.5414
-22.01305
-23.64438
-25.62032
-28.00125
-30.69177
-33.31346
-35.30243
-36.09286
-35.24321
-32.55942
-28.11671
-22.27347
-15.52875
-8.503906
-1.799301
4.087692
8.803467
12.18684
14.29483
15.36267
15.77396
15.90854
16.08096
16.39337
16.77814
17.05283
17.12892
16.97032
16.69299
16.46457
16.37442
16.45584
16.58606
16.68089
16.68913
16.65662
16.61476
16.511
16.25504
15.67441
14.71286
13.44051
12.13138
11.08998
10.46768
10.18686
9.868439
9.16304
7.838882
5.981369
3.914917
2.003906
0.5086365
-0.6162109
-1.550552
-2.62204
-4.000473
-5.785797
-7.893127
-10.22864
-12.74036
-15.37358
-18.08104
-20.70955
-23.10889
-25.08737
-26.6532
-27.9556
-29.19675
-30.62477
-32.19107
-33.57047
-34.15474
-33.39787
-30.98116
-27.01717
-22.00368
-16.5477
-11.25916
-6.468628
-2.325256
1.212997
4.189987
6.667358
8.688461
10.3064
11.6572
12.84143
13.98555
15.09692
16.13165
17.00568
17.6458
18.06039
18.30785
18.54268
18.90155
19.46377
20.2293
21.06208
21.77766
22.16331
22.08884
21.46217
20.41988
19.07888
17.59634
16.10978
14.62825
13.09625
11.40653
9.513107
7.408997
5.244606
3.11821
1.123817
-0.657547
-2.166908
-3.363617
-4.211472
-4.699661
-4.981598
-5.24263
-5.716171
-6.585709
-7.884003
-9.529312
-11.35999
-13.17973
-14.88332
-16.46684
-17.99226
-19.57157
-21.36555
-23.48007
-25.99737
-28.85102
-31.76602
-34.31087
-35.92496
-36.01437
-34.14785
-30.15904
-24.2677
-17.05157
-9.296288
-1.808922
4.679016
9.700035
13.12218
15.01942
15.68552
15.53989
14.99735
14.40575
13.97288
13.70673
13.5313
13.32508
13.05196
12.82113
12.85714
13.36461
14.40237
15.87944
17.53526
19.07133
20.1804
20.5807
20.15756
18.93979
17.07904
14.89669
12.75848
10.95167
9.652214
8.834366
8.287941
7.790123
7.141205
6.193863
4.95697
3.50531
1.882813
0.1409378
-1.676865
-3.523438
-5.317986
-6.967598
-8.363953
-9.432205
-10.18657
-10.79137
-11.51642
-12.63582
-14.36457
-16.76521
-19.70264
-22.83214
-25.63094
-27.61128
-28.33349
-27.54621
-25.23326
-21.57943
-16.96054
-11.85964
-6.78392
-2.083916
2.024101
5.483528
8.360001
10.76457
12.68115
14.06133
14.83539
14.98557
14.67895
14.20609
13.8555
13.82563
14.19975
14.82384
15.49506
16.05182
16.38595
16.51871
16.55252
16.55627
16.54469
16.47249
16.26825
15.81615
15.06864
13.98058
12.53697
10.82419
8.938171
7.010487
5.12759
3.362007
1.762943
0.3863792
-0.7677231
-1.732304
-2.572266
-3.461754
-4.632668
-6.316692
-8.569401
-11.20073
-13.80402
-15.97063
-17.46972
-18.35125
-18.9427
-19.66236
-20.89589
-22.81861
-25.35039
-28.1943
-30.90421
-32.96511
-33.89918
-33.3707
-31.20876
-27.52322
-22.69652
-17.1939
-11.50254
-6.081516
-1.195114
2.951157
6.291527
8.917377
11.01377
12.80235
14.48203
16.14541
17.72042
19.09521
20.17024
20.95904
21.57748
22.1418
22.69146
23.16522
23.38921
23.17918
22.4751
21.32942
19.9299
18.4771
17.08577
15.75919
14.45818
13.0893
11.61542
10.14711
8.802731
7.663399
6.796509
6.117592
5.513031
4.840065
3.940723
2.705463
1.138683
-0.7403412
