1569399102.98389
1569399102.99951
1569399103.01514
1569399103.03076
1569399103.04639
1569399103.06201
1569399103.07764
1569399103.09327
1569399103.10889
1569399103.12452
1569399103.14014
1569399103.15577
1569399103.17139
1569399103.18702
1569399103.20265
1569399103.21827
1569399103.2339
1569399103.24952
1569399103.26515
1569399103.28077
1569399103.2964
1569399103.31203
1569399103.32765
1569399103.34328
1569399103.3589
1569399103.37453
1569399103.39015
1569399103.40578
1569399103.42141
1569399103.43703
1569399103.45266
1569399103.46828
1569399103.48391
1569399103.49953
1569399103.51516
1569399103.53079
1569399103.54641
1569399103.56204
1569399103.57766
1569399103.59329
1569399103.60891
1569399103.62454
1569399103.64017
1569399103.65579
1569399103.67142
1569399103.68704
1569399103.70267
1569399103.71829
1569399103.73392
1569399103.74955
1569399103.76517
1569399103.7808
1569399103.79642
1569399103.81205
1569399103.82768
1569399103.8433
1569399103.85893
1569399103.87455
1569399103.89018
1569399103.9058
1569399103.92143
1569399103.93706
1569399103.95268
1569399103.96831
1569399103.98393
1569399103.99956
1569399104.01518
1569399104.03081
1569399104.04644
1569399104.06206
1569399104.07769
1569399104.09331
1569399104.10894
1569399104.12456
1569399104.14019
1569399104.15582
1569399104.17144
1569399104.18707
1569399104.20269
1569399104.21832
1569399104.23394
1569399104.24957
1569399104.2652
1569399104.28082
1569399104.29645
1569399104.31207
1569399104.3277
1569399104.34332
1569399104.35895
1569399104.37458
1569399104.3902
1569399104.40583
1569399104.42145
1569399104.43708
1569399104.4527
1569399104.46833
1569399104.48396
1569399104.49958
1569399104.51521
1569399104.53083
1569399104.54646
1569399104.56208
1569399104.57771
1569399104.59334
1569399104.60896
1569399104.62459
1569399104.64021
1569399104.65584
1569399104.67146
1569399104.68709
1569399104.70272
1569399104.71834
1569399104.73397
1569399104.74959
1569399104.76522
1569399104.78084
1569399104.79647
1569399104.8121
1569399104.82772
1569399104.84335
1569399104.85897
1569399104.8746
1569399104.89022
1569399104.90585
1569399104.92148
1569399104.9371
1569399104.95273
1569399104.96835
1569399104.98398
1569399104.9996
1569399105.01523
1569399105.03086
1569399105.04648
1569399105.06211
1569399105.07773
1569399105.09336
1569399105.10898
1569399105.12461
1569399105.14024
1569399105.15586
1569399105.17149
1569399105.18711
1569399105.20274
1569399105.21836
1569399105.23399
1569399105.24962
1569399105.26524
1569399105.28087
1569399105.29649
1569399105.31212
1569399105.32774
1569399105.34337
1569399105.359
1569399105.37462
1569399105.39025
1569399105.40587
1569399105.4215
1569399105.43712
1569399105.45275
1569399105.46838
1569399105.484
1569399105.49963
1569399105.51525
1569399105.53088
1569399105.5465
1569399105.56213
1569399105.57776
1569399105.59338
1569399105.60901
1569399105.62463
1569399105.64026
1569399105.65588
1569399105.67151
1569399105.68714
1569399105.70276
1569399105.71839
1569399105.73401
1569399105.74964
1569399105.76526
1569399105.78089
1569399105.79652
1569399105.81214
1569399105.82777
1569399105.84339
1569399105.85902
1569399105.87464
1569399105.89027
1569399105.9059
1569399105.92152
1569399105.93715
1569399105.95277
1569399105.9684
1569399105.98403
1569399105.99965
1569399106.01528
1569399106.0309
1569399106.04653
1569399106.06215
1569399106.07778
1569399106.09341
1569399106.10903
1569399106.12466
1569399106.14028
1569399106.15591
1569399106.17153
1569399106.18716
1569399106.20279
1569399106.21841
1569399106.23404
1569399106.24966
1569399106.26529
1569399106.28091
1569399106.29654
1569399106.31217
1569399106.32779
1569399106.34342
1569399106.35904
1569399106.37467
1569399106.39029
1569399106.40592
1569399106.42155
1569399106.43717
1569399106.4528
1569399106.46842
1569399106.48405
1569399106.49967
1569399106.5153
1569399106.53093
1569399106.54655
1569399106.56218
1569399106.5778
1569399106.59343
1569399106.60905
1569399106.62468
1569399106.64031
1569399106.65593
1569399106.67156
1569399106.68718
1569399106.70281
1569399106.71843
1569399106.73406
1569399106.74969
1569399106.76531
1569399106.78094
1569399106.79656
1569399106.81219
1569399106.82781
1569399106.84344
1569399106.85907
1569399106.87469
1569399106.89032
1569399106.90594
1569399106.92157
1569399106.93719
1569399106.95282
1569399106.96845
1569399106.98407
1569399106.9997
1569399107.01532
1569399107.03095
1569399107.04657
1569399107.0622
1569399107.07783
1569399107.09345
1569399107.10908
1569399107.1247
1569399107.14033
1569399107.15595
1569399107.17158
1569399107.18721
1569399107.20283
1569399107.21846
1569399107.23408
1569399107.24971
1569399107.26533
1569399107.28096
1569399107.29659
1569399107.31221
1569399107.32784
1569399107.34346
1569399107.35909
1569399107.37471
1569399107.39034
1569399107.40597
1569399107.42159
1569399107.43722
1569399107.45284
1569399107.46847
1569399107.48409
1569399107.49972
1569399107.51535
1569399107.53097
1569399107.5466
1569399107.56222
1569399107.57785
1569399107.59347
1569399107.6091
1569399107.62473
1569399107.64035
1569399107.65598
1569399107.6716
1569399107.68723
1569399107.70285
1569399107.71848
1569399107.73411
1569399107.74973
1569399107.76536
1569399107.78098
1569399107.79661
1569399107.81223
1569399107.82786
1569399107.84349
1569399107.85911
1569399107.87474
1569399107.89036
1569399107.90599
1569399107.92161
1569399107.93724
1569399107.95287
1569399107.96849
1569399107.98412
1569399107.99974
1569399108.01537
1569399108.03099
1569399108.04662
1569399108.06225
1569399108.07787
1569399108.0935
1569399108.10912
1569399108.12475
1569399108.14037
1569399108.156
1569399108.17163
1569399108.18725
1569399108.20288
1569399108.2185
1569399108.23413
1569399108.24975
1569399108.26538
1569399108.28101
1569399108.29663
1569399108.31226
1569399108.32788
1569399108.34351
1569399108.35913
1569399108.37476
1569399108.39039
1569399108.40601
1569399108.42164
1569399108.43726
1569399108.45289
1569399108.46851
1569399108.48414
1569399108.49977
1569399108.51539
1569399108.53102
1569399108.54664
1569399108.56227
1569399108.57789
1569399108.59352
1569399108.60915
1569399108.62477
1569399108.6404
1569399108.65602
1569399108.67165
1569399108.68728
1569399108.7029
1569399108.71853
1569399108.73415
1569399108.74978
1569399108.7654
1569399108.78103
1569399108.79666
1569399108.81228
1569399108.82791
1569399108.84353
1569399108.85916
1569399108.87478
1569399108.89041
1569399108.90604
1569399108.92166
1569399108.93729
1569399108.95291
1569399108.96854
1569399108.98416
1569399108.99979
1569399109.01542
1569399109.03104
1569399109.04667
1569399109.06229
1569399109.07792
1569399109.09354
1569399109.10917
1569399109.1248
1569399109.14042
1569399109.15605
1569399109.17167
1569399109.1873
1569399109.20292
1569399109.21855
1569399109.23418
1569399109.2498
1569399109.26543
1569399109.28105
1569399109.29668
1569399109.3123
1569399109.32793
1569399109.34356
1569399109.35918
1569399109.37481
1569399109.39043
1569399109.40606
1569399109.42168
1569399109.43731
1569399109.45294
1569399109.46856
1569399109.48419
1569399109.49981
1569399109.51544
1569399109.53106
1569399109.54669
1569399109.56232
1569399109.57794
1569399109.59357
1569399109.60919
1569399109.62482
1569399109.64044
1569399109.65607
1569399109.6717
1569399109.68732
1569399109.70295
1569399109.71857
1569399109.7342
1569399109.74982
1569399109.76545
1569399109.78108
1569399109.7967
1569399109.81233
1569399109.82795
1569399109.84358
1569399109.8592
1569399109.87483
1569399109.89046
1569399109.90608
1569399109.92171
1569399109.93733
1569399109.95296
1569399109.96858
1569399109.98421
1569399109.99984
1569399110.01546
1569399110.03109
1569399110.04671
1569399110.06234
1569399110.07796
1569399110.09359
1569399110.10922
1569399110.12484
1569399110.14047
1569399110.15609
1569399110.17172
1569399110.18734
1569399110.20297
1569399110.2186
1569399110.23422
1569399110.24985
1569399110.26547
1569399110.2811
1569399110.29672
1569399110.31235
1569399110.32798
1569399110.3436
1569399110.35923
1569399110.37485
1569399110.39048
1569399110.4061
1569399110.42173
1569399110.43736
1569399110.45298
1569399110.46861
1569399110.48423
1569399110.49986
1569399110.51548
1569399110.53111
1569399110.54674
1569399110.56236
1569399110.57799
1569399110.59361
1569399110.60924
1569399110.62486
1569399110.64049
1569399110.65612
1569399110.67174
1569399110.68737
1569399110.70299
1569399110.71862
1569399110.73424
1569399110.74987
1569399110.7655
1569399110.78112
1569399110.79675
1569399110.81237
1569399110.828
1569399110.84362
1569399110.85925
1569399110.87488
1569399110.8905
1569399110.90613
1569399110.92175
1569399110.93738
1569399110.95301
1569399110.96863
1569399110.98426
1569399110.99988
1569399111.01551
1569399111.03113
1569399111.04676
1569399111.06239
1569399111.07801
1569399111.09364
1569399111.10926
1569399111.12489
1569399111.14051
1569399111.15614
1569399111.17177
1569399111.18739
1569399111.20302
1569399111.21864
1569399111.23427
1569399111.24989
1569399111.26552
1569399111.28115
1569399111.29677
1569399111.3124
1569399111.32802
1569399111.34365
1569399111.35927
1569399111.3749
1569399111.39053
1569399111.40615
1569399111.42178
1569399111.4374
1569399111.45303
1569399111.46865
1569399111.48428
1569399111.49991
1569399111.51553
1569399111.53116
1569399111.54678
1569399111.56241
1569399111.57803
1569399111.59366
1569399111.60929
1569399111.62491
1569399111.64054
1569399111.65616
1569399111.67179
1569399111.68741
1569399111.70304
1569399111.71867
1569399111.73429
1569399111.74992
1569399111.76554
1569399111.78117
1569399111.79679
1569399111.81242
1569399111.82805
1569399111.84367
1569399111.8593
1569399111.87492
1569399111.89055
1569399111.90617
1569399111.9218
1569399111.93743
1569399111.95305
1569399111.96868
1569399111.9843
1569399111.99993
1569399112.01555
1569399112.03118
1569399112.04681
1569399112.06243
1569399112.07806
1569399112.09368
1569399112.10931
1569399112.12493
1569399112.14056
1569399112.15619
1569399112.17181
1569399112.18744
1569399112.20306
1569399112.21869
1569399112.23431
1569399112.24994
1569399112.26557
1569399112.28119
1569399112.29682
1569399112.31244
1569399112.32807
1569399112.34369
1569399112.35932
1569399112.37495
1569399112.39057
1569399112.4062
1569399112.42182
1569399112.43745
1569399112.45307
1569399112.4687
1569399112.48433
1569399112.49995
1569399112.51558
1569399112.5312
1569399112.54683
1569399112.56245
1569399112.57808
1569399112.59371
1569399112.60933
1569399112.62496
1569399112.64058
1569399112.65621
1569399112.67183
1569399112.68746
1569399112.70309
1569399112.71871
1569399112.73434
1569399112.74996
1569399112.76559
1569399112.78121
1569399112.79684
1569399112.81247
1569399112.82809
1569399112.84372
1569399112.85934
1569399112.87497
1569399112.89059
1569399112.90622
1569399112.92185
1569399112.93747
1569399112.9531
1569399112.96872
1569399112.98435
1569399112.99997
1569399113.0156
1569399113.03123
1569399113.04685
1569399113.06248
1569399113.0781
1569399113.09373
1569399113.10935
1569399113.12498
1569399113.14061
1569399113.15623
1569399113.17186
1569399113.18748
1569399113.20311
1569399113.21873
1569399113.23436
1569399113.24999
1569399113.26561
1569399113.28124
1569399113.29686
1569399113.31249
1569399113.32811
1569399113.34374
1569399113.35937
1569399113.37499
1569399113.39062
1569399113.40624
1569399113.42187
1569399113.43749
1569399113.45312
1569399113.46875
1569399113.48437
1569399113.5
1569399113.51562
1569399113.53125
1569399113.54688
1569399113.5625
1569399113.57813
1569399113.59375
1569399113.60938
1569399113.625
1569399113.64063
1569399113.65626
1569399113.67188
1569399113.68751
1569399113.70313
1569399113.71876
1569399113.73438
1569399113.75001
1569399113.76564
1569399113.78126
1569399113.79689
1569399113.81251
1569399113.82814
1569399113.84376
1569399113.85939
1569399113.87502
1569399113.89064
1569399113.90627
1569399113.92189
1569399113.93752
1569399113.95314
1569399113.96877
1569399113.9844
1569399114.00002
1569399114.01565
1569399114.03127
1569399114.0469
1569399114.06252
1569399114.07815
1569399114.09378
1569399114.1094
1569399114.12503
1569399114.14065
1569399114.15628
1569399114.1719
1569399114.18753
1569399114.20316
1569399114.21878
1569399114.23441
1569399114.25003
1569399114.26566
1569399114.28128
1569399114.29691
1569399114.31254
1569399114.32816
1569399114.34379
1569399114.35941
1569399114.37504
1569399114.39066
1569399114.40629
1569399114.42192
1569399114.43754
1569399114.45317
1569399114.46879
1569399114.48442
1569399114.50004
1569399114.51567
1569399114.5313
1569399114.54692
1569399114.56255
1569399114.57817
1569399114.5938
1569399114.60942
1569399114.62505
1569399114.64068
1569399114.6563
1569399114.67193
1569399114.68755
1569399114.70318
1569399114.7188
1569399114.73443
1569399114.75006
1569399114.76568
1569399114.78131
1569399114.79693
1569399114.81256
1569399114.82818
1569399114.84381
1569399114.85944
1569399114.87506
1569399114.89069
1569399114.90631
1569399114.92194
1569399114.93756
1569399114.95319
1569399114.96882
1569399114.98444
1569399115.00007
1569399115.01569
1569399115.03132
1569399115.04694
1569399115.06257
1569399115.0782
1569399115.09382
1569399115.10945
1569399115.12507
1569399115.1407
1569399115.15632
1569399115.17195
1569399115.18758
1569399115.2032
1569399115.21883
1569399115.23445
1569399115.25008
1569399115.2657
1569399115.28133
1569399115.29696
1569399115.31258
1569399115.32821
1569399115.34383
1569399115.35946
1569399115.37508
1569399115.39071
1569399115.40634
1569399115.42196
1569399115.43759
1569399115.45321
1569399115.46884
1569399115.48446
1569399115.50009
1569399115.51572
1569399115.53134
1569399115.54697
1569399115.56259
1569399115.57822
1569399115.59384
1569399115.60947
1569399115.6251
1569399115.64072
1569399115.65635
1569399115.67197
1569399115.6876
1569399115.70322
1569399115.71885
1569399115.73448
1569399115.7501
1569399115.76573
1569399115.78135
1569399115.79698
1569399115.81261
1569399115.82823
1569399115.84386
1569399115.85948
1569399115.87511
1569399115.89073
1569399115.90636
1569399115.92199
1569399115.93761
1569399115.95324
1569399115.96886
1569399115.98449
1569399116.00011
1569399116.01574
1569399116.03137
1569399116.04699
1569399116.06262
1569399116.07824
1569399116.09387
1569399116.10949
1569399116.12512
1569399116.14075
1569399116.15637
1569399116.172
1569399116.18762
1569399116.20325
1569399116.21887
1569399116.2345
1569399116.25013
1569399116.26575
1569399116.28138
1569399116.297
1569399116.31263
1569399116.32825
1569399116.34388
1569399116.35951
1569399116.37513
1569399116.39076
1569399116.40638
1569399116.42201
1569399116.43763
1569399116.45326
1569399116.46889
1569399116.48451
1569399116.50014
1569399116.51576
1569399116.53139
1569399116.54701
1569399116.56264
1569399116.57827
1569399116.59389
1569399116.60952
1569399116.62514
1569399116.64077
1569399116.65639
1569399116.67202
1569399116.68765
1569399116.70327
1569399116.7189
1569399116.73452
1569399116.75015
1569399116.76577
1569399116.7814
1569399116.79703
1569399116.81265
1569399116.82828
1569399116.8439
1569399116.85953
1569399116.87515
1569399116.89078
1569399116.90641
1569399116.92203
1569399116.93766
1569399116.95328
1569399116.96891
1569399116.98453
1569399117.00016
1569399117.01579
1569399117.03141
1569399117.04704
1569399117.06266
1569399117.07829
1569399117.09391
1569399117.10954
1569399117.12517
1569399117.14079
1569399117.15642
1569399117.17204
1569399117.18767
1569399117.20329
1569399117.21892
1569399117.23455
1569399117.25017
1569399117.2658
1569399117.28142
1569399117.29705
1569399117.31267
1569399117.3283
1569399117.34393
1569399117.35955
1569399117.37518
1569399117.3908
1569399117.40643
1569399117.42205
1569399117.43768
1569399117.45331
1569399117.46893
1569399117.48456
1569399117.50018
1569399117.51581
1569399117.53143
1569399117.54706
1569399117.56269
1569399117.57831
1569399117.59394
1569399117.60956
1569399117.62519
1569399117.64081
1569399117.65644
1569399117.67207
1569399117.68769
1569399117.70332
1569399117.71894
1569399117.73457
1569399117.75019
1569399117.76582
1569399117.78145
1569399117.79707
1569399117.8127
1569399117.82832
1569399117.84395
1569399117.85957
1569399117.8752
1569399117.89083
1569399117.90645
1569399117.92208
1569399117.9377
1569399117.95333
1569399117.96896
1569399117.98458
1569399118.00021
1569399118.01583
1569399118.03146
1569399118.04708
1569399118.06271
1569399118.07834
1569399118.09396
1569399118.10959
1569399118.12521
1569399118.14084
1569399118.15646
1569399118.17209
1569399118.18772
1569399118.20334
1569399118.21897
1569399118.23459
1569399118.25022
1569399118.26584
1569399118.28147
1569399118.2971
1569399118.31272
1569399118.32835
1569399118.34397
1569399118.3596
1569399118.37522
1569399118.39085
1569399118.40648
1569399118.4221
1569399118.43773
1569399118.45335
1569399118.46898
1569399118.4846
1569399118.50023
1569399118.51586
1569399118.53148
1569399118.54711
1569399118.56273
1569399118.57836
1569399118.59398
1569399118.60961
1569399118.62524
1569399118.64086
1569399118.65649
1569399118.67211
1569399118.68774
1569399118.70336
1569399118.71899
1569399118.73462
1569399118.75024
1569399118.76587
1569399118.78149
1569399118.79712
1569399118.81274
1569399118.82837
1569399118.844
1569399118.85962
1569399118.87525
1569399118.89087
1569399118.9065
1569399118.92212
1569399118.93775
1569399118.95338
1569399118.969
1569399118.98463
1569399119.00025
1569399119.01588
1569399119.0315
1569399119.04713
1569399119.06276
1569399119.07838
1569399119.09401
1569399119.10963
1569399119.12526
1569399119.14088
1569399119.15651
1569399119.17214
1569399119.18776
1569399119.20339
1569399119.21901
1569399119.23464
1569399119.25026
1569399119.26589
1569399119.28152
1569399119.29714
1569399119.31277
1569399119.32839
1569399119.34402
1569399119.35964
1569399119.37527
1569399119.3909
1569399119.40652
1569399119.42215
1569399119.43777
1569399119.4534
1569399119.46902
1569399119.48465
1569399119.50028
1569399119.5159
1569399119.53153
1569399119.54715
1569399119.56278
1569399119.5784
1569399119.59403
1569399119.60966
1569399119.62528
1569399119.64091
1569399119.65653
1569399119.67216
1569399119.68778
1569399119.70341
1569399119.71904
1569399119.73466
1569399119.75029
1569399119.76591
1569399119.78154
1569399119.79716
1569399119.81279
1569399119.82842
1569399119.84404
1569399119.85967
1569399119.87529
1569399119.89092
1569399119.90654
1569399119.92217
1569399119.9378
1569399119.95342
1569399119.96905
1569399119.98467
1569399120.0003
1569399120.01592
1569399120.03155
1569399120.04718
1569399120.0628
1569399120.07843
1569399120.09405
1569399120.10968
1569399120.1253
1569399120.14093
1569399120.15656
1569399120.17218
1569399120.18781
1569399120.20343
1569399120.21906
1569399120.23468
1569399120.25031
1569399120.26594
1569399120.28156
1569399120.29719
1569399120.31281
1569399120.32844
1569399120.34406
1569399120.35969
1569399120.37532
1569399120.39094
1569399120.40657
1569399120.42219
1569399120.43782
1569399120.45344
1569399120.46907
1569399120.4847
1569399120.50032
1569399120.51595
1569399120.53157
1569399120.5472
1569399120.56282
1569399120.57845
1569399120.59408
1569399120.6097
1569399120.62533
1569399120.64095
1569399120.65658
1569399120.67221
1569399120.68783
1569399120.70346
1569399120.71908
1569399120.73471
1569399120.75033
1569399120.76596
1569399120.78159
1569399120.79721
1569399120.81284
1569399120.82846
1569399120.84409
1569399120.85971
1569399120.87534
1569399120.89097
1569399120.90659
1569399120.92222
1569399120.93784
1569399120.95347
1569399120.96909
1569399120.98472
1569399121.00035
1569399121.01597
1569399121.0316
1569399121.04722
1569399121.06285
1569399121.07847
1569399121.0941
1569399121.10973
1569399121.12535
1569399121.14098
1569399121.1566
1569399121.17223
1569399121.18785
1569399121.20348
1569399121.21911
1569399121.23473
1569399121.25036
1569399121.26598
1569399121.28161
1569399121.29723
1569399121.31286
1569399121.32849
1569399121.34411
1569399121.35974
1569399121.37536
1569399121.39099
1569399121.40661
1569399121.42224
1569399121.43787
1569399121.45349
1569399121.46912
1569399121.48474
1569399121.50037
1569399121.51599
1569399121.53162
1569399121.54725
1569399121.56287
1569399121.5785
1569399121.59412
1569399121.60975
1569399121.62537
1569399121.641
1569399121.65663
1569399121.67225
1569399121.68788
1569399121.7035
1569399121.71913
1569399121.73475
1569399121.75038
1569399121.76601
1569399121.78163
1569399121.79726
1569399121.81288
1569399121.82851
1569399121.84413
1569399121.85976
1569399121.87539
1569399121.89101
1569399121.90664
1569399121.92226
1569399121.93789
1569399121.95351
1569399121.96914
1569399121.98477
1569399122.00039
1569399122.01602
1569399122.03164
1569399122.04727
1569399122.06289
1569399122.07852
1569399122.09415
1569399122.10977
1569399122.1254
1569399122.14102
1569399122.15665
1569399122.17227
1569399122.1879
1569399122.20353
1569399122.21915
1569399122.23478
1569399122.2504
1569399122.26603
1569399122.28165
1569399122.29728
1569399122.31291
1569399122.32853
1569399122.34416
1569399122.35978
1569399122.37541
1569399122.39103
1569399122.40666
1569399122.42229
1569399122.43791
1569399122.45354
1569399122.46916
1569399122.48479
1569399122.50041
1569399122.51604
1569399122.53167
1569399122.54729
1569399122.56292
1569399122.57854
1569399122.59417
1569399122.60979
1569399122.62542
1569399122.64105
1569399122.65667
1569399122.6723
1569399122.68792
1569399122.70355
1569399122.71917
1569399122.7348
1569399122.75043
1569399122.76605
1569399122.78168
1569399122.7973
1569399122.81293
1569399122.82856
1569399122.84418
1569399122.85981
1569399122.87543
1569399122.89106
1569399122.90668
1569399122.92231
1569399122.93794
1569399122.95356
1569399122.96919
1569399122.98481
1569399123.00044
1569399123.01606
1569399123.03169
1569399123.04732
1569399123.06294
1569399123.07857
1569399123.09419
1569399123.10982
1569399123.12544
1569399123.14107
1569399123.1567
1569399123.17232
1569399123.18795
1569399123.20357
1569399123.2192
1569399123.23482
1569399123.25045
1569399123.26608
1569399123.2817
1569399123.29733
1569399123.31295
1569399123.32858
1569399123.3442
1569399123.35983
1569399123.37546
1569399123.39108
1569399123.40671
1569399123.42233
1569399123.43796
1569399123.45358
1569399123.46921
1569399123.48484
1569399123.50046
1569399123.51609
1569399123.53171
1569399123.54734
1569399123.56296
1569399123.57859
1569399123.59422
1569399123.60984
1569399123.62547
1569399123.64109
1569399123.65672
1569399123.67234
1569399123.68797
1569399123.7036
1569399123.71922
1569399123.73485
1569399123.75047
1569399123.7661
1569399123.78172
1569399123.79735
1569399123.81298
1569399123.8286
1569399123.84423
1569399123.85985
1569399123.87548
1569399123.8911
1569399123.90673
1569399123.92236
1569399123.93798
1569399123.95361
1569399123.96923
1569399123.98486
1569399124.00048
1569399124.01611
1569399124.03174
1569399124.04736
1569399124.06299
1569399124.07861
1569399124.09424
1569399124.10986
1569399124.12549
1569399124.14112
1569399124.15674
1569399124.17237
1569399124.18799
1569399124.20362
1569399124.21924
1569399124.23487
1569399124.2505
1569399124.26612
1569399124.28175
1569399124.29737
1569399124.313
1569399124.32862
1569399124.34425
1569399124.35988
1569399124.3755
1569399124.39113
1569399124.40675
1569399124.42238
1569399124.438
1569399124.45363
1569399124.46926
1569399124.48488
1569399124.50051
1569399124.51613
1569399124.53176
1569399124.54738
1569399124.56301
1569399124.57864
1569399124.59426
1569399124.60989
1569399124.62551
1569399124.64114
1569399124.65676
1569399124.67239
1569399124.68802
1569399124.70364
1569399124.71927
1569399124.73489
1569399124.75052
1569399124.76614
1569399124.78177
1569399124.7974
1569399124.81302
1569399124.82865
1569399124.84427
1569399124.8599
1569399124.87552
1569399124.89115
1569399124.90678
1569399124.9224
1569399124.93803
1569399124.95365
1569399124.96928
1569399124.9849
1569399125.00053
1569399125.01616
1569399125.03178
1569399125.04741
1569399125.06303
1569399125.07866
1569399125.09429
1569399125.10991
1569399125.12554
1569399125.14116
1569399125.15679
1569399125.17241
1569399125.18804
1569399125.20367
1569399125.21929
1569399125.23492
1569399125.25054
1569399125.26617
1569399125.28179
1569399125.29742
1569399125.31305
1569399125.32867
1569399125.3443
1569399125.35992
1569399125.37555
1569399125.39117
1569399125.4068
1569399125.42243
1569399125.43805
1569399125.45368
1569399125.4693
1569399125.48493
1569399125.50055
1569399125.51618
1569399125.53181
1569399125.54743
1569399125.56306
1569399125.57868
1569399125.59431
1569399125.60993
1569399125.62556
1569399125.64119
1569399125.65681
1569399125.67244
1569399125.68806
1569399125.70369
1569399125.71931
1569399125.73494
1569399125.75057
1569399125.76619
1569399125.78182
1569399125.79744
1569399125.81307
1569399125.82869
1569399125.84432
1569399125.85995
1569399125.87557
1569399125.8912
1569399125.90682
1569399125.92245
1569399125.93807
1569399125.9537
1569399125.96933
1569399125.98495
1569399126.00058
1569399126.0162
1569399126.03183
1569399126.04745
1569399126.06308
1569399126.07871
1569399126.09433
1569399126.10996
1569399126.12558
1569399126.14121
1569399126.15683
1569399126.17246
1569399126.18809
1569399126.20371
1569399126.21934
1569399126.23496
1569399126.25059
1569399126.26621
1569399126.28184
1569399126.29747
1569399126.31309
1569399126.32872
1569399126.34434
1569399126.35997
1569399126.37559
1569399126.39122
1569399126.40685
1569399126.42247
1569399126.4381
1569399126.45372
1569399126.46935
1569399126.48497
1569399126.5006
1569399126.51623
1569399126.53185
1569399126.54748
1569399126.5631
1569399126.57873
1569399126.59435
1569399126.60998
1569399126.62561
1569399126.64123
1569399126.65686
1569399126.67248
1569399126.68811
1569399126.70373
1569399126.71936
1569399126.73499
1569399126.75061
1569399126.76624
1569399126.78186
1569399126.79749
1569399126.81311
1569399126.82874
1569399126.84437
1569399126.85999
1569399126.87562
1569399126.89124
1569399126.90687
1569399126.92249
1569399126.93812
1569399126.95375
1569399126.96937
1569399126.985
1569399127.00062
1569399127.01625
1569399127.03187
1569399127.0475
1569399127.06313
1569399127.07875
1569399127.09438
1569399127.11
1569399127.12563
1569399127.14125
1569399127.15688
1569399127.17251
1569399127.18813
1569399127.20376
1569399127.21938
1569399127.23501
1569399127.25063
1569399127.26626
1569399127.28189
1569399127.29751
1569399127.31314
1569399127.32876
1569399127.34439
1569399127.36001
1569399127.37564
1569399127.39127
1569399127.40689
1569399127.42252
1569399127.43814
1569399127.45377
1569399127.46939
1569399127.48502
1569399127.50065
1569399127.51627
1569399127.5319
1569399127.54752
1569399127.56315
1569399127.57877
1569399127.5944
1569399127.61003
1569399127.62565
1569399127.64128
1569399127.6569
1569399127.67253
1569399127.68816
1569399127.70378
1569399127.71941
1569399127.73503
1569399127.75066
1569399127.76628
1569399127.78191
1569399127.79754
1569399127.81316
1569399127.82879
1569399127.84441
1569399127.86004
1569399127.87566
1569399127.89129
1569399127.90692
1569399127.92254
1569399127.93817
1569399127.95379
1569399127.96942
1569399127.98504
1569399128.00067
1569399128.0163
1569399128.03192
1569399128.04755
1569399128.06317
1569399128.0788
1569399128.09442
1569399128.11005
1569399128.12568
1569399128.1413
1569399128.15693
1569399128.17255
1569399128.18818
1569399128.2038
1569399128.21943
1569399128.23506
1569399128.25068
1569399128.26631
1569399128.28193
1569399128.29756
1569399128.31318
1569399128.32881
1569399128.34444
1569399128.36006
1569399128.37569
1569399128.39131
1569399128.40694
1569399128.42256
1569399128.43819
1569399128.45382
1569399128.46944
1569399128.48507
1569399128.50069
1569399128.51632
1569399128.53194
1569399128.54757
1569399128.5632
1569399128.57882
1569399128.59445
1569399128.61007
1569399128.6257
1569399128.64132
1569399128.65695
1569399128.67258
1569399128.6882
1569399128.70383
1569399128.71945
1569399128.73508
1569399128.7507
1569399128.76633
1569399128.78196
1569399128.79758
1569399128.81321
1569399128.82883
1569399128.84446
1569399128.86008
1569399128.87571
1569399128.89134
1569399128.90696
1569399128.92259
1569399128.93821
1569399128.95384
1569399128.96946
1569399128.98509
1569399129.00072
1569399129.01634
1569399129.03197
1569399129.04759
1569399129.06322
1569399129.07884
1569399129.09447
1569399129.1101
1569399129.12572
1569399129.14135
1569399129.15697
1569399129.1726
1569399129.18822
1569399129.20385
1569399129.21948
1569399129.2351
1569399129.25073
1569399129.26635
1569399129.28198
1569399129.2976
1569399129.31323
1569399129.32886
1569399129.34448
1569399129.36011
1569399129.37573
1569399129.39136
1569399129.40698
1569399129.42261
1569399129.43824
1569399129.45386
1569399129.46949
1569399129.48511
1569399129.50074
1569399129.51636
1569399129.53199
1569399129.54762
1569399129.56324
1569399129.57887
1569399129.59449
1569399129.61012
1569399129.62574
1569399129.64137
1569399129.657
1569399129.67262
1569399129.68825
1569399129.70387
1569399129.7195
1569399129.73512
1569399129.75075
1569399129.76638
1569399129.782
1569399129.79763
1569399129.81325
1569399129.82888
1569399129.8445
1569399129.86013
1569399129.87576
1569399129.89138
1569399129.90701
1569399129.92263
1569399129.93826
1569399129.95389
1569399129.96951
1569399129.98514
1569399130.00076
1569399130.01639
1569399130.03201
1569399130.04764
1569399130.06327
1569399130.07889
1569399130.09452
1569399130.11014
1569399130.12577
1569399130.14139
1569399130.15702
1569399130.17265
1569399130.18827
1569399130.2039
1569399130.21952
1569399130.23515
1569399130.25077
1569399130.2664
1569399130.28203
1569399130.29765
1569399130.31328
1569399130.3289
1569399130.34453
1569399130.36015
1569399130.37578
1569399130.39141
1569399130.40703
1569399130.42266
1569399130.43828
1569399130.45391
1569399130.46953
1569399130.48516
1569399130.50079
1569399130.51641
1569399130.53204
1569399130.54766
1569399130.56329
1569399130.57891
1569399130.59454
1569399130.61017
1569399130.62579
1569399130.64142
1569399130.65704
1569399130.67267
1569399130.68829
1569399130.70392
1569399130.71955
1569399130.73517
1569399130.7508
1569399130.76642
1569399130.78205
1569399130.79767
1569399130.8133
1569399130.82893
1569399130.84455
1569399130.86018
1569399130.8758
1569399130.89143
1569399130.90705
1569399130.92268
1569399130.93831
1569399130.95393
1569399130.96956
1569399130.98518
1569399131.00081
1569399131.01643
1569399131.03206
1569399131.04769
1569399131.06331
1569399131.07894
1569399131.09456
1569399131.11019
1569399131.12581
1569399131.14144
1569399131.15707
1569399131.17269
1569399131.18832
1569399131.20394
1569399131.21957
1569399131.23519
1569399131.25082
1569399131.26645
1569399131.28207
1569399131.2977
1569399131.31332
1569399131.32895
1569399131.34457
1569399131.3602
1569399131.37583
1569399131.39145
1569399131.40708
1569399131.4227
1569399131.43833
1569399131.45395
1569399131.46958
1569399131.48521
1569399131.50083
1569399131.51646
1569399131.53208
1569399131.54771
1569399131.56333
1569399131.57896
1569399131.59459
1569399131.61021
1569399131.62584
1569399131.64146
1569399131.65709
1569399131.67271
1569399131.68834
1569399131.70397
1569399131.71959
1569399131.73522
1569399131.75084
1569399131.76647
1569399131.78209
1569399131.79772
1569399131.81335
1569399131.82897
1569399131.8446
1569399131.86022
1569399131.87585
1569399131.89147
1569399131.9071
1569399131.92273
1569399131.93835
1569399131.95398
1569399131.9696
1569399131.98523
1569399132.00085
1569399132.01648
1569399132.03211
1569399132.04773
1569399132.06336
1569399132.07898
1569399132.09461
1569399132.11023
1569399132.12586
1569399132.14149
1569399132.15711
1569399132.17274
1569399132.18836
1569399132.20399
1569399132.21961
1569399132.23524
1569399132.25087
1569399132.26649
1569399132.28212
1569399132.29774
1569399132.31337
1569399132.32899
1569399132.34462
1569399132.36025
1569399132.37587
1569399132.3915
1569399132.40712
1569399132.42275
1569399132.43838
1569399132.454
1569399132.46963
1569399132.48525
1569399132.50088
1569399132.5165
1569399132.53213
1569399132.54776
1569399132.56338
1569399132.57901
1569399132.59463
1569399132.61026
1569399132.62588
1569399132.64151
1569399132.65714
1569399132.67276
1569399132.68839
1569399132.70401
1569399132.71964
1569399132.73526
1569399132.75089
1569399132.76652
1569399132.78214
1569399132.79777
1569399132.81339
1569399132.82902
1569399132.84464
1569399132.86027
1569399132.8759
1569399132.89152
1569399132.90715
1569399132.92277
1569399132.9384
1569399132.95402
1569399132.96965
1569399132.98528
1569399133.0009
1569399133.01653
1569399133.03215
1569399133.04778
1569399133.0634
1569399133.07903
1569399133.09466
1569399133.11028
1569399133.12591
1569399133.14153
1569399133.15716
1569399133.17278
1569399133.18841
1569399133.20404
1569399133.21966
1569399133.23529
1569399133.25091
1569399133.26654
1569399133.28216
1569399133.29779
1569399133.31342
1569399133.32904
1569399133.34467
1569399133.36029
1569399133.37592
1569399133.39154
1569399133.40717
1569399133.4228
1569399133.43842
1569399133.45405
1569399133.46967
1569399133.4853
1569399133.50092
1569399133.51655
1569399133.53218
1569399133.5478
1569399133.56343
1569399133.57905
1569399133.59468
1569399133.6103
1569399133.62593
1569399133.64156
1569399133.65718
1569399133.67281
1569399133.68843
1569399133.70406
1569399133.71968
1569399133.73531
1569399133.75094
1569399133.76656
1569399133.78219
1569399133.79781
1569399133.81344
1569399133.82906
1569399133.84469
1569399133.86032
1569399133.87594
1569399133.89157
1569399133.90719
1569399133.92282
1569399133.93844
1569399133.95407
1569399133.9697
1569399133.98532
1569399134.00095
1569399134.01657
1569399134.0322
1569399134.04782
1569399134.06345
1569399134.07908
1569399134.0947
1569399134.11033
1569399134.12595
1569399134.14158
1569399134.1572
1569399134.17283
1569399134.18846
1569399134.20408
1569399134.21971
1569399134.23533
1569399134.25096
1569399134.26658
1569399134.28221
1569399134.29784
1569399134.31346
1569399134.32909
1569399134.34471
1569399134.36034
1569399134.37596
1569399134.39159
1569399134.40722
1569399134.42284
1569399134.43847
1569399134.45409
1569399134.46972
1569399134.48534
1569399134.50097
1569399134.5166
1569399134.53222
1569399134.54785
1569399134.56347
1569399134.5791
1569399134.59472
1569399134.61035
1569399134.62598
1569399134.6416
1569399134.65723
1569399134.67285
1569399134.68848
1569399134.7041
1569399134.71973
1569399134.73536
1569399134.75098
1569399134.76661
1569399134.78223
1569399134.79786
1569399134.81349
1569399134.82911
1569399134.84474
1569399134.86036
1569399134.87599
1569399134.89161
1569399134.90724
1569399134.92287
1569399134.93849
1569399134.95412
1569399134.96974
1569399134.98537
1569399135.00099
1569399135.01662
1569399135.03225
1569399135.04787
1569399135.0635
1569399135.07912
1569399135.09475
1569399135.11037
1569399135.126
1569399135.14163
1569399135.15725
1569399135.17288
1569399135.1885
1569399135.20413
1569399135.21975
1569399135.23538
1569399135.25101
1569399135.26663
1569399135.28226
1569399135.29788
1569399135.31351
1569399135.32913
1569399135.34476
1569399135.36039
1569399135.37601
1569399135.39164
1569399135.40726
1569399135.42289
1569399135.43851
1569399135.45414
1569399135.46977
1569399135.48539
1569399135.50102
1569399135.51664
1569399135.53227
1569399135.54789
1569399135.56352
1569399135.57915
1569399135.59477
1569399135.6104
1569399135.62602
1569399135.64165
1569399135.65727
1569399135.6729
1569399135.68853
1569399135.70415
1569399135.71978
1569399135.7354
1569399135.75103
1569399135.76665
1569399135.78228
1569399135.79791
1569399135.81353
1569399135.82916
1569399135.84478
1569399135.86041
1569399135.87603
1569399135.89166
1569399135.90729
1569399135.92291
1569399135.93854
1569399135.95416
1569399135.96979
1569399135.98541
1569399136.00104
1569399136.01667
1569399136.03229
1569399136.04792
1569399136.06354
1569399136.07917
1569399136.09479
1569399136.11042
1569399136.12605
1569399136.14167
1569399136.1573
1569399136.17292
1569399136.18855
1569399136.20417
1569399136.2198
1569399136.23543
1569399136.25105
1569399136.26668
1569399136.2823
1569399136.29793
1569399136.31355
1569399136.32918
1569399136.34481
1569399136.36043
1569399136.37606
1569399136.39168
1569399136.40731
1569399136.42293
1569399136.43856
1569399136.45419
1569399136.46981
1569399136.48544
1569399136.50106
1569399136.51669
1569399136.53231
1569399136.54794
1569399136.56357
1569399136.57919
1569399136.59482
1569399136.61044
1569399136.62607
1569399136.64169
1569399136.65732
1569399136.67295
1569399136.68857
1569399136.7042
1569399136.71982
1569399136.73545
1569399136.75107
1569399136.7667
1569399136.78233
1569399136.79795
1569399136.81358
1569399136.8292
1569399136.84483
1569399136.86045
1569399136.87608
1569399136.89171
1569399136.90733
1569399136.92296
1569399136.93858
1569399136.95421
1569399136.96984
1569399136.98546
1569399137.00109
1569399137.01671
1569399137.03234
1569399137.04796
1569399137.06359
1569399137.07922
1569399137.09484
1569399137.11047
1569399137.12609
1569399137.14172
1569399137.15734
1569399137.17297
1569399137.1886
1569399137.20422
1569399137.21985
1569399137.23547
1569399137.2511
1569399137.26672
1569399137.28235
1569399137.29798
1569399137.3136
1569399137.32923
1569399137.34485
1569399137.36048
1569399137.3761
1569399137.39173
1569399137.40736
1569399137.42298
1569399137.43861
1569399137.45423
1569399137.46986
1569399137.48548
1569399137.50111
1569399137.51674
1569399137.53236
1569399137.54799
1569399137.56361
1569399137.57924
1569399137.59486
1569399137.61049
1569399137.62612
1569399137.64174
1569399137.65737
1569399137.67299
1569399137.68862
1569399137.70424
1569399137.71987
1569399137.7355
1569399137.75112
1569399137.76675
1569399137.78237
1569399137.798
1569399137.81362
1569399137.82925
1569399137.84488
1569399137.8605
1569399137.87613
1569399137.89175
1569399137.90738
1569399137.923
1569399137.93863
1569399137.95426
1569399137.96988
1569399137.98551
1569399138.00113
1569399138.01676
1569399138.03238
1569399138.04801
1569399138.06364
1569399138.07926
1569399138.09489
1569399138.11051
1569399138.12614
1569399138.14176
1569399138.15739
1569399138.17302
1569399138.18864
1569399138.20427
1569399138.21989
1569399138.23552
1569399138.25114
1569399138.26677
1569399138.2824
1569399138.29802
1569399138.31365
1569399138.32927
1569399138.3449
1569399138.36052
1569399138.37615
1569399138.39178
1569399138.4074
1569399138.42303
1569399138.43865
1569399138.45428
1569399138.4699
1569399138.48553
1569399138.50116
1569399138.51678
1569399138.53241
1569399138.54803
1569399138.56366
1569399138.57928
1569399138.59491
1569399138.61054
1569399138.62616
1569399138.64179
1569399138.65741
1569399138.67304
1569399138.68866
1569399138.70429
1569399138.71992
1569399138.73554
1569399138.75117
1569399138.76679
1569399138.78242
1569399138.79804
1569399138.81367
1569399138.8293
1569399138.84492
1569399138.86055
1569399138.87617
1569399138.8918
1569399138.90742
1569399138.92305
1569399138.93868
1569399138.9543
1569399138.96993
1569399138.98555
1569399139.00118
1569399139.0168
1569399139.03243
1569399139.04806
1569399139.06368
1569399139.07931
1569399139.09493
1569399139.11056
1569399139.12618
1569399139.14181
1569399139.15744
1569399139.17306
1569399139.18869
1569399139.20431
1569399139.21994
1569399139.23556
1569399139.25119
1569399139.26682
1569399139.28244
1569399139.29807
1569399139.31369
1569399139.32932
1569399139.34494
1569399139.36057
1569399139.3762
1569399139.39182
1569399139.40745
1569399139.42307
1569399139.4387
1569399139.45432
1569399139.46995
1569399139.48558
1569399139.5012
1569399139.51683
1569399139.53245
1569399139.54808
1569399139.5637
1569399139.57933
1569399139.59496
1569399139.61058
1569399139.62621
1569399139.64183
1569399139.65746
1569399139.67309
1569399139.68871
1569399139.70434
1569399139.71996
1569399139.73559
1569399139.75121
1569399139.76684
1569399139.78247
1569399139.79809
1569399139.81372
1569399139.82934
1569399139.84497
1569399139.86059
1569399139.87622
1569399139.89185
1569399139.90747
1569399139.9231
1569399139.93872
1569399139.95435
1569399139.96997
1569399139.9856
1569399140.00123
1569399140.01685
1569399140.03248
1569399140.0481
1569399140.06373
1569399140.07935
1569399140.09498
1569399140.11061
1569399140.12623
1569399140.14186
1569399140.15748
1569399140.17311
1569399140.18873
1569399140.20436
1569399140.21999
1569399140.23561
1569399140.25124
1569399140.26686
1569399140.28249
1569399140.29811
1569399140.31374
1569399140.32937
1569399140.34499
1569399140.36062
1569399140.37624
1569399140.39187
1569399140.40749
1569399140.42312
1569399140.43875
1569399140.45437
1569399140.47
1569399140.48562
1569399140.50125
1569399140.51687
1569399140.5325
1569399140.54813
1569399140.56375
1569399140.57938
1569399140.595
1569399140.61063
1569399140.62625
1569399140.64188
1569399140.65751
1569399140.67313
1569399140.68876
1569399140.70438
1569399140.72001
1569399140.73563
1569399140.75126
1569399140.76689
1569399140.78251
1569399140.79814
1569399140.81376
1569399140.82939
1569399140.84501
1569399140.86064
1569399140.87627
1569399140.89189
1569399140.90752
1569399140.92314
1569399140.93877
1569399140.95439
1569399140.97002
1569399140.98565
1569399141.00127
1569399141.0169
1569399141.03252
1569399141.04815
1569399141.06377
1569399141.0794
1569399141.09503
1569399141.11065
1569399141.12628
1569399141.1419
1569399141.15753
1569399141.17315
1569399141.18878
1569399141.20441
1569399141.22003
1569399141.23566
1569399141.25128
1569399141.26691
1569399141.28253
1569399141.29816
1569399141.31379
1569399141.32941
1569399141.34504
1569399141.36066
1569399141.37629
1569399141.39191
1569399141.40754
1569399141.42317
1569399141.43879
1569399141.45442
1569399141.47004
1569399141.48567
1569399141.50129
1569399141.51692
1569399141.53255
1569399141.54817
1569399141.5638
1569399141.57942
1569399141.59505
1569399141.61067
1569399141.6263
1569399141.64193
1569399141.65755
1569399141.67318
1569399141.6888
1569399141.70443
1569399141.72005
1569399141.73568
1569399141.75131
1569399141.76693
1569399141.78256
1569399141.79818
1569399141.81381
1569399141.82943
1569399141.84506
1569399141.86069
1569399141.87631
1569399141.89194
1569399141.90756
1569399141.92319
1569399141.93882
1569399141.95444
1569399141.97007
1569399141.98569
1569399142.00132
1569399142.01694
1569399142.03257
1569399142.0482
1569399142.06382
1569399142.07945
1569399142.09507
1569399142.1107
1569399142.12632
1569399142.14195
1569399142.15758
1569399142.1732
1569399142.18883
1569399142.20445
1569399142.22008
1569399142.2357
1569399142.25133
1569399142.26696
1569399142.28258
1569399142.29821
1569399142.31383
1569399142.32946
1569399142.34508
1569399142.36071
1569399142.37634
1569399142.39196
1569399142.40759
1569399142.42321
1569399142.43884
1569399142.45446
1569399142.47009
1569399142.48572
1569399142.50134
1569399142.51697
1569399142.53259
1569399142.54822
1569399142.56384
1569399142.57947
1569399142.5951
1569399142.61072
1569399142.62635
1569399142.64197
1569399142.6576
1569399142.67322
1569399142.68885
1569399142.70448
1569399142.7201
1569399142.73573
1569399142.75135
1569399142.76698
1569399142.7826
1569399142.79823
1569399142.81386
1569399142.82948
1569399142.84511
1569399142.86073
1569399142.87636
1569399142.89198
1569399142.90761
1569399142.92324
1569399142.93886
1569399142.95449
1569399142.97011
1569399142.98574
1569399143.00136
1569399143.01699
1569399143.03262
1569399143.04824
1569399143.06387
1569399143.07949
1569399143.09512
1569399143.11074
1569399143.12637
1569399143.142
1569399143.15762
1569399143.17325
1569399143.18887
1569399143.2045
1569399143.22012
1569399143.23575
1569399143.25138
1569399143.267
1569399143.28263
1569399143.29825
1569399143.31388
1569399143.3295
1569399143.34513
1569399143.36076
1569399143.37638
1569399143.39201
1569399143.40763
1569399143.42326
1569399143.43888
1569399143.45451
1569399143.47014
1569399143.48576
1569399143.50139
1569399143.51701
1569399143.53264
1569399143.54826
1569399143.56389
1569399143.57952
1569399143.59514
1569399143.61077
1569399143.62639
1569399143.64202
1569399143.65764
1569399143.67327
1569399143.6889
1569399143.70452
1569399143.72015
1569399143.73577
1569399143.7514
1569399143.76702
1569399143.78265
1569399143.79828
1569399143.8139
1569399143.82953
1569399143.84515
1569399143.86078
1569399143.8764
1569399143.89203
1569399143.90766
1569399143.92328
1569399143.93891
1569399143.95453
1569399143.97016
1569399143.98578
1569399144.00141
1569399144.01704
1569399144.03266
1569399144.04829
1569399144.06391
1569399144.07954
1569399144.09517
1569399144.11079
1569399144.12642
1569399144.14204
1569399144.15767
1569399144.17329
1569399144.18892
1569399144.20455
1569399144.22017
1569399144.2358
1569399144.25142
1569399144.26705
1569399144.28267
1569399144.2983
1569399144.31393
1569399144.32955
1569399144.34518
1569399144.3608
1569399144.37643
1569399144.39205
1569399144.40768
1569399144.42331
1569399144.43893
1569399144.45456
1569399144.47018
1569399144.48581
1569399144.50143
1569399144.51706
1569399144.53269
1569399144.54831
1569399144.56394
1569399144.57956
1569399144.59519
1569399144.61081
1569399144.62644
1569399144.64207
1569399144.65769
1569399144.67332
1569399144.68894
1569399144.70457
1569399144.72019
1569399144.73582
1569399144.75145
1569399144.76707
1569399144.7827
1569399144.79832
1569399144.81395
1569399144.82957
1569399144.8452
1569399144.86083
1569399144.87645
1569399144.89208
1569399144.9077
1569399144.92333
1569399144.93895
1569399144.95458
1569399144.97021
1569399144.98583
1569399145.00146
1569399145.01708
1569399145.03271
1569399145.04833
1569399145.06396
1569399145.07959
1569399145.09521
1569399145.11084
1569399145.12646
1569399145.14209
1569399145.15771
1569399145.17334
1569399145.18897
1569399145.20459
1569399145.22022
1569399145.23584
1569399145.25147
1569399145.26709
1569399145.28272
1569399145.29835
1569399145.31397
1569399145.3296
1569399145.34522
1569399145.36085
1569399145.37647
1569399145.3921
1569399145.40773
1569399145.42335
1569399145.43898
1569399145.4546
1569399145.47023
1569399145.48585
1569399145.50148
1569399145.51711
1569399145.53273
1569399145.54836
1569399145.56398
1569399145.57961
1569399145.59523
1569399145.61086
1569399145.62649
1569399145.64211
1569399145.65774
1569399145.67336
1569399145.68899
1569399145.70461
1569399145.72024
1569399145.73587
1569399145.75149
1569399145.76712
1569399145.78274
1569399145.79837
1569399145.81399
1569399145.82962
1569399145.84525
1569399145.86087
1569399145.8765
1569399145.89212
1569399145.90775
1569399145.92337
1569399145.939
1569399145.95463
1569399145.97025
1569399145.98588
1569399146.0015
1569399146.01713
1569399146.03275
1569399146.04838
1569399146.06401
1569399146.07963
1569399146.09526
1569399146.11088
1569399146.12651
1569399146.14213
1569399146.15776
1569399146.17339
1569399146.18901
1569399146.20464
1569399146.22026
1569399146.23589
1569399146.25151
1569399146.26714
1569399146.28277
1569399146.29839
1569399146.31402
1569399146.32964
1569399146.34527
1569399146.36089
1569399146.37652
1569399146.39215
1569399146.40777
1569399146.4234
1569399146.43902
1569399146.45465
1569399146.47027
1569399146.4859
1569399146.50153
1569399146.51715
1569399146.53278
1569399146.5484
1569399146.56403
1569399146.57965
1569399146.59528
1569399146.61091
1569399146.62653
1569399146.64216
1569399146.65778
1569399146.67341
1569399146.68903
1569399146.70466
1569399146.72029
1569399146.73591
1569399146.75154
1569399146.76716
1569399146.78279
1569399146.79842
1569399146.81404
1569399146.82967
1569399146.84529
1569399146.86092
1569399146.87654
1569399146.89217
1569399146.9078
1569399146.92342
1569399146.93905
1569399146.95467
1569399146.9703
1569399146.98592
1569399147.00155
1569399147.01718
1569399147.0328
1569399147.04843
1569399147.06405
1569399147.07968
1569399147.0953
1569399147.11093
1569399147.12656
1569399147.14218
1569399147.15781
1569399147.17343
1569399147.18906
1569399147.20468
1569399147.22031
1569399147.23594
1569399147.25156
1569399147.26719
1569399147.28281
1569399147.29844
1569399147.31406
1569399147.32969
1569399147.34532
1569399147.36094
1569399147.37657
1569399147.39219
1569399147.40782
1569399147.42344
1569399147.43907
1569399147.4547
1569399147.47032
1569399147.48595
1569399147.50157
1569399147.5172
1569399147.53282
1569399147.54845
1569399147.56408
1569399147.5797
1569399147.59533
1569399147.61095
1569399147.62658
1569399147.6422
1569399147.65783
1569399147.67346
1569399147.68908
1569399147.70471
1569399147.72033
1569399147.73596
1569399147.75158
1569399147.76721
1569399147.78284
1569399147.79846
1569399147.81409
1569399147.82971
1569399147.84534
1569399147.86096
1569399147.87659
1569399147.89222
1569399147.90784
1569399147.92347
1569399147.93909
1569399147.95472
1569399147.97034
1569399147.98597
1569399148.0016
1569399148.01722
1569399148.03285
1569399148.04847
1569399148.0641
1569399148.07972
1569399148.09535
1569399148.11098
1569399148.1266
1569399148.14223
1569399148.15785
1569399148.17348
1569399148.1891
1569399148.20473
1569399148.22036
1569399148.23598
1569399148.25161
1569399148.26723
1569399148.28286
1569399148.29848
1569399148.31411
1569399148.32974
1569399148.34536
1569399148.36099
1569399148.37661
1569399148.39224
1569399148.40786
1569399148.42349
1569399148.43912
1569399148.45474
1569399148.47037
1569399148.48599
1569399148.50162
1569399148.51724
1569399148.53287
1569399148.5485
1569399148.56412
1569399148.57975
1569399148.59537
1569399148.611
1569399148.62662
1569399148.64225
1569399148.65788
1569399148.6735
1569399148.68913
1569399148.70475
1569399148.72038
1569399148.736
1569399148.75163
1569399148.76726
1569399148.78288
1569399148.79851
1569399148.81413
1569399148.82976
1569399148.84538
1569399148.86101
1569399148.87664
1569399148.89226
1569399148.90789
1569399148.92351
1569399148.93914
1569399148.95477
1569399148.97039
1569399148.98602
1569399149.00164
1569399149.01727
1569399149.03289
1569399149.04852
1569399149.06415
1569399149.07977
1569399149.0954
1569399149.11102
1569399149.12665
1569399149.14227
1569399149.1579
1569399149.17353
1569399149.18915
1569399149.20478
1569399149.2204
1569399149.23603
1569399149.25165
1569399149.26728
1569399149.28291
1569399149.29853
1569399149.31416
1569399149.32978
1569399149.34541
1569399149.36103
1569399149.37666
1569399149.39229
1569399149.40791
1569399149.42354
1569399149.43916
1569399149.45479
1569399149.47041
1569399149.48604
1569399149.50167
1569399149.51729
1569399149.53292
1569399149.54854
1569399149.56417
1569399149.57979
1569399149.59542
1569399149.61105
1569399149.62667
1569399149.6423
1569399149.65792
1569399149.67355
1569399149.68917
1569399149.7048
1569399149.72043
1569399149.73605
1569399149.75168
1569399149.7673
1569399149.78293
1569399149.79855
1569399149.81418
1569399149.82981
1569399149.84543
1569399149.86106
1569399149.87668
1569399149.89231
1569399149.90793
1569399149.92356
1569399149.93919
1569399149.95481
1569399149.97044
1569399149.98606
1569399150.00169
1569399150.01731
1569399150.03294
1569399150.04857
1569399150.06419
1569399150.07982
1569399150.09544
1569399150.11107
1569399150.12669
1569399150.14232
1569399150.15795
1569399150.17357
1569399150.1892
1569399150.20482
1569399150.22045
1569399150.23607
1569399150.2517
1569399150.26733
1569399150.28295
1569399150.29858
1569399150.3142
1569399150.32983
1569399150.34545
1569399150.36108
1569399150.37671
1569399150.39233
1569399150.40796
1569399150.42358
1569399150.43921
1569399150.45483
1569399150.47046
1569399150.48609
1569399150.50171
1569399150.51734
1569399150.53296
1569399150.54859
1569399150.56421
1569399150.57984
1569399150.59547
1569399150.61109
1569399150.62672
1569399150.64234
1569399150.65797
1569399150.67359
1569399150.68922
1569399150.70485
1569399150.72047
1569399150.7361
1569399150.75172
1569399150.76735
1569399150.78297
1569399150.7986
1569399150.81423
1569399150.82985
1569399150.84548
1569399150.8611
1569399150.87673
1569399150.89235
1569399150.90798
1569399150.92361
1569399150.93923
1569399150.95486
1569399150.97048
1569399150.98611
1569399151.00173
1569399151.01736
1569399151.03299
1569399151.04861
1569399151.06424
1569399151.07986
1569399151.09549
1569399151.11111
1569399151.12674
1569399151.14237
1569399151.15799
1569399151.17362
1569399151.18924
1569399151.20487
1569399151.22049
1569399151.23612
1569399151.25175
1569399151.26737
1569399151.283
1569399151.29862
1569399151.31425
1569399151.32987
1569399151.3455
1569399151.36113
1569399151.37675
1569399151.39238
1569399151.408
1569399151.42363
1569399151.43926
1569399151.45488
1569399151.47051
1569399151.48613
1569399151.50176
1569399151.51738
1569399151.53301
1569399151.54864
1569399151.56426
1569399151.57989
1569399151.59551
1569399151.61114
1569399151.62676
1569399151.64239
1569399151.65802
1569399151.67364
1569399151.68927
1569399151.70489
1569399151.72052
1569399151.73614
1569399151.75177
1569399151.7674
1569399151.78302
1569399151.79865
1569399151.81427
1569399151.8299
1569399151.84552
1569399151.86115
1569399151.87678
1569399151.8924
1569399151.90803
1569399151.92365
1569399151.93928
1569399151.9549
1569399151.97053
1569399151.98616
1569399152.00178
1569399152.01741
1569399152.03303
1569399152.04866
1569399152.06428
1569399152.07991
1569399152.09554
1569399152.11116
1569399152.12679
1569399152.14241
1569399152.15804
1569399152.17366
1569399152.18929
1569399152.20492
1569399152.22054
1569399152.23617
1569399152.25179
1569399152.26742
1569399152.28304
1569399152.29867
1569399152.3143
1569399152.32992
1569399152.34555
1569399152.36117
1569399152.3768
1569399152.39242
1569399152.40805
1569399152.42368
1569399152.4393
1569399152.45493
1569399152.47055
1569399152.48618
1569399152.5018
1569399152.51743
1569399152.53306
1569399152.54868
1569399152.56431
1569399152.57993
1569399152.59556
1569399152.61118
1569399152.62681
1569399152.64244
1569399152.65806
1569399152.67369
1569399152.68931
1569399152.70494
1569399152.72056
1569399152.73619
1569399152.75182
1569399152.76744
1569399152.78307
1569399152.79869
1569399152.81432
1569399152.82994
1569399152.84557
1569399152.8612
1569399152.87682
1569399152.89245
1569399152.90807
1569399152.9237
1569399152.93932
1569399152.95495
1569399152.97058
1569399152.9862
1569399153.00183
1569399153.01745
1569399153.03308
1569399153.0487
1569399153.06433
1569399153.07996
1569399153.09558
1569399153.11121
1569399153.12683
1569399153.14246
1569399153.15808
1569399153.17371
1569399153.18934
1569399153.20496
1569399153.22059
1569399153.23621
1569399153.25184
1569399153.26746
1569399153.28309
1569399153.29872
1569399153.31434
1569399153.32997
1569399153.34559
1569399153.36122
1569399153.37684
1569399153.39247
1569399153.4081
1569399153.42372
1569399153.43935
1569399153.45497
1569399153.4706
1569399153.48622
1569399153.50185
1569399153.51748
1569399153.5331
1569399153.54873
1569399153.56435
1569399153.57998
1569399153.5956
1569399153.61123
1569399153.62686
1569399153.64248
1569399153.65811
1569399153.67373
1569399153.68936
1569399153.70498
1569399153.72061
1569399153.73624
1569399153.75186
1569399153.76749
1569399153.78311
1569399153.79874
1569399153.81437
1569399153.82999
1569399153.84562
1569399153.86124
1569399153.87687
1569399153.89249
1569399153.90812
1569399153.92375
1569399153.93937
1569399153.955
1569399153.97062
1569399153.98625
1569399154.00187
1569399154.0175
1569399154.03313
1569399154.04875
1569399154.06438
1569399154.08
1569399154.09563
1569399154.11125
1569399154.12688
1569399154.14251
1569399154.15813
1569399154.17376
1569399154.18938
1569399154.20501
1569399154.22063
1569399154.23626
1569399154.25189
1569399154.26751
1569399154.28314
1569399154.29876
1569399154.31439
1569399154.33001
1569399154.34564
1569399154.36127
1569399154.37689
1569399154.39252
1569399154.40814
1569399154.42377
1569399154.43939
1569399154.45502
1569399154.47065
1569399154.48627
1569399154.5019
1569399154.51752
1569399154.53315
1569399154.54877
1569399154.5644
1569399154.58003
1569399154.59565
1569399154.61128
1569399154.6269
1569399154.64253
1569399154.65815
1569399154.67378
1569399154.68941
1569399154.70503
1569399154.72066
1569399154.73628
1569399154.75191
1569399154.76753
1569399154.78316
1569399154.79879
1569399154.81441
1569399154.83004
1569399154.84566
1569399154.86129
1569399154.87691
1569399154.89254
1569399154.90817
1569399154.92379
1569399154.93942
1569399154.95504
1569399154.97067
1569399154.98629
1569399155.00192
1569399155.01755
1569399155.03317
1569399155.0488
1569399155.06442
1569399155.08005
1569399155.09567
1569399155.1113
1569399155.12693
1569399155.14255
1569399155.15818
1569399155.1738
1569399155.18943
1569399155.20505
1569399155.22068
1569399155.23631
1569399155.25193
1569399155.26756
1569399155.28318
1569399155.29881
1569399155.31443
1569399155.33006
1569399155.34569
1569399155.36131
1569399155.37694
1569399155.39256
1569399155.40819
1569399155.42381
1569399155.43944
1569399155.45507
1569399155.47069
1569399155.48632
1569399155.50194
1569399155.51757
1569399155.53319
1569399155.54882
1569399155.56445
1569399155.58007
1569399155.5957
1569399155.61132
1569399155.62695
1569399155.64257
1569399155.6582
1569399155.67383
1569399155.68945
1569399155.70508
1569399155.7207
1569399155.73633
1569399155.75195
1569399155.76758
1569399155.78321
1569399155.79883
1569399155.81446
1569399155.83008
1569399155.84571
1569399155.86133
1569399155.87696
1569399155.89259
1569399155.90821
1569399155.92384
1569399155.93946
1569399155.95509
1569399155.97071
1569399155.98634
1569399156.00197
1569399156.01759
1569399156.03322
1569399156.04884
1569399156.06447
1569399156.0801
1569399156.09572
1569399156.11135
1569399156.12697
1569399156.1426
1569399156.15822
1569399156.17385
1569399156.18948
1569399156.2051
1569399156.22073
1569399156.23635
1569399156.25198
1569399156.2676
1569399156.28323
1569399156.29886
1569399156.31448
1569399156.33011
1569399156.34573
1569399156.36136
1569399156.37698
1569399156.39261
1569399156.40824
1569399156.42386
1569399156.43949
1569399156.45511
1569399156.47074
1569399156.48636
1569399156.50199
1569399156.51762
1569399156.53324
1569399156.54887
1569399156.56449
1569399156.58012
1569399156.59574
1569399156.61137
1569399156.627
1569399156.64262
1569399156.65825
1569399156.67387
1569399156.6895
1569399156.70512
1569399156.72075
1569399156.73638
1569399156.752
1569399156.76763
1569399156.78325
1569399156.79888
1569399156.8145
1569399156.83013
1569399156.84576
1569399156.86138
1569399156.87701
1569399156.89263
1569399156.90826
1569399156.92388
1569399156.93951
1569399156.95514
1569399156.97076
1569399156.98639
1569399157.00201
1569399157.01764
1569399157.03326
1569399157.04889
1569399157.06452
1569399157.08014
1569399157.09577
1569399157.11139
1569399157.12702
1569399157.14264
1569399157.15827
1569399157.1739
1569399157.18952
1569399157.20515
1569399157.22077
1569399157.2364
1569399157.25202
1569399157.26765
1569399157.28328
1569399157.2989
1569399157.31453
1569399157.33015
1569399157.34578
1569399157.3614
1569399157.37703
1569399157.39266
1569399157.40828
1569399157.42391
1569399157.43953
1569399157.45516
1569399157.47078
1569399157.48641
1569399157.50204
1569399157.51766
1569399157.53329
1569399157.54891
1569399157.56454
1569399157.58016
1569399157.59579
1569399157.61142
1569399157.62704
1569399157.64267
1569399157.65829
1569399157.67392
1569399157.68954
1569399157.70517
1569399157.7208
1569399157.73642
1569399157.75205
1569399157.76767
1569399157.7833
1569399157.79892
1569399157.81455
1569399157.83018
1569399157.8458
1569399157.86143
1569399157.87705
1569399157.89268
1569399157.9083
1569399157.92393
1569399157.93956
1569399157.95518
1569399157.97081
1569399157.98643
1569399158.00206
1569399158.01768
1569399158.03331
1569399158.04894
1569399158.06456
1569399158.08019
1569399158.09581
1569399158.11144
1569399158.12706
1569399158.14269
1569399158.15832
1569399158.17394
1569399158.18957
1569399158.20519
1569399158.22082
1569399158.23644
1569399158.25207
1569399158.2677
1569399158.28332
1569399158.29895
1569399158.31457
1569399158.3302
1569399158.34582
1569399158.36145
1569399158.37708
1569399158.3927
1569399158.40833
1569399158.42395
1569399158.43958
1569399158.4552
1569399158.47083
1569399158.48646
1569399158.50208
1569399158.51771
1569399158.53333
1569399158.54896
1569399158.56458
1569399158.58021
1569399158.59584
1569399158.61146
1569399158.62709
1569399158.64271
1569399158.65834
1569399158.67397
1569399158.68959
1569399158.70522
1569399158.72084
1569399158.73647
1569399158.75209
1569399158.76772
1569399158.78335
1569399158.79897
1569399158.8146
1569399158.83022
1569399158.84585
1569399158.86147
1569399158.8771
1569399158.89273
1569399158.90835
1569399158.92398
1569399158.9396
1569399158.95523
1569399158.97085
1569399158.98648
1569399159.00211
1569399159.01773
1569399159.03336
1569399159.04898
1569399159.06461
1569399159.08023
1569399159.09586
1569399159.11149
1569399159.12711
1569399159.14274
1569399159.15836
1569399159.17399
1569399159.18961
1569399159.20524
1569399159.22087
1569399159.23649
1569399159.25212
1569399159.26774
1569399159.28337
1569399159.29899
1569399159.31462
1569399159.33025
1569399159.34587
1569399159.3615
1569399159.37712
1569399159.39275
1569399159.40837
1569399159.424
1569399159.43963
1569399159.45525
1569399159.47088
1569399159.4865
1569399159.50213
1569399159.51775
1569399159.53338
1569399159.54901
1569399159.56463
1569399159.58026
1569399159.59588
1569399159.61151
1569399159.62713
1569399159.64276
1569399159.65839
1569399159.67401
1569399159.68964
1569399159.70526
1569399159.72089
1569399159.73651
1569399159.75214
1569399159.76777
1569399159.78339
1569399159.79902
1569399159.81464
1569399159.83027
1569399159.84589
1569399159.86152
1569399159.87715
1569399159.89277
1569399159.9084
1569399159.92402
1569399159.93965
1569399159.95527
1569399159.9709
1569399159.98653
1569399160.00215
1569399160.01778
1569399160.0334
1569399160.04903
1569399160.06465
1569399160.08028
1569399160.09591
1569399160.11153
1569399160.12716
1569399160.14278
1569399160.15841
1569399160.17403
1569399160.18966
1569399160.20529
1569399160.22091
1569399160.23654
1569399160.25216
1569399160.26779
1569399160.28341
1569399160.29904
1569399160.31467
1569399160.33029
1569399160.34592
1569399160.36154
1569399160.37717
1569399160.39279
1569399160.40842
1569399160.42405
1569399160.43967
1569399160.4553
1569399160.47092
1569399160.48655
1569399160.50217
1569399160.5178
1569399160.53343
1569399160.54905
1569399160.56468
1569399160.5803
1569399160.59593
1569399160.61155
1569399160.62718
1569399160.64281
1569399160.65843
1569399160.67406
1569399160.68968
1569399160.70531
1569399160.72093
1569399160.73656
1569399160.75219
1569399160.76781
1569399160.78344
1569399160.79906
1569399160.81469
1569399160.83031
1569399160.84594
1569399160.86157
1569399160.87719
1569399160.89282
1569399160.90844
1569399160.92407
1569399160.9397
1569399160.95532
1569399160.97095
1569399160.98657
1569399161.0022
1569399161.01782
1569399161.03345
1569399161.04908
1569399161.0647
1569399161.08033
1569399161.09595
1569399161.11158
1569399161.1272
1569399161.14283
1569399161.15846
1569399161.17408
1569399161.18971
1569399161.20533
1569399161.22096
1569399161.23658
1569399161.25221
1569399161.26784
1569399161.28346
1569399161.29909
1569399161.31471
1569399161.33034
1569399161.34596
1569399161.36159
1569399161.37722
1569399161.39284
1569399161.40847
1569399161.42409
1569399161.43972
1569399161.45534
1569399161.47097
1569399161.4866
1569399161.50222
1569399161.51785
1569399161.53347
1569399161.5491
1569399161.56472
1569399161.58035
1569399161.59598
1569399161.6116
1569399161.62723
1569399161.64285
1569399161.65848
1569399161.6741
1569399161.68973
1569399161.70536
1569399161.72098
1569399161.73661
1569399161.75223
1569399161.76786
1569399161.78348
1569399161.79911
1569399161.81474
1569399161.83036
1569399161.84599
1569399161.86161
1569399161.87724
1569399161.89286
1569399161.90849
1569399161.92412
1569399161.93974
1569399161.95537
1569399161.97099
1569399161.98662
1569399162.00224
1569399162.01787
1569399162.0335
1569399162.04912
1569399162.06475
1569399162.08037
1569399162.096
1569399162.11162
1569399162.12725
1569399162.14288
1569399162.1585
1569399162.17413
1569399162.18975
1569399162.20538
1569399162.221
1569399162.23663
1569399162.25226
1569399162.26788
1569399162.28351
1569399162.29913
1569399162.31476
1569399162.33038
1569399162.34601
1569399162.36164
1569399162.37726
1569399162.39289
1569399162.40851
1569399162.42414
1569399162.43976
1569399162.45539
1569399162.47102
1569399162.48664
1569399162.50227
1569399162.51789
1569399162.53352
1569399162.54914
1569399162.56477
1569399162.5804
1569399162.59602
1569399162.61165
1569399162.62727
1569399162.6429
1569399162.65852
1569399162.67415
1569399162.68978
1569399162.7054
1569399162.72103
1569399162.73665
1569399162.75228
1569399162.7679
1569399162.78353
1569399162.79916
1569399162.81478
1569399162.83041
1569399162.84603
1569399162.86166
1569399162.87728
1569399162.89291
1569399162.90854
1569399162.92416
1569399162.93979
1569399162.95541
1569399162.97104
1569399162.98666
1569399163.00229
1569399163.01792
1569399163.03354
1569399163.04917
1569399163.06479
1569399163.08042
1569399163.09605
1569399163.11167
1569399163.1273
1569399163.14292
1569399163.15855
1569399163.17417
1569399163.1898
1569399163.20543
1569399163.22105
1569399163.23668
1569399163.2523
1569399163.26793
1569399163.28355
1569399163.29918
1569399163.31481
1569399163.33043
1569399163.34606
1569399163.36168
1569399163.37731
1569399163.39293
1569399163.40856
1569399163.42419
1569399163.43981
1569399163.45544
1569399163.47106
1569399163.48669
1569399163.50231
1569399163.51794
1569399163.53357
1569399163.54919
1569399163.56482
1569399163.58044
1569399163.59607
1569399163.61169
1569399163.62732
1569399163.64295
1569399163.65857
1569399163.6742
1569399163.68982
1569399163.70545
1569399163.72107
1569399163.7367
1569399163.75233
1569399163.76795
1569399163.78358
1569399163.7992
1569399163.81483
1569399163.83045
1569399163.84608
1569399163.86171
1569399163.87733
1569399163.89296
1569399163.90858
1569399163.92421
1569399163.93983
1569399163.95546
1569399163.97109
1569399163.98671
1569399164.00234
1569399164.01796
1569399164.03359
1569399164.04921
1569399164.06484
1569399164.08047
1569399164.09609
1569399164.11172
1569399164.12734
1569399164.14297
1569399164.15859
1569399164.17422
1569399164.18985
1569399164.20547
1569399164.2211
1569399164.23672
1569399164.25235
1569399164.26797
1569399164.2836
1569399164.29923
1569399164.31485
1569399164.33048
1569399164.3461
1569399164.36173
1569399164.37735
1569399164.39298
1569399164.40861
1569399164.42423
1569399164.43986
1569399164.45548
1569399164.47111
1569399164.48673
1569399164.50236
1569399164.51799
1569399164.53361
1569399164.54924
1569399164.56486
1569399164.58049
1569399164.59611
1569399164.61174
1569399164.62737
1569399164.64299
1569399164.65862
1569399164.67424
1569399164.68987
1569399164.70549
1569399164.72112
1569399164.73675
1569399164.75237
1569399164.768
1569399164.78362
1569399164.79925
1569399164.81487
1569399164.8305
1569399164.84613
1569399164.86175
1569399164.87738
1569399164.893
1569399164.90863
1569399164.92425
1569399164.93988
1569399164.95551
1569399164.97113
1569399164.98676
1569399165.00238
1569399165.01801
1569399165.03363
1569399165.04926
1569399165.06489
1569399165.08051
1569399165.09614
1569399165.11176
1569399165.12739
1569399165.14301
1569399165.15864
1569399165.17427
1569399165.18989
1569399165.20552
1569399165.22114
1569399165.23677
1569399165.25239
1569399165.26802
1569399165.28365
1569399165.29927
1569399165.3149
1569399165.33052
1569399165.34615
1569399165.36177
1569399165.3774
1569399165.39303
1569399165.40865
1569399165.42428
1569399165.4399
1569399165.45553
1569399165.47115
1569399165.48678
1569399165.50241
1569399165.51803
1569399165.53366
1569399165.54928
1569399165.56491
1569399165.58053
1569399165.59616
1569399165.61179
1569399165.62741
1569399165.64304
1569399165.65866
1569399165.67429
1569399165.68991
1569399165.70554
1569399165.72117
1569399165.73679
1569399165.75242
1569399165.76804
1569399165.78367
1569399165.7993
1569399165.81492
1569399165.83055
1569399165.84617
1569399165.8618
1569399165.87742
1569399165.89305
1569399165.90868
1569399165.9243
1569399165.93993
1569399165.95555
1569399165.97118
1569399165.9868
1569399166.00243
1569399166.01806
1569399166.03368
1569399166.04931
1569399166.06493
1569399166.08056
1569399166.09618
1569399166.11181
1569399166.12744
1569399166.14306
1569399166.15869
1569399166.17431
1569399166.18994
1569399166.20556
1569399166.22119
1569399166.23682
1569399166.25244
1569399166.26807
1569399166.28369
1569399166.29932
1569399166.31494
1569399166.33057
1569399166.3462
1569399166.36182
1569399166.37745
1569399166.39307
1569399166.4087
1569399166.42432
1569399166.43995
1569399166.45558
1569399166.4712
1569399166.48683
1569399166.50245
1569399166.51808
1569399166.5337
1569399166.54933
1569399166.56496
1569399166.58058
1569399166.59621
1569399166.61183
1569399166.62746
1569399166.64308
1569399166.65871
1569399166.67434
1569399166.68996
1569399166.70559
1569399166.72121
1569399166.73684
1569399166.75246
1569399166.76809
1569399166.78372
1569399166.79934
1569399166.81497
1569399166.83059
1569399166.84622
1569399166.86184
1569399166.87747
1569399166.8931
1569399166.90872
1569399166.92435
1569399166.93997
1569399166.9556
1569399166.97122
1569399166.98685
1569399167.00248
1569399167.0181
1569399167.03373
1569399167.04935
1569399167.06498
1569399167.0806
1569399167.09623
1569399167.11186
1569399167.12748
1569399167.14311
1569399167.15873
1569399167.17436
1569399167.18998
1569399167.20561
1569399167.22124
1569399167.23686
1569399167.25249
1569399167.26811
1569399167.28374
1569399167.29936
1569399167.31499
1569399167.33062
1569399167.34624
1569399167.36187
1569399167.37749
1569399167.39312
1569399167.40874
1569399167.42437
1569399167.44
1569399167.45562
1569399167.47125
1569399167.48687
1569399167.5025
1569399167.51812
1569399167.53375
1569399167.54938
1569399167.565
1569399167.58063
1569399167.59625
1569399167.61188
1569399167.6275
1569399167.64313
1569399167.65876
1569399167.67438
1569399167.69001
1569399167.70563
1569399167.72126
1569399167.73688
1569399167.75251
1569399167.76814
1569399167.78376
1569399167.79939
1569399167.81501
1569399167.83064
1569399167.84626
1569399167.86189
1569399167.87752
1569399167.89314
1569399167.90877
1569399167.92439
1569399167.94002
1569399167.95564
1569399167.97127
1569399167.9869
1569399168.00252
1569399168.01815
1569399168.03377
1569399168.0494
1569399168.06503
1569399168.08065
1569399168.09628
1569399168.1119
1569399168.12753
1569399168.14315
1569399168.15878
1569399168.17441
1569399168.19003
1569399168.20566
1569399168.22128
1569399168.23691
1569399168.25253
1569399168.26816
1569399168.28379
1569399168.29941
1569399168.31504
1569399168.33066
1569399168.34629
1569399168.36191
1569399168.37754
1569399168.39317
1569399168.40879
1569399168.42442
1569399168.44004
1569399168.45567
1569399168.47129
1569399168.48692
1569399168.50255
1569399168.51817
1569399168.5338
1569399168.54942
1569399168.56505
1569399168.58067
1569399168.5963
1569399168.61193
1569399168.62755
1569399168.64318
1569399168.6588
1569399168.67443
1569399168.69005
1569399168.70568
1569399168.72131
1569399168.73693
1569399168.75256
1569399168.76818
1569399168.78381
1569399168.79943
1569399168.81506
1569399168.83069
1569399168.84631
1569399168.86194
1569399168.87756
1569399168.89319
1569399168.90881
1569399168.92444
1569399168.94007
1569399168.95569
1569399168.97132
1569399168.98694
1569399169.00257
1569399169.01819
1569399169.03382
1569399169.04945
1569399169.06507
1569399169.0807
1569399169.09632
1569399169.11195
1569399169.12757
1569399169.1432
1569399169.15883
1569399169.17445
1569399169.19008
1569399169.2057
1569399169.22133
1569399169.23695
1569399169.25258
1569399169.26821
1569399169.28383
1569399169.29946
1569399169.31508
1569399169.33071
1569399169.34633
1569399169.36196
1569399169.37759
1569399169.39321
1569399169.40884
1569399169.42446
1569399169.44009
1569399169.45571
1569399169.47134
1569399169.48697
1569399169.50259
1569399169.51822
1569399169.53384
1569399169.54947
1569399169.56509
1569399169.58072
1569399169.59635
1569399169.61197
1569399169.6276
1569399169.64322
1569399169.65885
1569399169.67447
1569399169.6901
1569399169.70573
1569399169.72135
1569399169.73698
1569399169.7526
1569399169.76823
1569399169.78385
1569399169.79948
1569399169.81511
1569399169.83073
1569399169.84636
1569399169.86198
1569399169.87761
1569399169.89323
1569399169.90886
1569399169.92449
1569399169.94011
1569399169.95574
1569399169.97136
1569399169.98699
1569399170.00261
1569399170.01824
1569399170.03387
1569399170.04949
1569399170.06512
1569399170.08074
1569399170.09637
1569399170.11199
1569399170.12762
1569399170.14325
1569399170.15887
1569399170.1745
1569399170.19012
1569399170.20575
1569399170.22137
1569399170.237
1569399170.25263
1569399170.26825
1569399170.28388
1569399170.2995
1569399170.31513
1569399170.33076
1569399170.34638
1569399170.36201
1569399170.37763
1569399170.39326
1569399170.40888
1569399170.42451
1569399170.44014
1569399170.45576
1569399170.47139
1569399170.48701
1569399170.50264
1569399170.51826
1569399170.53389
1569399170.54952
1569399170.56514
1569399170.58077
1569399170.59639
1569399170.61202
1569399170.62764
1569399170.64327
1569399170.6589
1569399170.67452
1569399170.69015
1569399170.70577
1569399170.7214
1569399170.73702
1569399170.75265
1569399170.76828
1569399170.7839
1569399170.79953
1569399170.81515
1569399170.83078
1569399170.8464
1569399170.86203
1569399170.87766
1569399170.89328
1569399170.90891
1569399170.92453
1569399170.94016
1569399170.95578
1569399170.97141
1569399170.98704
1569399171.00266
1569399171.01829
1569399171.03391
1569399171.04954
1569399171.06516
1569399171.08079
1569399171.09642
1569399171.11204
1569399171.12767
1569399171.14329
1569399171.15892
1569399171.17454
1569399171.19017
1569399171.2058
1569399171.22142
1569399171.23705
1569399171.25267
1569399171.2683
1569399171.28392
1569399171.29955
1569399171.31518
1569399171.3308
1569399171.34643
1569399171.36205
1569399171.37768
1569399171.3933
1569399171.40893
1569399171.42456
1569399171.44018
1569399171.45581
1569399171.47143
1569399171.48706
1569399171.50268
1569399171.51831
1569399171.53394
1569399171.54956
1569399171.56519
1569399171.58081
1569399171.59644
1569399171.61206
1569399171.62769
1569399171.64332
1569399171.65894
1569399171.67457
1569399171.69019
1569399171.70582
1569399171.72144
1569399171.73707
1569399171.7527
1569399171.76832
1569399171.78395
1569399171.79957
1569399171.8152
1569399171.83082
1569399171.84645
1569399171.86208
1569399171.8777
1569399171.89333
1569399171.90895
1569399171.92458
1569399171.9402
1569399171.95583
1569399171.97146
1569399171.98708
1569399172.00271
1569399172.01833
1569399172.03396
1569399172.04958
1569399172.06521
1569399172.08084
1569399172.09646
1569399172.11209
1569399172.12771
1569399172.14334
1569399172.15896
1569399172.17459
1569399172.19022
1569399172.20584
1569399172.22147
1569399172.23709
1569399172.25272
1569399172.26834
1569399172.28397
1569399172.2996
1569399172.31522
1569399172.33085
1569399172.34647
1569399172.3621
1569399172.37772
1569399172.39335
1569399172.40898
1569399172.4246
1569399172.44023
1569399172.45585
1569399172.47148
1569399172.4871
1569399172.50273
1569399172.51836
1569399172.53398
1569399172.54961
1569399172.56523
1569399172.58086
1569399172.59648
1569399172.61211
1569399172.62774
1569399172.64336
1569399172.65899
1569399172.67461
1569399172.69024
1569399172.70586
1569399172.72149
1569399172.73712
1569399172.75274
1569399172.76837
1569399172.78399
1569399172.79962
1569399172.81524
1569399172.83087
1569399172.8465
1569399172.86212
1569399172.87775
1569399172.89337
1569399172.909
1569399172.92463
1569399172.94025
1569399172.95588
1569399172.9715
1569399172.98713
1569399173.00275
1569399173.01838
1569399173.03401
1569399173.04963
1569399173.06526
1569399173.08088
1569399173.09651
1569399173.11213
1569399173.12776
1569399173.14339
1569399173.15901
1569399173.17464
1569399173.19026
1569399173.20589
1569399173.22151
1569399173.23714
1569399173.25277
1569399173.26839
1569399173.28402
1569399173.29964
1569399173.31527
1569399173.33089
1569399173.34652
1569399173.36215
1569399173.37777
1569399173.3934
1569399173.40902
1569399173.42465
1569399173.44027
1569399173.4559
1569399173.47153
1569399173.48715
1569399173.50278
1569399173.5184
1569399173.53403
1569399173.54965
1569399173.56528
1569399173.58091
1569399173.59653
1569399173.61216
1569399173.62778
1569399173.64341
1569399173.65903
1569399173.67466
1569399173.69029
1569399173.70591
1569399173.72154
1569399173.73716
1569399173.75279
1569399173.76841
1569399173.78404
1569399173.79967
1569399173.81529
1569399173.83092
1569399173.84654
1569399173.86217
1569399173.87779
1569399173.89342
1569399173.90905
1569399173.92467
1569399173.9403
1569399173.95592
1569399173.97155
1569399173.98717
1569399174.0028
1569399174.01843
1569399174.03405
1569399174.04968
1569399174.0653
1569399174.08093
1569399174.09655
1569399174.11218
1569399174.12781
1569399174.14343
1569399174.15906
1569399174.17468
1569399174.19031
1569399174.20593
1569399174.22156
1569399174.23719
1569399174.25281
1569399174.26844
1569399174.28406
1569399174.29969
1569399174.31531
1569399174.33094
1569399174.34657
1569399174.36219
1569399174.37782
1569399174.39344
1569399174.40907
1569399174.42469
1569399174.44032
1569399174.45595
1569399174.47157
1569399174.4872
1569399174.50282
1569399174.51845
1569399174.53407
1569399174.5497
1569399174.56533
1569399174.58095
1569399174.59658
1569399174.6122
1569399174.62783
1569399174.64345
1569399174.65908
1569399174.67471
1569399174.69033
1569399174.70596
1569399174.72158
1569399174.73721
1569399174.75283
1569399174.76846
1569399174.78409
1569399174.79971
1569399174.81534
1569399174.83096
1569399174.84659
1569399174.86221
1569399174.87784
1569399174.89347
1569399174.90909
1569399174.92472
1569399174.94034
1569399174.95597
1569399174.97159
1569399174.98722
1569399175.00285
1569399175.01847
1569399175.0341
1569399175.04972
1569399175.06535
1569399175.08098
1569399175.0966
1569399175.11223
1569399175.12785
1569399175.14348
1569399175.1591
1569399175.17473
1569399175.19036
1569399175.20598
1569399175.22161
1569399175.23723
1569399175.25286
1569399175.26848
1569399175.28411
1569399175.29974
1569399175.31536
1569399175.33099
1569399175.34661
1569399175.36224
1569399175.37786
1569399175.39349
1569399175.40912
1569399175.42474
1569399175.44037
1569399175.45599
1569399175.47162
1569399175.48724
1569399175.50287
1569399175.5185
1569399175.53412
1569399175.54975
1569399175.56537
1569399175.581
1569399175.59662
1569399175.61225
1569399175.62788
1569399175.6435
1569399175.65913
1569399175.67475
1569399175.69038
1569399175.706
1569399175.72163
1569399175.73726
1569399175.75288
1569399175.76851
1569399175.78413
1569399175.79976
1569399175.81538
1569399175.83101
1569399175.84664
1569399175.86226
1569399175.87789
1569399175.89351
1569399175.90914
1569399175.92476
1569399175.94039
1569399175.95602
1569399175.97164
1569399175.98727
1569399176.00289
1569399176.01852
1569399176.03414
1569399176.04977
1569399176.0654
1569399176.08102
1569399176.09665
1569399176.11227
1569399176.1279
1569399176.14352
1569399176.15915
1569399176.17478
1569399176.1904
1569399176.20603
1569399176.22165
1569399176.23728
1569399176.2529
1569399176.26853
1569399176.28416
1569399176.29978
1569399176.31541
1569399176.33103
1569399176.34666
1569399176.36228
1569399176.37791
1569399176.39354
1569399176.40916
1569399176.42479
1569399176.44041
1569399176.45604
1569399176.47166
1569399176.48729
1569399176.50292
1569399176.51854
1569399176.53417
1569399176.54979
1569399176.56542
1569399176.58104
1569399176.59667
1569399176.6123
1569399176.62792
1569399176.64355
1569399176.65917
1569399176.6748
1569399176.69042
1569399176.70605
1569399176.72168
1569399176.7373
1569399176.75293
1569399176.76855
1569399176.78418
1569399176.7998
1569399176.81543
1569399176.83106
1569399176.84668
1569399176.86231
1569399176.87793
1569399176.89356
1569399176.90918
1569399176.92481
1569399176.94044
1569399176.95606
1569399176.97169
1569399176.98731
1569399177.00294
1569399177.01856
1569399177.03419
1569399177.04982
1569399177.06544
1569399177.08107
1569399177.09669
1569399177.11232
1569399177.12794
1569399177.14357
1569399177.1592
1569399177.17482
1569399177.19045
1569399177.20607
1569399177.2217
1569399177.23732
1569399177.25295
1569399177.26858
1569399177.2842
1569399177.29983
1569399177.31545
1569399177.33108
1569399177.3467
1569399177.36233
1569399177.37796
1569399177.39358
1569399177.40921
1569399177.42483
1569399177.44046
1569399177.45608
1569399177.47171
1569399177.48734
1569399177.50296
1569399177.51859
1569399177.53421
1569399177.54984
1569399177.56546
1569399177.58109
1569399177.59672
1569399177.61234
1569399177.62797
1569399177.64359
1569399177.65922
1569399177.67484
1569399177.69047
1569399177.7061
1569399177.72172
1569399177.73735
1569399177.75297
1569399177.7686
1569399177.78423
1569399177.79985
1569399177.81548
1569399177.8311
1569399177.84673
1569399177.86235
1569399177.87798
1569399177.89361
1569399177.90923
1569399177.92486
1569399177.94048
1569399177.95611
1569399177.97173
1569399177.98736
1569399178.00299
1569399178.01861
1569399178.03424
1569399178.04986
1569399178.06549
1569399178.08111
1569399178.09674
1569399178.11237
1569399178.12799
1569399178.14362
1569399178.15924
1569399178.17487
1569399178.19049
1569399178.20612
1569399178.22175
1569399178.23737
1569399178.253
1569399178.26862
1569399178.28425
1569399178.29987
1569399178.3155
1569399178.33113
1569399178.34675
1569399178.36238
1569399178.378
1569399178.39363
1569399178.40925
1569399178.42488
1569399178.44051
1569399178.45613
1569399178.47176
1569399178.48738
1569399178.50301
1569399178.51863
1569399178.53426
1569399178.54989
1569399178.56551
1569399178.58114
1569399178.59676
1569399178.61239
1569399178.62801
1569399178.64364
1569399178.65927
1569399178.67489
1569399178.69052
1569399178.70614
1569399178.72177
1569399178.73739
1569399178.75302
1569399178.76865
1569399178.78427
1569399178.7999
1569399178.81552
1569399178.83115
1569399178.84677
1569399178.8624
1569399178.87803
1569399178.89365
1569399178.90928
1569399178.9249
1569399178.94053
1569399178.95615
1569399178.97178
1569399178.98741
1569399179.00303
1569399179.01866
1569399179.03428
1569399179.04991
1569399179.06553
1569399179.08116
1569399179.09679
1569399179.11241
1569399179.12804
1569399179.14366
1569399179.15929
1569399179.17491
1569399179.19054
1569399179.20617
1569399179.22179
1569399179.23742
1569399179.25304
1569399179.26867
1569399179.28429
1569399179.29992
1569399179.31555
1569399179.33117
1569399179.3468
1569399179.36242
1569399179.37805
1569399179.39367
1569399179.4093
1569399179.42493
1569399179.44055
1569399179.45618
1569399179.4718
1569399179.48743
1569399179.50305
1569399179.51868
1569399179.53431
1569399179.54993
1569399179.56556
1569399179.58118
1569399179.59681
1569399179.61243
1569399179.62806
1569399179.64369
1569399179.65931
1569399179.67494
1569399179.69056
1569399179.70619
1569399179.72181
1569399179.73744
1569399179.75307
1569399179.76869
1569399179.78432
1569399179.79994
1569399179.81557
1569399179.83119
1569399179.84682
1569399179.86245
1569399179.87807
1569399179.8937
1569399179.90932
1569399179.92495
1569399179.94058
1569399179.9562
1569399179.97183
1569399179.98745
1569399180.00308
1569399180.0187
1569399180.03433
1569399180.04996
1569399180.06558
1569399180.08121
1569399180.09683
1569399180.11246
1569399180.12808
1569399180.14371
1569399180.15934
1569399180.17496
1569399180.19059
1569399180.20621
1569399180.22184
1569399180.23746
1569399180.25309
1569399180.26872
1569399180.28434
1569399180.29997
1569399180.31559
1569399180.33122
1569399180.34684
1569399180.36247
1569399180.3781
1569399180.39372
1569399180.40935
1569399180.42497
1569399180.4406
1569399180.45622
1569399180.47185
1569399180.48748
1569399180.5031
1569399180.51873
1569399180.53435
1569399180.54998
1569399180.5656
1569399180.58123
1569399180.59686
1569399180.61248
1569399180.62811
1569399180.64373
1569399180.65936
1569399180.67498
1569399180.69061
1569399180.70624
1569399180.72186
1569399180.73749
1569399180.75311
1569399180.76874
1569399180.78436
1569399180.79999
1569399180.81562
1569399180.83124
1569399180.84687
1569399180.86249
1569399180.87812
1569399180.89374
1569399180.90937
1569399180.925
1569399180.94062
1569399180.95625
1569399180.97187
1569399180.9875
1569399181.00312
1569399181.01875
1569399181.03438
1569399181.05
1569399181.06563
1569399181.08125
1569399181.09688
1569399181.1125
1569399181.12813
1569399181.14376
1569399181.15938
1569399181.17501
1569399181.19063
1569399181.20626
1569399181.22188
1569399181.23751
1569399181.25314
1569399181.26876
1569399181.28439
1569399181.30001
1569399181.31564
1569399181.33126
1569399181.34689
1569399181.36252
1569399181.37814
1569399181.39377
1569399181.40939
1569399181.42502
1569399181.44064
1569399181.45627
1569399181.4719
1569399181.48752
1569399181.50315
1569399181.51877
1569399181.5344
1569399181.55002
1569399181.56565
1569399181.58128
1569399181.5969
1569399181.61253
1569399181.62815
1569399181.64378
1569399181.6594
1569399181.67503
1569399181.69066
1569399181.70628
1569399181.72191
1569399181.73753
1569399181.75316
1569399181.76878
1569399181.78441
1569399181.80004
1569399181.81566
1569399181.83129
1569399181.84691
1569399181.86254
1569399181.87816
1569399181.89379
1569399181.90942
1569399181.92504
1569399181.94067
1569399181.95629
1569399181.97192
1569399181.98754
1569399182.00317
1569399182.0188
1569399182.03442
1569399182.05005
1569399182.06567
1569399182.0813
1569399182.09692
1569399182.11255
1569399182.12818
1569399182.1438
1569399182.15943
1569399182.17505
1569399182.19068
1569399182.20631
1569399182.22193
1569399182.23756
1569399182.25318
1569399182.26881
1569399182.28443
1569399182.30006
1569399182.31569
1569399182.33131
1569399182.34694
1569399182.36256
1569399182.37819
1569399182.39381
1569399182.40944
1569399182.42507
1569399182.44069
1569399182.45632
1569399182.47194
1569399182.48757
1569399182.50319
1569399182.51882
1569399182.53445
1569399182.55007
1569399182.5657
1569399182.58132
1569399182.59695
1569399182.61257
1569399182.6282
1569399182.64383
1569399182.65945
1569399182.67508
1569399182.6907
1569399182.70633
1569399182.72195
1569399182.73758
1569399182.75321
1569399182.76883
1569399182.78446
1569399182.80008
1569399182.81571
1569399182.83133
1569399182.84696
1569399182.86259
1569399182.87821
1569399182.89384
1569399182.90946
1569399182.92509
1569399182.94071
1569399182.95634
1569399182.97197
1569399182.98759
1569399183.00322
1569399183.01884
1569399183.03447
1569399183.05009
1569399183.06572
1569399183.08135
1569399183.09697
1569399183.1126
1569399183.12822
1569399183.14385
1569399183.15947
1569399183.1751
1569399183.19073
1569399183.20635
1569399183.22198
1569399183.2376
1569399183.25323
1569399183.26885
1569399183.28448
1569399183.30011
1569399183.31573
1569399183.33136
1569399183.34698
1569399183.36261
1569399183.37823
1569399183.39386
1569399183.40949
1569399183.42511
1569399183.44074
1569399183.45636
1569399183.47199
1569399183.48761
1569399183.50324
1569399183.51887
1569399183.53449
1569399183.55012
1569399183.56574
1569399183.58137
1569399183.59699
1569399183.61262
1569399183.62825
1569399183.64387
1569399183.6595
1569399183.67512
1569399183.69075
1569399183.70637
1569399183.722
1569399183.73763
1569399183.75325
1569399183.76888
1569399183.7845
1569399183.80013
1569399183.81575
1569399183.83138
1569399183.84701
1569399183.86263
1569399183.87826
1569399183.89388
1569399183.90951
1569399183.92513
1569399183.94076
1569399183.95639
1569399183.97201
1569399183.98764
1569399184.00326
1569399184.01889
1569399184.03451
1569399184.05014
1569399184.06577
1569399184.08139
1569399184.09702
1569399184.11264
1569399184.12827
1569399184.14389
1569399184.15952
1569399184.17515
1569399184.19077
1569399184.2064
1569399184.22202
1569399184.23765
1569399184.25327
1569399184.2689
1569399184.28453
1569399184.30015
1569399184.31578
1569399184.3314
1569399184.34703
1569399184.36265
1569399184.37828
1569399184.39391
1569399184.40953
1569399184.42516
1569399184.44078
1569399184.45641
1569399184.47203
1569399184.48766
1569399184.50329
1569399184.51891
1569399184.53454
1569399184.55016
1569399184.56579
1569399184.58141
1569399184.59704
1569399184.61267
1569399184.62829
1569399184.64392
1569399184.65954
1569399184.67517
1569399184.69079
1569399184.70642
1569399184.72205
1569399184.73767
1569399184.7533
1569399184.76892
1569399184.78455
1569399184.80018
1569399184.8158
1569399184.83143
1569399184.84705
1569399184.86268
1569399184.8783
1569399184.89393
1569399184.90956
1569399184.92518
1569399184.94081
1569399184.95643
1569399184.97206
1569399184.98768
1569399185.00331
1569399185.01894
1569399185.03456
1569399185.05019
1569399185.06581
1569399185.08144
1569399185.09706
1569399185.11269
1569399185.12832
1569399185.14394
1569399185.15957
1569399185.17519
1569399185.19082
1569399185.20644
1569399185.22207
1569399185.2377
1569399185.25332
1569399185.26895
1569399185.28457
1569399185.3002
1569399185.31582
1569399185.33145
1569399185.34708
1569399185.3627
1569399185.37833
1569399185.39395
1569399185.40958
1569399185.4252
1569399185.44083
1569399185.45646
1569399185.47208
1569399185.48771
1569399185.50333
1569399185.51896
1569399185.53458
1569399185.55021
1569399185.56584
1569399185.58146
1569399185.59709
1569399185.61271
1569399185.62834
1569399185.64396
1569399185.65959
1569399185.67522
1569399185.69084
1569399185.70647
1569399185.72209
1569399185.73772
1569399185.75334
1569399185.76897
1569399185.7846
1569399185.80022
1569399185.81585
1569399185.83147
1569399185.8471
1569399185.86272
1569399185.87835
1569399185.89398
1569399185.9096
1569399185.92523
1569399185.94085
1569399185.95648
1569399185.9721
1569399185.98773
1569399186.00336
1569399186.01898
1569399186.03461
1569399186.05023
1569399186.06586
1569399186.08148
1569399186.09711
1569399186.11274
1569399186.12836
1569399186.14399
1569399186.15961
1569399186.17524
1569399186.19086
1569399186.20649
1569399186.22212
1569399186.23774
1569399186.25337
1569399186.26899
1569399186.28462
1569399186.30024
1569399186.31587
1569399186.3315
1569399186.34712
1569399186.36275
1569399186.37837
1569399186.394
1569399186.40962
1569399186.42525
1569399186.44088
1569399186.4565
1569399186.47213
1569399186.48775
1569399186.50338
1569399186.519
1569399186.53463
1569399186.55026
1569399186.56588
1569399186.58151
1569399186.59713
1569399186.61276
1569399186.62838
1569399186.64401
1569399186.65964
1569399186.67526
1569399186.69089
1569399186.70651
1569399186.72214
1569399186.73776
1569399186.75339
1569399186.76902
1569399186.78464
1569399186.80027
1569399186.81589
1569399186.83152
1569399186.84714
1569399186.86277
1569399186.8784
1569399186.89402
1569399186.90965
1569399186.92527
1569399186.9409
1569399186.95652
1569399186.97215
1569399186.98778
1569399187.0034
1569399187.01903
1569399187.03465
1569399187.05028
1569399187.06591
1569399187.08153
1569399187.09716
1569399187.11278
1569399187.12841
1569399187.14403
1569399187.15966
1569399187.17529
1569399187.19091
1569399187.20654
1569399187.22216
1569399187.23779
1569399187.25341
1569399187.26904
1569399187.28467
1569399187.30029
1569399187.31592
1569399187.33154
1569399187.34717
1569399187.36279
1569399187.37842
1569399187.39405
1569399187.40967
1569399187.4253
1569399187.44092
1569399187.45655
1569399187.47217
1569399187.4878
1569399187.50343
1569399187.51905
1569399187.53468
1569399187.5503
1569399187.56593
1569399187.58155
1569399187.59718
1569399187.61281
1569399187.62843
1569399187.64406
1569399187.65968
1569399187.67531
1569399187.69093
1569399187.70656
1569399187.72219
1569399187.73781
1569399187.75344
1569399187.76906
1569399187.78469
1569399187.80031
1569399187.81594
1569399187.83157
1569399187.84719
1569399187.86282
1569399187.87844
1569399187.89407
1569399187.90969
1569399187.92532
1569399187.94095
1569399187.95657
1569399187.9722
1569399187.98782
1569399188.00345
1569399188.01907
1569399188.0347
1569399188.05033
1569399188.06595
1569399188.08158
1569399188.0972
1569399188.11283
1569399188.12845
1569399188.14408
1569399188.15971
1569399188.17533
1569399188.19096
1569399188.20658
1569399188.22221
1569399188.23783
1569399188.25346
1569399188.26909
1569399188.28471
1569399188.30034
1569399188.31596
1569399188.33159
1569399188.34721
1569399188.36284
1569399188.37847
1569399188.39409
1569399188.40972
1569399188.42534
1569399188.44097
1569399188.45659
1569399188.47222
1569399188.48785
1569399188.50347
1569399188.5191
1569399188.53472
1569399188.55035
1569399188.56597
1569399188.5816
1569399188.59723
1569399188.61285
1569399188.62848
1569399188.6441
1569399188.65973
1569399188.67535
1569399188.69098
1569399188.70661
1569399188.72223
1569399188.73786
1569399188.75348
1569399188.76911
1569399188.78473
1569399188.80036
1569399188.81599
1569399188.83161
1569399188.84724
1569399188.86286
1569399188.87849
1569399188.89411
1569399188.90974
1569399188.92537
1569399188.94099
1569399188.95662
1569399188.97224
1569399188.98787
1569399189.00349
1569399189.01912
1569399189.03475
1569399189.05037
1569399189.066
1569399189.08162
1569399189.09725
1569399189.11287
1569399189.1285
1569399189.14413
1569399189.15975
1569399189.17538
1569399189.191
1569399189.20663
1569399189.22225
1569399189.23788
1569399189.25351
1569399189.26913
1569399189.28476
1569399189.30038
1569399189.31601
1569399189.33164
1569399189.34726
1569399189.36289
1569399189.37851
1569399189.39414
1569399189.40976
1569399189.42539
1569399189.44102
1569399189.45664
1569399189.47227
1569399189.48789
1569399189.50352
1569399189.51914
1569399189.53477
1569399189.5504
1569399189.56602
1569399189.58165
1569399189.59727
1569399189.6129
1569399189.62852
1569399189.64415
1569399189.65978
1569399189.6754
1569399189.69103
1569399189.70665
1569399189.72228
1569399189.7379
1569399189.75353
1569399189.76916
1569399189.78478
1569399189.80041
1569399189.81603
1569399189.83166
1569399189.84728
1569399189.86291
1569399189.87854
1569399189.89416
1569399189.90979
1569399189.92541
1569399189.94104
1569399189.95666
1569399189.97229
1569399189.98792
1569399190.00354
1569399190.01917
1569399190.03479
1569399190.05042
1569399190.06604
1569399190.08167
1569399190.0973
1569399190.11292
1569399190.12855
1569399190.14417
1569399190.1598
1569399190.17542
1569399190.19105
1569399190.20668
1569399190.2223
1569399190.23793
1569399190.25355
1569399190.26918
1569399190.2848
1569399190.30043
1569399190.31606
1569399190.33168
1569399190.34731
1569399190.36293
1569399190.37856
1569399190.39418
1569399190.40981
1569399190.42544
1569399190.44106
1569399190.45669
1569399190.47231
1569399190.48794
1569399190.50356
1569399190.51919
1569399190.53482
1569399190.55044
1569399190.56607
1569399190.58169
1569399190.59732
1569399190.61294
1569399190.62857
1569399190.6442
1569399190.65982
1569399190.67545
1569399190.69107
1569399190.7067
1569399190.72232
1569399190.73795
1569399190.75358
1569399190.7692
1569399190.78483
1569399190.80045
1569399190.81608
1569399190.8317
1569399190.84733
1569399190.86296
1569399190.87858
1569399190.89421
1569399190.90983
1569399190.92546
1569399190.94108
1569399190.95671
1569399190.97234
1569399190.98796
1569399191.00359
1569399191.01921
1569399191.03484
1569399191.05046
1569399191.06609
1569399191.08172
1569399191.09734
1569399191.11297
1569399191.12859
1569399191.14422
1569399191.15984
1569399191.17547
1569399191.1911
1569399191.20672
1569399191.22235
1569399191.23797
1569399191.2536
1569399191.26922
1569399191.28485
1569399191.30048
1569399191.3161
1569399191.33173
1569399191.34735
1569399191.36298
1569399191.3786
1569399191.39423
1569399191.40986
1569399191.42548
1569399191.44111
1569399191.45673
1569399191.47236
1569399191.48798
1569399191.50361
1569399191.51924
1569399191.53486
1569399191.55049
1569399191.56611
1569399191.58174
1569399191.59736
1569399191.61299
1569399191.62862
1569399191.64424
1569399191.65987
1569399191.67549
1569399191.69112
1569399191.70674
1569399191.72237
1569399191.738
1569399191.75362
1569399191.76925
1569399191.78487
1569399191.8005
1569399191.81612
1569399191.83175
1569399191.84738
1569399191.863
1569399191.87863
1569399191.89425
1569399191.90988
1569399191.92551
1569399191.94113
1569399191.95676
1569399191.97238
1569399191.98801
1569399192.00363
1569399192.01926
1569399192.03489
1569399192.05051
1569399192.06614
1569399192.08176
1569399192.09739
1569399192.11301
1569399192.12864
1569399192.14427
1569399192.15989
1569399192.17552
1569399192.19114
1569399192.20677
1569399192.22239
1569399192.23802
1569399192.25365
1569399192.26927
1569399192.2849
1569399192.30052
1569399192.31615
1569399192.33177
1569399192.3474
1569399192.36303
1569399192.37865
1569399192.39428
1569399192.4099
1569399192.42553
1569399192.44115
1569399192.45678
1569399192.47241
1569399192.48803
1569399192.50366
1569399192.51928
1569399192.53491
1569399192.55053
1569399192.56616
1569399192.58179
1569399192.59741
1569399192.61304
1569399192.62866
1569399192.64429
1569399192.65991
1569399192.67554
1569399192.69117
1569399192.70679
1569399192.72242
1569399192.73804
1569399192.75367
1569399192.76929
1569399192.78492
1569399192.80055
1569399192.81617
1569399192.8318
1569399192.84742
1569399192.86305
1569399192.87867
1569399192.8943
1569399192.90993
1569399192.92555
1569399192.94118
1569399192.9568
1569399192.97243
1569399192.98805
1569399193.00368
1569399193.01931
1569399193.03493
1569399193.05056
1569399193.06618
1569399193.08181
1569399193.09743
1569399193.11306
1569399193.12869
1569399193.14431
1569399193.15994
1569399193.17556
1569399193.19119
1569399193.20681
1569399193.22244
1569399193.23807
1569399193.25369
1569399193.26932
1569399193.28494
1569399193.30057
1569399193.31619
1569399193.33182
1569399193.34745
1569399193.36307
1569399193.3787
1569399193.39432
1569399193.40995
1569399193.42557
1569399193.4412
1569399193.45683
1569399193.47245
1569399193.48808
1569399193.5037
1569399193.51933
1569399193.53495
1569399193.55058
1569399193.56621
1569399193.58183
1569399193.59746
1569399193.61308
1569399193.62871
1569399193.64433
1569399193.65996
1569399193.67559
1569399193.69121
1569399193.70684
1569399193.72246
1569399193.73809
1569399193.75371
1569399193.76934
1569399193.78497
1569399193.80059
1569399193.81622
1569399193.83184
1569399193.84747
1569399193.86309
1569399193.87872
1569399193.89435
1569399193.90997
1569399193.9256
1569399193.94122
1569399193.95685
1569399193.97247
1569399193.9881
1569399194.00373
1569399194.01935
1569399194.03498
1569399194.0506
1569399194.06623
1569399194.08186
1569399194.09748
1569399194.11311
1569399194.12873
1569399194.14436
1569399194.15998
1569399194.17561
1569399194.19124
1569399194.20686
1569399194.22249
1569399194.23811
1569399194.25374
1569399194.26936
1569399194.28499
1569399194.30062
1569399194.31624
1569399194.33187
1569399194.34749
1569399194.36312
1569399194.37874
1569399194.39437
1569399194.41
1569399194.42562
1569399194.44125
1569399194.45687
1569399194.4725
1569399194.48812
1569399194.50375
1569399194.51938
1569399194.535
1569399194.55063
1569399194.56625
1569399194.58188
1569399194.5975
1569399194.61313
1569399194.62876
1569399194.64438
1569399194.66001
1569399194.67563
1569399194.69126
1569399194.70688
1569399194.72251
1569399194.73814
1569399194.75376
1569399194.76939
1569399194.78501
1569399194.80064
1569399194.81626
1569399194.83189
1569399194.84752
1569399194.86314
1569399194.87877
1569399194.89439
1569399194.91002
1569399194.92564
1569399194.94127
1569399194.9569
1569399194.97252
1569399194.98815
1569399195.00377
1569399195.0194
1569399195.03502
1569399195.05065
1569399195.06628
1569399195.0819
1569399195.09753
1569399195.11315
1569399195.12878
1569399195.1444
1569399195.16003
1569399195.17566
1569399195.19128
1569399195.20691
1569399195.22253
1569399195.23816
1569399195.25378
1569399195.26941
1569399195.28504
1569399195.30066
1569399195.31629
1569399195.33191
1569399195.34754
1569399195.36316
1569399195.37879
1569399195.39442
1569399195.41004
1569399195.42567
1569399195.44129
1569399195.45692
1569399195.47254
1569399195.48817
1569399195.5038
1569399195.51942
1569399195.53505
1569399195.55067
1569399195.5663
1569399195.58192
1569399195.59755
1569399195.61318
1569399195.6288
1569399195.64443
1569399195.66005
1569399195.67568
1569399195.6913
1569399195.70693
1569399195.72256
1569399195.73818
1569399195.75381
1569399195.76943
1569399195.78506
1569399195.80068
1569399195.81631
1569399195.83194
1569399195.84756
1569399195.86319
1569399195.87881
1569399195.89444
1569399195.91006
1569399195.92569
1569399195.94132
1569399195.95694
1569399195.97257
1569399195.98819
1569399196.00382
1569399196.01944
1569399196.03507
1569399196.0507
1569399196.06632
1569399196.08195
1569399196.09757
1569399196.1132
1569399196.12882
1569399196.14445
1569399196.16008
1569399196.1757
1569399196.19133
1569399196.20695
1569399196.22258
1569399196.2382
1569399196.25383
1569399196.26946
1569399196.28508
1569399196.30071
1569399196.31633
1569399196.33196
1569399196.34758
1569399196.36321
1569399196.37884
1569399196.39446
1569399196.41009
1569399196.42571
1569399196.44134
1569399196.45696
1569399196.47259
1569399196.48822
1569399196.50384
1569399196.51947
1569399196.53509
1569399196.55072
1569399196.56634
1569399196.58197
1569399196.5976
1569399196.61322
1569399196.62885
1569399196.64447
1569399196.6601
1569399196.67572
1569399196.69135
1569399196.70698
1569399196.7226
1569399196.73823
1569399196.75385
1569399196.76948
1569399196.78511
1569399196.80073
1569399196.81636
1569399196.83198
1569399196.84761
1569399196.86323
1569399196.87886
1569399196.89449
1569399196.91011
1569399196.92574
1569399196.94136
1569399196.95699
1569399196.97261
1569399196.98824
1569399197.00387
1569399197.01949
1569399197.03512
1569399197.05074
1569399197.06637
1569399197.08199
1569399197.09762
1569399197.11325
1569399197.12887
1569399197.1445
1569399197.16012
1569399197.17575
1569399197.19137
1569399197.207
1569399197.22263
1569399197.23825
1569399197.25388
1569399197.2695
1569399197.28513
1569399197.30075
1569399197.31638
1569399197.33201
1569399197.34763
1569399197.36326
1569399197.37888
1569399197.39451
1569399197.41013
1569399197.42576
1569399197.44139
1569399197.45701
1569399197.47264
1569399197.48826
1569399197.50389
1569399197.51951
1569399197.53514
1569399197.55077
1569399197.56639
1569399197.58202
1569399197.59764
1569399197.61327
1569399197.62889
1569399197.64452
1569399197.66015
1569399197.67577
1569399197.6914
1569399197.70702
1569399197.72265
1569399197.73827
1569399197.7539
1569399197.76953
1569399197.78515
1569399197.80078
1569399197.8164
1569399197.83203
1569399197.84765
1569399197.86328
1569399197.87891
1569399197.89453
1569399197.91016
1569399197.92578
1569399197.94141
1569399197.95703
1569399197.97266
1569399197.98829
1569399198.00391
1569399198.01954
1569399198.03516
1569399198.05079
1569399198.06641
1569399198.08204
1569399198.09767
1569399198.11329
1569399198.12892
1569399198.14454
1569399198.16017
1569399198.17579
1569399198.19142
1569399198.20705
1569399198.22267
1569399198.2383
1569399198.25392
1569399198.26955
1569399198.28517
1569399198.3008
1569399198.31643
1569399198.33205
1569399198.34768
1569399198.3633
1569399198.37893
1569399198.39455
1569399198.41018
1569399198.42581
1569399198.44143
1569399198.45706
1569399198.47268
1569399198.48831
1569399198.50393
1569399198.51956
1569399198.53519
1569399198.55081
1569399198.56644
1569399198.58206
1569399198.59769
1569399198.61331
1569399198.62894
1569399198.64457
1569399198.66019
1569399198.67582
1569399198.69144
1569399198.70707
1569399198.72269
1569399198.73832
1569399198.75395
1569399198.76957
1569399198.7852
1569399198.80082
1569399198.81645
1569399198.83207
1569399198.8477
1569399198.86333
1569399198.87895
1569399198.89458
1569399198.9102
1569399198.92583
1569399198.94145
1569399198.95708
1569399198.97271
1569399198.98833
1569399199.00396
1569399199.01958
1569399199.03521
1569399199.05084
1569399199.06646
1569399199.08209
1569399199.09771
1569399199.11334
1569399199.12896
1569399199.14459
1569399199.16022
1569399199.17584
1569399199.19147
1569399199.20709
1569399199.22272
1569399199.23834
1569399199.25397
1569399199.2696
1569399199.28522
1569399199.30085
1569399199.31647
1569399199.3321
1569399199.34772
1569399199.36335
1569399199.37898
1569399199.3946
1569399199.41023
1569399199.42585
1569399199.44148
1569399199.4571
1569399199.47273
1569399199.48836
1569399199.50398
1569399199.51961
1569399199.53523
1569399199.55086
1569399199.56648
1569399199.58211
1569399199.59774
1569399199.61336
1569399199.62899
1569399199.64461
1569399199.66024
1569399199.67586
1569399199.69149
1569399199.70712
1569399199.72274
1569399199.73837
1569399199.75399
1569399199.76962
1569399199.78524
1569399199.80087
1569399199.8165
1569399199.83212
1569399199.84775
1569399199.86337
1569399199.879
1569399199.89462
1569399199.91025
1569399199.92588
1569399199.9415
1569399199.95713
1569399199.97275
1569399199.98838
1569399200.004
1569399200.01963
1569399200.03526
1569399200.05088
1569399200.06651
1569399200.08213
1569399200.09776
1569399200.11338
1569399200.12901
1569399200.14464
1569399200.16026
1569399200.17589
1569399200.19151
1569399200.20714
1569399200.22276
1569399200.23839
1569399200.25402
1569399200.26964
1569399200.28527
1569399200.30089
1569399200.31652
1569399200.33214
1569399200.34777
1569399200.3634
1569399200.37902
1569399200.39465
1569399200.41027
1569399200.4259
1569399200.44152
1569399200.45715
1569399200.47278
1569399200.4884
1569399200.50403
1569399200.51965
1569399200.53528
1569399200.5509
1569399200.56653
1569399200.58216
1569399200.59778
1569399200.61341
1569399200.62903
1569399200.64466
1569399200.66028
1569399200.67591
1569399200.69154
1569399200.70716
1569399200.72279
1569399200.73841
1569399200.75404
1569399200.76966
1569399200.78529
1569399200.80092
1569399200.81654
1569399200.83217
1569399200.84779
1569399200.86342
1569399200.87904
1569399200.89467
1569399200.9103
1569399200.92592
1569399200.94155
1569399200.95717
1569399200.9728
1569399200.98842
1569399201.00405
1569399201.01968
1569399201.0353
1569399201.05093
1569399201.06655
1569399201.08218
1569399201.0978
1569399201.11343
1569399201.12906
1569399201.14468
1569399201.16031
1569399201.17593
1569399201.19156
1569399201.20719
1569399201.22281
1569399201.23844
1569399201.25406
1569399201.26969
1569399201.28531
1569399201.30094
1569399201.31657
1569399201.33219
1569399201.34782
1569399201.36344
1569399201.37907
1569399201.39469
1569399201.41032
1569399201.42595
1569399201.44157
1569399201.4572
1569399201.47282
1569399201.48845
1569399201.50407
1569399201.5197
1569399201.53533
1569399201.55095
1569399201.56658
1569399201.5822
1569399201.59783
1569399201.61345
1569399201.62908
1569399201.64471
1569399201.66033
1569399201.67596
1569399201.69158
1569399201.70721
1569399201.72283
1569399201.73846
1569399201.75409
1569399201.76971
1569399201.78534
1569399201.80096
1569399201.81659
1569399201.83221
1569399201.84784
1569399201.86347
1569399201.87909
1569399201.89472
1569399201.91034
1569399201.92597
1569399201.94159
1569399201.95722
1569399201.97285
1569399201.98847
1569399202.0041
1569399202.01972
1569399202.03535
1569399202.05097
1569399202.0666
1569399202.08223
1569399202.09785
1569399202.11348
1569399202.1291
1569399202.14473
1569399202.16035
1569399202.17598
1569399202.19161
1569399202.20723
1569399202.22286
1569399202.23848
1569399202.25411
1569399202.26973
1569399202.28536
1569399202.30099
1569399202.31661
1569399202.33224
1569399202.34786
1569399202.36349
1569399202.37911
1569399202.39474
1569399202.41037
1569399202.42599
1569399202.44162
1569399202.45724
1569399202.47287
1569399202.48849
1569399202.50412
1569399202.51975
1569399202.53537
1569399202.551
1569399202.56662
1569399202.58225
1569399202.59787
1569399202.6135
1569399202.62913
1569399202.64475
1569399202.66038
1569399202.676
1569399202.69163
1569399202.70725
1569399202.72288
1569399202.73851
1569399202.75413
1569399202.76976
1569399202.78538
1569399202.80101
1569399202.81663
1569399202.83226
1569399202.84789
1569399202.86351
1569399202.87914
1569399202.89476
1569399202.91039
1569399202.92601
1569399202.94164
1569399202.95727
1569399202.97289
1569399202.98852
1569399203.00414
1569399203.01977
1569399203.03539
1569399203.05102
1569399203.06665
1569399203.08227
1569399203.0979
1569399203.11352
1569399203.12915
1569399203.14477
1569399203.1604
1569399203.17603
1569399203.19165
1569399203.20728
1569399203.2229
1569399203.23853
1569399203.25415
1569399203.26978
1569399203.28541
1569399203.30103
1569399203.31666
1569399203.33228
1569399203.34791
1569399203.36353
1569399203.37916
1569399203.39479
1569399203.41041
1569399203.42604
1569399203.44166
1569399203.45729
1569399203.47291
1569399203.48854
1569399203.50417
1569399203.51979
1569399203.53542
1569399203.55104
1569399203.56667
1569399203.58229
1569399203.59792
1569399203.61355
1569399203.62917
1569399203.6448
1569399203.66042
1569399203.67605
1569399203.69167
1569399203.7073
1569399203.72293
1569399203.73855
1569399203.75418
1569399203.7698
1569399203.78543
1569399203.80105
1569399203.81668
1569399203.83231
1569399203.84793
1569399203.86356
1569399203.87918
1569399203.89481
1569399203.91044
1569399203.92606
1569399203.94169
1569399203.95731
1569399203.97294
1569399203.98856
1569399204.00419
1569399204.01982
1569399204.03544
1569399204.05107
1569399204.06669
1569399204.08232
1569399204.09794
1569399204.11357
1569399204.1292
1569399204.14482
1569399204.16045
1569399204.17607
1569399204.1917
1569399204.20732
1569399204.22295
1569399204.23858
1569399204.2542
1569399204.26983
1569399204.28545
1569399204.30108
1569399204.3167
1569399204.33233
1569399204.34796
1569399204.36358
1569399204.37921
1569399204.39483
1569399204.41046
1569399204.42608
1569399204.44171
1569399204.45734
1569399204.47296
1569399204.48859
1569399204.50421
1569399204.51984
1569399204.53546
1569399204.55109
1569399204.56672
1569399204.58234
1569399204.59797
1569399204.61359
1569399204.62922
1569399204.64484
1569399204.66047
1569399204.6761
1569399204.69172
1569399204.70735
1569399204.72297
1569399204.7386
1569399204.75422
1569399204.76985
1569399204.78548
1569399204.8011
1569399204.81673
1569399204.83235
1569399204.84798
1569399204.8636
1569399204.87923
1569399204.89486
1569399204.91048
1569399204.92611
1569399204.94173
1569399204.95736
1569399204.97298
1569399204.98861
1569399205.00424
1569399205.01986
1569399205.03549
1569399205.05111
1569399205.06674
1569399205.08236
1569399205.09799
1569399205.11362
1569399205.12924
1569399205.14487
1569399205.16049
1569399205.17612
1569399205.19174
1569399205.20737
1569399205.223
1569399205.23862
1569399205.25425
1569399205.26987
1569399205.2855
1569399205.30112
1569399205.31675
1569399205.33238
1569399205.348
1569399205.36363
1569399205.37925
1569399205.39488
1569399205.4105
1569399205.42613
1569399205.44176
1569399205.45738
1569399205.47301
1569399205.48863
1569399205.50426
1569399205.51988
1569399205.53551
1569399205.55114
1569399205.56676
1569399205.58239
1569399205.59801
1569399205.61364
1569399205.62926
1569399205.64489
1569399205.66052
1569399205.67614
1569399205.69177
1569399205.70739
1569399205.72302
1569399205.73864
1569399205.75427
1569399205.7699
1569399205.78552
1569399205.80115
1569399205.81677
1569399205.8324
1569399205.84802
1569399205.86365
1569399205.87928
1569399205.8949
1569399205.91053
1569399205.92615
1569399205.94178
1569399205.9574
1569399205.97303
1569399205.98866
1569399206.00428
1569399206.01991
1569399206.03553
1569399206.05116
1569399206.06679
1569399206.08241
1569399206.09804
1569399206.11366
1569399206.12929
1569399206.14491
1569399206.16054
1569399206.17617
1569399206.19179
1569399206.20742
1569399206.22304
1569399206.23867
1569399206.25429
1569399206.26992
1569399206.28555
1569399206.30117
1569399206.3168
1569399206.33242
1569399206.34805
1569399206.36367
1569399206.3793
1569399206.39493
1569399206.41055
1569399206.42618
1569399206.4418
1569399206.45743
1569399206.47305
1569399206.48868
1569399206.50431
1569399206.51993
1569399206.53556
1569399206.55118
1569399206.56681
1569399206.58243
1569399206.59806
1569399206.61369
1569399206.62931
1569399206.64494
1569399206.66056
1569399206.67619
1569399206.69181
1569399206.70744
1569399206.72307
1569399206.73869
1569399206.75432
1569399206.76994
1569399206.78557
1569399206.80119
1569399206.81682
1569399206.83245
1569399206.84807
1569399206.8637
1569399206.87932
1569399206.89495
1569399206.91057
1569399206.9262
1569399206.94183
1569399206.95745
1569399206.97308
1569399206.9887
1569399207.00433
1569399207.01995
1569399207.03558
1569399207.05121
1569399207.06683
1569399207.08246
1569399207.09808
1569399207.11371
1569399207.12933
1569399207.14496
1569399207.16059
1569399207.17621
1569399207.19184
1569399207.20746
1569399207.22309
1569399207.23871
1569399207.25434
1569399207.26997
1569399207.28559
1569399207.30122
1569399207.31684
1569399207.33247
1569399207.34809
1569399207.36372
1569399207.37935
1569399207.39497
1569399207.4106
1569399207.42622
1569399207.44185
1569399207.45747
1569399207.4731
1569399207.48873
1569399207.50435
1569399207.51998
1569399207.5356
1569399207.55123
1569399207.56685
1569399207.58248
1569399207.59811
1569399207.61373
1569399207.62936
1569399207.64498
1569399207.66061
1569399207.67623
1569399207.69186
1569399207.70749
1569399207.72311
1569399207.73874
1569399207.75436
1569399207.76999
1569399207.78561
1569399207.80124
1569399207.81687
1569399207.83249
1569399207.84812
1569399207.86374
1569399207.87937
1569399207.89499
1569399207.91062
1569399207.92625
1569399207.94187
1569399207.9575
1569399207.97312
1569399207.98875
1569399208.00437
1569399208.02
1569399208.03563
1569399208.05125
1569399208.06688
1569399208.0825
1569399208.09813
1569399208.11375
1569399208.12938
1569399208.14501
1569399208.16063
1569399208.17626
1569399208.19188
1569399208.20751
1569399208.22313
1569399208.23876
1569399208.25439
1569399208.27001
1569399208.28564
1569399208.30126
1569399208.31689
1569399208.33252
1569399208.34814
1569399208.36377
1569399208.37939
1569399208.39502
1569399208.41064
1569399208.42627
1569399208.4419
1569399208.45752
1569399208.47315
1569399208.48877
1569399208.5044
1569399208.52002
1569399208.53565
1569399208.55128
1569399208.5669
1569399208.58253
1569399208.59815
1569399208.61378
1569399208.6294
1569399208.64503
1569399208.66066
1569399208.67628
1569399208.69191
1569399208.70753
1569399208.72316
1569399208.73878
1569399208.75441
1569399208.77004
1569399208.78566
1569399208.80129
1569399208.81691
1569399208.83254
1569399208.84816
1569399208.86379
1569399208.87942
1569399208.89504
1569399208.91067
1569399208.92629
1569399208.94192
1569399208.95754
1569399208.97317
1569399208.9888
1569399209.00442
1569399209.02005
1569399209.03567
1569399209.0513
1569399209.06692
1569399209.08255
1569399209.09818
1569399209.1138
1569399209.12943
1569399209.14505
1569399209.16068
1569399209.1763
1569399209.19193
1569399209.20756
1569399209.22318
1569399209.23881
1569399209.25443
1569399209.27006
1569399209.28568
1569399209.30131
1569399209.31694
1569399209.33256
1569399209.34819
1569399209.36381
1569399209.37944
1569399209.39506
1569399209.41069
1569399209.42632
1569399209.44194
1569399209.45757
1569399209.47319
1569399209.48882
1569399209.50444
1569399209.52007
1569399209.5357
1569399209.55132
1569399209.56695
1569399209.58257
1569399209.5982
1569399209.61382
1569399209.62945
1569399209.64508
1569399209.6607
1569399209.67633
1569399209.69195
1569399209.70758
1569399209.7232
1569399209.73883
1569399209.75446
1569399209.77008
1569399209.78571
1569399209.80133
1569399209.81696
1569399209.83258
1569399209.84821
1569399209.86384
1569399209.87946
1569399209.89509
1569399209.91071
1569399209.92634
1569399209.94196
1569399209.95759
1569399209.97322
1569399209.98884
1569399210.00447
1569399210.02009
1569399210.03572
1569399210.05134
1569399210.06697
1569399210.0826
1569399210.09822
1569399210.11385
1569399210.12947
1569399210.1451
1569399210.16072
1569399210.17635
1569399210.19198
1569399210.2076
1569399210.22323
1569399210.23885
1569399210.25448
1569399210.2701
1569399210.28573
1569399210.30136
1569399210.31698
1569399210.33261
1569399210.34823
1569399210.36386
1569399210.37948
1569399210.39511
1569399210.41074
1569399210.42636
1569399210.44199
1569399210.45761
1569399210.47324
1569399210.48886
1569399210.50449
1569399210.52012
1569399210.53574
1569399210.55137
1569399210.56699
1569399210.58262
1569399210.59824
1569399210.61387
1569399210.6295
1569399210.64512
1569399210.66075
1569399210.67637
1569399210.692
1569399210.70762
1569399210.72325
1569399210.73888
1569399210.7545
1569399210.77013
1569399210.78575
1569399210.80138
1569399210.817
1569399210.83263
1569399210.84826
1569399210.86388
1569399210.87951
1569399210.89513
1569399210.91076
1569399210.92639
1569399210.94201
1569399210.95764
1569399210.97326
1569399210.98889
1569399211.00451
1569399211.02014
1569399211.03577
1569399211.05139
1569399211.06702
1569399211.08264
1569399211.09827
1569399211.11389
1569399211.12952
1569399211.14515
1569399211.16077
1569399211.1764
1569399211.19202
1569399211.20765
1569399211.22327
1569399211.2389
1569399211.25453
1569399211.27015
1569399211.28578
1569399211.3014
1569399211.31703
1569399211.33265
1569399211.34828
1569399211.36391
1569399211.37953
1569399211.39516
1569399211.41078
1569399211.42641
1569399211.44203
1569399211.45766
1569399211.47329
1569399211.48891
1569399211.50454
1569399211.52016
1569399211.53579
1569399211.55141
1569399211.56704
1569399211.58267
1569399211.59829
1569399211.61392
1569399211.62954
1569399211.64517
1569399211.66079
1569399211.67642
1569399211.69205
1569399211.70767
1569399211.7233
1569399211.73892
1569399211.75455
1569399211.77017
1569399211.7858
1569399211.80143
1569399211.81705
1569399211.83268
1569399211.8483
1569399211.86393
1569399211.87955
1569399211.89518
1569399211.91081
1569399211.92643
1569399211.94206
1569399211.95768
1569399211.97331
1569399211.98893
1569399212.00456
1569399212.02019
1569399212.03581
1569399212.05144
1569399212.06706
1569399212.08269
1569399212.09831
1569399212.11394
1569399212.12957
1569399212.14519
1569399212.16082
1569399212.17644
1569399212.19207
1569399212.20769
1569399212.22332
1569399212.23895
1569399212.25457
1569399212.2702
1569399212.28582
1569399212.30145
1569399212.31707
1569399212.3327
1569399212.34833
1569399212.36395
1569399212.37958
1569399212.3952
1569399212.41083
1569399212.42645
1569399212.44208
1569399212.45771
1569399212.47333
1569399212.48896
1569399212.50458
1569399212.52021
1569399212.53583
1569399212.55146
1569399212.56709
1569399212.58271
1569399212.59834
1569399212.61396
1569399212.62959
1569399212.64521
1569399212.66084
1569399212.67647
1569399212.69209
1569399212.70772
1569399212.72334
1569399212.73897
1569399212.75459
1569399212.77022
1569399212.78585
1569399212.80147
1569399212.8171
1569399212.83272
1569399212.84835
1569399212.86397
1569399212.8796
1569399212.89523
1569399212.91085
1569399212.92648
1569399212.9421
1569399212.95773
1569399212.97335
1569399212.98898
1569399213.00461
1569399213.02023
1569399213.03586
1569399213.05148
1569399213.06711
1569399213.08273
1569399213.09836
1569399213.11399
1569399213.12961
1569399213.14524
1569399213.16086
1569399213.17649
1569399213.19212
1569399213.20774
1569399213.22337
1569399213.23899
1569399213.25462
1569399213.27024
1569399213.28587
1569399213.3015
1569399213.31712
1569399213.33275
1569399213.34837
1569399213.364
1569399213.37962
1569399213.39525
1569399213.41088
1569399213.4265
1569399213.44213
1569399213.45775
1569399213.47338
1569399213.489
1569399213.50463
1569399213.52026
1569399213.53588
1569399213.55151
1569399213.56713
1569399213.58276
1569399213.59838
1569399213.61401
1569399213.62964
1569399213.64526
1569399213.66089
1569399213.67651
1569399213.69214
1569399213.70776
1569399213.72339
1569399213.73902
1569399213.75464
1569399213.77027
1569399213.78589
1569399213.80152
1569399213.81714
1569399213.83277
1569399213.8484
1569399213.86402
1569399213.87965
1569399213.89527
1569399213.9109
1569399213.92652
1569399213.94215
1569399213.95778
1569399213.9734
1569399213.98903
