1569397428.90635
1569397428.92198
1569397428.93761
1569397428.95323
1569397428.96886
1569397428.98448
1569397429.00011
1569397429.01573
1569397429.03136
1569397429.04699
1569397429.06261
1569397429.07824
1569397429.09386
1569397429.10949
1569397429.12511
1569397429.14074
1569397429.15637
1569397429.17199
1569397429.18762
1569397429.20324
1569397429.21887
1569397429.23449
1569397429.25012
1569397429.26575
1569397429.28137
1569397429.297
1569397429.31262
1569397429.32825
1569397429.34387
1569397429.3595
1569397429.37513
1569397429.39075
1569397429.40638
1569397429.422
1569397429.43763
1569397429.45325
1569397429.46888
1569397429.48451
1569397429.50013
1569397429.51576
1569397429.53138
1569397429.54701
1569397429.56264
1569397429.57826
1569397429.59389
1569397429.60951
1569397429.62514
1569397429.64076
1569397429.65639
1569397429.67202
1569397429.68764
1569397429.70327
1569397429.71889
1569397429.73452
1569397429.75014
1569397429.76577
1569397429.7814
1569397429.79702
1569397429.81265
1569397429.82827
1569397429.8439
1569397429.85952
1569397429.87515
1569397429.89078
1569397429.9064
1569397429.92203
1569397429.93765
1569397429.95328
1569397429.9689
1569397429.98453
1569397430.00016
1569397430.01578
1569397430.03141
1569397430.04703
1569397430.06266
1569397430.07828
1569397430.09391
1569397430.10954
1569397430.12516
1569397430.14079
1569397430.15641
1569397430.17204
1569397430.18766
1569397430.20329
1569397430.21892
1569397430.23454
1569397430.25017
1569397430.26579
1569397430.28142
1569397430.29704
1569397430.31267
1569397430.3283
1569397430.34392
1569397430.35955
1569397430.37517
1569397430.3908
1569397430.40642
1569397430.42205
1569397430.43768
1569397430.4533
1569397430.46893
1569397430.48455
1569397430.50018
1569397430.5158
1569397430.53143
1569397430.54706
1569397430.56268
1569397430.57831
1569397430.59393
1569397430.60956
1569397430.62518
1569397430.64081
1569397430.65644
1569397430.67206
1569397430.68769
1569397430.70331
1569397430.71894
1569397430.73456
1569397430.75019
1569397430.76582
1569397430.78144
1569397430.79707
1569397430.81269
1569397430.82832
1569397430.84394
1569397430.85957
1569397430.8752
1569397430.89082
1569397430.90645
1569397430.92207
1569397430.9377
1569397430.95332
1569397430.96895
1569397430.98458
1569397431.0002
1569397431.01583
1569397431.03145
1569397431.04708
1569397431.0627
1569397431.07833
1569397431.09396
1569397431.10958
1569397431.12521
1569397431.14083
1569397431.15646
1569397431.17208
1569397431.18771
1569397431.20334
1569397431.21896
1569397431.23459
1569397431.25021
1569397431.26584
1569397431.28146
1569397431.29709
1569397431.31272
1569397431.32834
1569397431.34397
1569397431.35959
1569397431.37522
1569397431.39084
1569397431.40647
1569397431.4221
1569397431.43772
1569397431.45335
1569397431.46897
1569397431.4846
1569397431.50022
1569397431.51585
1569397431.53148
1569397431.5471
1569397431.56273
1569397431.57835
1569397431.59398
1569397431.6096
1569397431.62523
1569397431.64086
1569397431.65648
1569397431.67211
1569397431.68773
1569397431.70336
1569397431.71899
1569397431.73461
1569397431.75024
1569397431.76586
1569397431.78149
1569397431.79711
1569397431.81274
1569397431.82837
1569397431.84399
1569397431.85962
1569397431.87524
1569397431.89087
1569397431.90649
1569397431.92212
1569397431.93775
1569397431.95337
1569397431.969
1569397431.98462
1569397432.00025
1569397432.01587
1569397432.0315
1569397432.04713
1569397432.06275
1569397432.07838
1569397432.094
1569397432.10963
1569397432.12525
1569397432.14088
1569397432.15651
1569397432.17213
1569397432.18776
1569397432.20338
1569397432.21901
1569397432.23463
1569397432.25026
1569397432.26589
1569397432.28151
1569397432.29714
1569397432.31276
1569397432.32839
1569397432.34401
1569397432.35964
1569397432.37527
1569397432.39089
1569397432.40652
1569397432.42214
1569397432.43777
1569397432.45339
1569397432.46902
1569397432.48465
1569397432.50027
1569397432.5159
1569397432.53152
1569397432.54715
1569397432.56277
1569397432.5784
1569397432.59403
1569397432.60965
1569397432.62528
1569397432.6409
1569397432.65653
1569397432.67215
1569397432.68778
1569397432.70341
1569397432.71903
1569397432.73466
1569397432.75028
1569397432.76591
1569397432.78153
1569397432.79716
1569397432.81279
1569397432.82841
1569397432.84404
1569397432.85966
1569397432.87529
1569397432.89091
1569397432.90654
1569397432.92217
1569397432.93779
1569397432.95342
1569397432.96904
1569397432.98467
1569397433.00029
1569397433.01592
1569397433.03155
1569397433.04717
1569397433.0628
1569397433.07842
1569397433.09405
1569397433.10967
1569397433.1253
1569397433.14093
1569397433.15655
1569397433.17218
1569397433.1878
1569397433.20343
1569397433.21905
1569397433.23468
1569397433.25031
1569397433.26593
1569397433.28156
1569397433.29718
1569397433.31281
1569397433.32843
1569397433.34406
1569397433.35969
1569397433.37531
1569397433.39094
1569397433.40656
1569397433.42219
1569397433.43781
1569397433.45344
1569397433.46907
1569397433.48469
1569397433.50032
1569397433.51594
1569397433.53157
1569397433.54719
1569397433.56282
1569397433.57845
1569397433.59407
1569397433.6097
1569397433.62532
1569397433.64095
1569397433.65657
1569397433.6722
1569397433.68783
1569397433.70345
1569397433.71908
1569397433.7347
1569397433.75033
1569397433.76595
1569397433.78158
1569397433.79721
1569397433.81283
1569397433.82846
1569397433.84408
1569397433.85971
1569397433.87533
1569397433.89096
1569397433.90659
1569397433.92221
1569397433.93784
1569397433.95346
1569397433.96909
1569397433.98471
1569397434.00034
1569397434.01597
1569397434.03159
1569397434.04722
1569397434.06284
1569397434.07847
1569397434.09409
1569397434.10972
1569397434.12535
1569397434.14097
1569397434.1566
1569397434.17222
1569397434.18785
1569397434.20348
1569397434.2191
1569397434.23473
1569397434.25035
1569397434.26598
1569397434.2816
1569397434.29723
1569397434.31286
1569397434.32848
1569397434.34411
1569397434.35973
1569397434.37536
1569397434.39098
1569397434.40661
1569397434.42224
1569397434.43786
1569397434.45349
1569397434.46911
1569397434.48474
1569397434.50036
1569397434.51599
1569397434.53162
1569397434.54724
1569397434.56287
1569397434.57849
1569397434.59412
1569397434.60974
1569397434.62537
1569397434.641
1569397434.65662
1569397434.67225
1569397434.68787
1569397434.7035
1569397434.71912
1569397434.73475
1569397434.75038
1569397434.766
1569397434.78163
1569397434.79725
1569397434.81288
1569397434.8285
1569397434.84413
1569397434.85976
1569397434.87538
1569397434.89101
1569397434.90663
1569397434.92226
1569397434.93788
1569397434.95351
1569397434.96914
1569397434.98476
1569397435.00039
1569397435.01601
1569397435.03164
1569397435.04726
1569397435.06289
1569397435.07852
1569397435.09414
1569397435.10977
1569397435.12539
1569397435.14102
1569397435.15664
1569397435.17227
1569397435.1879
1569397435.20352
1569397435.21915
1569397435.23477
1569397435.2504
1569397435.26602
1569397435.28165
1569397435.29728
1569397435.3129
1569397435.32853
1569397435.34415
1569397435.35978
1569397435.3754
1569397435.39103
1569397435.40666
1569397435.42228
1569397435.43791
1569397435.45353
1569397435.46916
1569397435.48478
1569397435.50041
1569397435.51604
1569397435.53166
1569397435.54729
1569397435.56291
1569397435.57854
1569397435.59416
1569397435.60979
1569397435.62542
1569397435.64104
1569397435.65667
1569397435.67229
1569397435.68792
1569397435.70354
1569397435.71917
1569397435.7348
1569397435.75042
1569397435.76605
1569397435.78167
1569397435.7973
1569397435.81292
1569397435.82855
1569397435.84418
1569397435.8598
1569397435.87543
1569397435.89105
1569397435.90668
1569397435.9223
1569397435.93793
1569397435.95356
1569397435.96918
1569397435.98481
1569397436.00043
1569397436.01606
1569397436.03168
1569397436.04731
1569397436.06294
1569397436.07856
1569397436.09419
1569397436.10981
1569397436.12544
1569397436.14106
1569397436.15669
1569397436.17232
1569397436.18794
1569397436.20357
1569397436.21919
1569397436.23482
1569397436.25044
1569397436.26607
1569397436.2817
1569397436.29732
1569397436.31295
1569397436.32857
1569397436.3442
1569397436.35982
1569397436.37545
1569397436.39108
1569397436.4067
1569397436.42233
1569397436.43795
1569397436.45358
1569397436.4692
1569397436.48483
1569397436.50046
1569397436.51608
1569397436.53171
1569397436.54733
1569397436.56296
1569397436.57859
1569397436.59421
1569397436.60984
1569397436.62546
1569397436.64109
1569397436.65671
1569397436.67234
1569397436.68797
1569397436.70359
1569397436.71922
1569397436.73484
1569397436.75047
1569397436.76609
1569397436.78172
1569397436.79735
1569397436.81297
1569397436.8286
1569397436.84422
1569397436.85985
1569397436.87547
1569397436.8911
1569397436.90673
1569397436.92235
1569397436.93798
1569397436.9536
1569397436.96923
1569397436.98485
1569397437.00048
1569397437.01611
1569397437.03173
1569397437.04736
1569397437.06298
1569397437.07861
1569397437.09423
1569397437.10986
1569397437.12549
1569397437.14111
1569397437.15674
1569397437.17236
1569397437.18799
1569397437.20361
1569397437.21924
1569397437.23487
1569397437.25049
1569397437.26612
1569397437.28174
1569397437.29737
1569397437.31299
1569397437.32862
1569397437.34425
1569397437.35987
1569397437.3755
1569397437.39112
1569397437.40675
1569397437.42237
1569397437.438
1569397437.45363
1569397437.46925
1569397437.48488
1569397437.5005
1569397437.51613
1569397437.53175
1569397437.54738
1569397437.56301
1569397437.57863
1569397437.59426
1569397437.60988
1569397437.62551
1569397437.64113
1569397437.65676
1569397437.67239
1569397437.68801
1569397437.70364
1569397437.71926
1569397437.73489
1569397437.75051
1569397437.76614
1569397437.78177
1569397437.79739
1569397437.81302
1569397437.82864
1569397437.84427
1569397437.85989
1569397437.87552
1569397437.89115
1569397437.90677
1569397437.9224
1569397437.93802
1569397437.95365
1569397437.96927
1569397437.9849
1569397438.00053
1569397438.01615
1569397438.03178
1569397438.0474
1569397438.06303
1569397438.07865
1569397438.09428
1569397438.10991
1569397438.12553
1569397438.14116
1569397438.15678
1569397438.17241
1569397438.18803
1569397438.20366
1569397438.21929
1569397438.23491
1569397438.25054
1569397438.26616
1569397438.28179
1569397438.29741
1569397438.31304
1569397438.32867
1569397438.34429
1569397438.35992
1569397438.37554
1569397438.39117
1569397438.40679
1569397438.42242
1569397438.43805
1569397438.45367
1569397438.4693
1569397438.48492
1569397438.50055
1569397438.51617
1569397438.5318
1569397438.54743
1569397438.56305
1569397438.57868
1569397438.5943
1569397438.60993
1569397438.62555
1569397438.64118
1569397438.65681
1569397438.67243
1569397438.68806
1569397438.70368
1569397438.71931
1569397438.73493
1569397438.75056
1569397438.76619
1569397438.78181
1569397438.79744
1569397438.81306
1569397438.82869
1569397438.84432
1569397438.85994
1569397438.87557
1569397438.89119
1569397438.90682
1569397438.92244
1569397438.93807
1569397438.9537
1569397438.96932
1569397438.98495
1569397439.00057
1569397439.0162
1569397439.03182
1569397439.04745
1569397439.06308
1569397439.0787
1569397439.09433
1569397439.10995
1569397439.12558
1569397439.1412
1569397439.15683
1569397439.17246
1569397439.18808
1569397439.20371
1569397439.21933
1569397439.23496
1569397439.25058
1569397439.26621
1569397439.28184
1569397439.29746
1569397439.31309
1569397439.32871
1569397439.34434
1569397439.35996
1569397439.37559
1569397439.39122
1569397439.40684
1569397439.42247
1569397439.43809
1569397439.45372
1569397439.46934
1569397439.48497
1569397439.5006
1569397439.51622
1569397439.53185
1569397439.54747
1569397439.5631
1569397439.57872
1569397439.59435
1569397439.60998
1569397439.6256
1569397439.64123
1569397439.65685
1569397439.67248
1569397439.6881
1569397439.70373
1569397439.71936
1569397439.73498
1569397439.75061
1569397439.76623
1569397439.78186
1569397439.79748
1569397439.81311
1569397439.82874
1569397439.84436
1569397439.85999
1569397439.87561
1569397439.89124
1569397439.90686
1569397439.92249
1569397439.93812
1569397439.95374
1569397439.96937
1569397439.98499
1569397440.00062
1569397440.01624
1569397440.03187
1569397440.0475
1569397440.06312
1569397440.07875
1569397440.09437
1569397440.11
1569397440.12562
1569397440.14125
1569397440.15688
1569397440.1725
1569397440.18813
1569397440.20375
1569397440.21938
1569397440.235
1569397440.25063
1569397440.26626
1569397440.28188
1569397440.29751
1569397440.31313
1569397440.32876
1569397440.34438
1569397440.36001
1569397440.37564
1569397440.39126
1569397440.40689
1569397440.42251
1569397440.43814
1569397440.45376
1569397440.46939
1569397440.48502
1569397440.50064
1569397440.51627
1569397440.53189
1569397440.54752
1569397440.56314
1569397440.57877
1569397440.5944
1569397440.61002
1569397440.62565
1569397440.64127
1569397440.6569
1569397440.67252
1569397440.68815
1569397440.70378
1569397440.7194
1569397440.73503
1569397440.75065
1569397440.76628
1569397440.7819
1569397440.79753
1569397440.81316
1569397440.82878
1569397440.84441
1569397440.86003
1569397440.87566
1569397440.89128
1569397440.90691
1569397440.92254
1569397440.93816
1569397440.95379
1569397440.96941
1569397440.98504
1569397441.00066
1569397441.01629
1569397441.03192
1569397441.04754
1569397441.06317
1569397441.07879
1569397441.09442
1569397441.11004
1569397441.12567
1569397441.1413
1569397441.15692
1569397441.17255
1569397441.18817
1569397441.2038
1569397441.21942
1569397441.23505
1569397441.25068
1569397441.2663
1569397441.28193
1569397441.29755
1569397441.31318
1569397441.3288
1569397441.34443
1569397441.36006
1569397441.37568
1569397441.39131
1569397441.40693
1569397441.42256
1569397441.43818
1569397441.45381
1569397441.46944
1569397441.48506
1569397441.50069
1569397441.51631
1569397441.53194
1569397441.54757
1569397441.56319
1569397441.57882
1569397441.59444
1569397441.61007
1569397441.62569
1569397441.64132
1569397441.65695
1569397441.67257
1569397441.6882
1569397441.70382
1569397441.71945
1569397441.73507
1569397441.7507
1569397441.76633
1569397441.78195
1569397441.79758
1569397441.8132
1569397441.82883
1569397441.84445
1569397441.86008
1569397441.87571
1569397441.89133
1569397441.90696
1569397441.92258
1569397441.93821
1569397441.95383
1569397441.96946
1569397441.98509
1569397442.00071
1569397442.01634
1569397442.03196
1569397442.04759
1569397442.06321
1569397442.07884
1569397442.09447
1569397442.11009
1569397442.12572
1569397442.14134
1569397442.15697
1569397442.17259
1569397442.18822
1569397442.20385
1569397442.21947
1569397442.2351
1569397442.25072
1569397442.26635
1569397442.28197
1569397442.2976
1569397442.31323
1569397442.32885
1569397442.34448
1569397442.3601
1569397442.37573
1569397442.39135
1569397442.40698
1569397442.42261
1569397442.43823
1569397442.45386
1569397442.46948
1569397442.48511
1569397442.50073
1569397442.51636
1569397442.53199
1569397442.54761
1569397442.56324
1569397442.57886
1569397442.59449
1569397442.61011
1569397442.62574
1569397442.64137
1569397442.65699
1569397442.67262
1569397442.68824
1569397442.70387
1569397442.71949
1569397442.73512
1569397442.75075
1569397442.76637
1569397442.782
1569397442.79762
1569397442.81325
1569397442.82887
1569397442.8445
1569397442.86013
1569397442.87575
1569397442.89138
1569397442.907
1569397442.92263
1569397442.93825
1569397442.95388
1569397442.96951
1569397442.98513
1569397443.00076
1569397443.01638
1569397443.03201
1569397443.04763
1569397443.06326
1569397443.07889
1569397443.09451
1569397443.11014
1569397443.12576
1569397443.14139
1569397443.15701
1569397443.17264
1569397443.18827
1569397443.20389
1569397443.21952
1569397443.23514
1569397443.25077
1569397443.26639
1569397443.28202
1569397443.29765
1569397443.31327
1569397443.3289
1569397443.34452
1569397443.36015
1569397443.37577
1569397443.3914
1569397443.40703
1569397443.42265
1569397443.43828
1569397443.4539
1569397443.46953
1569397443.48515
1569397443.50078
1569397443.51641
1569397443.53203
1569397443.54766
1569397443.56328
1569397443.57891
1569397443.59453
1569397443.61016
1569397443.62579
1569397443.64141
1569397443.65704
1569397443.67266
1569397443.68829
1569397443.70392
1569397443.71954
1569397443.73517
1569397443.75079
1569397443.76642
1569397443.78204
1569397443.79767
1569397443.8133
1569397443.82892
1569397443.84455
1569397443.86017
1569397443.8758
1569397443.89142
1569397443.90705
1569397443.92268
1569397443.9383
1569397443.95393
1569397443.96955
1569397443.98518
1569397444.0008
1569397444.01643
1569397444.03206
1569397444.04768
1569397444.06331
1569397444.07893
1569397444.09456
1569397444.11018
1569397444.12581
1569397444.14144
1569397444.15706
1569397444.17269
1569397444.18831
1569397444.20394
1569397444.21956
1569397444.23519
1569397444.25082
1569397444.26644
1569397444.28207
1569397444.29769
1569397444.31332
1569397444.32894
1569397444.34457
1569397444.3602
1569397444.37582
1569397444.39145
1569397444.40707
1569397444.4227
1569397444.43832
1569397444.45395
1569397444.46958
1569397444.4852
1569397444.50083
1569397444.51645
1569397444.53208
1569397444.5477
1569397444.56333
1569397444.57896
1569397444.59458
1569397444.61021
1569397444.62583
1569397444.64146
1569397444.65708
1569397444.67271
1569397444.68834
1569397444.70396
1569397444.71959
1569397444.73521
1569397444.75084
1569397444.76646
1569397444.78209
1569397444.79772
1569397444.81334
1569397444.82897
1569397444.84459
1569397444.86022
1569397444.87584
1569397444.89147
1569397444.9071
1569397444.92272
1569397444.93835
1569397444.95397
1569397444.9696
1569397444.98522
1569397445.00085
1569397445.01648
1569397445.0321
1569397445.04773
1569397445.06335
1569397445.07898
1569397445.0946
1569397445.11023
1569397445.12586
1569397445.14148
1569397445.15711
1569397445.17273
1569397445.18836
1569397445.20398
1569397445.21961
1569397445.23524
1569397445.25086
1569397445.26649
1569397445.28211
1569397445.29774
1569397445.31336
1569397445.32899
1569397445.34462
1569397445.36024
1569397445.37587
1569397445.39149
1569397445.40712
1569397445.42274
1569397445.43837
1569397445.454
1569397445.46962
1569397445.48525
1569397445.50087
1569397445.5165
1569397445.53212
1569397445.54775
1569397445.56338
1569397445.579
1569397445.59463
1569397445.61025
1569397445.62588
1569397445.6415
1569397445.65713
1569397445.67276
1569397445.68838
1569397445.70401
1569397445.71963
1569397445.73526
1569397445.75088
1569397445.76651
1569397445.78214
1569397445.79776
1569397445.81339
1569397445.82901
1569397445.84464
1569397445.86026
1569397445.87589
1569397445.89152
1569397445.90714
1569397445.92277
1569397445.93839
1569397445.95402
1569397445.96965
1569397445.98527
1569397446.0009
1569397446.01652
1569397446.03215
1569397446.04777
1569397446.0634
1569397446.07903
1569397446.09465
1569397446.11028
1569397446.1259
1569397446.14153
1569397446.15715
1569397446.17278
1569397446.18841
1569397446.20403
1569397446.21966
1569397446.23528
1569397446.25091
1569397446.26653
1569397446.28216
1569397446.29779
1569397446.31341
1569397446.32904
1569397446.34466
1569397446.36029
1569397446.37591
1569397446.39154
1569397446.40717
1569397446.42279
1569397446.43842
1569397446.45404
1569397446.46967
1569397446.48529
1569397446.50092
1569397446.51655
1569397446.53217
1569397446.5478
1569397446.56342
1569397446.57905
1569397446.59467
1569397446.6103
1569397446.62593
1569397446.64155
1569397446.65718
1569397446.6728
1569397446.68843
1569397446.70405
1569397446.71968
1569397446.73531
1569397446.75093
1569397446.76656
1569397446.78218
1569397446.79781
1569397446.81343
1569397446.82906
1569397446.84469
1569397446.86031
1569397446.87594
1569397446.89156
1569397446.90719
1569397446.92281
1569397446.93844
1569397446.95407
1569397446.96969
1569397446.98532
1569397447.00094
1569397447.01657
1569397447.03219
1569397447.04782
1569397447.06345
1569397447.07907
1569397447.0947
1569397447.11032
1569397447.12595
1569397447.14157
1569397447.1572
1569397447.17283
1569397447.18845
1569397447.20408
1569397447.2197
1569397447.23533
1569397447.25095
1569397447.26658
1569397447.28221
1569397447.29783
1569397447.31346
1569397447.32908
1569397447.34471
1569397447.36033
1569397447.37596
1569397447.39159
1569397447.40721
1569397447.42284
1569397447.43846
1569397447.45409
1569397447.46971
1569397447.48534
1569397447.50097
1569397447.51659
1569397447.53222
1569397447.54784
1569397447.56347
1569397447.57909
1569397447.59472
1569397447.61035
1569397447.62597
1569397447.6416
1569397447.65722
1569397447.67285
1569397447.68847
1569397447.7041
1569397447.71973
1569397447.73535
1569397447.75098
1569397447.7666
1569397447.78223
1569397447.79785
1569397447.81348
1569397447.82911
1569397447.84473
1569397447.86036
1569397447.87598
1569397447.89161
1569397447.90723
1569397447.92286
1569397447.93849
1569397447.95411
1569397447.96974
1569397447.98536
1569397448.00099
1569397448.01661
1569397448.03224
1569397448.04787
1569397448.06349
1569397448.07912
1569397448.09474
1569397448.11037
1569397448.12599
1569397448.14162
1569397448.15725
1569397448.17287
1569397448.1885
1569397448.20412
1569397448.21975
1569397448.23537
1569397448.251
1569397448.26663
1569397448.28225
1569397448.29788
1569397448.3135
1569397448.32913
1569397448.34475
1569397448.36038
1569397448.37601
1569397448.39163
1569397448.40726
1569397448.42288
1569397448.43851
1569397448.45413
1569397448.46976
1569397448.48539
1569397448.50101
1569397448.51664
1569397448.53226
1569397448.54789
1569397448.56352
1569397448.57914
1569397448.59477
1569397448.61039
1569397448.62602
1569397448.64164
1569397448.65727
1569397448.6729
1569397448.68852
1569397448.70415
1569397448.71977
1569397448.7354
1569397448.75102
1569397448.76665
1569397448.78228
1569397448.7979
1569397448.81353
1569397448.82915
1569397448.84478
1569397448.8604
1569397448.87603
1569397448.89166
1569397448.90728
1569397448.92291
1569397448.93853
1569397448.95416
1569397448.96978
1569397448.98541
1569397449.00104
1569397449.01666
1569397449.03229
1569397449.04791
1569397449.06354
1569397449.07916
1569397449.09479
1569397449.11042
1569397449.12604
1569397449.14167
1569397449.15729
1569397449.17292
1569397449.18854
1569397449.20417
1569397449.2198
1569397449.23542
1569397449.25105
1569397449.26667
1569397449.2823
1569397449.29792
1569397449.31355
1569397449.32918
1569397449.3448
1569397449.36043
1569397449.37605
1569397449.39168
1569397449.4073
1569397449.42293
1569397449.43856
1569397449.45418
1569397449.46981
1569397449.48543
1569397449.50106
1569397449.51668
1569397449.53231
1569397449.54794
1569397449.56356
1569397449.57919
1569397449.59481
1569397449.61044
1569397449.62606
1569397449.64169
1569397449.65732
1569397449.67294
1569397449.68857
1569397449.70419
1569397449.71982
1569397449.73544
1569397449.75107
1569397449.7667
1569397449.78232
1569397449.79795
1569397449.81357
1569397449.8292
1569397449.84482
1569397449.86045
1569397449.87608
1569397449.8917
1569397449.90733
1569397449.92295
1569397449.93858
1569397449.9542
1569397449.96983
1569397449.98546
1569397450.00108
1569397450.01671
1569397450.03233
1569397450.04796
1569397450.06358
1569397450.07921
1569397450.09484
1569397450.11046
1569397450.12609
1569397450.14171
1569397450.15734
1569397450.17296
1569397450.18859
1569397450.20422
1569397450.21984
1569397450.23547
1569397450.25109
1569397450.26672
1569397450.28234
1569397450.29797
1569397450.3136
1569397450.32922
1569397450.34485
1569397450.36047
1569397450.3761
1569397450.39172
1569397450.40735
1569397450.42298
1569397450.4386
1569397450.45423
1569397450.46985
1569397450.48548
1569397450.5011
1569397450.51673
1569397450.53236
1569397450.54798
1569397450.56361
1569397450.57923
1569397450.59486
1569397450.61048
1569397450.62611
1569397450.64174
1569397450.65736
1569397450.67299
1569397450.68861
1569397450.70424
1569397450.71986
1569397450.73549
1569397450.75112
1569397450.76674
1569397450.78237
1569397450.79799
1569397450.81362
1569397450.82925
1569397450.84487
1569397450.8605
1569397450.87612
1569397450.89175
1569397450.90737
1569397450.923
1569397450.93863
1569397450.95425
1569397450.96988
1569397450.9855
1569397451.00113
1569397451.01675
1569397451.03238
1569397451.04801
1569397451.06363
1569397451.07926
1569397451.09488
1569397451.11051
1569397451.12613
1569397451.14176
1569397451.15739
1569397451.17301
1569397451.18864
1569397451.20426
1569397451.21989
1569397451.23551
1569397451.25114
1569397451.26677
1569397451.28239
1569397451.29802
1569397451.31364
1569397451.32927
1569397451.34489
1569397451.36052
1569397451.37615
1569397451.39177
1569397451.4074
1569397451.42302
1569397451.43865
1569397451.45427
1569397451.4699
1569397451.48553
1569397451.50115
1569397451.51678
1569397451.5324
1569397451.54803
1569397451.56365
1569397451.57928
1569397451.59491
1569397451.61053
1569397451.62616
1569397451.64178
1569397451.65741
1569397451.67303
1569397451.68866
1569397451.70429
1569397451.71991
1569397451.73554
1569397451.75116
1569397451.76679
1569397451.78241
1569397451.79804
1569397451.81367
1569397451.82929
1569397451.84492
1569397451.86054
1569397451.87617
1569397451.89179
1569397451.90742
1569397451.92305
1569397451.93867
1569397451.9543
1569397451.96992
1569397451.98555
1569397452.00117
1569397452.0168
1569397452.03243
1569397452.04805
1569397452.06368
1569397452.0793
1569397452.09493
1569397452.11055
1569397452.12618
1569397452.14181
1569397452.15743
1569397452.17306
1569397452.18868
1569397452.20431
1569397452.21993
1569397452.23556
1569397452.25119
1569397452.26681
1569397452.28244
1569397452.29806
1569397452.31369
1569397452.32931
1569397452.34494
1569397452.36057
1569397452.37619
1569397452.39182
1569397452.40744
1569397452.42307
1569397452.43869
1569397452.45432
1569397452.46995
1569397452.48557
1569397452.5012
1569397452.51682
1569397452.53245
1569397452.54807
1569397452.5637
1569397452.57933
1569397452.59495
1569397452.61058
1569397452.6262
1569397452.64183
1569397452.65745
1569397452.67308
1569397452.68871
1569397452.70433
1569397452.71996
1569397452.73558
1569397452.75121
1569397452.76683
1569397452.78246
1569397452.79809
1569397452.81371
1569397452.82934
1569397452.84496
1569397452.86059
1569397452.87621
1569397452.89184
1569397452.90747
1569397452.92309
1569397452.93872
1569397452.95434
1569397452.96997
1569397452.98559
1569397453.00122
1569397453.01685
1569397453.03247
1569397453.0481
1569397453.06372
1569397453.07935
1569397453.09497
1569397453.1106
1569397453.12623
1569397453.14185
1569397453.15748
1569397453.1731
1569397453.18873
1569397453.20436
1569397453.21998
1569397453.23561
1569397453.25123
1569397453.26686
1569397453.28248
1569397453.29811
1569397453.31374
1569397453.32936
1569397453.34499
1569397453.36061
1569397453.37624
1569397453.39186
1569397453.40749
1569397453.42312
1569397453.43874
1569397453.45437
1569397453.46999
1569397453.48562
1569397453.50124
1569397453.51687
1569397453.5325
1569397453.54812
1569397453.56375
1569397453.57937
1569397453.595
1569397453.61062
1569397453.62625
1569397453.64188
1569397453.6575
1569397453.67313
1569397453.68875
1569397453.70438
1569397453.72
1569397453.73563
1569397453.75126
1569397453.76688
1569397453.78251
1569397453.79813
1569397453.81376
1569397453.82938
1569397453.84501
1569397453.86064
1569397453.87626
1569397453.89189
1569397453.90751
1569397453.92314
1569397453.93876
1569397453.95439
1569397453.97002
1569397453.98564
1569397454.00127
1569397454.01689
1569397454.03252
1569397454.04814
1569397454.06377
1569397454.0794
1569397454.09502
1569397454.11065
1569397454.12627
1569397454.1419
1569397454.15752
1569397454.17315
1569397454.18878
1569397454.2044
1569397454.22003
1569397454.23565
1569397454.25128
1569397454.2669
1569397454.28253
1569397454.29816
1569397454.31378
1569397454.32941
1569397454.34503
1569397454.36066
1569397454.37628
1569397454.39191
1569397454.40754
1569397454.42316
1569397454.43879
1569397454.45441
1569397454.47004
1569397454.48566
1569397454.50129
1569397454.51692
1569397454.53254
1569397454.54817
1569397454.56379
1569397454.57942
1569397454.59504
1569397454.61067
1569397454.6263
1569397454.64192
1569397454.65755
1569397454.67317
1569397454.6888
1569397454.70442
1569397454.72005
1569397454.73568
1569397454.7513
1569397454.76693
1569397454.78255
1569397454.79818
1569397454.8138
1569397454.82943
1569397454.84506
1569397454.86068
1569397454.87631
1569397454.89193
1569397454.90756
1569397454.92318
1569397454.93881
1569397454.95444
1569397454.97006
1569397454.98569
1569397455.00131
1569397455.01694
1569397455.03256
1569397455.04819
1569397455.06382
1569397455.07944
1569397455.09507
1569397455.11069
1569397455.12632
1569397455.14194
1569397455.15757
1569397455.1732
1569397455.18882
1569397455.20445
1569397455.22007
1569397455.2357
1569397455.25132
1569397455.26695
1569397455.28258
1569397455.2982
1569397455.31383
1569397455.32945
1569397455.34508
1569397455.3607
1569397455.37633
1569397455.39196
1569397455.40758
1569397455.42321
1569397455.43883
1569397455.45446
1569397455.47008
1569397455.48571
1569397455.50134
1569397455.51696
1569397455.53259
1569397455.54821
1569397455.56384
1569397455.57946
1569397455.59509
1569397455.61072
1569397455.62634
1569397455.64197
1569397455.65759
1569397455.67322
1569397455.68885
1569397455.70447
1569397455.7201
1569397455.73572
1569397455.75135
1569397455.76697
1569397455.7826
1569397455.79823
1569397455.81385
1569397455.82948
1569397455.8451
1569397455.86073
1569397455.87635
1569397455.89198
1569397455.90761
1569397455.92323
1569397455.93886
1569397455.95448
1569397455.97011
1569397455.98573
1569397456.00136
1569397456.01699
1569397456.03261
1569397456.04824
1569397456.06386
1569397456.07949
1569397456.09511
1569397456.11074
1569397456.12637
1569397456.14199
1569397456.15762
1569397456.17324
1569397456.18887
1569397456.20449
1569397456.22012
1569397456.23575
1569397456.25137
1569397456.267
1569397456.28262
1569397456.29825
1569397456.31387
1569397456.3295
1569397456.34513
1569397456.36075
1569397456.37638
1569397456.392
1569397456.40763
1569397456.42325
1569397456.43888
1569397456.45451
1569397456.47013
1569397456.48576
1569397456.50138
1569397456.51701
1569397456.53263
1569397456.54826
1569397456.56389
1569397456.57951
1569397456.59514
1569397456.61076
1569397456.62639
1569397456.64201
1569397456.65764
1569397456.67327
1569397456.68889
1569397456.70452
1569397456.72014
1569397456.73577
1569397456.75139
1569397456.76702
1569397456.78265
1569397456.79827
1569397456.8139
1569397456.82952
1569397456.84515
1569397456.86077
1569397456.8764
1569397456.89203
1569397456.90765
1569397456.92328
1569397456.9389
1569397456.95453
1569397456.97015
1569397456.98578
1569397457.00141
1569397457.01703
1569397457.03266
1569397457.04828
1569397457.06391
1569397457.07953
1569397457.09516
1569397457.11079
1569397457.12641
1569397457.14204
1569397457.15766
1569397457.17329
1569397457.18891
1569397457.20454
1569397457.22017
1569397457.23579
1569397457.25142
1569397457.26704
1569397457.28267
1569397457.29829
1569397457.31392
1569397457.32955
1569397457.34517
1569397457.3608
1569397457.37642
1569397457.39205
1569397457.40767
1569397457.4233
1569397457.43893
1569397457.45455
1569397457.47018
1569397457.4858
1569397457.50143
1569397457.51705
1569397457.53268
1569397457.54831
1569397457.56393
1569397457.57956
1569397457.59518
1569397457.61081
1569397457.62643
1569397457.64206
1569397457.65769
1569397457.67331
1569397457.68894
1569397457.70456
1569397457.72019
1569397457.73581
1569397457.75144
1569397457.76707
1569397457.78269
1569397457.79832
1569397457.81394
1569397457.82957
1569397457.8452
1569397457.86082
1569397457.87645
1569397457.89207
1569397457.9077
1569397457.92332
1569397457.93895
1569397457.95458
1569397457.9702
1569397457.98583
1569397458.00145
1569397458.01708
1569397458.0327
1569397458.04833
1569397458.06396
1569397458.07958
1569397458.09521
1569397458.11083
1569397458.12646
1569397458.14208
1569397458.15771
1569397458.17334
1569397458.18896
1569397458.20459
1569397458.22021
1569397458.23584
1569397458.25146
1569397458.26709
1569397458.28272
1569397458.29834
1569397458.31397
1569397458.32959
1569397458.34522
1569397458.36084
1569397458.37647
1569397458.3921
1569397458.40772
1569397458.42335
1569397458.43897
1569397458.4546
1569397458.47022
1569397458.48585
1569397458.50148
1569397458.5171
1569397458.53273
1569397458.54835
1569397458.56398
1569397458.5796
1569397458.59523
1569397458.61086
1569397458.62648
1569397458.64211
1569397458.65773
1569397458.67336
1569397458.68898
1569397458.70461
1569397458.72024
1569397458.73586
1569397458.75149
1569397458.76711
1569397458.78274
1569397458.79836
1569397458.81399
1569397458.82962
1569397458.84524
1569397458.86087
1569397458.87649
1569397458.89212
1569397458.90774
1569397458.92337
1569397458.939
1569397458.95462
1569397458.97025
1569397458.98587
1569397459.0015
1569397459.01712
1569397459.03275
1569397459.04838
1569397459.064
1569397459.07963
1569397459.09525
1569397459.11088
1569397459.1265
1569397459.14213
1569397459.15776
1569397459.17338
1569397459.18901
1569397459.20463
1569397459.22026
1569397459.23588
1569397459.25151
1569397459.26714
1569397459.28276
1569397459.29839
1569397459.31401
1569397459.32964
1569397459.34526
1569397459.36089
1569397459.37652
1569397459.39214
1569397459.40777
1569397459.42339
1569397459.43902
1569397459.45464
1569397459.47027
1569397459.4859
1569397459.50152
1569397459.51715
1569397459.53277
1569397459.5484
1569397459.56402
1569397459.57965
1569397459.59528
1569397459.6109
1569397459.62653
1569397459.64215
1569397459.65778
1569397459.6734
1569397459.68903
1569397459.70466
1569397459.72028
1569397459.73591
1569397459.75153
1569397459.76716
1569397459.78278
1569397459.79841
1569397459.81404
1569397459.82966
1569397459.84529
1569397459.86091
1569397459.87654
1569397459.89216
1569397459.90779
1569397459.92342
1569397459.93904
1569397459.95467
1569397459.97029
1569397459.98592
1569397460.00154
1569397460.01717
1569397460.0328
1569397460.04842
1569397460.06405
1569397460.07967
1569397460.0953
1569397460.11092
1569397460.12655
1569397460.14218
1569397460.1578
1569397460.17343
1569397460.18905
1569397460.20468
1569397460.2203
1569397460.23593
1569397460.25156
1569397460.26718
1569397460.28281
1569397460.29843
1569397460.31406
1569397460.32968
1569397460.34531
1569397460.36094
1569397460.37656
1569397460.39219
1569397460.40781
1569397460.42344
1569397460.43906
1569397460.45469
1569397460.47032
1569397460.48594
1569397460.50157
1569397460.51719
1569397460.53282
1569397460.54845
1569397460.56407
1569397460.5797
1569397460.59532
1569397460.61095
1569397460.62657
1569397460.6422
1569397460.65783
1569397460.67345
1569397460.68908
1569397460.7047
1569397460.72033
1569397460.73595
1569397460.75158
1569397460.76721
1569397460.78283
1569397460.79846
1569397460.81408
1569397460.82971
1569397460.84533
1569397460.86096
1569397460.87659
1569397460.89221
1569397460.90784
1569397460.92346
1569397460.93909
1569397460.95471
1569397460.97034
1569397460.98597
1569397461.00159
1569397461.01722
1569397461.03284
1569397461.04847
1569397461.06409
1569397461.07972
1569397461.09535
1569397461.11097
1569397461.1266
1569397461.14222
1569397461.15785
1569397461.17347
1569397461.1891
1569397461.20473
1569397461.22035
1569397461.23598
1569397461.2516
1569397461.26723
1569397461.28285
1569397461.29848
1569397461.31411
1569397461.32973
1569397461.34536
1569397461.36098
1569397461.37661
1569397461.39223
1569397461.40786
1569397461.42349
1569397461.43911
1569397461.45474
1569397461.47036
1569397461.48599
1569397461.50161
1569397461.51724
1569397461.53287
1569397461.54849
1569397461.56412
1569397461.57974
1569397461.59537
1569397461.61099
1569397461.62662
1569397461.64225
1569397461.65787
1569397461.6735
1569397461.68912
1569397461.70475
1569397461.72037
1569397461.736
1569397461.75163
1569397461.76725
1569397461.78288
1569397461.7985
1569397461.81413
1569397461.82975
1569397461.84538
1569397461.86101
1569397461.87663
1569397461.89226
1569397461.90788
1569397461.92351
1569397461.93913
1569397461.95476
1569397461.97039
1569397461.98601
1569397462.00164
1569397462.01726
1569397462.03289
1569397462.04851
1569397462.06414
1569397462.07977
1569397462.09539
1569397462.11102
1569397462.12664
1569397462.14227
1569397462.15789
1569397462.17352
1569397462.18915
1569397462.20477
1569397462.2204
1569397462.23602
1569397462.25165
1569397462.26727
1569397462.2829
1569397462.29853
1569397462.31415
1569397462.32978
1569397462.3454
1569397462.36103
1569397462.37665
1569397462.39228
1569397462.40791
1569397462.42353
1569397462.43916
1569397462.45478
1569397462.47041
1569397462.48603
1569397462.50166
1569397462.51729
1569397462.53291
1569397462.54854
1569397462.56416
1569397462.57979
1569397462.59541
1569397462.61104
1569397462.62667
1569397462.64229
1569397462.65792
1569397462.67354
1569397462.68917
1569397462.7048
1569397462.72042
1569397462.73605
1569397462.75167
1569397462.7673
1569397462.78292
1569397462.79855
1569397462.81418
1569397462.8298
1569397462.84543
1569397462.86105
1569397462.87668
1569397462.8923
1569397462.90793
1569397462.92356
1569397462.93918
1569397462.95481
1569397462.97043
1569397462.98606
1569397463.00168
1569397463.01731
1569397463.03294
1569397463.04856
1569397463.06419
1569397463.07981
1569397463.09544
1569397463.11106
1569397463.12669
1569397463.14232
1569397463.15794
1569397463.17357
1569397463.18919
1569397463.20482
1569397463.22044
1569397463.23607
1569397463.2517
1569397463.26732
1569397463.28295
1569397463.29857
1569397463.3142
1569397463.32982
1569397463.34545
1569397463.36108
1569397463.3767
1569397463.39233
1569397463.40795
1569397463.42358
1569397463.4392
1569397463.45483
1569397463.47046
1569397463.48608
1569397463.50171
1569397463.51733
1569397463.53296
1569397463.54858
1569397463.56421
1569397463.57984
1569397463.59546
1569397463.61109
1569397463.62671
1569397463.64234
1569397463.65796
1569397463.67359
1569397463.68922
1569397463.70484
1569397463.72047
1569397463.73609
1569397463.75172
1569397463.76734
1569397463.78297
1569397463.7986
1569397463.81422
1569397463.82985
1569397463.84547
1569397463.8611
1569397463.87672
1569397463.89235
1569397463.90798
1569397463.9236
1569397463.93923
1569397463.95485
1569397463.97048
1569397463.9861
1569397464.00173
1569397464.01736
1569397464.03298
1569397464.04861
1569397464.06423
1569397464.07986
1569397464.09548
1569397464.11111
1569397464.12674
1569397464.14236
1569397464.15799
1569397464.17361
1569397464.18924
1569397464.20486
1569397464.22049
1569397464.23612
1569397464.25174
1569397464.26737
1569397464.28299
1569397464.29862
1569397464.31424
1569397464.32987
1569397464.3455
1569397464.36112
1569397464.37675
1569397464.39237
1569397464.408
1569397464.42362
1569397464.43925
1569397464.45488
1569397464.4705
1569397464.48613
1569397464.50175
1569397464.51738
1569397464.533
1569397464.54863
1569397464.56426
1569397464.57988
1569397464.59551
1569397464.61113
1569397464.62676
1569397464.64238
1569397464.65801
1569397464.67364
1569397464.68926
1569397464.70489
1569397464.72051
1569397464.73614
1569397464.75176
1569397464.76739
1569397464.78302
1569397464.79864
1569397464.81427
1569397464.82989
1569397464.84552
1569397464.86114
1569397464.87677
1569397464.8924
1569397464.90802
1569397464.92365
1569397464.93927
1569397464.9549
1569397464.97053
1569397464.98615
1569397465.00178
1569397465.0174
1569397465.03303
1569397465.04865
1569397465.06428
1569397465.07991
1569397465.09553
1569397465.11116
1569397465.12678
1569397465.14241
1569397465.15803
1569397465.17366
1569397465.18929
1569397465.20491
1569397465.22054
1569397465.23616
1569397465.25179
1569397465.26741
1569397465.28304
1569397465.29867
1569397465.31429
1569397465.32992
1569397465.34554
1569397465.36117
1569397465.37679
1569397465.39242
1569397465.40805
1569397465.42367
1569397465.4393
1569397465.45492
1569397465.47055
1569397465.48617
1569397465.5018
1569397465.51743
1569397465.53305
1569397465.54868
1569397465.5643
1569397465.57993
1569397465.59555
1569397465.61118
1569397465.62681
1569397465.64243
1569397465.65806
1569397465.67368
1569397465.68931
1569397465.70493
1569397465.72056
1569397465.73619
1569397465.75181
1569397465.76744
1569397465.78306
1569397465.79869
1569397465.81431
1569397465.82994
1569397465.84557
1569397465.86119
1569397465.87682
1569397465.89244
1569397465.90807
1569397465.92369
1569397465.93932
1569397465.95495
1569397465.97057
1569397465.9862
1569397466.00182
1569397466.01745
1569397466.03307
1569397466.0487
1569397466.06433
1569397466.07995
1569397466.09558
1569397466.1112
1569397466.12683
1569397466.14245
1569397466.15808
1569397466.17371
1569397466.18933
1569397466.20496
1569397466.22058
1569397466.23621
1569397466.25183
1569397466.26746
1569397466.28309
1569397466.29871
1569397466.31434
1569397466.32996
1569397466.34559
1569397466.36121
1569397466.37684
1569397466.39247
1569397466.40809
1569397466.42372
1569397466.43934
1569397466.45497
1569397466.47059
1569397466.48622
1569397466.50185
1569397466.51747
1569397466.5331
1569397466.54872
1569397466.56435
1569397466.57997
1569397466.5956
1569397466.61123
1569397466.62685
1569397466.64248
1569397466.6581
1569397466.67373
1569397466.68935
1569397466.70498
1569397466.72061
1569397466.73623
1569397466.75186
1569397466.76748
1569397466.78311
1569397466.79873
1569397466.81436
1569397466.82999
1569397466.84561
1569397466.86124
1569397466.87686
1569397466.89249
1569397466.90811
1569397466.92374
1569397466.93937
1569397466.95499
1569397466.97062
1569397466.98624
1569397467.00187
1569397467.01749
1569397467.03312
1569397467.04875
1569397467.06437
1569397467.08
1569397467.09562
1569397467.11125
1569397467.12687
1569397467.1425
1569397467.15813
1569397467.17375
1569397467.18938
1569397467.205
1569397467.22063
1569397467.23625
1569397467.25188
1569397467.26751
1569397467.28313
1569397467.29876
1569397467.31438
1569397467.33001
1569397467.34563
1569397467.36126
1569397467.37689
1569397467.39251
1569397467.40814
1569397467.42376
1569397467.43939
1569397467.45501
1569397467.47064
1569397467.48627
1569397467.50189
1569397467.51752
1569397467.53314
1569397467.54877
1569397467.56439
1569397467.58002
1569397467.59565
1569397467.61127
1569397467.6269
1569397467.64252
1569397467.65815
1569397467.67378
1569397467.6894
1569397467.70503
1569397467.72065
1569397467.73628
1569397467.7519
1569397467.76753
1569397467.78316
1569397467.79878
1569397467.81441
1569397467.83003
1569397467.84566
1569397467.86128
1569397467.87691
1569397467.89254
1569397467.90816
1569397467.92379
1569397467.93941
1569397467.95504
1569397467.97066
1569397467.98629
1569397468.00192
1569397468.01754
1569397468.03317
1569397468.04879
1569397468.06442
1569397468.08004
1569397468.09567
1569397468.1113
1569397468.12692
1569397468.14255
1569397468.15817
1569397468.1738
1569397468.18942
1569397468.20505
1569397468.22068
1569397468.2363
1569397468.25193
1569397468.26755
1569397468.28318
1569397468.2988
1569397468.31443
1569397468.33006
1569397468.34568
1569397468.36131
1569397468.37693
1569397468.39256
1569397468.40818
1569397468.42381
1569397468.43944
1569397468.45506
1569397468.47069
1569397468.48631
1569397468.50194
1569397468.51756
1569397468.53319
1569397468.54882
1569397468.56444
1569397468.58007
1569397468.59569
1569397468.61132
1569397468.62694
1569397468.64257
1569397468.6582
1569397468.67382
1569397468.68945
1569397468.70507
1569397468.7207
1569397468.73632
1569397468.75195
1569397468.76758
1569397468.7832
1569397468.79883
1569397468.81445
1569397468.83008
1569397468.8457
1569397468.86133
1569397468.87696
1569397468.89258
1569397468.90821
1569397468.92383
1569397468.93946
1569397468.95508
1569397468.97071
1569397468.98634
1569397469.00196
1569397469.01759
1569397469.03321
1569397469.04884
1569397469.06446
1569397469.08009
1569397469.09572
1569397469.11134
1569397469.12697
1569397469.14259
1569397469.15822
1569397469.17384
1569397469.18947
1569397469.2051
1569397469.22072
1569397469.23635
1569397469.25197
1569397469.2676
1569397469.28322
1569397469.29885
1569397469.31448
1569397469.3301
1569397469.34573
1569397469.36135
1569397469.37698
1569397469.3926
1569397469.40823
1569397469.42386
1569397469.43948
1569397469.45511
1569397469.47073
1569397469.48636
1569397469.50198
1569397469.51761
1569397469.53324
1569397469.54886
1569397469.56449
1569397469.58011
1569397469.59574
1569397469.61136
1569397469.62699
1569397469.64262
1569397469.65824
1569397469.67387
1569397469.68949
1569397469.70512
1569397469.72074
1569397469.73637
1569397469.752
1569397469.76762
1569397469.78325
1569397469.79887
1569397469.8145
1569397469.83013
1569397469.84575
1569397469.86138
1569397469.877
1569397469.89263
1569397469.90825
1569397469.92388
1569397469.93951
1569397469.95513
1569397469.97076
1569397469.98638
1569397470.00201
1569397470.01763
1569397470.03326
1569397470.04889
1569397470.06451
1569397470.08014
1569397470.09576
1569397470.11139
1569397470.12701
1569397470.14264
1569397470.15827
1569397470.17389
1569397470.18952
1569397470.20514
1569397470.22077
1569397470.23639
1569397470.25202
1569397470.26765
1569397470.28327
1569397470.2989
1569397470.31452
1569397470.33015
1569397470.34577
1569397470.3614
1569397470.37703
1569397470.39265
1569397470.40828
1569397470.4239
1569397470.43953
1569397470.45515
1569397470.47078
1569397470.48641
1569397470.50203
1569397470.51766
1569397470.53328
1569397470.54891
1569397470.56453
1569397470.58016
1569397470.59579
1569397470.61141
1569397470.62704
1569397470.64266
1569397470.65829
1569397470.67391
1569397470.68954
1569397470.70517
1569397470.72079
1569397470.73642
1569397470.75204
1569397470.76767
1569397470.78329
1569397470.79892
1569397470.81455
1569397470.83017
1569397470.8458
1569397470.86142
1569397470.87705
1569397470.89267
1569397470.9083
1569397470.92393
1569397470.93955
1569397470.95518
1569397470.9708
1569397470.98643
1569397471.00205
1569397471.01768
1569397471.03331
1569397471.04893
1569397471.06456
1569397471.08018
1569397471.09581
1569397471.11143
1569397471.12706
1569397471.14269
1569397471.15831
1569397471.17394
1569397471.18956
1569397471.20519
1569397471.22081
1569397471.23644
1569397471.25207
1569397471.26769
1569397471.28332
1569397471.29894
1569397471.31457
1569397471.33019
1569397471.34582
1569397471.36145
1569397471.37707
1569397471.3927
1569397471.40832
1569397471.42395
1569397471.43957
1569397471.4552
1569397471.47083
1569397471.48645
1569397471.50208
1569397471.5177
1569397471.53333
1569397471.54895
1569397471.56458
1569397471.58021
1569397471.59583
1569397471.61146
1569397471.62708
1569397471.64271
1569397471.65833
1569397471.67396
1569397471.68959
1569397471.70521
1569397471.72084
1569397471.73646
1569397471.75209
1569397471.76771
1569397471.78334
1569397471.79897
1569397471.81459
1569397471.83022
1569397471.84584
1569397471.86147
1569397471.87709
1569397471.89272
1569397471.90835
1569397471.92397
1569397471.9396
1569397471.95522
1569397471.97085
1569397471.98647
1569397472.0021
1569397472.01773
1569397472.03335
1569397472.04898
1569397472.0646
1569397472.08023
1569397472.09586
1569397472.11148
1569397472.12711
1569397472.14273
1569397472.15836
1569397472.17398
1569397472.18961
1569397472.20524
1569397472.22086
1569397472.23649
1569397472.25211
1569397472.26774
1569397472.28336
1569397472.29899
1569397472.31462
1569397472.33024
1569397472.34587
1569397472.36149
1569397472.37712
1569397472.39274
1569397472.40837
1569397472.424
1569397472.43962
1569397472.45525
1569397472.47087
1569397472.4865
1569397472.50212
1569397472.51775
1569397472.53338
1569397472.549
1569397472.56463
1569397472.58025
1569397472.59588
1569397472.6115
1569397472.62713
1569397472.64276
1569397472.65838
1569397472.67401
1569397472.68963
1569397472.70526
1569397472.72088
1569397472.73651
1569397472.75214
1569397472.76776
1569397472.78339
1569397472.79901
1569397472.81464
1569397472.83026
1569397472.84589
1569397472.86152
1569397472.87714
1569397472.89277
1569397472.90839
1569397472.92402
1569397472.93964
1569397472.95527
1569397472.9709
1569397472.98652
1569397473.00215
1569397473.01777
1569397473.0334
1569397473.04902
1569397473.06465
1569397473.08028
1569397473.0959
1569397473.11153
1569397473.12715
1569397473.14278
1569397473.1584
1569397473.17403
1569397473.18966
1569397473.20528
1569397473.22091
1569397473.23653
1569397473.25216
1569397473.26778
1569397473.28341
1569397473.29904
1569397473.31466
1569397473.33029
1569397473.34591
1569397473.36154
1569397473.37716
1569397473.39279
1569397473.40842
1569397473.42404
1569397473.43967
1569397473.45529
1569397473.47092
1569397473.48654
1569397473.50217
1569397473.5178
1569397473.53342
1569397473.54905
1569397473.56467
1569397473.5803
1569397473.59592
1569397473.61155
1569397473.62718
1569397473.6428
1569397473.65843
1569397473.67405
1569397473.68968
1569397473.7053
1569397473.72093
1569397473.73656
1569397473.75218
1569397473.76781
1569397473.78343
1569397473.79906
1569397473.81468
1569397473.83031
1569397473.84594
1569397473.86156
1569397473.87719
1569397473.89281
1569397473.90844
1569397473.92406
1569397473.93969
1569397473.95532
1569397473.97094
1569397473.98657
1569397474.00219
1569397474.01782
1569397474.03344
1569397474.04907
1569397474.0647
1569397474.08032
1569397474.09595
1569397474.11157
1569397474.1272
1569397474.14282
1569397474.15845
1569397474.17408
1569397474.1897
1569397474.20533
1569397474.22095
1569397474.23658
1569397474.2522
1569397474.26783
1569397474.28346
1569397474.29908
1569397474.31471
1569397474.33033
1569397474.34596
1569397474.36158
1569397474.37721
1569397474.39284
1569397474.40846
1569397474.42409
1569397474.43971
1569397474.45534
1569397474.47096
1569397474.48659
1569397474.50222
1569397474.51784
1569397474.53347
1569397474.54909
1569397474.56472
1569397474.58034
1569397474.59597
1569397474.6116
1569397474.62722
1569397474.64285
1569397474.65847
1569397474.6741
1569397474.68973
1569397474.70535
1569397474.72098
1569397474.7366
1569397474.75223
1569397474.76785
1569397474.78348
1569397474.79911
1569397474.81473
1569397474.83036
1569397474.84598
1569397474.86161
1569397474.87723
1569397474.89286
1569397474.90849
1569397474.92411
1569397474.93974
1569397474.95536
1569397474.97099
1569397474.98661
1569397475.00224
1569397475.01787
1569397475.03349
1569397475.04912
1569397475.06474
1569397475.08037
1569397475.09599
1569397475.11162
1569397475.12725
1569397475.14287
1569397475.1585
1569397475.17412
1569397475.18975
1569397475.20537
1569397475.221
1569397475.23663
1569397475.25225
1569397475.26788
1569397475.2835
1569397475.29913
1569397475.31475
1569397475.33038
1569397475.34601
1569397475.36163
1569397475.37726
1569397475.39288
1569397475.40851
1569397475.42413
1569397475.43976
1569397475.45539
1569397475.47101
1569397475.48664
1569397475.50226
1569397475.51789
1569397475.53351
1569397475.54914
1569397475.56477
1569397475.58039
1569397475.59602
1569397475.61164
1569397475.62727
1569397475.64289
1569397475.65852
1569397475.67415
1569397475.68977
1569397475.7054
1569397475.72102
1569397475.73665
1569397475.75227
1569397475.7679
1569397475.78353
1569397475.79915
1569397475.81478
1569397475.8304
1569397475.84603
1569397475.86165
1569397475.87728
1569397475.89291
1569397475.90853
1569397475.92416
1569397475.93978
1569397475.95541
1569397475.97103
1569397475.98666
1569397476.00229
1569397476.01791
1569397476.03354
1569397476.04916
1569397476.06479
1569397476.08041
1569397476.09604
1569397476.11167
1569397476.12729
1569397476.14292
1569397476.15854
1569397476.17417
1569397476.18979
1569397476.20542
1569397476.22105
1569397476.23667
1569397476.2523
1569397476.26792
1569397476.28355
1569397476.29917
1569397476.3148
1569397476.33043
1569397476.34605
1569397476.36168
1569397476.3773
1569397476.39293
1569397476.40855
1569397476.42418
1569397476.43981
1569397476.45543
1569397476.47106
1569397476.48668
1569397476.50231
1569397476.51793
1569397476.53356
1569397476.54919
1569397476.56481
1569397476.58044
1569397476.59606
1569397476.61169
1569397476.62731
1569397476.64294
1569397476.65857
1569397476.67419
1569397476.68982
1569397476.70544
1569397476.72107
1569397476.73669
1569397476.75232
1569397476.76795
1569397476.78357
1569397476.7992
1569397476.81482
1569397476.83045
1569397476.84607
1569397476.8617
1569397476.87733
1569397476.89295
1569397476.90858
1569397476.9242
1569397476.93983
1569397476.95546
1569397476.97108
1569397476.98671
1569397477.00233
1569397477.01796
1569397477.03358
1569397477.04921
1569397477.06484
1569397477.08046
1569397477.09609
1569397477.11171
1569397477.12734
1569397477.14296
1569397477.15859
1569397477.17422
1569397477.18984
1569397477.20547
1569397477.22109
1569397477.23672
1569397477.25234
1569397477.26797
1569397477.2836
1569397477.29922
1569397477.31485
1569397477.33047
1569397477.3461
1569397477.36172
1569397477.37735
1569397477.39298
1569397477.4086
1569397477.42423
1569397477.43985
1569397477.45548
1569397477.4711
1569397477.48673
1569397477.50236
1569397477.51798
1569397477.53361
1569397477.54923
1569397477.56486
1569397477.58048
1569397477.59611
1569397477.61174
1569397477.62736
1569397477.64299
1569397477.65861
1569397477.67424
1569397477.68986
1569397477.70549
1569397477.72112
1569397477.73674
1569397477.75237
1569397477.76799
1569397477.78362
1569397477.79924
1569397477.81487
1569397477.8305
1569397477.84612
1569397477.86175
1569397477.87737
1569397477.893
1569397477.90862
1569397477.92425
1569397477.93988
1569397477.9555
1569397477.97113
1569397477.98675
1569397478.00238
1569397478.018
1569397478.03363
1569397478.04926
1569397478.06488
1569397478.08051
1569397478.09613
1569397478.11176
1569397478.12738
1569397478.14301
1569397478.15864
1569397478.17426
1569397478.18989
1569397478.20551
1569397478.22114
1569397478.23676
1569397478.25239
1569397478.26802
1569397478.28364
1569397478.29927
1569397478.31489
1569397478.33052
1569397478.34614
1569397478.36177
1569397478.3774
1569397478.39302
1569397478.40865
1569397478.42427
1569397478.4399
1569397478.45552
1569397478.47115
1569397478.48678
1569397478.5024
1569397478.51803
1569397478.53365
1569397478.54928
1569397478.5649
1569397478.58053
1569397478.59616
1569397478.61178
1569397478.62741
1569397478.64303
1569397478.65866
1569397478.67428
1569397478.68991
1569397478.70554
1569397478.72116
1569397478.73679
1569397478.75241
1569397478.76804
1569397478.78366
1569397478.79929
1569397478.81492
1569397478.83054
1569397478.84617
1569397478.86179
1569397478.87742
1569397478.89304
1569397478.90867
1569397478.9243
1569397478.93992
1569397478.95555
1569397478.97117
1569397478.9868
1569397479.00242
1569397479.01805
1569397479.03368
1569397479.0493
1569397479.06493
1569397479.08055
1569397479.09618
1569397479.1118
1569397479.12743
1569397479.14306
1569397479.15868
1569397479.17431
1569397479.18993
1569397479.20556
1569397479.22118
1569397479.23681
1569397479.25244
1569397479.26806
1569397479.28369
1569397479.29931
1569397479.31494
1569397479.33056
1569397479.34619
1569397479.36182
1569397479.37744
1569397479.39307
1569397479.40869
1569397479.42432
1569397479.43994
1569397479.45557
1569397479.4712
1569397479.48682
1569397479.50245
1569397479.51807
1569397479.5337
1569397479.54933
1569397479.56495
1569397479.58058
1569397479.5962
1569397479.61183
1569397479.62745
1569397479.64308
1569397479.65871
1569397479.67433
1569397479.68996
1569397479.70558
1569397479.72121
1569397479.73683
1569397479.75246
1569397479.76809
1569397479.78371
1569397479.79934
1569397479.81496
1569397479.83059
1569397479.84621
1569397479.86184
1569397479.87747
1569397479.89309
1569397479.90872
1569397479.92434
1569397479.93997
1569397479.95559
1569397479.97122
1569397479.98685
1569397480.00247
1569397480.0181
1569397480.03372
1569397480.04935
1569397480.06497
1569397480.0806
1569397480.09623
1569397480.11185
1569397480.12748
1569397480.1431
1569397480.15873
1569397480.17435
1569397480.18998
1569397480.20561
1569397480.22123
1569397480.23686
1569397480.25248
1569397480.26811
1569397480.28373
1569397480.29936
1569397480.31499
1569397480.33061
1569397480.34624
1569397480.36186
1569397480.37749
1569397480.39311
1569397480.40874
1569397480.42437
1569397480.43999
1569397480.45562
1569397480.47124
1569397480.48687
1569397480.50249
1569397480.51812
1569397480.53375
1569397480.54937
1569397480.565
1569397480.58062
1569397480.59625
1569397480.61187
1569397480.6275
1569397480.64313
1569397480.65875
1569397480.67438
1569397480.69
1569397480.70563
1569397480.72125
1569397480.73688
1569397480.75251
1569397480.76813
1569397480.78376
1569397480.79938
1569397480.81501
1569397480.83063
1569397480.84626
1569397480.86189
1569397480.87751
1569397480.89314
1569397480.90876
1569397480.92439
1569397480.94001
1569397480.95564
1569397480.97127
1569397480.98689
1569397481.00252
1569397481.01814
1569397481.03377
1569397481.04939
1569397481.06502
1569397481.08065
1569397481.09627
1569397481.1119
1569397481.12752
1569397481.14315
1569397481.15877
1569397481.1744
1569397481.19003
1569397481.20565
1569397481.22128
1569397481.2369
1569397481.25253
1569397481.26815
1569397481.28378
1569397481.29941
1569397481.31503
1569397481.33066
1569397481.34628
1569397481.36191
1569397481.37753
1569397481.39316
1569397481.40879
1569397481.42441
1569397481.44004
1569397481.45566
1569397481.47129
1569397481.48691
1569397481.50254
1569397481.51817
1569397481.53379
1569397481.54942
1569397481.56504
1569397481.58067
1569397481.59629
1569397481.61192
1569397481.62755
1569397481.64317
1569397481.6588
1569397481.67442
1569397481.69005
1569397481.70567
1569397481.7213
1569397481.73693
1569397481.75255
1569397481.76818
1569397481.7838
1569397481.79943
1569397481.81506
1569397481.83068
1569397481.84631
1569397481.86193
1569397481.87756
1569397481.89318
1569397481.90881
1569397481.92444
1569397481.94006
1569397481.95569
1569397481.97131
1569397481.98694
1569397482.00256
1569397482.01819
1569397482.03382
1569397482.04944
1569397482.06507
1569397482.08069
1569397482.09632
1569397482.11194
1569397482.12757
1569397482.1432
1569397482.15882
1569397482.17445
1569397482.19007
1569397482.2057
1569397482.22132
1569397482.23695
1569397482.25258
1569397482.2682
1569397482.28383
1569397482.29945
1569397482.31508
1569397482.3307
1569397482.34633
1569397482.36196
1569397482.37758
1569397482.39321
1569397482.40883
1569397482.42446
1569397482.44008
1569397482.45571
1569397482.47134
1569397482.48696
1569397482.50259
1569397482.51821
1569397482.53384
1569397482.54946
1569397482.56509
1569397482.58072
1569397482.59634
1569397482.61197
1569397482.62759
1569397482.64322
1569397482.65884
1569397482.67447
1569397482.6901
1569397482.70572
1569397482.72135
1569397482.73697
1569397482.7526
1569397482.76822
1569397482.78385
1569397482.79948
1569397482.8151
1569397482.83073
1569397482.84635
1569397482.86198
1569397482.8776
1569397482.89323
1569397482.90886
1569397482.92448
1569397482.94011
1569397482.95573
1569397482.97136
1569397482.98698
1569397483.00261
1569397483.01824
1569397483.03386
1569397483.04949
1569397483.06511
1569397483.08074
1569397483.09636
1569397483.11199
1569397483.12762
1569397483.14324
1569397483.15887
1569397483.17449
1569397483.19012
1569397483.20574
1569397483.22137
1569397483.237
1569397483.25262
1569397483.26825
1569397483.28387
1569397483.2995
1569397483.31512
1569397483.33075
1569397483.34638
1569397483.362
1569397483.37763
1569397483.39325
1569397483.40888
1569397483.4245
1569397483.44013
1569397483.45576
1569397483.47138
1569397483.48701
1569397483.50263
1569397483.51826
1569397483.53388
1569397483.54951
1569397483.56514
1569397483.58076
1569397483.59639
1569397483.61201
1569397483.62764
1569397483.64326
1569397483.65889
1569397483.67452
1569397483.69014
1569397483.70577
1569397483.72139
1569397483.73702
1569397483.75264
1569397483.76827
1569397483.7839
1569397483.79952
1569397483.81515
1569397483.83077
1569397483.8464
1569397483.86202
1569397483.87765
1569397483.89328
1569397483.9089
1569397483.92453
1569397483.94015
1569397483.95578
1569397483.97141
1569397483.98703
1569397484.00266
1569397484.01828
1569397484.03391
1569397484.04953
1569397484.06516
1569397484.08079
1569397484.09641
1569397484.11204
1569397484.12766
1569397484.14329
1569397484.15891
1569397484.17454
1569397484.19017
1569397484.20579
1569397484.22142
1569397484.23704
1569397484.25267
1569397484.26829
1569397484.28392
1569397484.29955
1569397484.31517
1569397484.3308
1569397484.34642
1569397484.36205
1569397484.37767
1569397484.3933
1569397484.40893
1569397484.42455
1569397484.44018
1569397484.4558
1569397484.47143
1569397484.48705
1569397484.50268
1569397484.51831
1569397484.53393
1569397484.54956
1569397484.56518
1569397484.58081
1569397484.59643
1569397484.61206
1569397484.62769
1569397484.64331
1569397484.65894
1569397484.67456
1569397484.69019
1569397484.70581
1569397484.72144
1569397484.73707
1569397484.75269
1569397484.76832
1569397484.78394
1569397484.79957
1569397484.81519
1569397484.83082
1569397484.84645
1569397484.86207
1569397484.8777
1569397484.89332
1569397484.90895
1569397484.92457
1569397484.9402
1569397484.95583
1569397484.97145
1569397484.98708
1569397485.0027
1569397485.01833
1569397485.03395
1569397485.04958
1569397485.06521
1569397485.08083
1569397485.09646
1569397485.11208
1569397485.12771
1569397485.14333
1569397485.15896
1569397485.17459
1569397485.19021
1569397485.20584
1569397485.22146
1569397485.23709
1569397485.25271
1569397485.26834
1569397485.28397
1569397485.29959
1569397485.31522
1569397485.33084
1569397485.34647
1569397485.36209
1569397485.37772
1569397485.39335
1569397485.40897
1569397485.4246
1569397485.44022
1569397485.45585
1569397485.47147
1569397485.4871
1569397485.50273
1569397485.51835
1569397485.53398
1569397485.5496
1569397485.56523
1569397485.58085
1569397485.59648
1569397485.61211
1569397485.62773
1569397485.64336
1569397485.65898
1569397485.67461
1569397485.69023
1569397485.70586
1569397485.72149
1569397485.73711
1569397485.75274
1569397485.76836
1569397485.78399
1569397485.79961
1569397485.81524
1569397485.83087
1569397485.84649
1569397485.86212
1569397485.87774
1569397485.89337
1569397485.90899
1569397485.92462
1569397485.94025
1569397485.95587
1569397485.9715
1569397485.98712
1569397486.00275
1569397486.01837
1569397486.034
1569397486.04963
1569397486.06525
1569397486.08088
1569397486.0965
1569397486.11213
1569397486.12775
1569397486.14338
1569397486.15901
1569397486.17463
1569397486.19026
1569397486.20588
1569397486.22151
1569397486.23713
1569397486.25276
1569397486.26839
1569397486.28401
1569397486.29964
1569397486.31526
1569397486.33089
1569397486.34651
1569397486.36214
1569397486.37777
1569397486.39339
1569397486.40902
1569397486.42464
1569397486.44027
1569397486.45589
1569397486.47152
1569397486.48715
1569397486.50277
1569397486.5184
1569397486.53402
1569397486.54965
1569397486.56527
1569397486.5809
1569397486.59653
1569397486.61215
1569397486.62778
1569397486.6434
1569397486.65903
1569397486.67466
1569397486.69028
1569397486.70591
1569397486.72153
1569397486.73716
1569397486.75278
1569397486.76841
1569397486.78404
1569397486.79966
1569397486.81529
1569397486.83091
1569397486.84654
1569397486.86216
1569397486.87779
1569397486.89342
1569397486.90904
1569397486.92467
1569397486.94029
1569397486.95592
1569397486.97154
1569397486.98717
1569397487.0028
1569397487.01842
1569397487.03405
1569397487.04967
1569397487.0653
1569397487.08092
1569397487.09655
1569397487.11218
1569397487.1278
1569397487.14343
1569397487.15905
1569397487.17468
1569397487.1903
1569397487.20593
1569397487.22156
1569397487.23718
1569397487.25281
1569397487.26843
1569397487.28406
1569397487.29968
1569397487.31531
1569397487.33094
1569397487.34656
1569397487.36219
1569397487.37781
1569397487.39344
1569397487.40906
1569397487.42469
1569397487.44032
1569397487.45594
1569397487.47157
1569397487.48719
1569397487.50282
1569397487.51844
1569397487.53407
1569397487.5497
1569397487.56532
1569397487.58095
1569397487.59657
1569397487.6122
1569397487.62782
1569397487.64345
1569397487.65908
1569397487.6747
1569397487.69033
1569397487.70595
1569397487.72158
1569397487.7372
1569397487.75283
1569397487.76846
1569397487.78408
1569397487.79971
1569397487.81533
1569397487.83096
1569397487.84658
1569397487.86221
1569397487.87784
1569397487.89346
1569397487.90909
1569397487.92471
1569397487.94034
1569397487.95596
1569397487.97159
1569397487.98722
1569397488.00284
1569397488.01847
1569397488.03409
1569397488.04972
1569397488.06534
1569397488.08097
1569397488.0966
1569397488.11222
1569397488.12785
1569397488.14347
1569397488.1591
1569397488.17472
1569397488.19035
1569397488.20598
1569397488.2216
1569397488.23723
1569397488.25285
1569397488.26848
1569397488.2841
1569397488.29973
1569397488.31536
1569397488.33098
1569397488.34661
1569397488.36223
1569397488.37786
1569397488.39348
1569397488.40911
1569397488.42474
1569397488.44036
1569397488.45599
1569397488.47161
1569397488.48724
1569397488.50286
1569397488.51849
1569397488.53412
1569397488.54974
1569397488.56537
1569397488.58099
1569397488.59662
1569397488.61224
1569397488.62787
1569397488.6435
1569397488.65912
1569397488.67475
1569397488.69037
1569397488.706
1569397488.72162
1569397488.73725
1569397488.75288
1569397488.7685
1569397488.78413
1569397488.79975
1569397488.81538
1569397488.83101
1569397488.84663
1569397488.86226
1569397488.87788
1569397488.89351
1569397488.90913
1569397488.92476
1569397488.94039
1569397488.95601
1569397488.97164
1569397488.98726
1569397489.00289
1569397489.01851
1569397489.03414
1569397489.04977
1569397489.06539
1569397489.08102
1569397489.09664
1569397489.11227
1569397489.12789
1569397489.14352
1569397489.15915
1569397489.17477
1569397489.1904
1569397489.20602
1569397489.22165
1569397489.23727
1569397489.2529
1569397489.26853
1569397489.28415
1569397489.29978
1569397489.3154
1569397489.33103
1569397489.34665
1569397489.36228
1569397489.37791
1569397489.39353
1569397489.40916
1569397489.42478
1569397489.44041
1569397489.45603
1569397489.47166
1569397489.48729
1569397489.50291
1569397489.51854
1569397489.53416
1569397489.54979
1569397489.56541
1569397489.58104
1569397489.59667
1569397489.61229
1569397489.62792
1569397489.64354
1569397489.65917
1569397489.67479
1569397489.69042
1569397489.70605
1569397489.72167
1569397489.7373
1569397489.75292
1569397489.76855
1569397489.78417
1569397489.7998
1569397489.81543
1569397489.83105
1569397489.84668
1569397489.8623
1569397489.87793
1569397489.89355
1569397489.90918
1569397489.92481
1569397489.94043
1569397489.95606
1569397489.97168
1569397489.98731
1569397490.00293
1569397490.01856
1569397490.03419
1569397490.04981
1569397490.06544
1569397490.08106
1569397490.09669
1569397490.11231
1569397490.12794
1569397490.14357
1569397490.15919
1569397490.17482
1569397490.19044
1569397490.20607
1569397490.22169
1569397490.23732
1569397490.25295
1569397490.26857
1569397490.2842
1569397490.29982
1569397490.31545
1569397490.33107
1569397490.3467
1569397490.36233
1569397490.37795
1569397490.39358
1569397490.4092
1569397490.42483
1569397490.44045
1569397490.45608
1569397490.47171
1569397490.48733
1569397490.50296
1569397490.51858
1569397490.53421
1569397490.54983
1569397490.56546
1569397490.58109
1569397490.59671
1569397490.61234
1569397490.62796
1569397490.64359
1569397490.65921
1569397490.67484
1569397490.69047
1569397490.70609
1569397490.72172
1569397490.73734
1569397490.75297
1569397490.76859
1569397490.78422
1569397490.79985
1569397490.81547
1569397490.8311
1569397490.84672
1569397490.86235
1569397490.87797
1569397490.8936
1569397490.90923
1569397490.92485
1569397490.94048
1569397490.9561
1569397490.97173
1569397490.98735
1569397491.00298
1569397491.01861
1569397491.03423
1569397491.04986
1569397491.06548
1569397491.08111
1569397491.09674
1569397491.11236
1569397491.12799
1569397491.14361
1569397491.15924
1569397491.17486
1569397491.19049
1569397491.20612
1569397491.22174
1569397491.23737
1569397491.25299
1569397491.26862
1569397491.28424
1569397491.29987
1569397491.3155
1569397491.33112
1569397491.34675
1569397491.36237
1569397491.378
1569397491.39362
1569397491.40925
1569397491.42488
1569397491.4405
1569397491.45613
1569397491.47175
1569397491.48738
1569397491.503
1569397491.51863
1569397491.53426
1569397491.54988
1569397491.56551
1569397491.58113
1569397491.59676
1569397491.61238
1569397491.62801
1569397491.64364
1569397491.65926
1569397491.67489
1569397491.69051
1569397491.70614
1569397491.72176
1569397491.73739
1569397491.75302
1569397491.76864
1569397491.78427
1569397491.79989
1569397491.81552
1569397491.83114
1569397491.84677
1569397491.8624
1569397491.87802
1569397491.89365
1569397491.90927
1569397491.9249
1569397491.94052
1569397491.95615
1569397491.97178
1569397491.9874
1569397492.00303
1569397492.01865
1569397492.03428
1569397492.0499
1569397492.06553
1569397492.08116
1569397492.09678
1569397492.11241
1569397492.12803
1569397492.14366
1569397492.15928
1569397492.17491
1569397492.19054
1569397492.20616
1569397492.22179
1569397492.23741
1569397492.25304
1569397492.26866
1569397492.28429
1569397492.29992
1569397492.31554
1569397492.33117
1569397492.34679
1569397492.36242
1569397492.37804
1569397492.39367
1569397492.4093
1569397492.42492
1569397492.44055
1569397492.45617
1569397492.4718
1569397492.48742
1569397492.50305
1569397492.51868
1569397492.5343
1569397492.54993
1569397492.56555
1569397492.58118
1569397492.5968
1569397492.61243
1569397492.62806
1569397492.64368
1569397492.65931
1569397492.67493
1569397492.69056
1569397492.70618
1569397492.72181
1569397492.73744
1569397492.75306
1569397492.76869
1569397492.78431
1569397492.79994
1569397492.81556
1569397492.83119
1569397492.84682
1569397492.86244
1569397492.87807
1569397492.89369
1569397492.90932
1569397492.92494
1569397492.94057
1569397492.9562
1569397492.97182
1569397492.98745
1569397493.00307
1569397493.0187
1569397493.03432
1569397493.04995
1569397493.06558
1569397493.0812
1569397493.09683
1569397493.11245
1569397493.12808
1569397493.1437
1569397493.15933
1569397493.17496
1569397493.19058
1569397493.20621
1569397493.22183
1569397493.23746
1569397493.25308
1569397493.26871
1569397493.28434
1569397493.29996
1569397493.31559
1569397493.33121
1569397493.34684
1569397493.36246
1569397493.37809
1569397493.39372
1569397493.40934
1569397493.42497
1569397493.44059
1569397493.45622
1569397493.47184
1569397493.48747
1569397493.5031
1569397493.51872
1569397493.53435
1569397493.54997
1569397493.5656
1569397493.58122
1569397493.59685
1569397493.61248
1569397493.6281
1569397493.64373
1569397493.65935
1569397493.67498
1569397493.69061
1569397493.70623
1569397493.72186
1569397493.73748
1569397493.75311
1569397493.76873
1569397493.78436
1569397493.79999
1569397493.81561
1569397493.83124
1569397493.84686
1569397493.86249
1569397493.87811
1569397493.89374
1569397493.90937
1569397493.92499
1569397493.94062
1569397493.95624
1569397493.97187
1569397493.98749
1569397494.00312
1569397494.01875
1569397494.03437
1569397494.05
1569397494.06562
1569397494.08125
1569397494.09687
1569397494.1125
1569397494.12813
1569397494.14375
1569397494.15938
1569397494.175
1569397494.19063
1569397494.20625
1569397494.22188
1569397494.23751
1569397494.25313
1569397494.26876
1569397494.28438
1569397494.30001
1569397494.31563
1569397494.33126
1569397494.34689
1569397494.36251
1569397494.37814
1569397494.39376
1569397494.40939
1569397494.42501
1569397494.44064
1569397494.45627
1569397494.47189
1569397494.48752
1569397494.50314
1569397494.51877
1569397494.53439
1569397494.55002
1569397494.56565
1569397494.58127
1569397494.5969
1569397494.61252
1569397494.62815
1569397494.64377
1569397494.6594
1569397494.67503
1569397494.69065
1569397494.70628
1569397494.7219
1569397494.73753
1569397494.75315
1569397494.76878
1569397494.78441
1569397494.80003
1569397494.81566
1569397494.83128
1569397494.84691
1569397494.86253
1569397494.87816
1569397494.89379
1569397494.90941
1569397494.92504
1569397494.94066
1569397494.95629
1569397494.97191
1569397494.98754
1569397495.00317
1569397495.01879
1569397495.03442
1569397495.05004
1569397495.06567
1569397495.08129
1569397495.09692
1569397495.11255
1569397495.12817
1569397495.1438
1569397495.15942
1569397495.17505
1569397495.19067
1569397495.2063
1569397495.22193
1569397495.23755
1569397495.25318
1569397495.2688
1569397495.28443
1569397495.30005
1569397495.31568
1569397495.33131
1569397495.34693
1569397495.36256
1569397495.37818
1569397495.39381
1569397495.40943
1569397495.42506
1569397495.44069
1569397495.45631
1569397495.47194
1569397495.48756
1569397495.50319
1569397495.51881
1569397495.53444
1569397495.55007
1569397495.56569
1569397495.58132
1569397495.59694
1569397495.61257
1569397495.62819
1569397495.64382
1569397495.65945
1569397495.67507
1569397495.6907
1569397495.70632
1569397495.72195
1569397495.73757
1569397495.7532
1569397495.76883
1569397495.78445
1569397495.80008
1569397495.8157
1569397495.83133
1569397495.84695
1569397495.86258
1569397495.87821
1569397495.89383
1569397495.90946
1569397495.92508
1569397495.94071
1569397495.95634
1569397495.97196
1569397495.98759
1569397496.00321
1569397496.01884
1569397496.03446
1569397496.05009
1569397496.06572
1569397496.08134
1569397496.09697
1569397496.11259
1569397496.12822
1569397496.14384
1569397496.15947
1569397496.1751
1569397496.19072
1569397496.20635
1569397496.22197
1569397496.2376
1569397496.25322
1569397496.26885
1569397496.28448
1569397496.3001
1569397496.31573
1569397496.33135
1569397496.34698
1569397496.3626
1569397496.37823
1569397496.39386
1569397496.40948
1569397496.42511
1569397496.44073
1569397496.45636
1569397496.47198
1569397496.48761
1569397496.50324
1569397496.51886
1569397496.53449
1569397496.55011
1569397496.56574
1569397496.58136
1569397496.59699
1569397496.61262
1569397496.62824
1569397496.64387
1569397496.65949
1569397496.67512
1569397496.69074
1569397496.70637
1569397496.722
1569397496.73762
1569397496.75325
1569397496.76887
1569397496.7845
1569397496.80012
1569397496.81575
1569397496.83138
1569397496.847
1569397496.86263
1569397496.87825
1569397496.89388
1569397496.9095
1569397496.92513
1569397496.94076
1569397496.95638
1569397496.97201
1569397496.98763
1569397497.00326
1569397497.01888
1569397497.03451
1569397497.05014
1569397497.06576
1569397497.08139
1569397497.09701
1569397497.11264
1569397497.12826
1569397497.14389
1569397497.15952
1569397497.17514
1569397497.19077
1569397497.20639
1569397497.22202
1569397497.23764
1569397497.25327
1569397497.2689
1569397497.28452
1569397497.30015
1569397497.31577
1569397497.3314
1569397497.34702
1569397497.36265
1569397497.37828
1569397497.3939
1569397497.40953
1569397497.42515
1569397497.44078
1569397497.4564
1569397497.47203
1569397497.48766
1569397497.50328
1569397497.51891
1569397497.53453
1569397497.55016
1569397497.56578
1569397497.58141
1569397497.59704
1569397497.61266
1569397497.62829
1569397497.64391
1569397497.65954
1569397497.67516
1569397497.69079
1569397497.70642
1569397497.72204
1569397497.73767
1569397497.75329
1569397497.76892
1569397497.78454
1569397497.80017
1569397497.8158
1569397497.83142
1569397497.84705
1569397497.86267
1569397497.8783
1569397497.89392
1569397497.90955
1569397497.92518
1569397497.9408
1569397497.95643
1569397497.97205
1569397497.98768
1569397498.0033
1569397498.01893
1569397498.03456
1569397498.05018
1569397498.06581
1569397498.08143
1569397498.09706
1569397498.11268
1569397498.12831
1569397498.14394
1569397498.15956
1569397498.17519
1569397498.19081
1569397498.20644
1569397498.22206
1569397498.23769
1569397498.25332
1569397498.26894
1569397498.28457
1569397498.30019
1569397498.31582
1569397498.33144
1569397498.34707
1569397498.3627
1569397498.37832
1569397498.39395
1569397498.40957
1569397498.4252
1569397498.44082
1569397498.45645
1569397498.47208
1569397498.4877
1569397498.50333
1569397498.51895
1569397498.53458
1569397498.5502
1569397498.56583
1569397498.58146
1569397498.59708
1569397498.61271
1569397498.62833
1569397498.64396
1569397498.65959
1569397498.67521
1569397498.69084
1569397498.70646
1569397498.72209
1569397498.73771
1569397498.75334
1569397498.76897
1569397498.78459
1569397498.80022
1569397498.81584
1569397498.83147
1569397498.84709
1569397498.86272
1569397498.87835
1569397498.89397
1569397498.9096
1569397498.92522
1569397498.94085
1569397498.95647
1569397498.9721
1569397498.98773
1569397499.00335
1569397499.01898
1569397499.0346
1569397499.05023
1569397499.06585
1569397499.08148
1569397499.09711
1569397499.11273
1569397499.12836
1569397499.14398
1569397499.15961
1569397499.17523
1569397499.19086
1569397499.20649
1569397499.22211
1569397499.23774
1569397499.25336
1569397499.26899
1569397499.28461
1569397499.30024
1569397499.31587
1569397499.33149
1569397499.34712
1569397499.36274
1569397499.37837
1569397499.39399
1569397499.40962
1569397499.42525
1569397499.44087
1569397499.4565
1569397499.47212
1569397499.48775
1569397499.50337
1569397499.519
1569397499.53463
1569397499.55025
1569397499.56588
1569397499.5815
1569397499.59713
1569397499.61275
1569397499.62838
1569397499.64401
1569397499.65963
1569397499.67526
1569397499.69088
1569397499.70651
1569397499.72213
1569397499.73776
1569397499.75339
1569397499.76901
1569397499.78464
1569397499.80026
1569397499.81589
1569397499.83151
1569397499.84714
1569397499.86277
1569397499.87839
1569397499.89402
1569397499.90964
1569397499.92527
1569397499.94089
1569397499.95652
1569397499.97215
1569397499.98777
1569397500.0034
1569397500.01902
1569397500.03465
1569397500.05027
1569397500.0659
1569397500.08153
1569397500.09715
1569397500.11278
1569397500.1284
1569397500.14403
1569397500.15965
1569397500.17528
1569397500.19091
1569397500.20653
1569397500.22216
1569397500.23778
1569397500.25341
1569397500.26903
1569397500.28466
1569397500.30029
1569397500.31591
1569397500.33154
1569397500.34716
1569397500.36279
1569397500.37841
1569397500.39404
1569397500.40967
1569397500.42529
1569397500.44092
1569397500.45654
1569397500.47217
1569397500.48779
1569397500.50342
1569397500.51905
1569397500.53467
1569397500.5503
1569397500.56592
1569397500.58155
1569397500.59717
1569397500.6128
1569397500.62843
1569397500.64405
1569397500.65968
1569397500.6753
1569397500.69093
1569397500.70655
1569397500.72218
1569397500.73781
1569397500.75343
1569397500.76906
1569397500.78468
1569397500.80031
1569397500.81594
1569397500.83156
1569397500.84719
1569397500.86281
1569397500.87844
1569397500.89406
1569397500.90969
1569397500.92532
1569397500.94094
1569397500.95657
1569397500.97219
1569397500.98782
1569397501.00344
1569397501.01907
1569397501.0347
1569397501.05032
1569397501.06595
1569397501.08157
1569397501.0972
1569397501.11282
1569397501.12845
1569397501.14408
1569397501.1597
1569397501.17533
1569397501.19095
1569397501.20658
1569397501.2222
1569397501.23783
1569397501.25346
1569397501.26908
1569397501.28471
1569397501.30033
1569397501.31596
1569397501.33158
1569397501.34721
1569397501.36284
1569397501.37846
1569397501.39409
1569397501.40971
1569397501.42534
1569397501.44096
1569397501.45659
1569397501.47222
1569397501.48784
1569397501.50347
1569397501.51909
1569397501.53472
1569397501.55034
1569397501.56597
1569397501.5816
1569397501.59722
1569397501.61285
1569397501.62847
1569397501.6441
1569397501.65972
1569397501.67535
1569397501.69098
1569397501.7066
1569397501.72223
1569397501.73785
1569397501.75348
1569397501.7691
1569397501.78473
1569397501.80036
1569397501.81598
1569397501.83161
1569397501.84723
1569397501.86286
1569397501.87848
1569397501.89411
1569397501.90974
1569397501.92536
1569397501.94099
1569397501.95661
1569397501.97224
1569397501.98786
1569397502.00349
1569397502.01912
1569397502.03474
1569397502.05037
1569397502.06599
1569397502.08162
1569397502.09724
1569397502.11287
1569397502.1285
1569397502.14412
1569397502.15975
1569397502.17537
1569397502.191
1569397502.20662
1569397502.22225
1569397502.23788
1569397502.2535
1569397502.26913
1569397502.28475
1569397502.30038
1569397502.316
1569397502.33163
1569397502.34726
1569397502.36288
1569397502.37851
1569397502.39413
1569397502.40976
1569397502.42538
1569397502.44101
1569397502.45664
1569397502.47226
1569397502.48789
1569397502.50351
1569397502.51914
1569397502.53476
1569397502.55039
1569397502.56602
1569397502.58164
1569397502.59727
1569397502.61289
1569397502.62852
1569397502.64414
1569397502.65977
1569397502.6754
1569397502.69102
1569397502.70665
1569397502.72227
1569397502.7379
1569397502.75352
1569397502.76915
1569397502.78478
1569397502.8004
1569397502.81603
1569397502.83165
1569397502.84728
1569397502.8629
1569397502.87853
1569397502.89416
1569397502.90978
1569397502.92541
1569397502.94103
1569397502.95666
1569397502.97228
1569397502.98791
1569397503.00354
1569397503.01916
1569397503.03479
1569397503.05041
1569397503.06604
1569397503.08167
1569397503.09729
1569397503.11292
1569397503.12854
1569397503.14417
1569397503.15979
1569397503.17542
1569397503.19105
1569397503.20667
1569397503.2223
1569397503.23792
1569397503.25355
1569397503.26917
1569397503.2848
1569397503.30043
1569397503.31605
1569397503.33168
1569397503.3473
1569397503.36293
1569397503.37855
1569397503.39418
1569397503.40981
1569397503.42543
1569397503.44106
1569397503.45668
1569397503.47231
1569397503.48793
1569397503.50356
1569397503.51919
1569397503.53481
1569397503.55044
1569397503.56606
1569397503.58169
1569397503.59731
1569397503.61294
1569397503.62857
1569397503.64419
1569397503.65982
1569397503.67544
1569397503.69107
1569397503.70669
1569397503.72232
1569397503.73795
1569397503.75357
1569397503.7692
1569397503.78482
1569397503.80045
1569397503.81607
1569397503.8317
1569397503.84733
1569397503.86295
1569397503.87858
1569397503.8942
1569397503.90983
1569397503.92545
1569397503.94108
1569397503.95671
1569397503.97233
1569397503.98796
1569397504.00358
1569397504.01921
1569397504.03483
1569397504.05046
1569397504.06609
1569397504.08171
1569397504.09734
1569397504.11296
1569397504.12859
1569397504.14421
1569397504.15984
1569397504.17547
1569397504.19109
1569397504.20672
1569397504.22234
1569397504.23797
1569397504.25359
1569397504.26922
1569397504.28485
1569397504.30047
1569397504.3161
1569397504.33172
1569397504.34735
1569397504.36297
1569397504.3786
1569397504.39423
1569397504.40985
1569397504.42548
1569397504.4411
1569397504.45673
1569397504.47235
1569397504.48798
1569397504.50361
1569397504.51923
1569397504.53486
1569397504.55048
1569397504.56611
1569397504.58173
1569397504.59736
1569397504.61299
1569397504.62861
1569397504.64424
1569397504.65986
1569397504.67549
1569397504.69111
1569397504.70674
1569397504.72237
1569397504.73799
1569397504.75362
1569397504.76924
1569397504.78487
1569397504.80049
1569397504.81612
1569397504.83175
1569397504.84737
1569397504.863
1569397504.87862
1569397504.89425
1569397504.90987
1569397504.9255
1569397504.94113
1569397504.95675
1569397504.97238
1569397504.988
1569397505.00363
1569397505.01925
1569397505.03488
1569397505.05051
1569397505.06613
1569397505.08176
1569397505.09738
1569397505.11301
1569397505.12863
1569397505.14426
1569397505.15989
1569397505.17551
1569397505.19114
1569397505.20676
1569397505.22239
1569397505.23801
1569397505.25364
1569397505.26927
1569397505.28489
1569397505.30052
1569397505.31614
1569397505.33177
1569397505.34739
1569397505.36302
1569397505.37865
1569397505.39427
1569397505.4099
1569397505.42552
1569397505.44115
1569397505.45677
1569397505.4724
1569397505.48803
1569397505.50365
1569397505.51928
1569397505.5349
1569397505.55053
1569397505.56615
1569397505.58178
1569397505.59741
1569397505.61303
1569397505.62866
1569397505.64428
1569397505.65991
1569397505.67554
1569397505.69116
1569397505.70679
1569397505.72241
1569397505.73804
1569397505.75366
1569397505.76929
1569397505.78492
1569397505.80054
1569397505.81617
1569397505.83179
1569397505.84742
1569397505.86304
1569397505.87867
1569397505.8943
1569397505.90992
1569397505.92555
1569397505.94117
1569397505.9568
1569397505.97242
1569397505.98805
1569397506.00368
1569397506.0193
1569397506.03493
1569397506.05055
1569397506.06618
1569397506.0818
1569397506.09743
1569397506.11306
1569397506.12868
1569397506.14431
1569397506.15993
1569397506.17556
1569397506.19118
1569397506.20681
1569397506.22244
1569397506.23806
1569397506.25369
1569397506.26931
1569397506.28494
1569397506.30056
1569397506.31619
1569397506.33182
1569397506.34744
1569397506.36307
1569397506.37869
1569397506.39432
1569397506.40994
1569397506.42557
1569397506.4412
1569397506.45682
1569397506.47245
1569397506.48807
1569397506.5037
1569397506.51932
1569397506.53495
1569397506.55058
1569397506.5662
1569397506.58183
1569397506.59745
1569397506.61308
1569397506.6287
1569397506.64433
1569397506.65996
1569397506.67558
1569397506.69121
1569397506.70683
1569397506.72246
1569397506.73808
1569397506.75371
1569397506.76934
1569397506.78496
1569397506.80059
1569397506.81621
1569397506.83184
1569397506.84746
1569397506.86309
1569397506.87872
1569397506.89434
1569397506.90997
1569397506.92559
1569397506.94122
1569397506.95684
1569397506.97247
1569397506.9881
1569397507.00372
1569397507.01935
1569397507.03497
1569397507.0506
1569397507.06622
1569397507.08185
1569397507.09748
1569397507.1131
1569397507.12873
1569397507.14435
1569397507.15998
1569397507.1756
1569397507.19123
1569397507.20686
1569397507.22248
1569397507.23811
1569397507.25373
1569397507.26936
1569397507.28498
1569397507.30061
1569397507.31624
1569397507.33186
1569397507.34749
1569397507.36311
1569397507.37874
1569397507.39436
1569397507.40999
1569397507.42562
1569397507.44124
1569397507.45687
1569397507.47249
1569397507.48812
1569397507.50374
1569397507.51937
1569397507.535
1569397507.55062
1569397507.56625
1569397507.58187
1569397507.5975
1569397507.61312
1569397507.62875
1569397507.64438
1569397507.66
1569397507.67563
1569397507.69125
1569397507.70688
1569397507.7225
1569397507.73813
1569397507.75376
1569397507.76938
1569397507.78501
1569397507.80063
1569397507.81626
1569397507.83188
1569397507.84751
1569397507.86314
1569397507.87876
1569397507.89439
1569397507.91001
1569397507.92564
1569397507.94127
1569397507.95689
1569397507.97252
1569397507.98814
1569397508.00377
1569397508.01939
1569397508.03502
1569397508.05065
1569397508.06627
1569397508.0819
1569397508.09752
1569397508.11315
1569397508.12877
1569397508.1444
1569397508.16003
1569397508.17565
1569397508.19128
1569397508.2069
1569397508.22253
1569397508.23815
1569397508.25378
1569397508.26941
1569397508.28503
1569397508.30066
1569397508.31628
1569397508.33191
1569397508.34753
1569397508.36316
1569397508.37879
1569397508.39441
1569397508.41004
1569397508.42566
1569397508.44129
1569397508.45691
1569397508.47254
1569397508.48817
1569397508.50379
1569397508.51942
1569397508.53504
1569397508.55067
1569397508.56629
1569397508.58192
1569397508.59755
1569397508.61317
1569397508.6288
1569397508.64442
1569397508.66005
1569397508.67567
1569397508.6913
1569397508.70693
1569397508.72255
1569397508.73818
1569397508.7538
1569397508.76943
1569397508.78505
1569397508.80068
1569397508.81631
1569397508.83193
1569397508.84756
1569397508.86318
1569397508.87881
1569397508.89443
1569397508.91006
1569397508.92569
1569397508.94131
1569397508.95694
1569397508.97256
1569397508.98819
1569397509.00381
1569397509.01944
1569397509.03507
1569397509.05069
1569397509.06632
1569397509.08194
1569397509.09757
1569397509.11319
1569397509.12882
1569397509.14445
1569397509.16007
1569397509.1757
1569397509.19132
1569397509.20695
1569397509.22257
1569397509.2382
1569397509.25383
1569397509.26945
1569397509.28508
1569397509.3007
1569397509.31633
1569397509.33195
1569397509.34758
1569397509.36321
1569397509.37883
1569397509.39446
1569397509.41008
1569397509.42571
1569397509.44133
1569397509.45696
1569397509.47259
1569397509.48821
1569397509.50384
1569397509.51946
1569397509.53509
1569397509.55071
1569397509.56634
1569397509.58197
1569397509.59759
1569397509.61322
1569397509.62884
1569397509.64447
1569397509.66009
1569397509.67572
1569397509.69135
1569397509.70697
1569397509.7226
1569397509.73822
1569397509.75385
1569397509.76947
1569397509.7851
1569397509.80073
1569397509.81635
1569397509.83198
1569397509.8476
1569397509.86323
1569397509.87885
1569397509.89448
1569397509.91011
1569397509.92573
1569397509.94136
1569397509.95698
1569397509.97261
1569397509.98823
1569397510.00386
1569397510.01949
1569397510.03511
1569397510.05074
1569397510.06636
1569397510.08199
1569397510.09762
1569397510.11324
1569397510.12887
1569397510.14449
1569397510.16012
1569397510.17574
1569397510.19137
1569397510.207
1569397510.22262
1569397510.23825
1569397510.25387
1569397510.2695
1569397510.28512
1569397510.30075
1569397510.31638
1569397510.332
1569397510.34763
1569397510.36325
1569397510.37888
1569397510.3945
1569397510.41013
1569397510.42576
1569397510.44138
1569397510.45701
1569397510.47263
1569397510.48826
1569397510.50388
1569397510.51951
1569397510.53514
1569397510.55076
1569397510.56639
1569397510.58201
1569397510.59764
1569397510.61326
1569397510.62889
1569397510.64452
1569397510.66014
1569397510.67577
1569397510.69139
1569397510.70702
1569397510.72264
1569397510.73827
1569397510.7539
1569397510.76952
1569397510.78515
1569397510.80077
1569397510.8164
1569397510.83202
1569397510.84765
1569397510.86328
1569397510.8789
1569397510.89453
1569397510.91015
1569397510.92578
1569397510.9414
1569397510.95703
1569397510.97266
1569397510.98828
1569397511.00391
1569397511.01953
1569397511.03516
1569397511.05078
1569397511.06641
1569397511.08204
1569397511.09766
1569397511.11329
1569397511.12891
1569397511.14454
1569397511.16016
1569397511.17579
1569397511.19142
1569397511.20704
1569397511.22267
1569397511.23829
1569397511.25392
1569397511.26954
1569397511.28517
1569397511.3008
1569397511.31642
1569397511.33205
1569397511.34767
1569397511.3633
1569397511.37892
1569397511.39455
1569397511.41018
1569397511.4258
1569397511.44143
1569397511.45705
1569397511.47268
1569397511.4883
1569397511.50393
1569397511.51956
1569397511.53518
1569397511.55081
1569397511.56643
1569397511.58206
1569397511.59768
1569397511.61331
1569397511.62894
1569397511.64456
1569397511.66019
1569397511.67581
1569397511.69144
1569397511.70706
1569397511.72269
1569397511.73832
1569397511.75394
1569397511.76957
1569397511.78519
1569397511.80082
1569397511.81644
1569397511.83207
1569397511.8477
1569397511.86332
1569397511.87895
1569397511.89457
1569397511.9102
1569397511.92582
1569397511.94145
1569397511.95708
1569397511.9727
1569397511.98833
1569397512.00395
1569397512.01958
1569397512.0352
1569397512.05083
1569397512.06646
1569397512.08208
1569397512.09771
1569397512.11333
1569397512.12896
1569397512.14458
1569397512.16021
1569397512.17584
1569397512.19146
1569397512.20709
1569397512.22271
1569397512.23834
1569397512.25396
1569397512.26959
1569397512.28522
1569397512.30084
1569397512.31647
1569397512.33209
1569397512.34772
1569397512.36334
1569397512.37897
1569397512.3946
1569397512.41022
1569397512.42585
1569397512.44147
1569397512.4571
1569397512.47272
1569397512.48835
1569397512.50398
1569397512.5196
1569397512.53523
1569397512.55085
1569397512.56648
1569397512.5821
1569397512.59773
1569397512.61336
1569397512.62898
1569397512.64461
1569397512.66023
1569397512.67586
1569397512.69148
1569397512.70711
1569397512.72274
1569397512.73836
1569397512.75399
1569397512.76961
1569397512.78524
1569397512.80087
1569397512.81649
1569397512.83212
1569397512.84774
1569397512.86337
1569397512.87899
1569397512.89462
1569397512.91025
1569397512.92587
1569397512.9415
1569397512.95712
1569397512.97275
1569397512.98837
1569397513.004
1569397513.01963
1569397513.03525
1569397513.05088
1569397513.0665
1569397513.08213
1569397513.09775
1569397513.11338
1569397513.12901
1569397513.14463
1569397513.16026
1569397513.17588
1569397513.19151
1569397513.20713
1569397513.22276
1569397513.23839
1569397513.25401
1569397513.26964
1569397513.28526
1569397513.30089
1569397513.31651
1569397513.33214
1569397513.34777
1569397513.36339
1569397513.37902
1569397513.39464
1569397513.41027
1569397513.42589
1569397513.44152
1569397513.45715
1569397513.47277
1569397513.4884
1569397513.50402
1569397513.51965
1569397513.53527
1569397513.5509
1569397513.56653
1569397513.58215
1569397513.59778
1569397513.6134
1569397513.62903
1569397513.64465
1569397513.66028
1569397513.67591
1569397513.69153
1569397513.70716
1569397513.72278
1569397513.73841
1569397513.75403
1569397513.76966
1569397513.78529
1569397513.80091
1569397513.81654
1569397513.83216
1569397513.84779
1569397513.86341
1569397513.87904
1569397513.89467
1569397513.91029
1569397513.92592
1569397513.94154
1569397513.95717
1569397513.97279
1569397513.98842
1569397514.00405
1569397514.01967
1569397514.0353
1569397514.05092
1569397514.06655
1569397514.08217
1569397514.0978
1569397514.11343
1569397514.12905
1569397514.14468
1569397514.1603
1569397514.17593
1569397514.19155
1569397514.20718
1569397514.22281
1569397514.23843
1569397514.25406
1569397514.26968
1569397514.28531
1569397514.30093
1569397514.31656
1569397514.33219
1569397514.34781
1569397514.36344
1569397514.37906
1569397514.39469
1569397514.41031
1569397514.42594
1569397514.44157
1569397514.45719
1569397514.47282
1569397514.48844
1569397514.50407
1569397514.51969
1569397514.53532
1569397514.55095
1569397514.56657
1569397514.5822
1569397514.59782
1569397514.61345
1569397514.62907
1569397514.6447
1569397514.66033
1569397514.67595
1569397514.69158
1569397514.7072
1569397514.72283
1569397514.73845
1569397514.75408
1569397514.76971
1569397514.78533
1569397514.80096
1569397514.81658
1569397514.83221
1569397514.84783
1569397514.86346
1569397514.87909
1569397514.89471
1569397514.91034
1569397514.92596
1569397514.94159
1569397514.95722
1569397514.97284
1569397514.98847
1569397515.00409
1569397515.01972
1569397515.03534
1569397515.05097
1569397515.0666
1569397515.08222
1569397515.09785
1569397515.11347
1569397515.1291
1569397515.14472
1569397515.16035
1569397515.17598
1569397515.1916
1569397515.20723
1569397515.22285
1569397515.23848
1569397515.2541
1569397515.26973
1569397515.28536
1569397515.30098
1569397515.31661
1569397515.33223
1569397515.34786
1569397515.36348
1569397515.37911
1569397515.39474
1569397515.41036
1569397515.42599
1569397515.44161
1569397515.45724
1569397515.47286
1569397515.48849
1569397515.50412
1569397515.51974
1569397515.53537
1569397515.55099
1569397515.56662
1569397515.58224
1569397515.59787
1569397515.6135
1569397515.62912
1569397515.64475
1569397515.66037
1569397515.676
1569397515.69162
1569397515.70725
1569397515.72288
1569397515.7385
1569397515.75413
1569397515.76975
1569397515.78538
1569397515.801
1569397515.81663
1569397515.83226
1569397515.84788
1569397515.86351
1569397515.87913
1569397515.89476
1569397515.91038
1569397515.92601
1569397515.94164
1569397515.95726
1569397515.97289
1569397515.98851
1569397516.00414
1569397516.01976
1569397516.03539
1569397516.05102
1569397516.06664
1569397516.08227
1569397516.09789
1569397516.11352
1569397516.12914
1569397516.14477
1569397516.1604
1569397516.17602
1569397516.19165
1569397516.20727
1569397516.2229
1569397516.23852
1569397516.25415
1569397516.26978
1569397516.2854
1569397516.30103
1569397516.31665
1569397516.33228
1569397516.3479
1569397516.36353
1569397516.37916
1569397516.39478
1569397516.41041
1569397516.42603
1569397516.44166
1569397516.45728
1569397516.47291
1569397516.48854
1569397516.50416
1569397516.51979
1569397516.53541
1569397516.55104
1569397516.56666
1569397516.58229
1569397516.59792
1569397516.61354
1569397516.62917
1569397516.64479
1569397516.66042
1569397516.67604
1569397516.69167
1569397516.7073
1569397516.72292
1569397516.73855
1569397516.75417
1569397516.7698
1569397516.78542
1569397516.80105
1569397516.81668
1569397516.8323
1569397516.84793
1569397516.86355
1569397516.87918
1569397516.8948
1569397516.91043
1569397516.92606
1569397516.94168
1569397516.95731
1569397516.97293
1569397516.98856
1569397517.00418
1569397517.01981
1569397517.03544
1569397517.05106
1569397517.06669
1569397517.08231
1569397517.09794
1569397517.11356
1569397517.12919
1569397517.14482
1569397517.16044
1569397517.17607
1569397517.19169
1569397517.20732
1569397517.22294
1569397517.23857
1569397517.2542
1569397517.26982
1569397517.28545
1569397517.30107
1569397517.3167
1569397517.33232
1569397517.34795
1569397517.36358
1569397517.3792
1569397517.39483
1569397517.41045
1569397517.42608
1569397517.4417
1569397517.45733
1569397517.47296
1569397517.48858
1569397517.50421
1569397517.51983
1569397517.53546
1569397517.55109
1569397517.56671
1569397517.58234
1569397517.59796
1569397517.61359
1569397517.62921
1569397517.64484
1569397517.66047
1569397517.67609
1569397517.69172
1569397517.70734
1569397517.72297
1569397517.73859
1569397517.75422
1569397517.76985
1569397517.78547
1569397517.8011
1569397517.81672
1569397517.83235
1569397517.84797
1569397517.8636
1569397517.87923
1569397517.89485
1569397517.91048
1569397517.9261
1569397517.94173
1569397517.95735
1569397517.97298
1569397517.98861
1569397518.00423
1569397518.01986
1569397518.03548
1569397518.05111
1569397518.06673
1569397518.08236
1569397518.09799
1569397518.11361
1569397518.12924
1569397518.14486
1569397518.16049
1569397518.17611
1569397518.19174
1569397518.20737
1569397518.22299
1569397518.23862
1569397518.25424
1569397518.26987
1569397518.28549
1569397518.30112
1569397518.31675
1569397518.33237
1569397518.348
1569397518.36362
1569397518.37925
1569397518.39487
1569397518.4105
1569397518.42613
1569397518.44175
1569397518.45738
1569397518.473
1569397518.48863
1569397518.50425
1569397518.51988
1569397518.53551
1569397518.55113
1569397518.56676
1569397518.58238
1569397518.59801
1569397518.61363
1569397518.62926
1569397518.64489
1569397518.66051
1569397518.67614
1569397518.69176
1569397518.70739
1569397518.72301
1569397518.73864
1569397518.75427
1569397518.76989
1569397518.78552
1569397518.80114
1569397518.81677
1569397518.83239
1569397518.84802
1569397518.86365
1569397518.87927
1569397518.8949
1569397518.91052
1569397518.92615
1569397518.94177
1569397518.9574
1569397518.97303
1569397518.98865
1569397519.00428
1569397519.0199
1569397519.03553
1569397519.05115
1569397519.06678
1569397519.08241
1569397519.09803
1569397519.11366
1569397519.12928
1569397519.14491
1569397519.16053
1569397519.17616
1569397519.19179
1569397519.20741
1569397519.22304
1569397519.23866
1569397519.25429
1569397519.26991
1569397519.28554
1569397519.30117
1569397519.31679
1569397519.33242
1569397519.34804
1569397519.36367
1569397519.37929
1569397519.39492
1569397519.41055
1569397519.42617
1569397519.4418
1569397519.45742
1569397519.47305
1569397519.48867
1569397519.5043
1569397519.51993
1569397519.53555
1569397519.55118
1569397519.5668
1569397519.58243
1569397519.59805
1569397519.61368
1569397519.62931
1569397519.64493
1569397519.66056
1569397519.67618
1569397519.69181
1569397519.70743
1569397519.72306
1569397519.73869
1569397519.75431
1569397519.76994
1569397519.78556
1569397519.80119
1569397519.81682
1569397519.83244
1569397519.84807
1569397519.86369
1569397519.87932
1569397519.89494
1569397519.91057
1569397519.9262
1569397519.94182
1569397519.95745
1569397519.97307
1569397519.9887
1569397520.00432
1569397520.01995
1569397520.03558
1569397520.0512
1569397520.06683
1569397520.08245
1569397520.09808
1569397520.1137
1569397520.12933
1569397520.14496
1569397520.16058
1569397520.17621
1569397520.19183
1569397520.20746
1569397520.22308
1569397520.23871
1569397520.25434
1569397520.26996
1569397520.28559
1569397520.30121
1569397520.31684
1569397520.33246
1569397520.34809
1569397520.36372
1569397520.37934
1569397520.39497
1569397520.41059
1569397520.42622
1569397520.44184
1569397520.45747
1569397520.4731
1569397520.48872
1569397520.50435
1569397520.51997
1569397520.5356
1569397520.55122
1569397520.56685
1569397520.58248
1569397520.5981
1569397520.61373
1569397520.62935
1569397520.64498
1569397520.6606
1569397520.67623
1569397520.69186
1569397520.70748
1569397520.72311
1569397520.73873
1569397520.75436
1569397520.76998
1569397520.78561
1569397520.80124
1569397520.81686
1569397520.83249
1569397520.84811
1569397520.86374
1569397520.87936
1569397520.89499
1569397520.91062
1569397520.92624
1569397520.94187
1569397520.95749
1569397520.97312
1569397520.98874
1569397521.00437
1569397521.02
1569397521.03562
1569397521.05125
1569397521.06687
1569397521.0825
1569397521.09812
1569397521.11375
1569397521.12938
1569397521.145
1569397521.16063
1569397521.17625
1569397521.19188
1569397521.2075
1569397521.22313
1569397521.23876
1569397521.25438
1569397521.27001
1569397521.28563
1569397521.30126
1569397521.31688
1569397521.33251
1569397521.34814
1569397521.36376
1569397521.37939
1569397521.39501
1569397521.41064
1569397521.42626
1569397521.44189
1569397521.45752
1569397521.47314
1569397521.48877
1569397521.50439
1569397521.52002
1569397521.53564
1569397521.55127
1569397521.5669
1569397521.58252
1569397521.59815
1569397521.61377
1569397521.6294
1569397521.64502
1569397521.66065
1569397521.67628
1569397521.6919
1569397521.70753
1569397521.72315
1569397521.73878
1569397521.7544
1569397521.77003
1569397521.78566
1569397521.80128
1569397521.81691
1569397521.83253
1569397521.84816
1569397521.86378
1569397521.87941
1569397521.89504
1569397521.91066
1569397521.92629
1569397521.94191
1569397521.95754
1569397521.97316
1569397521.98879
1569397522.00442
1569397522.02004
1569397522.03567
1569397522.05129
1569397522.06692
1569397522.08255
1569397522.09817
1569397522.1138
1569397522.12942
1569397522.14505
1569397522.16067
1569397522.1763
1569397522.19193
1569397522.20755
1569397522.22318
1569397522.2388
1569397522.25443
1569397522.27005
1569397522.28568
1569397522.30131
1569397522.31693
1569397522.33256
1569397522.34818
1569397522.36381
1569397522.37943
1569397522.39506
1569397522.41069
1569397522.42631
1569397522.44194
1569397522.45756
1569397522.47319
1569397522.48881
1569397522.50444
1569397522.52007
1569397522.53569
1569397522.55132
1569397522.56694
1569397522.58257
1569397522.59819
1569397522.61382
1569397522.62945
1569397522.64507
1569397522.6607
1569397522.67632
1569397522.69195
1569397522.70757
1569397522.7232
1569397522.73883
1569397522.75445
1569397522.77008
1569397522.7857
1569397522.80133
1569397522.81695
1569397522.83258
1569397522.84821
1569397522.86383
1569397522.87946
1569397522.89508
1569397522.91071
1569397522.92633
1569397522.94196
1569397522.95759
1569397522.97321
1569397522.98884
1569397523.00446
1569397523.02009
1569397523.03571
1569397523.05134
1569397523.06697
1569397523.08259
1569397523.09822
1569397523.11384
1569397523.12947
1569397523.14509
1569397523.16072
1569397523.17635
1569397523.19197
1569397523.2076
1569397523.22322
1569397523.23885
1569397523.25447
1569397523.2701
1569397523.28573
1569397523.30135
1569397523.31698
1569397523.3326
1569397523.34823
1569397523.36385
1569397523.37948
1569397523.39511
1569397523.41073
1569397523.42636
1569397523.44198
1569397523.45761
1569397523.47323
1569397523.48886
1569397523.50449
1569397523.52011
1569397523.53574
1569397523.55136
1569397523.56699
1569397523.58261
1569397523.59824
1569397523.61387
1569397523.62949
1569397523.64512
1569397523.66074
1569397523.67637
1569397523.69199
1569397523.70762
1569397523.72325
1569397523.73887
1569397523.7545
1569397523.77012
1569397523.78575
1569397523.80137
1569397523.817
1569397523.83263
1569397523.84825
1569397523.86388
1569397523.8795
1569397523.89513
1569397523.91075
1569397523.92638
1569397523.94201
1569397523.95763
1569397523.97326
1569397523.98888
1569397524.00451
1569397524.02013
1569397524.03576
1569397524.05139
1569397524.06701
1569397524.08264
1569397524.09826
1569397524.11389
1569397524.12951
1569397524.14514
1569397524.16077
1569397524.17639
1569397524.19202
1569397524.20764
1569397524.22327
1569397524.23889
1569397524.25452
1569397524.27015
1569397524.28577
1569397524.3014
1569397524.31702
1569397524.33265
1569397524.34827
1569397524.3639
1569397524.37953
1569397524.39515
1569397524.41078
1569397524.4264
1569397524.44203
1569397524.45765
1569397524.47328
1569397524.48891
1569397524.50453
1569397524.52016
1569397524.53578
1569397524.55141
1569397524.56703
1569397524.58266
1569397524.59829
1569397524.61391
1569397524.62954
1569397524.64516
1569397524.66079
1569397524.67642
1569397524.69204
1569397524.70767
1569397524.72329
1569397524.73892
1569397524.75454
1569397524.77017
1569397524.7858
1569397524.80142
1569397524.81705
1569397524.83267
1569397524.8483
1569397524.86392
1569397524.87955
1569397524.89518
1569397524.9108
1569397524.92643
1569397524.94205
1569397524.95768
1569397524.9733
1569397524.98893
1569397525.00456
1569397525.02018
1569397525.03581
1569397525.05143
1569397525.06706
1569397525.08268
1569397525.09831
1569397525.11394
1569397525.12956
1569397525.14519
1569397525.16081
1569397525.17644
1569397525.19206
1569397525.20769
1569397525.22332
1569397525.23894
1569397525.25457
1569397525.27019
1569397525.28582
1569397525.30144
1569397525.31707
1569397525.3327
1569397525.34832
1569397525.36395
1569397525.37957
1569397525.3952
1569397525.41082
1569397525.42645
1569397525.44208
1569397525.4577
1569397525.47333
1569397525.48895
1569397525.50458
1569397525.5202
1569397525.53583
1569397525.55146
1569397525.56708
1569397525.58271
1569397525.59833
1569397525.61396
1569397525.62958
1569397525.64521
1569397525.66084
1569397525.67646
1569397525.69209
1569397525.70771
1569397525.72334
1569397525.73896
1569397525.75459
1569397525.77022
1569397525.78584
1569397525.80147
1569397525.81709
1569397525.83272
1569397525.84834
1569397525.86397
1569397525.8796
1569397525.89522
1569397525.91085
1569397525.92647
1569397525.9421
1569397525.95772
1569397525.97335
1569397525.98898
1569397526.0046
1569397526.02023
1569397526.03585
1569397526.05148
1569397526.0671
1569397526.08273
1569397526.09836
1569397526.11398
1569397526.12961
1569397526.14523
1569397526.16086
1569397526.17648
1569397526.19211
1569397526.20774
1569397526.22336
1569397526.23899
1569397526.25461
1569397526.27024
1569397526.28586
1569397526.30149
1569397526.31712
1569397526.33274
1569397526.34837
1569397526.36399
1569397526.37962
1569397526.39524
1569397526.41087
1569397526.4265
1569397526.44212
1569397526.45775
1569397526.47337
1569397526.489
1569397526.50462
1569397526.52025
1569397526.53588
1569397526.5515
1569397526.56713
1569397526.58275
1569397526.59838
1569397526.614
1569397526.62963
1569397526.64526
1569397526.66088
1569397526.67651
1569397526.69213
1569397526.70776
1569397526.72338
1569397526.73901
1569397526.75464
1569397526.77026
1569397526.78589
1569397526.80151
1569397526.81714
1569397526.83276
1569397526.84839
1569397526.86402
1569397526.87964
1569397526.89527
1569397526.91089
1569397526.92652
1569397526.94215
1569397526.95777
1569397526.9734
1569397526.98902
1569397527.00465
1569397527.02027
1569397527.0359
1569397527.05153
1569397527.06715
1569397527.08278
1569397527.0984
1569397527.11403
1569397527.12965
1569397527.14528
1569397527.16091
1569397527.17653
1569397527.19216
1569397527.20778
1569397527.22341
1569397527.23903
1569397527.25466
1569397527.27029
1569397527.28591
1569397527.30154
1569397527.31716
1569397527.33279
1569397527.34841
1569397527.36404
1569397527.37967
1569397527.39529
1569397527.41092
1569397527.42654
1569397527.44217
1569397527.45779
1569397527.47342
1569397527.48905
1569397527.50467
1569397527.5203
1569397527.53592
1569397527.55155
1569397527.56717
1569397527.5828
1569397527.59843
1569397527.61405
1569397527.62968
1569397527.6453
1569397527.66093
1569397527.67655
1569397527.69218
1569397527.70781
1569397527.72343
1569397527.73906
1569397527.75468
1569397527.77031
1569397527.78593
1569397527.80156
1569397527.81719
1569397527.83281
1569397527.84844
1569397527.86406
1569397527.87969
1569397527.89531
1569397527.91094
1569397527.92657
1569397527.94219
1569397527.95782
1569397527.97344
1569397527.98907
1569397528.00469
1569397528.02032
1569397528.03595
1569397528.05157
1569397528.0672
1569397528.08282
1569397528.09845
1569397528.11407
1569397528.1297
1569397528.14533
1569397528.16095
1569397528.17658
1569397528.1922
1569397528.20783
1569397528.22345
1569397528.23908
1569397528.25471
1569397528.27033
1569397528.28596
1569397528.30158
1569397528.31721
1569397528.33283
1569397528.34846
1569397528.36409
1569397528.37971
1569397528.39534
1569397528.41096
1569397528.42659
1569397528.44221
1569397528.45784
1569397528.47347
1569397528.48909
1569397528.50472
1569397528.52034
1569397528.53597
1569397528.55159
1569397528.56722
1569397528.58285
1569397528.59847
1569397528.6141
1569397528.62972
1569397528.64535
1569397528.66097
1569397528.6766
1569397528.69223
1569397528.70785
1569397528.72348
1569397528.7391
1569397528.75473
1569397528.77035
1569397528.78598
1569397528.80161
1569397528.81723
1569397528.83286
1569397528.84848
1569397528.86411
1569397528.87973
1569397528.89536
1569397528.91099
1569397528.92661
1569397528.94224
1569397528.95786
1569397528.97349
1569397528.98911
1569397529.00474
1569397529.02037
1569397529.03599
1569397529.05162
1569397529.06724
1569397529.08287
1569397529.09849
1569397529.11412
1569397529.12975
1569397529.14537
1569397529.161
1569397529.17662
1569397529.19225
1569397529.20788
1569397529.2235
1569397529.23913
1569397529.25475
1569397529.27038
1569397529.286
1569397529.30163
1569397529.31726
1569397529.33288
1569397529.34851
1569397529.36413
1569397529.37976
1569397529.39538
1569397529.41101
1569397529.42664
1569397529.44226
1569397529.45789
1569397529.47351
1569397529.48914
1569397529.50476
1569397529.52039
1569397529.53602
1569397529.55164
1569397529.56727
1569397529.58289
1569397529.59852
1569397529.61414
1569397529.62977
1569397529.6454
1569397529.66102
1569397529.67665
1569397529.69227
1569397529.7079
1569397529.72352
1569397529.73915
1569397529.75478
1569397529.7704
1569397529.78603
1569397529.80165
1569397529.81728
1569397529.8329
1569397529.84853
1569397529.86416
1569397529.87978
1569397529.89541
1569397529.91103
1569397529.92666
1569397529.94228
1569397529.95791
1569397529.97354
1569397529.98916
1569397530.00479
1569397530.02041
1569397530.03604
1569397530.05166
1569397530.06729
1569397530.08292
1569397530.09854
1569397530.11417
1569397530.12979
1569397530.14542
1569397530.16104
1569397530.17667
1569397530.1923
1569397530.20792
1569397530.22355
1569397530.23917
1569397530.2548
1569397530.27042
1569397530.28605
1569397530.30168
1569397530.3173
1569397530.33293
1569397530.34855
1569397530.36418
1569397530.3798
1569397530.39543
1569397530.41106
1569397530.42668
1569397530.44231
1569397530.45793
1569397530.47356
1569397530.48918
1569397530.50481
1569397530.52044
1569397530.53606
1569397530.55169
1569397530.56731
1569397530.58294
1569397530.59856
1569397530.61419
1569397530.62982
1569397530.64544
1569397530.66107
1569397530.67669
1569397530.69232
1569397530.70794
1569397530.72357
1569397530.7392
1569397530.75482
1569397530.77045
1569397530.78607
1569397530.8017
1569397530.81732
1569397530.83295
1569397530.84858
1569397530.8642
1569397530.87983
1569397530.89545
1569397530.91108
1569397530.9267
1569397530.94233
1569397530.95796
1569397530.97358
1569397530.98921
1569397531.00483
1569397531.02046
1569397531.03608
1569397531.05171
1569397531.06734
1569397531.08296
1569397531.09859
1569397531.11421
1569397531.12984
1569397531.14546
1569397531.16109
1569397531.17672
1569397531.19234
1569397531.20797
1569397531.22359
1569397531.23922
1569397531.25484
1569397531.27047
1569397531.2861
1569397531.30172
1569397531.31735
1569397531.33297
1569397531.3486
1569397531.36422
1569397531.37985
1569397531.39548
1569397531.4111
1569397531.42673
1569397531.44235
1569397531.45798
1569397531.4736
1569397531.48923
1569397531.50486
1569397531.52048
1569397531.53611
1569397531.55173
1569397531.56736
1569397531.58298
1569397531.59861
1569397531.61424
1569397531.62986
1569397531.64549
1569397531.66111
1569397531.67674
1569397531.69236
1569397531.70799
1569397531.72362
1569397531.73924
1569397531.75487
1569397531.77049
1569397531.78612
1569397531.80175
1569397531.81737
1569397531.833
1569397531.84862
1569397531.86425
1569397531.87987
1569397531.8955
1569397531.91113
1569397531.92675
1569397531.94238
1569397531.958
1569397531.97363
1569397531.98925
1569397532.00488
1569397532.02051
1569397532.03613
1569397532.05176
1569397532.06738
1569397532.08301
1569397532.09863
1569397532.11426
1569397532.12989
1569397532.14551
1569397532.16114
1569397532.17676
1569397532.19239
1569397532.20801
1569397532.22364
1569397532.23927
1569397532.25489
1569397532.27052
1569397532.28614
1569397532.30177
1569397532.31739
1569397532.33302
1569397532.34865
1569397532.36427
1569397532.3799
1569397532.39552
1569397532.41115
1569397532.42677
1569397532.4424
1569397532.45803
1569397532.47365
1569397532.48928
1569397532.5049
1569397532.52053
1569397532.53615
1569397532.55178
1569397532.56741
1569397532.58303
1569397532.59866
1569397532.61428
1569397532.62991
1569397532.64553
1569397532.66116
1569397532.67679
1569397532.69241
1569397532.70804
1569397532.72366
1569397532.73929
1569397532.75491
1569397532.77054
1569397532.78617
1569397532.80179
1569397532.81742
1569397532.83304
1569397532.84867
1569397532.86429
1569397532.87992
1569397532.89555
1569397532.91117
1569397532.9268
1569397532.94242
1569397532.95805
1569397532.97367
1569397532.9893
1569397533.00493
1569397533.02055
1569397533.03618
1569397533.0518
1569397533.06743
1569397533.08305
1569397533.09868
1569397533.11431
1569397533.12993
1569397533.14556
1569397533.16118
1569397533.17681
1569397533.19243
1569397533.20806
1569397533.22369
1569397533.23931
1569397533.25494
1569397533.27056
1569397533.28619
1569397533.30181
1569397533.31744
1569397533.33307
1569397533.34869
1569397533.36432
1569397533.37994
1569397533.39557
1569397533.41119
1569397533.42682
1569397533.44245
1569397533.45807
1569397533.4737
1569397533.48932
1569397533.50495
1569397533.52057
1569397533.5362
1569397533.55183
1569397533.56745
1569397533.58308
1569397533.5987
1569397533.61433
1569397533.62995
1569397533.64558
1569397533.66121
1569397533.67683
1569397533.69246
1569397533.70808
1569397533.72371
1569397533.73933
1569397533.75496
1569397533.77059
1569397533.78621
1569397533.80184
1569397533.81746
1569397533.83309
1569397533.84871
1569397533.86434
1569397533.87997
1569397533.89559
1569397533.91122
1569397533.92684
1569397533.94247
1569397533.95809
1569397533.97372
1569397533.98935
1569397534.00497
1569397534.0206
1569397534.03622
1569397534.05185
1569397534.06748
1569397534.0831
1569397534.09873
1569397534.11435
1569397534.12998
1569397534.1456
1569397534.16123
1569397534.17686
1569397534.19248
1569397534.20811
1569397534.22373
1569397534.23936
1569397534.25498
1569397534.27061
1569397534.28624
1569397534.30186
1569397534.31749
1569397534.33311
1569397534.34874
1569397534.36436
1569397534.37999
1569397534.39562
1569397534.41124
1569397534.42687
1569397534.44249
1569397534.45812
1569397534.47374
1569397534.48937
1569397534.505
1569397534.52062
1569397534.53625
1569397534.55187
1569397534.5675
1569397534.58312
1569397534.59875
1569397534.61438
1569397534.63
1569397534.64563
1569397534.66125
1569397534.67688
1569397534.6925
1569397534.70813
1569397534.72376
1569397534.73938
1569397534.75501
1569397534.77063
1569397534.78626
1569397534.80188
1569397534.81751
1569397534.83314
1569397534.84876
1569397534.86439
1569397534.88001
1569397534.89564
1569397534.91126
1569397534.92689
1569397534.94252
1569397534.95814
1569397534.97377
1569397534.98939
1569397535.00502
1569397535.02064
1569397535.03627
1569397535.0519
1569397535.06752
1569397535.08315
1569397535.09877
1569397535.1144
1569397535.13002
1569397535.14565
1569397535.16128
1569397535.1769
1569397535.19253
1569397535.20815
1569397535.22378
1569397535.2394
1569397535.25503
1569397535.27066
1569397535.28628
1569397535.30191
1569397535.31753
1569397535.33316
1569397535.34878
1569397535.36441
1569397535.38004
1569397535.39566
1569397535.41129
1569397535.42691
1569397535.44254
1569397535.45816
1569397535.47379
1569397535.48942
1569397535.50504
1569397535.52067
1569397535.53629
1569397535.55192
1569397535.56754
1569397535.58317
1569397535.5988
1569397535.61442
1569397535.63005
1569397535.64567
1569397535.6613
1569397535.67692
1569397535.69255
1569397535.70818
1569397535.7238
1569397535.73943
1569397535.75505
1569397535.77068
1569397535.7863
1569397535.80193
1569397535.81756
1569397535.83318
1569397535.84881
1569397535.86443
1569397535.88006
1569397535.89568
1569397535.91131
1569397535.92694
1569397535.94256
1569397535.95819
1569397535.97381
1569397535.98944
1569397536.00506
1569397536.02069
1569397536.03632
1569397536.05194
1569397536.06757
1569397536.08319
1569397536.09882
1569397536.11444
1569397536.13007
1569397536.1457
1569397536.16132
1569397536.17695
1569397536.19257
1569397536.2082
1569397536.22382
1569397536.23945
1569397536.25508
1569397536.2707
1569397536.28633
1569397536.30195
1569397536.31758
1569397536.3332
1569397536.34883
1569397536.36446
1569397536.38008
1569397536.39571
1569397536.41133
1569397536.42696
1569397536.44258
1569397536.45821
1569397536.47384
1569397536.48946
1569397536.50509
1569397536.52071
1569397536.53634
1569397536.55197
1569397536.56759
1569397536.58322
1569397536.59884
1569397536.61447
1569397536.63009
1569397536.64572
1569397536.66135
1569397536.67697
1569397536.6926
1569397536.70822
1569397536.72385
1569397536.73947
1569397536.7551
1569397536.77073
1569397536.78635
1569397536.80198
1569397536.8176
1569397536.83323
1569397536.84885
1569397536.86448
1569397536.88011
1569397536.89573
1569397536.91136
1569397536.92698
1569397536.94261
1569397536.95823
1569397536.97386
1569397536.98949
1569397537.00511
1569397537.02074
1569397537.03636
1569397537.05199
1569397537.06761
1569397537.08324
1569397537.09887
1569397537.11449
1569397537.13012
1569397537.14574
1569397537.16137
1569397537.17699
1569397537.19262
1569397537.20825
1569397537.22387
1569397537.2395
1569397537.25512
1569397537.27075
1569397537.28637
1569397537.302
1569397537.31763
1569397537.33325
1569397537.34888
1569397537.3645
1569397537.38013
1569397537.39575
1569397537.41138
1569397537.42701
1569397537.44263
1569397537.45826
1569397537.47388
1569397537.48951
1569397537.50513
1569397537.52076
1569397537.53639
1569397537.55201
1569397537.56764
1569397537.58326
1569397537.59889
1569397537.61451
1569397537.63014
1569397537.64577
1569397537.66139
1569397537.67702
1569397537.69264
1569397537.70827
1569397537.72389
1569397537.73952
1569397537.75515
1569397537.77077
1569397537.7864
1569397537.80202
1569397537.81765
1569397537.83327
1569397537.8489
1569397537.86453
1569397537.88015
1569397537.89578
1569397537.9114
1569397537.92703
1569397537.94265
1569397537.95828
1569397537.97391
1569397537.98953
1569397538.00516
1569397538.02078
1569397538.03641
1569397538.05203
1569397538.06766
1569397538.08329
1569397538.09891
1569397538.11454
1569397538.13016
1569397538.14579
1569397538.16141
1569397538.17704
1569397538.19267
1569397538.20829
1569397538.22392
1569397538.23954
1569397538.25517
1569397538.27079
1569397538.28642
1569397538.30205
1569397538.31767
1569397538.3333
1569397538.34892
1569397538.36455
1569397538.38017
1569397538.3958
1569397538.41143
1569397538.42705
1569397538.44268
1569397538.4583
1569397538.47393
1569397538.48955
1569397538.50518
1569397538.52081
1569397538.53643
1569397538.55206
1569397538.56768
1569397538.58331
1569397538.59893
1569397538.61456
1569397538.63019
1569397538.64581
1569397538.66144
1569397538.67706
1569397538.69269
1569397538.70831
1569397538.72394
1569397538.73957
1569397538.75519
1569397538.77082
1569397538.78644
1569397538.80207
1569397538.81769
1569397538.83332
1569397538.84895
1569397538.86457
1569397538.8802
1569397538.89582
1569397538.91145
1569397538.92708
1569397538.9427
1569397538.95833
1569397538.97395
1569397538.98958
1569397539.0052
1569397539.02083
1569397539.03646
1569397539.05208
1569397539.06771
1569397539.08333
1569397539.09896
1569397539.11458
1569397539.13021
1569397539.14584
1569397539.16146
1569397539.17709
1569397539.19271
1569397539.20834
1569397539.22396
1569397539.23959
1569397539.25522
1569397539.27084
1569397539.28647
1569397539.30209
1569397539.31772
1569397539.33334
1569397539.34897
1569397539.3646
1569397539.38022
1569397539.39585
1569397539.41147
1569397539.4271
1569397539.44272
1569397539.45835
1569397539.47398
1569397539.4896
1569397539.50523
1569397539.52085
1569397539.53648
1569397539.5521
1569397539.56773
1569397539.58336
1569397539.59898
1569397539.61461
1569397539.63023
1569397539.64586
1569397539.66148
1569397539.67711
1569397539.69274
1569397539.70836
1569397539.72399
1569397539.73961
1569397539.75524
1569397539.77086
1569397539.78649
1569397539.80212
1569397539.81774
1569397539.83337
1569397539.84899
1569397539.86462
1569397539.88024
1569397539.89587
1569397539.9115
