1569400515.04928
1569400515.06491
1569400515.08053
1569400515.09616
1569400515.11179
1569400515.12741
1569400515.14304
1569400515.15866
1569400515.17429
1569400515.18991
1569400515.20554
1569400515.22117
1569400515.23679
1569400515.25242
1569400515.26804
1569400515.28367
1569400515.29929
1569400515.31492
1569400515.33055
1569400515.34617
1569400515.3618
1569400515.37742
1569400515.39305
1569400515.40867
1569400515.4243
1569400515.43993
1569400515.45555
1569400515.47118
1569400515.4868
1569400515.50243
1569400515.51805
1569400515.53368
1569400515.54931
1569400515.56493
1569400515.58056
1569400515.59618
1569400515.61181
1569400515.62743
1569400515.64306
1569400515.65869
1569400515.67431
1569400515.68994
1569400515.70556
1569400515.72119
1569400515.73681
1569400515.75244
1569400515.76807
1569400515.78369
1569400515.79932
1569400515.81494
1569400515.83057
1569400515.84619
1569400515.86182
1569400515.87745
1569400515.89307
1569400515.9087
1569400515.92432
1569400515.93995
1569400515.95557
1569400515.9712
1569400515.98683
1569400516.00245
1569400516.01808
1569400516.0337
1569400516.04933
1569400516.06495
1569400516.08058
1569400516.09621
1569400516.11183
1569400516.12746
1569400516.14308
1569400516.15871
1569400516.17433
1569400516.18996
1569400516.20559
1569400516.22121
1569400516.23684
1569400516.25246
1569400516.26809
1569400516.28371
1569400516.29934
1569400516.31497
1569400516.33059
1569400516.34622
1569400516.36184
1569400516.37747
1569400516.39309
1569400516.40872
1569400516.42435
1569400516.43997
1569400516.4556
1569400516.47122
1569400516.48685
1569400516.50248
1569400516.5181
1569400516.53373
1569400516.54935
1569400516.56498
1569400516.5806
1569400516.59623
1569400516.61186
1569400516.62748
1569400516.64311
1569400516.65873
1569400516.67436
1569400516.68998
1569400516.70561
1569400516.72124
1569400516.73686
1569400516.75249
1569400516.76811
1569400516.78374
1569400516.79936
1569400516.81499
1569400516.83062
1569400516.84624
1569400516.86187
1569400516.87749
1569400516.89312
1569400516.90874
1569400516.92437
1569400516.94
1569400516.95562
1569400516.97125
1569400516.98687
1569400517.0025
1569400517.01812
1569400517.03375
1569400517.04938
1569400517.065
1569400517.08063
1569400517.09625
1569400517.11188
1569400517.1275
1569400517.14313
1569400517.15876
1569400517.17438
1569400517.19001
1569400517.20563
1569400517.22126
1569400517.23688
1569400517.25251
1569400517.26814
1569400517.28376
1569400517.29939
1569400517.31501
1569400517.33064
1569400517.34626
1569400517.36189
1569400517.37752
1569400517.39314
1569400517.40877
1569400517.42439
1569400517.44002
1569400517.45564
1569400517.47127
1569400517.4869
1569400517.50252
1569400517.51815
1569400517.53377
1569400517.5494
1569400517.56502
1569400517.58065
1569400517.59628
1569400517.6119
1569400517.62753
1569400517.64315
1569400517.65878
1569400517.6744
1569400517.69003
1569400517.70566
1569400517.72128
1569400517.73691
1569400517.75253
1569400517.76816
1569400517.78378
1569400517.79941
1569400517.81504
1569400517.83066
1569400517.84629
1569400517.86191
1569400517.87754
1569400517.89316
1569400517.90879
1569400517.92442
1569400517.94004
1569400517.95567
1569400517.97129
1569400517.98692
1569400518.00254
1569400518.01817
1569400518.0338
1569400518.04942
1569400518.06505
1569400518.08067
1569400518.0963
1569400518.11192
1569400518.12755
1569400518.14318
1569400518.1588
1569400518.17443
1569400518.19005
1569400518.20568
1569400518.2213
1569400518.23693
1569400518.25256
1569400518.26818
1569400518.28381
1569400518.29943
1569400518.31506
1569400518.33068
1569400518.34631
1569400518.36194
1569400518.37756
1569400518.39319
1569400518.40881
1569400518.42444
1569400518.44006
1569400518.45569
1569400518.47132
1569400518.48694
1569400518.50257
1569400518.51819
1569400518.53382
1569400518.54944
1569400518.56507
1569400518.5807
1569400518.59632
1569400518.61195
1569400518.62757
1569400518.6432
1569400518.65882
1569400518.67445
1569400518.69008
1569400518.7057
1569400518.72133
1569400518.73695
1569400518.75258
1569400518.7682
1569400518.78383
1569400518.79946
1569400518.81508
1569400518.83071
1569400518.84633
1569400518.86196
1569400518.87758
1569400518.89321
1569400518.90884
1569400518.92446
1569400518.94009
1569400518.95571
1569400518.97134
1569400518.98696
1569400519.00259
1569400519.01822
1569400519.03384
1569400519.04947
1569400519.06509
1569400519.08072
1569400519.09635
1569400519.11197
1569400519.1276
1569400519.14322
1569400519.15885
1569400519.17447
1569400519.1901
1569400519.20573
1569400519.22135
1569400519.23698
1569400519.2526
1569400519.26823
1569400519.28385
1569400519.29948
1569400519.31511
1569400519.33073
1569400519.34636
1569400519.36198
1569400519.37761
1569400519.39323
1569400519.40886
1569400519.42449
1569400519.44011
1569400519.45574
1569400519.47136
1569400519.48699
1569400519.50261
1569400519.51824
1569400519.53387
1569400519.54949
1569400519.56512
1569400519.58074
1569400519.59637
1569400519.61199
1569400519.62762
1569400519.64325
1569400519.65887
1569400519.6745
1569400519.69012
1569400519.70575
1569400519.72137
1569400519.737
1569400519.75263
1569400519.76825
1569400519.78388
1569400519.7995
1569400519.81513
1569400519.83075
1569400519.84638
1569400519.86201
1569400519.87763
1569400519.89326
1569400519.90888
1569400519.92451
1569400519.94013
1569400519.95576
1569400519.97139
1569400519.98701
1569400520.00264
1569400520.01826
1569400520.03389
1569400520.04951
1569400520.06514
1569400520.08077
1569400520.09639
1569400520.11202
1569400520.12764
1569400520.14327
1569400520.15889
1569400520.17452
1569400520.19015
1569400520.20577
1569400520.2214
1569400520.23702
1569400520.25265
1569400520.26827
1569400520.2839
1569400520.29953
1569400520.31515
1569400520.33078
1569400520.3464
1569400520.36203
1569400520.37765
1569400520.39328
1569400520.40891
1569400520.42453
1569400520.44016
1569400520.45578
1569400520.47141
1569400520.48703
1569400520.50266
1569400520.51829
1569400520.53391
1569400520.54954
1569400520.56516
1569400520.58079
1569400520.59641
1569400520.61204
1569400520.62767
1569400520.64329
1569400520.65892
1569400520.67454
1569400520.69017
1569400520.70579
1569400520.72142
1569400520.73705
1569400520.75267
1569400520.7683
1569400520.78392
1569400520.79955
1569400520.81517
1569400520.8308
1569400520.84643
1569400520.86205
1569400520.87768
1569400520.8933
1569400520.90893
1569400520.92455
1569400520.94018
1569400520.95581
1569400520.97143
1569400520.98706
1569400521.00268
1569400521.01831
1569400521.03393
1569400521.04956
1569400521.06519
1569400521.08081
1569400521.09644
1569400521.11206
1569400521.12769
1569400521.14331
1569400521.15894
1569400521.17457
1569400521.19019
1569400521.20582
1569400521.22144
1569400521.23707
1569400521.25269
1569400521.26832
1569400521.28395
1569400521.29957
1569400521.3152
1569400521.33082
1569400521.34645
1569400521.36208
1569400521.3777
1569400521.39333
1569400521.40895
1569400521.42458
1569400521.4402
1569400521.45583
1569400521.47146
1569400521.48708
1569400521.50271
1569400521.51833
1569400521.53396
1569400521.54958
1569400521.56521
1569400521.58084
1569400521.59646
1569400521.61209
1569400521.62771
1569400521.64334
1569400521.65896
1569400521.67459
1569400521.69022
1569400521.70584
1569400521.72147
1569400521.73709
1569400521.75272
1569400521.76834
1569400521.78397
1569400521.7996
1569400521.81522
1569400521.83085
1569400521.84647
1569400521.8621
1569400521.87772
1569400521.89335
1569400521.90898
1569400521.9246
1569400521.94023
1569400521.95585
1569400521.97148
1569400521.9871
1569400522.00273
1569400522.01836
1569400522.03398
1569400522.04961
1569400522.06523
1569400522.08086
1569400522.09648
1569400522.11211
1569400522.12774
1569400522.14336
1569400522.15899
1569400522.17461
1569400522.19024
1569400522.20586
1569400522.22149
1569400522.23712
1569400522.25274
1569400522.26837
1569400522.28399
1569400522.29962
1569400522.31524
1569400522.33087
1569400522.3465
1569400522.36212
1569400522.37775
1569400522.39337
1569400522.409
1569400522.42462
1569400522.44025
1569400522.45588
1569400522.4715
1569400522.48713
1569400522.50275
1569400522.51838
1569400522.534
1569400522.54963
1569400522.56526
1569400522.58088
1569400522.59651
1569400522.61213
1569400522.62776
1569400522.64338
1569400522.65901
1569400522.67464
1569400522.69026
1569400522.70589
1569400522.72151
1569400522.73714
1569400522.75276
1569400522.76839
1569400522.78402
1569400522.79964
1569400522.81527
1569400522.83089
1569400522.84652
1569400522.86214
1569400522.87777
1569400522.8934
1569400522.90902
1569400522.92465
1569400522.94027
1569400522.9559
1569400522.97152
1569400522.98715
1569400523.00278
1569400523.0184
1569400523.03403
1569400523.04965
1569400523.06528
1569400523.0809
1569400523.09653
1569400523.11216
1569400523.12778
1569400523.14341
1569400523.15903
1569400523.17466
1569400523.19028
1569400523.20591
1569400523.22154
1569400523.23716
1569400523.25279
1569400523.26841
1569400523.28404
1569400523.29966
1569400523.31529
1569400523.33092
1569400523.34654
1569400523.36217
1569400523.37779
1569400523.39342
1569400523.40904
1569400523.42467
1569400523.4403
1569400523.45592
1569400523.47155
1569400523.48717
1569400523.5028
1569400523.51842
1569400523.53405
1569400523.54968
1569400523.5653
1569400523.58093
1569400523.59655
1569400523.61218
1569400523.6278
1569400523.64343
1569400523.65906
1569400523.67468
1569400523.69031
1569400523.70593
1569400523.72156
1569400523.73719
1569400523.75281
1569400523.76844
1569400523.78406
1569400523.79969
1569400523.81531
1569400523.83094
1569400523.84657
1569400523.86219
1569400523.87782
1569400523.89344
1569400523.90907
1569400523.92469
1569400523.94032
1569400523.95595
1569400523.97157
1569400523.9872
1569400524.00282
1569400524.01845
1569400524.03407
1569400524.0497
1569400524.06533
1569400524.08095
1569400524.09658
1569400524.1122
1569400524.12783
1569400524.14345
1569400524.15908
1569400524.17471
1569400524.19033
1569400524.20596
1569400524.22158
1569400524.23721
1569400524.25283
1569400524.26846
1569400524.28409
1569400524.29971
1569400524.31534
1569400524.33096
1569400524.34659
1569400524.36221
1569400524.37784
1569400524.39347
1569400524.40909
1569400524.42472
1569400524.44034
1569400524.45597
1569400524.47159
1569400524.48722
1569400524.50285
1569400524.51847
1569400524.5341
1569400524.54972
1569400524.56535
1569400524.58097
1569400524.5966
1569400524.61223
1569400524.62785
1569400524.64348
1569400524.6591
1569400524.67473
1569400524.69035
1569400524.70598
1569400524.72161
1569400524.73723
1569400524.75286
1569400524.76848
1569400524.78411
1569400524.79973
1569400524.81536
1569400524.83099
1569400524.84661
1569400524.86224
1569400524.87786
1569400524.89349
1569400524.90911
1569400524.92474
1569400524.94037
1569400524.95599
1569400524.97162
1569400524.98724
1569400525.00287
1569400525.01849
1569400525.03412
1569400525.04975
1569400525.06537
1569400525.081
1569400525.09662
1569400525.11225
1569400525.12787
1569400525.1435
1569400525.15913
1569400525.17475
1569400525.19038
1569400525.206
1569400525.22163
1569400525.23725
1569400525.25288
1569400525.26851
1569400525.28413
1569400525.29976
1569400525.31538
1569400525.33101
1569400525.34663
1569400525.36226
1569400525.37789
1569400525.39351
1569400525.40914
1569400525.42476
1569400525.44039
1569400525.45601
1569400525.47164
1569400525.48727
1569400525.50289
1569400525.51852
1569400525.53414
1569400525.54977
1569400525.56539
1569400525.58102
1569400525.59665
1569400525.61227
1569400525.6279
1569400525.64352
1569400525.65915
1569400525.67477
1569400525.6904
1569400525.70603
1569400525.72165
1569400525.73728
1569400525.7529
1569400525.76853
1569400525.78415
1569400525.79978
1569400525.81541
1569400525.83103
1569400525.84666
1569400525.86228
1569400525.87791
1569400525.89353
1569400525.90916
1569400525.92479
1569400525.94041
1569400525.95604
1569400525.97166
1569400525.98729
1569400526.00291
1569400526.01854
1569400526.03417
1569400526.04979
1569400526.06542
1569400526.08104
1569400526.09667
1569400526.11229
1569400526.12792
1569400526.14355
1569400526.15917
1569400526.1748
1569400526.19042
1569400526.20605
1569400526.22168
1569400526.2373
1569400526.25293
1569400526.26855
1569400526.28418
1569400526.2998
1569400526.31543
1569400526.33106
1569400526.34668
1569400526.36231
1569400526.37793
1569400526.39356
1569400526.40918
1569400526.42481
1569400526.44044
1569400526.45606
1569400526.47169
1569400526.48731
1569400526.50294
1569400526.51856
1569400526.53419
1569400526.54982
1569400526.56544
1569400526.58107
1569400526.59669
1569400526.61232
1569400526.62794
1569400526.64357
1569400526.6592
1569400526.67482
1569400526.69045
1569400526.70607
1569400526.7217
1569400526.73732
1569400526.75295
1569400526.76858
1569400526.7842
1569400526.79983
1569400526.81545
1569400526.83108
1569400526.8467
1569400526.86233
1569400526.87796
1569400526.89358
1569400526.90921
1569400526.92483
1569400526.94046
1569400526.95608
1569400526.97171
1569400526.98734
1569400527.00296
1569400527.01859
1569400527.03421
1569400527.04984
1569400527.06546
1569400527.08109
1569400527.09672
1569400527.11234
1569400527.12797
1569400527.14359
1569400527.15922
1569400527.17484
1569400527.19047
1569400527.2061
1569400527.22172
1569400527.23735
1569400527.25297
1569400527.2686
1569400527.28422
1569400527.29985
1569400527.31548
1569400527.3311
1569400527.34673
1569400527.36235
1569400527.37798
1569400527.3936
1569400527.40923
1569400527.42486
1569400527.44048
1569400527.45611
1569400527.47173
1569400527.48736
1569400527.50298
1569400527.51861
1569400527.53424
1569400527.54986
1569400527.56549
1569400527.58111
1569400527.59674
1569400527.61236
1569400527.62799
1569400527.64362
1569400527.65924
1569400527.67487
1569400527.69049
1569400527.70612
1569400527.72174
1569400527.73737
1569400527.753
1569400527.76862
1569400527.78425
1569400527.79987
1569400527.8155
1569400527.83112
1569400527.84675
1569400527.86238
1569400527.878
1569400527.89363
1569400527.90925
1569400527.92488
1569400527.9405
1569400527.95613
1569400527.97176
1569400527.98738
1569400528.00301
1569400528.01863
1569400528.03426
1569400528.04988
1569400528.06551
1569400528.08114
1569400528.09676
1569400528.11239
1569400528.12801
1569400528.14364
1569400528.15926
1569400528.17489
1569400528.19052
1569400528.20614
1569400528.22177
1569400528.23739
1569400528.25302
1569400528.26864
1569400528.28427
1569400528.2999
1569400528.31552
1569400528.33115
1569400528.34677
1569400528.3624
1569400528.37803
1569400528.39365
1569400528.40928
1569400528.4249
1569400528.44053
1569400528.45615
1569400528.47178
1569400528.48741
1569400528.50303
1569400528.51866
1569400528.53428
1569400528.54991
1569400528.56553
1569400528.58116
1569400528.59679
1569400528.61241
1569400528.62804
1569400528.64366
1569400528.65929
1569400528.67491
1569400528.69054
1569400528.70617
1569400528.72179
1569400528.73742
1569400528.75304
1569400528.76867
1569400528.78429
1569400528.79992
1569400528.81555
1569400528.83117
1569400528.8468
1569400528.86242
1569400528.87805
1569400528.89367
1569400528.9093
1569400528.92493
1569400528.94055
1569400528.95618
1569400528.9718
1569400528.98743
1569400529.00305
1569400529.01868
1569400529.03431
1569400529.04993
1569400529.06556
1569400529.08118
1569400529.09681
1569400529.11243
1569400529.12806
1569400529.14369
1569400529.15931
1569400529.17494
1569400529.19056
1569400529.20619
1569400529.22181
1569400529.23744
1569400529.25307
1569400529.26869
1569400529.28432
1569400529.29994
1569400529.31557
1569400529.33119
1569400529.34682
1569400529.36245
1569400529.37807
1569400529.3937
1569400529.40932
1569400529.42495
1569400529.44057
1569400529.4562
1569400529.47183
1569400529.48745
1569400529.50308
1569400529.5187
1569400529.53433
1569400529.54995
1569400529.56558
1569400529.58121
1569400529.59683
1569400529.61246
1569400529.62808
1569400529.64371
1569400529.65933
1569400529.67496
1569400529.69059
1569400529.70621
1569400529.72184
1569400529.73746
1569400529.75309
1569400529.76871
1569400529.78434
1569400529.79997
1569400529.81559
1569400529.83122
1569400529.84684
1569400529.86247
1569400529.87809
1569400529.89372
1569400529.90935
1569400529.92497
1569400529.9406
1569400529.95622
1569400529.97185
1569400529.98747
1569400530.0031
1569400530.01873
1569400530.03435
1569400530.04998
1569400530.0656
1569400530.08123
1569400530.09685
1569400530.11248
1569400530.12811
1569400530.14373
1569400530.15936
1569400530.17498
1569400530.19061
1569400530.20623
1569400530.22186
1569400530.23749
1569400530.25311
1569400530.26874
1569400530.28436
1569400530.29999
1569400530.31561
1569400530.33124
1569400530.34687
1569400530.36249
1569400530.37812
1569400530.39374
1569400530.40937
1569400530.42499
1569400530.44062
1569400530.45625
1569400530.47187
1569400530.4875
1569400530.50312
1569400530.51875
1569400530.53437
1569400530.55
1569400530.56563
1569400530.58125
1569400530.59688
1569400530.6125
1569400530.62813
1569400530.64375
1569400530.65938
1569400530.67501
1569400530.69063
1569400530.70626
1569400530.72188
1569400530.73751
1569400530.75313
1569400530.76876
1569400530.78439
1569400530.80001
1569400530.81564
1569400530.83126
1569400530.84689
1569400530.86251
1569400530.87814
1569400530.89377
1569400530.90939
1569400530.92502
1569400530.94064
1569400530.95627
1569400530.97189
1569400530.98752
1569400531.00315
1569400531.01877
1569400531.0344
1569400531.05002
1569400531.06565
1569400531.08128
1569400531.0969
1569400531.11253
1569400531.12815
1569400531.14378
1569400531.1594
1569400531.17503
1569400531.19066
1569400531.20628
1569400531.22191
1569400531.23753
1569400531.25316
1569400531.26878
1569400531.28441
1569400531.30004
1569400531.31566
1569400531.33129
1569400531.34691
1569400531.36254
1569400531.37816
1569400531.39379
1569400531.40942
1569400531.42504
1569400531.44067
1569400531.45629
1569400531.47192
1569400531.48754
1569400531.50317
1569400531.5188
1569400531.53442
1569400531.55005
1569400531.56567
1569400531.5813
1569400531.59692
1569400531.61255
1569400531.62818
1569400531.6438
1569400531.65943
1569400531.67505
1569400531.69068
1569400531.7063
1569400531.72193
1569400531.73756
1569400531.75318
1569400531.76881
1569400531.78443
1569400531.80006
1569400531.81568
1569400531.83131
1569400531.84694
1569400531.86256
1569400531.87819
1569400531.89381
1569400531.90944
1569400531.92506
1569400531.94069
1569400531.95632
1569400531.97194
1569400531.98757
1569400532.00319
1569400532.01882
1569400532.03444
1569400532.05007
1569400532.0657
1569400532.08132
1569400532.09695
1569400532.11257
1569400532.1282
1569400532.14382
1569400532.15945
1569400532.17508
1569400532.1907
1569400532.20633
1569400532.22195
1569400532.23758
1569400532.2532
1569400532.26883
1569400532.28446
1569400532.30008
1569400532.31571
1569400532.33133
1569400532.34696
1569400532.36258
1569400532.37821
1569400532.39384
1569400532.40946
1569400532.42509
1569400532.44071
1569400532.45634
1569400532.47196
1569400532.48759
1569400532.50322
1569400532.51884
1569400532.53447
1569400532.55009
1569400532.56572
1569400532.58134
1569400532.59697
1569400532.6126
1569400532.62822
1569400532.64385
1569400532.65947
1569400532.6751
1569400532.69072
1569400532.70635
1569400532.72198
1569400532.7376
1569400532.75323
1569400532.76885
1569400532.78448
1569400532.8001
1569400532.81573
1569400532.83136
1569400532.84698
1569400532.86261
1569400532.87823
1569400532.89386
1569400532.90948
1569400532.92511
1569400532.94074
1569400532.95636
1569400532.97199
1569400532.98761
1569400533.00324
1569400533.01886
1569400533.03449
1569400533.05012
1569400533.06574
1569400533.08137
1569400533.09699
1569400533.11262
1569400533.12824
1569400533.14387
1569400533.1595
1569400533.17512
1569400533.19075
1569400533.20637
1569400533.222
1569400533.23763
1569400533.25325
1569400533.26888
1569400533.2845
1569400533.30013
1569400533.31575
1569400533.33138
1569400533.34701
1569400533.36263
1569400533.37826
1569400533.39388
1569400533.40951
1569400533.42513
1569400533.44076
1569400533.45639
1569400533.47201
1569400533.48764
1569400533.50326
1569400533.51889
1569400533.53451
1569400533.55014
1569400533.56577
1569400533.58139
1569400533.59702
1569400533.61264
1569400533.62827
1569400533.64389
1569400533.65952
1569400533.67515
1569400533.69077
1569400533.7064
1569400533.72202
1569400533.73765
1569400533.75327
1569400533.7689
1569400533.78453
1569400533.80015
1569400533.81578
1569400533.8314
1569400533.84703
1569400533.86265
1569400533.87828
1569400533.89391
1569400533.90953
1569400533.92516
1569400533.94078
1569400533.95641
1569400533.97203
1569400533.98766
1569400534.00329
1569400534.01891
1569400534.03454
1569400534.05016
1569400534.06579
1569400534.08141
1569400534.09704
1569400534.11267
1569400534.12829
1569400534.14392
1569400534.15954
1569400534.17517
1569400534.19079
1569400534.20642
1569400534.22205
1569400534.23767
1569400534.2533
1569400534.26892
1569400534.28455
1569400534.30017
1569400534.3158
1569400534.33143
1569400534.34705
1569400534.36268
1569400534.3783
1569400534.39393
1569400534.40955
1569400534.42518
1569400534.44081
1569400534.45643
1569400534.47206
1569400534.48768
1569400534.50331
1569400534.51893
1569400534.53456
1569400534.55019
1569400534.56581
1569400534.58144
1569400534.59706
1569400534.61269
1569400534.62831
1569400534.64394
1569400534.65957
1569400534.67519
1569400534.69082
1569400534.70644
1569400534.72207
1569400534.73769
1569400534.75332
1569400534.76895
1569400534.78457
1569400534.8002
1569400534.81582
1569400534.83145
1569400534.84707
1569400534.8627
1569400534.87833
1569400534.89395
1569400534.90958
1569400534.9252
1569400534.94083
1569400534.95645
1569400534.97208
1569400534.98771
1569400535.00333
1569400535.01896
1569400535.03458
1569400535.05021
1569400535.06583
1569400535.08146
1569400535.09709
1569400535.11271
1569400535.12834
1569400535.14396
1569400535.15959
1569400535.17521
1569400535.19084
1569400535.20647
1569400535.22209
1569400535.23772
1569400535.25334
1569400535.26897
1569400535.28459
1569400535.30022
1569400535.31585
1569400535.33147
1569400535.3471
1569400535.36272
1569400535.37835
1569400535.39397
1569400535.4096
1569400535.42523
1569400535.44085
1569400535.45648
1569400535.4721
1569400535.48773
1569400535.50336
1569400535.51898
1569400535.53461
1569400535.55023
1569400535.56586
1569400535.58148
1569400535.59711
1569400535.61274
1569400535.62836
1569400535.64399
1569400535.65961
1569400535.67524
1569400535.69086
1569400535.70649
1569400535.72212
1569400535.73774
1569400535.75337
1569400535.76899
1569400535.78462
1569400535.80024
1569400535.81587
1569400535.8315
1569400535.84712
1569400535.86275
1569400535.87837
1569400535.894
1569400535.90962
1569400535.92525
1569400535.94088
1569400535.9565
1569400535.97213
1569400535.98775
1569400536.00338
1569400536.019
1569400536.03463
1569400536.05026
1569400536.06588
1569400536.08151
1569400536.09713
1569400536.11276
1569400536.12838
1569400536.14401
1569400536.15964
1569400536.17526
1569400536.19089
1569400536.20651
1569400536.22214
1569400536.23776
1569400536.25339
1569400536.26902
1569400536.28464
1569400536.30027
1569400536.31589
1569400536.33152
1569400536.34714
1569400536.36277
1569400536.3784
1569400536.39402
1569400536.40965
1569400536.42527
1569400536.4409
1569400536.45652
1569400536.47215
1569400536.48778
1569400536.5034
1569400536.51903
1569400536.53465
1569400536.55028
1569400536.5659
1569400536.58153
1569400536.59716
1569400536.61278
1569400536.62841
1569400536.64403
1569400536.65966
1569400536.67528
1569400536.69091
1569400536.70654
1569400536.72216
1569400536.73779
1569400536.75341
1569400536.76904
1569400536.78466
1569400536.80029
1569400536.81592
1569400536.83154
1569400536.84717
1569400536.86279
1569400536.87842
1569400536.89404
1569400536.90967
1569400536.9253
1569400536.94092
1569400536.95655
1569400536.97217
1569400536.9878
1569400537.00342
1569400537.01905
1569400537.03468
1569400537.0503
1569400537.06593
1569400537.08155
1569400537.09718
1569400537.1128
1569400537.12843
1569400537.14406
1569400537.15968
1569400537.17531
1569400537.19093
1569400537.20656
1569400537.22218
1569400537.23781
1569400537.25344
1569400537.26906
1569400537.28469
1569400537.30031
1569400537.31594
1569400537.33156
1569400537.34719
1569400537.36282
1569400537.37844
1569400537.39407
1569400537.40969
1569400537.42532
1569400537.44094
1569400537.45657
1569400537.4722
1569400537.48782
1569400537.50345
1569400537.51907
1569400537.5347
1569400537.55032
1569400537.56595
1569400537.58158
1569400537.5972
1569400537.61283
1569400537.62845
1569400537.64408
1569400537.6597
1569400537.67533
1569400537.69096
1569400537.70658
1569400537.72221
1569400537.73783
1569400537.75346
1569400537.76908
1569400537.78471
1569400537.80034
1569400537.81596
1569400537.83159
1569400537.84721
1569400537.86284
1569400537.87846
1569400537.89409
1569400537.90972
1569400537.92534
1569400537.94097
1569400537.95659
1569400537.97222
1569400537.98784
1569400538.00347
1569400538.0191
1569400538.03472
1569400538.05035
1569400538.06597
1569400538.0816
1569400538.09723
1569400538.11285
1569400538.12848
1569400538.1441
1569400538.15973
1569400538.17535
1569400538.19098
1569400538.20661
1569400538.22223
1569400538.23786
1569400538.25348
1569400538.26911
1569400538.28473
1569400538.30036
1569400538.31599
1569400538.33161
1569400538.34724
1569400538.36286
1569400538.37849
1569400538.39411
1569400538.40974
1569400538.42537
1569400538.44099
1569400538.45662
1569400538.47224
1569400538.48787
1569400538.50349
1569400538.51912
1569400538.53475
1569400538.55037
1569400538.566
1569400538.58162
1569400538.59725
1569400538.61287
1569400538.6285
1569400538.64413
1569400538.65975
1569400538.67538
1569400538.691
1569400538.70663
1569400538.72225
1569400538.73788
1569400538.75351
1569400538.76913
1569400538.78476
1569400538.80038
1569400538.81601
1569400538.83163
1569400538.84726
1569400538.86289
1569400538.87851
1569400538.89414
1569400538.90976
1569400538.92539
1569400538.94101
1569400538.95664
1569400538.97227
1569400538.98789
1569400539.00352
1569400539.01914
1569400539.03477
1569400539.05039
1569400539.06602
1569400539.08165
1569400539.09727
1569400539.1129
1569400539.12852
1569400539.14415
1569400539.15977
1569400539.1754
1569400539.19103
1569400539.20665
1569400539.22228
1569400539.2379
1569400539.25353
1569400539.26915
1569400539.28478
1569400539.30041
1569400539.31603
1569400539.33166
1569400539.34728
1569400539.36291
1569400539.37853
1569400539.39416
1569400539.40979
1569400539.42541
1569400539.44104
1569400539.45666
1569400539.47229
1569400539.48791
1569400539.50354
1569400539.51917
1569400539.53479
1569400539.55042
1569400539.56604
1569400539.58167
1569400539.59729
1569400539.61292
1569400539.62855
1569400539.64417
1569400539.6598
1569400539.67542
1569400539.69105
1569400539.70667
1569400539.7223
1569400539.73793
1569400539.75355
1569400539.76918
1569400539.7848
1569400539.80043
1569400539.81605
1569400539.83168
1569400539.84731
1569400539.86293
1569400539.87856
1569400539.89418
1569400539.90981
1569400539.92543
1569400539.94106
1569400539.95669
1569400539.97231
1569400539.98794
1569400540.00356
1569400540.01919
1569400540.03481
1569400540.05044
1569400540.06607
1569400540.08169
1569400540.09732
1569400540.11294
1569400540.12857
1569400540.14419
1569400540.15982
1569400540.17545
1569400540.19107
1569400540.2067
1569400540.22232
1569400540.23795
1569400540.25357
1569400540.2692
1569400540.28483
1569400540.30045
1569400540.31608
1569400540.3317
1569400540.34733
1569400540.36296
1569400540.37858
1569400540.39421
1569400540.40983
1569400540.42546
1569400540.44108
1569400540.45671
1569400540.47234
1569400540.48796
1569400540.50359
1569400540.51921
1569400540.53484
1569400540.55046
1569400540.56609
1569400540.58172
1569400540.59734
1569400540.61297
1569400540.62859
1569400540.64422
1569400540.65984
1569400540.67547
1569400540.6911
1569400540.70672
1569400540.72235
1569400540.73797
1569400540.7536
1569400540.76922
1569400540.78485
1569400540.80048
1569400540.8161
1569400540.83173
1569400540.84735
1569400540.86298
1569400540.8786
1569400540.89423
1569400540.90986
1569400540.92548
1569400540.94111
1569400540.95673
1569400540.97236
1569400540.98798
1569400541.00361
1569400541.01924
1569400541.03486
1569400541.05049
1569400541.06611
1569400541.08174
1569400541.09736
1569400541.11299
1569400541.12862
1569400541.14424
1569400541.15987
1569400541.17549
1569400541.19112
1569400541.20674
1569400541.22237
1569400541.238
1569400541.25362
1569400541.26925
1569400541.28487
1569400541.3005
1569400541.31612
1569400541.33175
1569400541.34738
1569400541.363
1569400541.37863
1569400541.39425
1569400541.40988
1569400541.4255
1569400541.44113
1569400541.45676
1569400541.47238
1569400541.48801
1569400541.50363
1569400541.51926
1569400541.53488
1569400541.55051
1569400541.56614
1569400541.58176
1569400541.59739
1569400541.61301
1569400541.62864
1569400541.64426
1569400541.65989
1569400541.67552
1569400541.69114
1569400541.70677
1569400541.72239
1569400541.73802
1569400541.75364
1569400541.76927
1569400541.7849
1569400541.80052
1569400541.81615
1569400541.83177
1569400541.8474
1569400541.86302
1569400541.87865
1569400541.89428
1569400541.9099
1569400541.92553
1569400541.94115
1569400541.95678
1569400541.9724
1569400541.98803
1569400542.00366
1569400542.01928
1569400542.03491
1569400542.05053
1569400542.06616
1569400542.08178
1569400542.09741
1569400542.11304
1569400542.12866
1569400542.14429
1569400542.15991
1569400542.17554
1569400542.19116
1569400542.20679
1569400542.22242
1569400542.23804
1569400542.25367
1569400542.26929
1569400542.28492
1569400542.30054
1569400542.31617
1569400542.3318
1569400542.34742
1569400542.36305
1569400542.37867
1569400542.3943
1569400542.40992
1569400542.42555
1569400542.44118
1569400542.4568
1569400542.47243
1569400542.48805
1569400542.50368
1569400542.5193
1569400542.53493
1569400542.55056
1569400542.56618
1569400542.58181
1569400542.59743
1569400542.61306
1569400542.62869
1569400542.64431
1569400542.65994
1569400542.67556
1569400542.69119
1569400542.70681
1569400542.72244
1569400542.73807
1569400542.75369
1569400542.76932
1569400542.78494
1569400542.80057
1569400542.81619
1569400542.83182
1569400542.84745
1569400542.86307
1569400542.8787
1569400542.89432
1569400542.90995
1569400542.92557
1569400542.9412
1569400542.95683
1569400542.97245
1569400542.98808
1569400543.0037
1569400543.01933
1569400543.03495
1569400543.05058
1569400543.06621
1569400543.08183
1569400543.09746
1569400543.11308
1569400543.12871
1569400543.14433
1569400543.15996
1569400543.17559
1569400543.19121
1569400543.20684
1569400543.22246
1569400543.23809
1569400543.25371
1569400543.26934
1569400543.28497
1569400543.30059
1569400543.31622
1569400543.33184
1569400543.34747
1569400543.36309
1569400543.37872
1569400543.39435
1569400543.40997
1569400543.4256
1569400543.44122
1569400543.45685
1569400543.47247
1569400543.4881
1569400543.50373
1569400543.51935
1569400543.53498
1569400543.5506
1569400543.56623
1569400543.58185
1569400543.59748
1569400543.61311
1569400543.62873
1569400543.64436
1569400543.65998
1569400543.67561
1569400543.69123
1569400543.70686
1569400543.72249
1569400543.73811
1569400543.75374
1569400543.76936
1569400543.78499
1569400543.80061
1569400543.81624
1569400543.83187
1569400543.84749
1569400543.86312
1569400543.87874
1569400543.89437
1569400543.90999
1569400543.92562
1569400543.94125
1569400543.95687
1569400543.9725
1569400543.98812
1569400544.00375
1569400544.01937
1569400544.035
1569400544.05063
1569400544.06625
1569400544.08188
1569400544.0975
1569400544.11313
1569400544.12875
1569400544.14438
1569400544.16001
1569400544.17563
1569400544.19126
1569400544.20688
1569400544.22251
1569400544.23813
1569400544.25376
1569400544.26939
1569400544.28501
1569400544.30064
1569400544.31626
1569400544.33189
1569400544.34751
1569400544.36314
1569400544.37877
1569400544.39439
1569400544.41002
1569400544.42564
1569400544.44127
1569400544.45689
1569400544.47252
1569400544.48815
1569400544.50377
1569400544.5194
1569400544.53502
1569400544.55065
1569400544.56627
1569400544.5819
1569400544.59753
1569400544.61315
1569400544.62878
1569400544.6444
1569400544.66003
1569400544.67565
1569400544.69128
1569400544.70691
1569400544.72253
1569400544.73816
1569400544.75378
1569400544.76941
1569400544.78503
1569400544.80066
1569400544.81629
1569400544.83191
1569400544.84754
1569400544.86316
1569400544.87879
1569400544.89441
1569400544.91004
1569400544.92567
1569400544.94129
1569400544.95692
1569400544.97254
1569400544.98817
1569400545.00379
1569400545.01942
1569400545.03505
1569400545.05067
1569400545.0663
1569400545.08192
1569400545.09755
1569400545.11317
1569400545.1288
1569400545.14443
1569400545.16005
1569400545.17568
1569400545.1913
1569400545.20693
1569400545.22256
1569400545.23818
1569400545.25381
1569400545.26943
1569400545.28506
1569400545.30068
1569400545.31631
1569400545.33194
1569400545.34756
1569400545.36319
1569400545.37881
1569400545.39444
1569400545.41006
1569400545.42569
1569400545.44132
1569400545.45694
1569400545.47257
1569400545.48819
1569400545.50382
1569400545.51944
1569400545.53507
1569400545.5507
1569400545.56632
1569400545.58195
1569400545.59757
1569400545.6132
1569400545.62882
1569400545.64445
1569400545.66008
1569400545.6757
1569400545.69133
1569400545.70695
1569400545.72258
1569400545.7382
1569400545.75383
1569400545.76946
1569400545.78508
1569400545.80071
1569400545.81633
1569400545.83196
1569400545.84758
1569400545.86321
1569400545.87884
1569400545.89446
1569400545.91009
1569400545.92571
1569400545.94134
1569400545.95696
1569400545.97259
1569400545.98822
1569400546.00384
1569400546.01947
1569400546.03509
1569400546.05072
1569400546.06634
1569400546.08197
1569400546.0976
1569400546.11322
1569400546.12885
1569400546.14447
1569400546.1601
1569400546.17572
1569400546.19135
1569400546.20698
1569400546.2226
1569400546.23823
1569400546.25385
1569400546.26948
1569400546.2851
1569400546.30073
1569400546.31636
1569400546.33198
1569400546.34761
1569400546.36323
1569400546.37886
1569400546.39448
1569400546.41011
1569400546.42574
1569400546.44136
1569400546.45699
1569400546.47261
1569400546.48824
1569400546.50386
1569400546.51949
1569400546.53512
1569400546.55074
1569400546.56637
1569400546.58199
1569400546.59762
1569400546.61324
1569400546.62887
1569400546.6445
1569400546.66012
1569400546.67575
1569400546.69137
1569400546.707
1569400546.72262
1569400546.73825
1569400546.75388
1569400546.7695
1569400546.78513
1569400546.80075
1569400546.81638
1569400546.832
1569400546.84763
1569400546.86326
1569400546.87888
1569400546.89451
1569400546.91013
1569400546.92576
1569400546.94138
1569400546.95701
1569400546.97264
1569400546.98826
1569400547.00389
1569400547.01951
1569400547.03514
1569400547.05076
1569400547.06639
1569400547.08202
1569400547.09764
1569400547.11327
1569400547.12889
1569400547.14452
1569400547.16014
1569400547.17577
1569400547.1914
1569400547.20702
1569400547.22265
1569400547.23827
1569400547.2539
1569400547.26952
1569400547.28515
1569400547.30078
1569400547.3164
1569400547.33203
1569400547.34765
1569400547.36328
1569400547.3789
1569400547.39453
1569400547.41016
1569400547.42578
1569400547.44141
1569400547.45703
1569400547.47266
1569400547.48829
1569400547.50391
1569400547.51954
1569400547.53516
1569400547.55079
1569400547.56641
1569400547.58204
1569400547.59767
1569400547.61329
1569400547.62892
1569400547.64454
1569400547.66017
1569400547.67579
1569400547.69142
1569400547.70705
1569400547.72267
1569400547.7383
1569400547.75392
1569400547.76955
1569400547.78517
1569400547.8008
1569400547.81643
1569400547.83205
1569400547.84768
1569400547.8633
1569400547.87893
1569400547.89455
1569400547.91018
1569400547.92581
1569400547.94143
1569400547.95706
1569400547.97268
1569400547.98831
1569400548.00393
1569400548.01956
1569400548.03519
1569400548.05081
1569400548.06644
1569400548.08206
1569400548.09769
1569400548.11331
1569400548.12894
1569400548.14457
1569400548.16019
1569400548.17582
1569400548.19144
1569400548.20707
1569400548.22269
1569400548.23832
1569400548.25395
1569400548.26957
1569400548.2852
1569400548.30082
1569400548.31645
1569400548.33207
1569400548.3477
1569400548.36333
1569400548.37895
1569400548.39458
1569400548.4102
1569400548.42583
1569400548.44145
1569400548.45708
1569400548.47271
1569400548.48833
1569400548.50396
1569400548.51958
1569400548.53521
1569400548.55083
1569400548.56646
1569400548.58209
1569400548.59771
1569400548.61334
1569400548.62896
1569400548.64459
1569400548.66021
1569400548.67584
1569400548.69147
1569400548.70709
1569400548.72272
1569400548.73834
1569400548.75397
1569400548.76959
1569400548.78522
1569400548.80085
1569400548.81647
1569400548.8321
1569400548.84772
1569400548.86335
1569400548.87897
1569400548.8946
1569400548.91023
1569400548.92585
1569400548.94148
1569400548.9571
1569400548.97273
1569400548.98835
1569400549.00398
1569400549.01961
1569400549.03523
1569400549.05086
1569400549.06648
1569400549.08211
1569400549.09773
1569400549.11336
1569400549.12899
1569400549.14461
1569400549.16024
1569400549.17586
1569400549.19149
1569400549.20711
1569400549.22274
1569400549.23837
1569400549.25399
1569400549.26962
1569400549.28524
1569400549.30087
1569400549.31649
1569400549.33212
1569400549.34775
1569400549.36337
1569400549.379
1569400549.39462
1569400549.41025
1569400549.42587
1569400549.4415
1569400549.45713
1569400549.47275
1569400549.48838
1569400549.504
1569400549.51963
1569400549.53525
1569400549.55088
1569400549.56651
1569400549.58213
1569400549.59776
1569400549.61338
1569400549.62901
1569400549.64463
1569400549.66026
1569400549.67589
1569400549.69151
1569400549.70714
1569400549.72276
1569400549.73839
1569400549.75401
1569400549.76964
1569400549.78527
1569400549.80089
1569400549.81652
1569400549.83214
1569400549.84777
1569400549.86339
1569400549.87902
1569400549.89465
1569400549.91027
1569400549.9259
1569400549.94152
1569400549.95715
1569400549.97277
1569400549.9884
1569400550.00403
1569400550.01965
1569400550.03528
1569400550.0509
1569400550.06653
1569400550.08216
1569400550.09778
1569400550.11341
1569400550.12903
1569400550.14466
1569400550.16028
1569400550.17591
1569400550.19154
1569400550.20716
1569400550.22279
1569400550.23841
1569400550.25404
1569400550.26966
1569400550.28529
1569400550.30092
1569400550.31654
1569400550.33217
1569400550.34779
1569400550.36342
1569400550.37904
1569400550.39467
1569400550.4103
1569400550.42592
1569400550.44155
1569400550.45717
1569400550.4728
1569400550.48842
1569400550.50405
1569400550.51968
1569400550.5353
1569400550.55093
1569400550.56655
1569400550.58218
1569400550.5978
1569400550.61343
1569400550.62906
1569400550.64468
1569400550.66031
1569400550.67593
1569400550.69156
1569400550.70718
1569400550.72281
1569400550.73844
1569400550.75406
1569400550.76969
1569400550.78531
1569400550.80094
1569400550.81656
1569400550.83219
1569400550.84782
1569400550.86344
1569400550.87907
1569400550.89469
1569400550.91032
1569400550.92594
1569400550.94157
1569400550.9572
1569400550.97282
1569400550.98845
1569400551.00407
1569400551.0197
1569400551.03532
1569400551.05095
1569400551.06658
1569400551.0822
1569400551.09783
1569400551.11345
1569400551.12908
1569400551.1447
1569400551.16033
1569400551.17596
1569400551.19158
1569400551.20721
1569400551.22283
1569400551.23846
1569400551.25408
1569400551.26971
1569400551.28534
1569400551.30096
1569400551.31659
1569400551.33221
1569400551.34784
1569400551.36346
1569400551.37909
1569400551.39472
1569400551.41034
1569400551.42597
1569400551.44159
1569400551.45722
1569400551.47284
1569400551.48847
1569400551.5041
1569400551.51972
1569400551.53535
1569400551.55097
1569400551.5666
1569400551.58222
1569400551.59785
1569400551.61348
1569400551.6291
1569400551.64473
1569400551.66035
1569400551.67598
1569400551.6916
1569400551.70723
1569400551.72286
1569400551.73848
1569400551.75411
1569400551.76973
1569400551.78536
1569400551.80098
1569400551.81661
1569400551.83224
1569400551.84786
1569400551.86349
1569400551.87911
1569400551.89474
1569400551.91036
1569400551.92599
1569400551.94162
1569400551.95724
1569400551.97287
1569400551.98849
1569400552.00412
1569400552.01974
1569400552.03537
1569400552.051
1569400552.06662
1569400552.08225
1569400552.09787
1569400552.1135
1569400552.12912
1569400552.14475
1569400552.16038
1569400552.176
1569400552.19163
1569400552.20725
1569400552.22288
1569400552.2385
1569400552.25413
1569400552.26976
1569400552.28538
1569400552.30101
1569400552.31663
1569400552.33226
1569400552.34789
1569400552.36351
1569400552.37914
1569400552.39476
1569400552.41039
1569400552.42601
1569400552.44164
1569400552.45727
1569400552.47289
1569400552.48852
1569400552.50414
1569400552.51977
1569400552.53539
1569400552.55102
1569400552.56665
1569400552.58227
1569400552.5979
1569400552.61352
1569400552.62915
1569400552.64477
1569400552.6604
1569400552.67603
1569400552.69165
1569400552.70728
1569400552.7229
1569400552.73853
1569400552.75415
1569400552.76978
1569400552.78541
1569400552.80103
1569400552.81666
1569400552.83228
1569400552.84791
1569400552.86353
1569400552.87916
1569400552.89479
1569400552.91041
1569400552.92604
1569400552.94166
1569400552.95729
1569400552.97291
1569400552.98854
1569400553.00417
1569400553.01979
1569400553.03542
1569400553.05104
1569400553.06667
1569400553.08229
1569400553.09792
1569400553.11355
1569400553.12917
1569400553.1448
1569400553.16042
1569400553.17605
1569400553.19167
1569400553.2073
1569400553.22293
1569400553.23855
1569400553.25418
1569400553.2698
1569400553.28543
1569400553.30105
1569400553.31668
1569400553.33231
1569400553.34793
1569400553.36356
1569400553.37918
1569400553.39481
1569400553.41043
1569400553.42606
1569400553.44169
1569400553.45731
1569400553.47294
1569400553.48856
1569400553.50419
1569400553.51981
1569400553.53544
1569400553.55107
1569400553.56669
1569400553.58232
1569400553.59794
1569400553.61357
1569400553.62919
1569400553.64482
1569400553.66045
1569400553.67607
1569400553.6917
1569400553.70732
1569400553.72295
1569400553.73857
1569400553.7542
1569400553.76983
1569400553.78545
1569400553.80108
1569400553.8167
1569400553.83233
1569400553.84795
1569400553.86358
1569400553.87921
1569400553.89483
1569400553.91046
1569400553.92608
1569400553.94171
1569400553.95733
1569400553.97296
1569400553.98859
1569400554.00421
1569400554.01984
1569400554.03546
1569400554.05109
1569400554.06671
1569400554.08234
1569400554.09797
1569400554.11359
1569400554.12922
1569400554.14484
1569400554.16047
1569400554.17609
1569400554.19172
1569400554.20735
1569400554.22297
1569400554.2386
1569400554.25422
1569400554.26985
1569400554.28547
1569400554.3011
1569400554.31673
1569400554.33235
1569400554.34798
1569400554.3636
1569400554.37923
1569400554.39485
1569400554.41048
1569400554.42611
1569400554.44173
1569400554.45736
1569400554.47298
1569400554.48861
1569400554.50424
1569400554.51986
1569400554.53549
1569400554.55111
1569400554.56674
1569400554.58236
1569400554.59799
1569400554.61362
1569400554.62924
1569400554.64487
1569400554.66049
1569400554.67612
1569400554.69174
1569400554.70737
1569400554.723
1569400554.73862
1569400554.75425
1569400554.76987
1569400554.7855
1569400554.80112
1569400554.81675
1569400554.83238
1569400554.848
1569400554.86363
1569400554.87925
1569400554.89488
1569400554.9105
1569400554.92613
1569400554.94176
1569400554.95738
1569400554.97301
1569400554.98863
1569400555.00426
1569400555.01988
1569400555.03551
1569400555.05114
1569400555.06676
1569400555.08239
1569400555.09801
1569400555.11364
1569400555.12926
1569400555.14489
1569400555.16052
1569400555.17614
1569400555.19177
1569400555.20739
1569400555.22302
1569400555.23864
1569400555.25427
1569400555.2699
1569400555.28552
1569400555.30115
1569400555.31677
1569400555.3324
1569400555.34802
1569400555.36365
1569400555.37928
1569400555.3949
1569400555.41053
1569400555.42615
1569400555.44178
1569400555.4574
1569400555.47303
1569400555.48866
1569400555.50428
1569400555.51991
1569400555.53553
1569400555.55116
1569400555.56678
1569400555.58241
1569400555.59804
1569400555.61366
1569400555.62929
1569400555.64491
1569400555.66054
1569400555.67616
1569400555.69179
1569400555.70742
1569400555.72304
1569400555.73867
1569400555.75429
1569400555.76992
1569400555.78554
1569400555.80117
1569400555.8168
1569400555.83242
1569400555.84805
1569400555.86367
1569400555.8793
1569400555.89492
1569400555.91055
1569400555.92618
1569400555.9418
1569400555.95743
1569400555.97305
1569400555.98868
1569400556.0043
1569400556.01993
1569400556.03556
1569400556.05118
1569400556.06681
1569400556.08243
1569400556.09806
1569400556.11368
1569400556.12931
1569400556.14494
1569400556.16056
1569400556.17619
1569400556.19181
1569400556.20744
1569400556.22306
1569400556.23869
1569400556.25432
1569400556.26994
1569400556.28557
1569400556.30119
1569400556.31682
1569400556.33244
1569400556.34807
1569400556.3637
1569400556.37932
1569400556.39495
1569400556.41057
1569400556.4262
1569400556.44182
1569400556.45745
1569400556.47308
1569400556.4887
1569400556.50433
1569400556.51995
1569400556.53558
1569400556.5512
1569400556.56683
1569400556.58246
1569400556.59808
1569400556.61371
1569400556.62933
1569400556.64496
1569400556.66058
1569400556.67621
1569400556.69184
1569400556.70746
1569400556.72309
1569400556.73871
1569400556.75434
1569400556.76996
1569400556.78559
1569400556.80122
1569400556.81684
1569400556.83247
1569400556.84809
1569400556.86372
1569400556.87934
1569400556.89497
1569400556.9106
1569400556.92622
1569400556.94185
1569400556.95747
1569400556.9731
1569400556.98872
1569400557.00435
1569400557.01998
1569400557.0356
1569400557.05123
1569400557.06685
1569400557.08248
1569400557.0981
1569400557.11373
1569400557.12936
1569400557.14498
1569400557.16061
1569400557.17623
1569400557.19186
1569400557.20749
1569400557.22311
1569400557.23874
1569400557.25436
1569400557.26999
1569400557.28561
1569400557.30124
1569400557.31687
1569400557.33249
1569400557.34812
1569400557.36374
1569400557.37937
1569400557.39499
1569400557.41062
1569400557.42625
1569400557.44187
1569400557.4575
1569400557.47312
1569400557.48875
1569400557.50437
1569400557.52
1569400557.53563
1569400557.55125
1569400557.56688
1569400557.5825
1569400557.59813
1569400557.61375
1569400557.62938
1569400557.64501
1569400557.66063
1569400557.67626
1569400557.69188
1569400557.70751
1569400557.72313
1569400557.73876
1569400557.75439
1569400557.77001
1569400557.78564
1569400557.80126
1569400557.81689
1569400557.83251
1569400557.84814
1569400557.86377
1569400557.87939
1569400557.89502
1569400557.91064
1569400557.92627
1569400557.94189
1569400557.95752
1569400557.97315
1569400557.98877
1569400558.0044
1569400558.02002
1569400558.03565
1569400558.05127
1569400558.0669
1569400558.08253
1569400558.09815
1569400558.11378
1569400558.1294
1569400558.14503
1569400558.16065
1569400558.17628
1569400558.19191
1569400558.20753
1569400558.22316
1569400558.23878
1569400558.25441
1569400558.27003
1569400558.28566
1569400558.30129
1569400558.31691
1569400558.33254
1569400558.34816
1569400558.36379
1569400558.37941
1569400558.39504
1569400558.41067
1569400558.42629
1569400558.44192
1569400558.45754
1569400558.47317
1569400558.48879
1569400558.50442
1569400558.52005
1569400558.53567
1569400558.5513
1569400558.56692
1569400558.58255
1569400558.59817
1569400558.6138
1569400558.62943
1569400558.64505
1569400558.66068
1569400558.6763
1569400558.69193
1569400558.70755
1569400558.72318
1569400558.73881
1569400558.75443
1569400558.77006
1569400558.78568
1569400558.80131
1569400558.81693
1569400558.83256
1569400558.84819
1569400558.86381
1569400558.87944
1569400558.89506
1569400558.91069
1569400558.92631
1569400558.94194
1569400558.95757
1569400558.97319
1569400558.98882
1569400559.00444
1569400559.02007
1569400559.03569
1569400559.05132
1569400559.06695
1569400559.08257
1569400559.0982
1569400559.11382
1569400559.12945
1569400559.14507
1569400559.1607
1569400559.17633
1569400559.19195
1569400559.20758
1569400559.2232
1569400559.23883
1569400559.25445
1569400559.27008
1569400559.28571
1569400559.30133
1569400559.31696
1569400559.33258
1569400559.34821
1569400559.36384
1569400559.37946
1569400559.39509
1569400559.41071
1569400559.42634
1569400559.44196
1569400559.45759
1569400559.47322
1569400559.48884
1569400559.50447
1569400559.52009
1569400559.53572
1569400559.55134
1569400559.56697
1569400559.5826
1569400559.59822
1569400559.61385
1569400559.62947
1569400559.6451
1569400559.66072
1569400559.67635
1569400559.69198
1569400559.7076
1569400559.72323
1569400559.73885
1569400559.75448
1569400559.7701
1569400559.78573
1569400559.80136
1569400559.81698
1569400559.83261
1569400559.84823
1569400559.86386
1569400559.87948
1569400559.89511
1569400559.91074
1569400559.92636
1569400559.94199
1569400559.95761
1569400559.97324
1569400559.98886
1569400560.00449
1569400560.02012
1569400560.03574
1569400560.05137
1569400560.06699
1569400560.08262
1569400560.09824
1569400560.11387
1569400560.1295
1569400560.14512
1569400560.16075
1569400560.17637
1569400560.192
1569400560.20762
1569400560.22325
1569400560.23888
1569400560.2545
1569400560.27013
1569400560.28575
1569400560.30138
1569400560.317
1569400560.33263
1569400560.34826
1569400560.36388
1569400560.37951
1569400560.39513
1569400560.41076
1569400560.42638
1569400560.44201
1569400560.45764
1569400560.47326
1569400560.48889
1569400560.50451
1569400560.52014
1569400560.53576
1569400560.55139
1569400560.56702
1569400560.58264
1569400560.59827
1569400560.61389
1569400560.62952
1569400560.64514
1569400560.66077
1569400560.6764
1569400560.69202
1569400560.70765
1569400560.72327
1569400560.7389
1569400560.75452
1569400560.77015
1569400560.78578
1569400560.8014
1569400560.81703
1569400560.83265
1569400560.84828
1569400560.8639
1569400560.87953
1569400560.89516
1569400560.91078
1569400560.92641
1569400560.94203
1569400560.95766
1569400560.97328
1569400560.98891
1569400561.00454
1569400561.02016
1569400561.03579
1569400561.05141
1569400561.06704
1569400561.08266
1569400561.09829
1569400561.11392
1569400561.12954
1569400561.14517
1569400561.16079
1569400561.17642
1569400561.19204
1569400561.20767
1569400561.2233
1569400561.23892
1569400561.25455
1569400561.27017
1569400561.2858
1569400561.30142
1569400561.31705
1569400561.33268
1569400561.3483
1569400561.36393
1569400561.37955
1569400561.39518
1569400561.4108
1569400561.42643
1569400561.44206
1569400561.45768
1569400561.47331
1569400561.48893
1569400561.50456
1569400561.52018
1569400561.53581
1569400561.55144
1569400561.56706
1569400561.58269
1569400561.59831
1569400561.61394
1569400561.62957
1569400561.64519
1569400561.66082
1569400561.67644
1569400561.69207
1569400561.70769
1569400561.72332
1569400561.73895
1569400561.75457
1569400561.7702
1569400561.78582
1569400561.80145
1569400561.81707
1569400561.8327
1569400561.84833
1569400561.86395
1569400561.87958
1569400561.8952
1569400561.91083
1569400561.92645
1569400561.94208
1569400561.95771
1569400561.97333
1569400561.98896
1569400562.00458
1569400562.02021
1569400562.03583
1569400562.05146
1569400562.06709
1569400562.08271
1569400562.09834
1569400562.11396
1569400562.12959
1569400562.14521
1569400562.16084
1569400562.17647
1569400562.19209
1569400562.20772
1569400562.22334
1569400562.23897
1569400562.25459
1569400562.27022
1569400562.28585
1569400562.30147
1569400562.3171
1569400562.33272
1569400562.34835
1569400562.36397
1569400562.3796
1569400562.39523
1569400562.41085
1569400562.42648
1569400562.4421
1569400562.45773
1569400562.47335
1569400562.48898
1569400562.50461
1569400562.52023
1569400562.53586
1569400562.55148
1569400562.56711
1569400562.58273
1569400562.59836
1569400562.61399
1569400562.62961
1569400562.64524
1569400562.66086
1569400562.67649
1569400562.69211
1569400562.70774
1569400562.72337
1569400562.73899
1569400562.75462
1569400562.77024
1569400562.78587
1569400562.80149
1569400562.81712
1569400562.83275
1569400562.84837
1569400562.864
1569400562.87962
1569400562.89525
1569400562.91087
1569400562.9265
1569400562.94213
1569400562.95775
1569400562.97338
1569400562.989
1569400563.00463
1569400563.02025
1569400563.03588
1569400563.05151
1569400563.06713
1569400563.08276
1569400563.09838
1569400563.11401
1569400563.12963
1569400563.14526
1569400563.16089
1569400563.17651
1569400563.19214
1569400563.20776
1569400563.22339
1569400563.23901
1569400563.25464
1569400563.27027
1569400563.28589
1569400563.30152
1569400563.31714
1569400563.33277
1569400563.34839
1569400563.36402
1569400563.37965
1569400563.39527
1569400563.4109
1569400563.42652
1569400563.44215
1569400563.45777
1569400563.4734
1569400563.48903
1569400563.50465
1569400563.52028
1569400563.5359
1569400563.55153
1569400563.56715
1569400563.58278
1569400563.59841
1569400563.61403
1569400563.62966
1569400563.64528
1569400563.66091
1569400563.67653
1569400563.69216
1569400563.70779
1569400563.72341
1569400563.73904
1569400563.75466
1569400563.77029
1569400563.78591
1569400563.80154
1569400563.81717
1569400563.83279
1569400563.84842
1569400563.86404
1569400563.87967
1569400563.89529
1569400563.91092
1569400563.92655
1569400563.94217
1569400563.9578
1569400563.97342
1569400563.98905
1569400564.00467
1569400564.0203
1569400564.03593
1569400564.05155
1569400564.06718
1569400564.0828
1569400564.09843
1569400564.11405
1569400564.12968
1569400564.14531
1569400564.16093
1569400564.17656
1569400564.19218
1569400564.20781
1569400564.22344
1569400564.23906
1569400564.25469
1569400564.27031
1569400564.28594
1569400564.30156
1569400564.31719
1569400564.33282
1569400564.34844
1569400564.36407
1569400564.37969
1569400564.39532
1569400564.41094
1569400564.42657
1569400564.4422
1569400564.45782
1569400564.47345
1569400564.48907
1569400564.5047
1569400564.52032
1569400564.53595
1569400564.55158
1569400564.5672
1569400564.58283
1569400564.59845
1569400564.61408
1569400564.6297
1569400564.64533
1569400564.66096
1569400564.67658
1569400564.69221
1569400564.70783
1569400564.72346
1569400564.73908
1569400564.75471
1569400564.77034
1569400564.78596
1569400564.80159
1569400564.81721
1569400564.83284
1569400564.84846
1569400564.86409
1569400564.87972
1569400564.89534
1569400564.91097
1569400564.92659
1569400564.94222
1569400564.95784
1569400564.97347
1569400564.9891
1569400565.00472
1569400565.02035
1569400565.03597
1569400565.0516
1569400565.06722
1569400565.08285
1569400565.09848
1569400565.1141
1569400565.12973
1569400565.14535
1569400565.16098
1569400565.1766
1569400565.19223
1569400565.20786
1569400565.22348
1569400565.23911
1569400565.25473
1569400565.27036
1569400565.28598
1569400565.30161
1569400565.31724
1569400565.33286
1569400565.34849
1569400565.36411
1569400565.37974
1569400565.39536
1569400565.41099
1569400565.42662
1569400565.44224
1569400565.45787
1569400565.47349
1569400565.48912
1569400565.50474
1569400565.52037
1569400565.536
1569400565.55162
1569400565.56725
1569400565.58287
1569400565.5985
1569400565.61412
1569400565.62975
1569400565.64538
1569400565.661
1569400565.67663
1569400565.69225
1569400565.70788
1569400565.7235
1569400565.73913
1569400565.75476
1569400565.77038
1569400565.78601
1569400565.80163
1569400565.81726
1569400565.83288
1569400565.84851
1569400565.86414
1569400565.87976
1569400565.89539
1569400565.91101
1569400565.92664
1569400565.94226
1569400565.95789
1569400565.97352
1569400565.98914
1569400566.00477
1569400566.02039
1569400566.03602
1569400566.05164
1569400566.06727
1569400566.0829
1569400566.09852
1569400566.11415
1569400566.12977
1569400566.1454
1569400566.16102
1569400566.17665
1569400566.19228
1569400566.2079
1569400566.22353
1569400566.23915
1569400566.25478
1569400566.2704
1569400566.28603
1569400566.30166
1569400566.31728
1569400566.33291
1569400566.34853
1569400566.36416
1569400566.37978
1569400566.39541
1569400566.41104
1569400566.42666
1569400566.44229
1569400566.45791
1569400566.47354
1569400566.48917
1569400566.50479
1569400566.52042
1569400566.53604
1569400566.55167
1569400566.56729
1569400566.58292
1569400566.59855
1569400566.61417
1569400566.6298
1569400566.64542
1569400566.66105
1569400566.67667
1569400566.6923
1569400566.70793
1569400566.72355
1569400566.73918
1569400566.7548
1569400566.77043
1569400566.78605
1569400566.80168
1569400566.81731
1569400566.83293
1569400566.84856
1569400566.86418
1569400566.87981
1569400566.89543
1569400566.91106
1569400566.92669
1569400566.94231
1569400566.95794
1569400566.97356
1569400566.98919
1569400567.00481
1569400567.02044
1569400567.03607
1569400567.05169
1569400567.06732
1569400567.08294
1569400567.09857
1569400567.11419
1569400567.12982
1569400567.14545
1569400567.16107
1569400567.1767
1569400567.19232
1569400567.20795
1569400567.22357
1569400567.2392
1569400567.25483
1569400567.27045
1569400567.28608
1569400567.3017
1569400567.31733
1569400567.33295
1569400567.34858
1569400567.36421
1569400567.37983
1569400567.39546
1569400567.41108
1569400567.42671
1569400567.44233
1569400567.45796
1569400567.47359
1569400567.48921
1569400567.50484
1569400567.52046
1569400567.53609
1569400567.55171
1569400567.56734
1569400567.58297
1569400567.59859
1569400567.61422
1569400567.62984
1569400567.64547
1569400567.66109
1569400567.67672
1569400567.69235
1569400567.70797
1569400567.7236
1569400567.73922
1569400567.75485
1569400567.77047
1569400567.7861
1569400567.80173
1569400567.81735
1569400567.83298
1569400567.8486
1569400567.86423
1569400567.87985
1569400567.89548
1569400567.91111
1569400567.92673
1569400567.94236
1569400567.95798
1569400567.97361
1569400567.98923
1569400568.00486
1569400568.02049
1569400568.03611
1569400568.05174
1569400568.06736
1569400568.08299
1569400568.09861
1569400568.11424
1569400568.12987
1569400568.14549
1569400568.16112
1569400568.17674
1569400568.19237
1569400568.20799
1569400568.22362
1569400568.23925
1569400568.25487
1569400568.2705
1569400568.28612
1569400568.30175
1569400568.31737
1569400568.333
1569400568.34863
1569400568.36425
1569400568.37988
1569400568.3955
1569400568.41113
1569400568.42675
1569400568.44238
1569400568.45801
1569400568.47363
1569400568.48926
1569400568.50488
1569400568.52051
1569400568.53613
1569400568.55176
1569400568.56739
1569400568.58301
1569400568.59864
1569400568.61426
1569400568.62989
1569400568.64551
1569400568.66114
1569400568.67677
1569400568.69239
1569400568.70802
1569400568.72364
1569400568.73927
1569400568.75489
1569400568.77052
1569400568.78615
1569400568.80177
1569400568.8174
1569400568.83302
1569400568.84865
1569400568.86427
1569400568.8799
1569400568.89553
1569400568.91115
1569400568.92678
1569400568.9424
1569400568.95803
1569400568.97365
1569400568.98928
1569400569.00491
1569400569.02053
1569400569.03616
1569400569.05178
1569400569.06741
1569400569.08303
1569400569.09866
1569400569.11429
1569400569.12991
1569400569.14554
1569400569.16116
1569400569.17679
1569400569.19242
1569400569.20804
1569400569.22367
1569400569.23929
1569400569.25492
1569400569.27054
1569400569.28617
1569400569.3018
1569400569.31742
1569400569.33305
1569400569.34867
1569400569.3643
1569400569.37992
1569400569.39555
1569400569.41118
1569400569.4268
1569400569.44243
1569400569.45805
1569400569.47368
1569400569.4893
1569400569.50493
1569400569.52056
1569400569.53618
1569400569.55181
1569400569.56743
1569400569.58306
1569400569.59868
1569400569.61431
1569400569.62994
1569400569.64556
1569400569.66119
1569400569.67681
1569400569.69244
1569400569.70806
1569400569.72369
1569400569.73932
1569400569.75494
1569400569.77057
1569400569.78619
1569400569.80182
1569400569.81744
1569400569.83307
1569400569.8487
1569400569.86432
1569400569.87995
1569400569.89557
1569400569.9112
1569400569.92682
1569400569.94245
1569400569.95808
1569400569.9737
1569400569.98933
1569400570.00495
1569400570.02058
1569400570.0362
1569400570.05183
1569400570.06746
1569400570.08308
1569400570.09871
1569400570.11433
1569400570.12996
1569400570.14558
1569400570.16121
1569400570.17684
1569400570.19246
1569400570.20809
1569400570.22371
1569400570.23934
1569400570.25496
1569400570.27059
1569400570.28622
1569400570.30184
1569400570.31747
1569400570.33309
1569400570.34872
1569400570.36434
1569400570.37997
1569400570.3956
1569400570.41122
1569400570.42685
1569400570.44247
1569400570.4581
1569400570.47372
1569400570.48935
1569400570.50498
1569400570.5206
1569400570.53623
1569400570.55185
1569400570.56748
1569400570.5831
1569400570.59873
1569400570.61436
1569400570.62998
1569400570.64561
1569400570.66123
1569400570.67686
1569400570.69248
1569400570.70811
1569400570.72374
1569400570.73936
1569400570.75499
1569400570.77061
1569400570.78624
1569400570.80186
1569400570.81749
1569400570.83312
1569400570.84874
1569400570.86437
1569400570.87999
1569400570.89562
1569400570.91124
1569400570.92687
1569400570.9425
1569400570.95812
1569400570.97375
1569400570.98937
1569400571.005
1569400571.02062
1569400571.03625
1569400571.05188
1569400571.0675
1569400571.08313
1569400571.09875
1569400571.11438
1569400571.13
1569400571.14563
1569400571.16126
1569400571.17688
1569400571.19251
1569400571.20813
1569400571.22376
1569400571.23938
1569400571.25501
1569400571.27064
1569400571.28626
1569400571.30189
1569400571.31751
1569400571.33314
1569400571.34877
1569400571.36439
1569400571.38002
1569400571.39564
1569400571.41127
1569400571.42689
1569400571.44252
1569400571.45815
1569400571.47377
1569400571.4894
1569400571.50502
1569400571.52065
1569400571.53627
1569400571.5519
1569400571.56753
1569400571.58315
1569400571.59878
1569400571.6144
1569400571.63003
1569400571.64565
1569400571.66128
1569400571.67691
1569400571.69253
1569400571.70816
1569400571.72378
1569400571.73941
1569400571.75503
1569400571.77066
1569400571.78629
1569400571.80191
1569400571.81754
1569400571.83316
1569400571.84879
1569400571.86441
1569400571.88004
1569400571.89567
1569400571.91129
1569400571.92692
1569400571.94254
1569400571.95817
1569400571.97379
1569400571.98942
1569400572.00505
1569400572.02067
1569400572.0363
1569400572.05192
1569400572.06755
1569400572.08317
1569400572.0988
1569400572.11443
1569400572.13005
1569400572.14568
1569400572.1613
1569400572.17693
1569400572.19255
1569400572.20818
1569400572.22381
1569400572.23943
1569400572.25506
1569400572.27068
1569400572.28631
1569400572.30193
1569400572.31756
1569400572.33319
1569400572.34881
1569400572.36444
1569400572.38006
1569400572.39569
1569400572.41131
1569400572.42694
1569400572.44257
1569400572.45819
1569400572.47382
1569400572.48944
1569400572.50507
1569400572.52069
1569400572.53632
1569400572.55195
1569400572.56757
1569400572.5832
1569400572.59882
1569400572.61445
1569400572.63007
1569400572.6457
1569400572.66133
1569400572.67695
1569400572.69258
1569400572.7082
1569400572.72383
1569400572.73945
1569400572.75508
1569400572.77071
1569400572.78633
1569400572.80196
1569400572.81758
1569400572.83321
1569400572.84883
1569400572.86446
1569400572.88009
1569400572.89571
1569400572.91134
1569400572.92696
1569400572.94259
1569400572.95821
1569400572.97384
1569400572.98947
1569400573.00509
1569400573.02072
1569400573.03634
1569400573.05197
1569400573.06759
1569400573.08322
1569400573.09885
1569400573.11447
1569400573.1301
1569400573.14572
1569400573.16135
1569400573.17697
1569400573.1926
1569400573.20823
1569400573.22385
1569400573.23948
1569400573.2551
1569400573.27073
1569400573.28635
1569400573.30198
1569400573.31761
1569400573.33323
1569400573.34886
1569400573.36448
1569400573.38011
1569400573.39573
1569400573.41136
1569400573.42699
1569400573.44261
1569400573.45824
1569400573.47386
1569400573.48949
1569400573.50511
1569400573.52074
1569400573.53637
1569400573.55199
1569400573.56762
1569400573.58324
1569400573.59887
1569400573.6145
1569400573.63012
1569400573.64575
1569400573.66137
1569400573.677
1569400573.69262
1569400573.70825
1569400573.72388
1569400573.7395
1569400573.75513
1569400573.77075
1569400573.78638
1569400573.802
1569400573.81763
1569400573.83326
1569400573.84888
1569400573.86451
1569400573.88013
1569400573.89576
1569400573.91138
1569400573.92701
1569400573.94264
1569400573.95826
1569400573.97389
1569400573.98951
1569400574.00514
1569400574.02076
1569400574.03639
1569400574.05202
1569400574.06764
1569400574.08327
1569400574.09889
1569400574.11452
1569400574.13014
1569400574.14577
1569400574.1614
1569400574.17702
1569400574.19265
1569400574.20827
1569400574.2239
1569400574.23952
1569400574.25515
1569400574.27078
1569400574.2864
1569400574.30203
1569400574.31765
1569400574.33328
1569400574.3489
1569400574.36453
1569400574.38016
1569400574.39578
1569400574.41141
1569400574.42703
1569400574.44266
1569400574.45828
1569400574.47391
1569400574.48954
1569400574.50516
1569400574.52079
1569400574.53641
1569400574.55204
1569400574.56766
1569400574.58329
1569400574.59892
1569400574.61454
1569400574.63017
1569400574.64579
1569400574.66142
1569400574.67704
1569400574.69267
1569400574.7083
1569400574.72392
1569400574.73955
1569400574.75517
1569400574.7708
1569400574.78642
1569400574.80205
1569400574.81768
1569400574.8333
1569400574.84893
1569400574.86455
1569400574.88018
1569400574.8958
1569400574.91143
1569400574.92706
1569400574.94268
1569400574.95831
1569400574.97393
1569400574.98956
1569400575.00518
1569400575.02081
1569400575.03644
1569400575.05206
1569400575.06769
1569400575.08331
1569400575.09894
1569400575.11456
1569400575.13019
1569400575.14582
1569400575.16144
1569400575.17707
1569400575.19269
1569400575.20832
1569400575.22394
1569400575.23957
1569400575.2552
1569400575.27082
1569400575.28645
1569400575.30207
1569400575.3177
1569400575.33332
1569400575.34895
1569400575.36458
1569400575.3802
1569400575.39583
1569400575.41145
1569400575.42708
1569400575.4427
1569400575.45833
1569400575.47396
1569400575.48958
1569400575.50521
1569400575.52083
1569400575.53646
1569400575.55208
1569400575.56771
1569400575.58334
1569400575.59896
1569400575.61459
1569400575.63021
1569400575.64584
1569400575.66146
1569400575.67709
1569400575.69272
1569400575.70834
1569400575.72397
1569400575.73959
1569400575.75522
1569400575.77084
1569400575.78647
1569400575.8021
1569400575.81772
1569400575.83335
1569400575.84897
1569400575.8646
1569400575.88022
1569400575.89585
1569400575.91148
1569400575.9271
1569400575.94273
1569400575.95835
1569400575.97398
1569400575.9896
1569400576.00523
1569400576.02086
1569400576.03648
1569400576.05211
1569400576.06773
1569400576.08336
1569400576.09898
1569400576.11461
1569400576.13024
1569400576.14586
1569400576.16149
1569400576.17711
1569400576.19274
1569400576.20837
1569400576.22399
1569400576.23962
1569400576.25524
1569400576.27087
1569400576.28649
1569400576.30212
1569400576.31775
1569400576.33337
1569400576.349
1569400576.36462
1569400576.38025
1569400576.39587
1569400576.4115
1569400576.42713
1569400576.44275
1569400576.45838
1569400576.474
1569400576.48963
1569400576.50525
1569400576.52088
1569400576.53651
1569400576.55213
1569400576.56776
1569400576.58338
1569400576.59901
1569400576.61463
1569400576.63026
1569400576.64589
1569400576.66151
1569400576.67714
1569400576.69276
1569400576.70839
1569400576.72401
1569400576.73964
1569400576.75527
1569400576.77089
1569400576.78652
1569400576.80214
1569400576.81777
1569400576.83339
1569400576.84902
1569400576.86465
1569400576.88027
1569400576.8959
1569400576.91152
1569400576.92715
1569400576.94277
1569400576.9584
1569400576.97403
1569400576.98965
1569400577.00528
1569400577.0209
1569400577.03653
1569400577.05215
1569400577.06778
1569400577.08341
1569400577.09903
1569400577.11466
1569400577.13028
1569400577.14591
1569400577.16153
1569400577.17716
1569400577.19279
1569400577.20841
1569400577.22404
1569400577.23966
1569400577.25529
1569400577.27091
1569400577.28654
1569400577.30217
1569400577.31779
1569400577.33342
1569400577.34904
1569400577.36467
1569400577.38029
1569400577.39592
1569400577.41155
1569400577.42717
1569400577.4428
1569400577.45842
1569400577.47405
1569400577.48967
1569400577.5053
1569400577.52093
1569400577.53655
1569400577.55218
1569400577.5678
1569400577.58343
1569400577.59905
1569400577.61468
1569400577.63031
1569400577.64593
1569400577.66156
1569400577.67718
1569400577.69281
1569400577.70843
1569400577.72406
1569400577.73969
1569400577.75531
1569400577.77094
1569400577.78656
1569400577.80219
1569400577.81781
1569400577.83344
1569400577.84907
1569400577.86469
1569400577.88032
1569400577.89594
1569400577.91157
1569400577.92719
1569400577.94282
1569400577.95845
1569400577.97407
1569400577.9897
1569400578.00532
1569400578.02095
1569400578.03657
1569400578.0522
1569400578.06783
1569400578.08345
1569400578.09908
1569400578.1147
1569400578.13033
1569400578.14595
1569400578.16158
1569400578.17721
1569400578.19283
1569400578.20846
1569400578.22408
1569400578.23971
1569400578.25533
1569400578.27096
1569400578.28659
1569400578.30221
1569400578.31784
1569400578.33346
1569400578.34909
1569400578.36471
1569400578.38034
1569400578.39597
1569400578.41159
1569400578.42722
1569400578.44284
1569400578.45847
1569400578.4741
1569400578.48972
1569400578.50535
1569400578.52097
1569400578.5366
1569400578.55222
1569400578.56785
1569400578.58348
1569400578.5991
1569400578.61473
1569400578.63035
1569400578.64598
1569400578.6616
1569400578.67723
1569400578.69286
1569400578.70848
1569400578.72411
1569400578.73973
1569400578.75536
1569400578.77098
1569400578.78661
1569400578.80224
1569400578.81786
1569400578.83349
1569400578.84911
1569400578.86474
1569400578.88036
1569400578.89599
1569400578.91162
1569400578.92724
1569400578.94287
1569400578.95849
1569400578.97412
1569400578.98974
1569400579.00537
1569400579.021
1569400579.03662
1569400579.05225
1569400579.06787
1569400579.0835
1569400579.09912
1569400579.11475
1569400579.13038
1569400579.146
1569400579.16163
1569400579.17725
1569400579.19288
1569400579.2085
1569400579.22413
1569400579.23976
1569400579.25538
1569400579.27101
1569400579.28663
1569400579.30226
1569400579.31788
1569400579.33351
1569400579.34914
1569400579.36476
1569400579.38039
1569400579.39601
1569400579.41164
1569400579.42726
1569400579.44289
1569400579.45852
1569400579.47414
1569400579.48977
1569400579.50539
1569400579.52102
1569400579.53664
1569400579.55227
1569400579.5679
1569400579.58352
1569400579.59915
1569400579.61477
1569400579.6304
1569400579.64602
1569400579.66165
1569400579.67728
1569400579.6929
1569400579.70853
1569400579.72415
1569400579.73978
1569400579.7554
1569400579.77103
1569400579.78666
1569400579.80228
1569400579.81791
1569400579.83353
1569400579.84916
1569400579.86478
1569400579.88041
1569400579.89604
1569400579.91166
1569400579.92729
1569400579.94291
1569400579.95854
1569400579.97416
1569400579.98979
1569400580.00542
1569400580.02104
1569400580.03667
1569400580.05229
1569400580.06792
1569400580.08354
1569400580.09917
1569400580.1148
1569400580.13042
1569400580.14605
1569400580.16167
1569400580.1773
1569400580.19292
1569400580.20855
1569400580.22418
1569400580.2398
1569400580.25543
1569400580.27105
1569400580.28668
1569400580.3023
1569400580.31793
1569400580.33356
1569400580.34918
1569400580.36481
1569400580.38043
1569400580.39606
1569400580.41168
1569400580.42731
1569400580.44294
1569400580.45856
1569400580.47419
1569400580.48981
1569400580.50544
1569400580.52106
1569400580.53669
1569400580.55232
1569400580.56794
1569400580.58357
1569400580.59919
1569400580.61482
1569400580.63045
1569400580.64607
1569400580.6617
1569400580.67732
1569400580.69295
1569400580.70857
1569400580.7242
1569400580.73983
1569400580.75545
1569400580.77108
1569400580.7867
1569400580.80233
1569400580.81795
1569400580.83358
1569400580.84921
1569400580.86483
1569400580.88046
1569400580.89608
1569400580.91171
1569400580.92733
1569400580.94296
1569400580.95859
1569400580.97421
1569400580.98984
1569400581.00546
1569400581.02109
1569400581.03671
1569400581.05234
1569400581.06797
1569400581.08359
1569400581.09922
1569400581.11484
1569400581.13047
1569400581.14609
1569400581.16172
1569400581.17735
1569400581.19297
1569400581.2086
1569400581.22422
1569400581.23985
1569400581.25547
1569400581.2711
1569400581.28673
1569400581.30235
1569400581.31798
1569400581.3336
1569400581.34923
1569400581.36485
1569400581.38048
1569400581.39611
1569400581.41173
1569400581.42736
1569400581.44298
1569400581.45861
1569400581.47423
1569400581.48986
1569400581.50549
1569400581.52111
1569400581.53674
1569400581.55236
1569400581.56799
1569400581.58361
1569400581.59924
1569400581.61487
1569400581.63049
1569400581.64612
1569400581.66174
1569400581.67737
1569400581.69299
1569400581.70862
1569400581.72425
1569400581.73987
1569400581.7555
1569400581.77112
1569400581.78675
1569400581.80237
1569400581.818
1569400581.83363
1569400581.84925
1569400581.86488
1569400581.8805
1569400581.89613
1569400581.91175
1569400581.92738
1569400581.94301
1569400581.95863
1569400581.97426
1569400581.98988
1569400582.00551
1569400582.02113
1569400582.03676
1569400582.05239
1569400582.06801
1569400582.08364
1569400582.09926
1569400582.11489
1569400582.13051
1569400582.14614
1569400582.16177
1569400582.17739
1569400582.19302
1569400582.20864
1569400582.22427
1569400582.23989
1569400582.25552
1569400582.27115
1569400582.28677
1569400582.3024
1569400582.31802
1569400582.33365
1569400582.34927
1569400582.3649
1569400582.38053
1569400582.39615
1569400582.41178
1569400582.4274
1569400582.44303
1569400582.45865
1569400582.47428
1569400582.48991
1569400582.50553
1569400582.52116
1569400582.53678
1569400582.55241
1569400582.56803
1569400582.58366
1569400582.59929
1569400582.61491
1569400582.63054
1569400582.64616
1569400582.66179
1569400582.67741
1569400582.69304
1569400582.70867
1569400582.72429
1569400582.73992
1569400582.75554
1569400582.77117
1569400582.78679
1569400582.80242
1569400582.81805
1569400582.83367
1569400582.8493
1569400582.86492
1569400582.88055
1569400582.89617
1569400582.9118
1569400582.92743
1569400582.94305
1569400582.95868
1569400582.9743
1569400582.98993
1569400583.00555
1569400583.02118
1569400583.03681
1569400583.05243
1569400583.06806
1569400583.08368
1569400583.09931
1569400583.11493
1569400583.13056
1569400583.14619
1569400583.16181
1569400583.17744
1569400583.19306
1569400583.20869
1569400583.22431
1569400583.23994
1569400583.25557
1569400583.27119
1569400583.28682
1569400583.30244
1569400583.31807
1569400583.3337
1569400583.34932
1569400583.36495
1569400583.38057
1569400583.3962
1569400583.41182
1569400583.42745
1569400583.44308
1569400583.4587
1569400583.47433
1569400583.48995
1569400583.50558
1569400583.5212
1569400583.53683
1569400583.55246
1569400583.56808
1569400583.58371
1569400583.59933
1569400583.61496
1569400583.63058
1569400583.64621
1569400583.66184
1569400583.67746
1569400583.69309
1569400583.70871
1569400583.72434
1569400583.73996
1569400583.75559
1569400583.77122
1569400583.78684
1569400583.80247
1569400583.81809
1569400583.83372
1569400583.84934
1569400583.86497
1569400583.8806
1569400583.89622
1569400583.91185
1569400583.92747
1569400583.9431
1569400583.95872
1569400583.97435
1569400583.98998
1569400584.0056
1569400584.02123
1569400584.03685
1569400584.05248
1569400584.0681
1569400584.08373
1569400584.09936
1569400584.11498
1569400584.13061
1569400584.14623
1569400584.16186
1569400584.17748
1569400584.19311
1569400584.20874
1569400584.22436
1569400584.23999
1569400584.25561
1569400584.27124
1569400584.28686
1569400584.30249
1569400584.31812
1569400584.33374
1569400584.34937
1569400584.36499
1569400584.38062
1569400584.39624
1569400584.41187
1569400584.4275
1569400584.44312
1569400584.45875
1569400584.47437
1569400584.49
1569400584.50562
1569400584.52125
1569400584.53688
1569400584.5525
1569400584.56813
1569400584.58375
1569400584.59938
1569400584.615
1569400584.63063
1569400584.64626
1569400584.66188
1569400584.67751
1569400584.69313
1569400584.70876
1569400584.72438
1569400584.74001
1569400584.75564
1569400584.77126
1569400584.78689
1569400584.80251
1569400584.81814
1569400584.83376
1569400584.84939
1569400584.86502
1569400584.88064
1569400584.89627
1569400584.91189
1569400584.92752
1569400584.94314
1569400584.95877
1569400584.9744
1569400584.99002
1569400585.00565
1569400585.02127
1569400585.0369
1569400585.05252
1569400585.06815
1569400585.08378
1569400585.0994
1569400585.11503
1569400585.13065
1569400585.14628
1569400585.1619
1569400585.17753
1569400585.19316
1569400585.20878
1569400585.22441
1569400585.24003
1569400585.25566
1569400585.27128
1569400585.28691
1569400585.30254
1569400585.31816
1569400585.33379
1569400585.34941
1569400585.36504
1569400585.38066
1569400585.39629
1569400585.41192
1569400585.42754
1569400585.44317
1569400585.45879
1569400585.47442
1569400585.49005
1569400585.50567
1569400585.5213
1569400585.53692
1569400585.55255
1569400585.56817
1569400585.5838
1569400585.59943
1569400585.61505
1569400585.63068
1569400585.6463
1569400585.66193
1569400585.67755
1569400585.69318
1569400585.70881
1569400585.72443
1569400585.74006
1569400585.75568
1569400585.77131
1569400585.78693
1569400585.80256
1569400585.81819
1569400585.83381
1569400585.84944
1569400585.86506
1569400585.88069
1569400585.89631
1569400585.91194
1569400585.92757
1569400585.94319
1569400585.95882
1569400585.97444
1569400585.99007
1569400586.00569
1569400586.02132
1569400586.03695
1569400586.05257
1569400586.0682
1569400586.08382
1569400586.09945
1569400586.11507
1569400586.1307
1569400586.14633
1569400586.16195
1569400586.17758
1569400586.1932
1569400586.20883
1569400586.22445
1569400586.24008
1569400586.25571
1569400586.27133
1569400586.28696
1569400586.30258
1569400586.31821
1569400586.33383
1569400586.34946
1569400586.36509
1569400586.38071
1569400586.39634
1569400586.41196
1569400586.42759
1569400586.44321
1569400586.45884
1569400586.47447
1569400586.49009
1569400586.50572
1569400586.52134
1569400586.53697
1569400586.55259
1569400586.56822
1569400586.58385
1569400586.59947
1569400586.6151
1569400586.63072
1569400586.64635
1569400586.66197
1569400586.6776
1569400586.69323
1569400586.70885
1569400586.72448
1569400586.7401
1569400586.75573
1569400586.77135
1569400586.78698
1569400586.80261
1569400586.81823
1569400586.83386
1569400586.84948
1569400586.86511
1569400586.88073
1569400586.89636
1569400586.91199
1569400586.92761
1569400586.94324
1569400586.95886
1569400586.97449
1569400586.99011
1569400587.00574
1569400587.02137
1569400587.03699
1569400587.05262
1569400587.06824
1569400587.08387
1569400587.09949
1569400587.11512
1569400587.13075
1569400587.14637
1569400587.162
1569400587.17762
1569400587.19325
1569400587.20887
1569400587.2245
1569400587.24013
1569400587.25575
1569400587.27138
1569400587.287
1569400587.30263
1569400587.31825
1569400587.33388
1569400587.34951
1569400587.36513
1569400587.38076
1569400587.39638
1569400587.41201
1569400587.42763
1569400587.44326
1569400587.45889
1569400587.47451
1569400587.49014
1569400587.50576
1569400587.52139
1569400587.53701
1569400587.55264
1569400587.56827
1569400587.58389
1569400587.59952
1569400587.61514
1569400587.63077
1569400587.64639
1569400587.66202
1569400587.67765
1569400587.69327
1569400587.7089
1569400587.72452
1569400587.74015
1569400587.75577
1569400587.7714
1569400587.78703
1569400587.80265
1569400587.81828
1569400587.8339
1569400587.84953
1569400587.86515
1569400587.88078
1569400587.89641
1569400587.91203
1569400587.92766
1569400587.94328
1569400587.95891
1569400587.97453
1569400587.99016
1569400588.00579
1569400588.02141
1569400588.03704
1569400588.05266
1569400588.06829
1569400588.08392
1569400588.09954
1569400588.11517
1569400588.13079
1569400588.14642
1569400588.16204
1569400588.17767
1569400588.1933
1569400588.20892
1569400588.22455
1569400588.24017
1569400588.2558
1569400588.27142
1569400588.28705
1569400588.30268
1569400588.3183
1569400588.33393
1569400588.34955
1569400588.36518
1569400588.3808
1569400588.39643
1569400588.41206
1569400588.42768
1569400588.44331
1569400588.45893
1569400588.47456
1569400588.49018
1569400588.50581
1569400588.52144
1569400588.53706
1569400588.55269
1569400588.56831
1569400588.58394
1569400588.59956
1569400588.61519
1569400588.63082
1569400588.64644
1569400588.66207
1569400588.67769
1569400588.69332
1569400588.70894
1569400588.72457
1569400588.7402
1569400588.75582
1569400588.77145
1569400588.78707
1569400588.8027
1569400588.81832
1569400588.83395
1569400588.84958
1569400588.8652
1569400588.88083
1569400588.89645
1569400588.91208
1569400588.9277
1569400588.94333
1569400588.95896
1569400588.97458
1569400588.99021
1569400589.00583
1569400589.02146
1569400589.03708
1569400589.05271
1569400589.06834
1569400589.08396
1569400589.09959
1569400589.11521
1569400589.13084
1569400589.14646
1569400589.16209
1569400589.17772
1569400589.19334
1569400589.20897
1569400589.22459
1569400589.24022
1569400589.25584
1569400589.27147
1569400589.2871
1569400589.30272
1569400589.31835
1569400589.33397
1569400589.3496
1569400589.36522
1569400589.38085
1569400589.39648
1569400589.4121
1569400589.42773
1569400589.44335
1569400589.45898
1569400589.4746
1569400589.49023
1569400589.50586
1569400589.52148
1569400589.53711
1569400589.55273
1569400589.56836
1569400589.58398
1569400589.59961
1569400589.61524
1569400589.63086
1569400589.64649
1569400589.66211
1569400589.67774
1569400589.69336
1569400589.70899
1569400589.72462
1569400589.74024
1569400589.75587
1569400589.77149
1569400589.78712
1569400589.80274
1569400589.81837
1569400589.834
1569400589.84962
1569400589.86525
1569400589.88087
1569400589.8965
1569400589.91212
1569400589.92775
1569400589.94338
1569400589.959
1569400589.97463
1569400589.99025
1569400590.00588
1569400590.0215
1569400590.03713
1569400590.05276
1569400590.06838
1569400590.08401
1569400590.09963
1569400590.11526
1569400590.13088
1569400590.14651
1569400590.16214
1569400590.17776
1569400590.19339
1569400590.20901
1569400590.22464
1569400590.24026
1569400590.25589
1569400590.27152
1569400590.28714
1569400590.30277
1569400590.31839
1569400590.33402
1569400590.34965
1569400590.36527
1569400590.3809
1569400590.39652
1569400590.41215
1569400590.42777
1569400590.4434
1569400590.45903
1569400590.47465
1569400590.49028
1569400590.5059
1569400590.52153
1569400590.53715
1569400590.55278
1569400590.56841
1569400590.58403
1569400590.59966
1569400590.61528
1569400590.63091
1569400590.64653
1569400590.66216
1569400590.67779
1569400590.69341
1569400590.70904
1569400590.72466
1569400590.74029
1569400590.75591
1569400590.77154
1569400590.78717
1569400590.80279
1569400590.81842
1569400590.83404
1569400590.84967
1569400590.86529
1569400590.88092
1569400590.89655
1569400590.91217
1569400590.9278
1569400590.94342
1569400590.95905
1569400590.97467
1569400590.9903
1569400591.00593
1569400591.02155
1569400591.03718
1569400591.0528
1569400591.06843
1569400591.08405
1569400591.09968
1569400591.11531
1569400591.13093
1569400591.14656
1569400591.16218
1569400591.17781
1569400591.19343
1569400591.20906
1569400591.22469
1569400591.24031
1569400591.25594
1569400591.27156
1569400591.28719
1569400591.30281
1569400591.31844
1569400591.33407
1569400591.34969
1569400591.36532
1569400591.38094
1569400591.39657
1569400591.41219
1569400591.42782
1569400591.44345
1569400591.45907
1569400591.4747
1569400591.49032
1569400591.50595
1569400591.52157
1569400591.5372
1569400591.55283
1569400591.56845
1569400591.58408
1569400591.5997
1569400591.61533
1569400591.63095
1569400591.64658
1569400591.66221
1569400591.67783
1569400591.69346
1569400591.70908
1569400591.72471
1569400591.74033
1569400591.75596
1569400591.77159
1569400591.78721
1569400591.80284
1569400591.81846
1569400591.83409
1569400591.84971
1569400591.86534
1569400591.88097
1569400591.89659
1569400591.91222
1569400591.92784
1569400591.94347
1569400591.95909
1569400591.97472
1569400591.99035
1569400592.00597
1569400592.0216
1569400592.03722
1569400592.05285
1569400592.06847
1569400592.0841
1569400592.09973
1569400592.11535
1569400592.13098
1569400592.1466
1569400592.16223
1569400592.17785
1569400592.19348
1569400592.20911
1569400592.22473
1569400592.24036
1569400592.25598
1569400592.27161
1569400592.28723
1569400592.30286
1569400592.31849
1569400592.33411
1569400592.34974
1569400592.36536
1569400592.38099
1569400592.39661
1569400592.41224
1569400592.42787
1569400592.44349
1569400592.45912
1569400592.47474
1569400592.49037
1569400592.50599
1569400592.52162
1569400592.53725
1569400592.55287
1569400592.5685
1569400592.58412
1569400592.59975
1569400592.61538
1569400592.631
1569400592.64663
1569400592.66225
1569400592.67788
1569400592.6935
1569400592.70913
1569400592.72476
1569400592.74038
1569400592.75601
1569400592.77163
1569400592.78726
1569400592.80288
1569400592.81851
1569400592.83414
1569400592.84976
1569400592.86539
1569400592.88101
1569400592.89664
1569400592.91226
1569400592.92789
1569400592.94352
1569400592.95914
1569400592.97477
1569400592.99039
1569400593.00602
1569400593.02164
1569400593.03727
1569400593.0529
1569400593.06852
1569400593.08415
1569400593.09977
1569400593.1154
1569400593.13102
1569400593.14665
1569400593.16228
1569400593.1779
1569400593.19353
1569400593.20915
1569400593.22478
1569400593.2404
1569400593.25603
1569400593.27166
1569400593.28728
1569400593.30291
1569400593.31853
1569400593.33416
1569400593.34978
1569400593.36541
1569400593.38104
1569400593.39666
1569400593.41229
1569400593.42791
1569400593.44354
1569400593.45916
1569400593.47479
1569400593.49042
1569400593.50604
1569400593.52167
1569400593.53729
1569400593.55292
1569400593.56854
1569400593.58417
1569400593.5998
1569400593.61542
1569400593.63105
1569400593.64667
1569400593.6623
1569400593.67792
1569400593.69355
1569400593.70918
1569400593.7248
1569400593.74043
1569400593.75605
1569400593.77168
1569400593.7873
1569400593.80293
1569400593.81856
1569400593.83418
1569400593.84981
1569400593.86543
1569400593.88106
1569400593.89668
1569400593.91231
1569400593.92794
1569400593.94356
1569400593.95919
1569400593.97481
1569400593.99044
1569400594.00606
1569400594.02169
1569400594.03732
1569400594.05294
1569400594.06857
1569400594.08419
1569400594.09982
1569400594.11544
1569400594.13107
1569400594.1467
1569400594.16232
1569400594.17795
1569400594.19357
1569400594.2092
1569400594.22482
1569400594.24045
1569400594.25608
1569400594.2717
1569400594.28733
1569400594.30295
1569400594.31858
1569400594.3342
1569400594.34983
1569400594.36546
1569400594.38108
1569400594.39671
1569400594.41233
1569400594.42796
1569400594.44358
1569400594.45921
1569400594.47484
1569400594.49046
1569400594.50609
1569400594.52171
1569400594.53734
1569400594.55296
1569400594.56859
1569400594.58422
1569400594.59984
1569400594.61547
1569400594.63109
1569400594.64672
1569400594.66234
1569400594.67797
1569400594.6936
1569400594.70922
1569400594.72485
1569400594.74047
1569400594.7561
1569400594.77172
1569400594.78735
1569400594.80298
1569400594.8186
1569400594.83423
1569400594.84985
1569400594.86548
1569400594.8811
1569400594.89673
1569400594.91236
1569400594.92798
1569400594.94361
1569400594.95923
1569400594.97486
1569400594.99048
1569400595.00611
1569400595.02174
1569400595.03736
1569400595.05299
1569400595.06861
1569400595.08424
1569400595.09986
1569400595.11549
1569400595.13112
1569400595.14674
1569400595.16237
1569400595.17799
1569400595.19362
1569400595.20925
1569400595.22487
1569400595.2405
1569400595.25612
1569400595.27175
1569400595.28737
1569400595.303
1569400595.31863
1569400595.33425
1569400595.34988
1569400595.3655
1569400595.38113
1569400595.39675
1569400595.41238
1569400595.42801
1569400595.44363
1569400595.45926
1569400595.47488
1569400595.49051
1569400595.50613
1569400595.52176
1569400595.53739
1569400595.55301
1569400595.56864
1569400595.58426
1569400595.59989
1569400595.61551
1569400595.63114
1569400595.64677
1569400595.66239
1569400595.67802
1569400595.69364
1569400595.70927
1569400595.72489
1569400595.74052
1569400595.75615
1569400595.77177
1569400595.7874
1569400595.80302
1569400595.81865
1569400595.83427
1569400595.8499
1569400595.86553
1569400595.88115
1569400595.89678
1569400595.9124
1569400595.92803
1569400595.94365
1569400595.95928
1569400595.97491
1569400595.99053
1569400596.00616
1569400596.02178
1569400596.03741
1569400596.05303
1569400596.06866
1569400596.08429
1569400596.09991
1569400596.11554
1569400596.13116
1569400596.14679
1569400596.16241
1569400596.17804
1569400596.19367
1569400596.20929
1569400596.22492
1569400596.24054
1569400596.25617
1569400596.27179
1569400596.28742
1569400596.30305
1569400596.31867
1569400596.3343
1569400596.34992
1569400596.36555
1569400596.38117
1569400596.3968
1569400596.41243
1569400596.42805
1569400596.44368
1569400596.4593
1569400596.47493
1569400596.49055
1569400596.50618
1569400596.52181
1569400596.53743
1569400596.55306
1569400596.56868
1569400596.58431
1569400596.59993
1569400596.61556
1569400596.63119
1569400596.64681
1569400596.66244
1569400596.67806
1569400596.69369
1569400596.70931
1569400596.72494
1569400596.74057
1569400596.75619
1569400596.77182
1569400596.78744
1569400596.80307
1569400596.81869
1569400596.83432
1569400596.84995
1569400596.86557
1569400596.8812
1569400596.89682
1569400596.91245
1569400596.92807
1569400596.9437
1569400596.95933
1569400596.97495
1569400596.99058
1569400597.0062
1569400597.02183
1569400597.03745
1569400597.05308
1569400597.06871
1569400597.08433
1569400597.09996
1569400597.11558
1569400597.13121
1569400597.14683
1569400597.16246
1569400597.17809
1569400597.19371
1569400597.20934
1569400597.22496
1569400597.24059
1569400597.25621
1569400597.27184
1569400597.28747
1569400597.30309
1569400597.31872
1569400597.33434
1569400597.34997
1569400597.36559
1569400597.38122
1569400597.39685
1569400597.41247
1569400597.4281
1569400597.44372
1569400597.45935
1569400597.47498
1569400597.4906
1569400597.50623
1569400597.52185
1569400597.53748
1569400597.5531
1569400597.56873
1569400597.58436
1569400597.59998
1569400597.61561
1569400597.63123
1569400597.64686
1569400597.66248
1569400597.67811
1569400597.69374
1569400597.70936
1569400597.72499
1569400597.74061
1569400597.75624
1569400597.77186
1569400597.78749
1569400597.80312
1569400597.81874
1569400597.83437
1569400597.84999
1569400597.86562
1569400597.88124
1569400597.89687
1569400597.9125
1569400597.92812
1569400597.94375
1569400597.95937
1569400597.975
1569400597.99062
1569400598.00625
1569400598.02188
1569400598.0375
1569400598.05313
1569400598.06875
1569400598.08438
1569400598.1
1569400598.11563
1569400598.13126
1569400598.14688
1569400598.16251
1569400598.17813
1569400598.19376
1569400598.20938
1569400598.22501
1569400598.24064
1569400598.25626
1569400598.27189
1569400598.28751
1569400598.30314
1569400598.31876
1569400598.33439
1569400598.35002
1569400598.36564
1569400598.38127
1569400598.39689
1569400598.41252
1569400598.42814
1569400598.44377
1569400598.4594
1569400598.47502
1569400598.49065
1569400598.50627
1569400598.5219
1569400598.53752
1569400598.55315
1569400598.56878
1569400598.5844
1569400598.60003
1569400598.61565
1569400598.63128
1569400598.6469
1569400598.66253
1569400598.67816
1569400598.69378
1569400598.70941
1569400598.72503
1569400598.74066
1569400598.75628
1569400598.77191
1569400598.78754
1569400598.80316
1569400598.81879
1569400598.83441
1569400598.85004
1569400598.86566
1569400598.88129
1569400598.89692
1569400598.91254
1569400598.92817
1569400598.94379
1569400598.95942
1569400598.97504
1569400598.99067
1569400599.0063
1569400599.02192
1569400599.03755
1569400599.05317
1569400599.0688
1569400599.08442
1569400599.10005
1569400599.11568
1569400599.1313
1569400599.14693
1569400599.16255
1569400599.17818
1569400599.1938
1569400599.20943
1569400599.22506
1569400599.24068
1569400599.25631
1569400599.27193
1569400599.28756
1569400599.30318
1569400599.31881
1569400599.33444
1569400599.35006
1569400599.36569
1569400599.38131
1569400599.39694
1569400599.41256
1569400599.42819
1569400599.44382
1569400599.45944
1569400599.47507
1569400599.49069
1569400599.50632
1569400599.52194
1569400599.53757
1569400599.5532
1569400599.56882
1569400599.58445
1569400599.60007
1569400599.6157
1569400599.63133
1569400599.64695
1569400599.66258
1569400599.6782
1569400599.69383
1569400599.70945
1569400599.72508
1569400599.74071
1569400599.75633
1569400599.77196
1569400599.78758
1569400599.80321
1569400599.81883
1569400599.83446
1569400599.85009
1569400599.86571
1569400599.88134
1569400599.89696
1569400599.91259
1569400599.92821
1569400599.94384
1569400599.95947
1569400599.97509
1569400599.99072
1569400600.00634
1569400600.02197
1569400600.03759
1569400600.05322
1569400600.06885
1569400600.08447
1569400600.1001
1569400600.11572
1569400600.13135
1569400600.14697
1569400600.1626
1569400600.17823
1569400600.19385
1569400600.20948
1569400600.2251
1569400600.24073
1569400600.25635
1569400600.27198
1569400600.28761
1569400600.30323
1569400600.31886
1569400600.33448
1569400600.35011
1569400600.36573
1569400600.38136
1569400600.39699
1569400600.41261
1569400600.42824
1569400600.44386
1569400600.45949
1569400600.47511
1569400600.49074
1569400600.50637
1569400600.52199
1569400600.53762
1569400600.55324
1569400600.56887
1569400600.58449
1569400600.60012
1569400600.61575
1569400600.63137
1569400600.647
1569400600.66262
1569400600.67825
1569400600.69387
1569400600.7095
1569400600.72513
1569400600.74075
1569400600.75638
1569400600.772
1569400600.78763
1569400600.80325
1569400600.81888
1569400600.83451
1569400600.85013
1569400600.86576
1569400600.88138
1569400600.89701
1569400600.91263
1569400600.92826
1569400600.94389
1569400600.95951
1569400600.97514
1569400600.99076
1569400601.00639
1569400601.02201
1569400601.03764
1569400601.05327
1569400601.06889
1569400601.08452
1569400601.10014
1569400601.11577
1569400601.13139
1569400601.14702
1569400601.16265
1569400601.17827
1569400601.1939
1569400601.20952
1569400601.22515
1569400601.24077
1569400601.2564
1569400601.27203
1569400601.28765
1569400601.30328
1569400601.3189
1569400601.33453
1569400601.35015
1569400601.36578
1569400601.38141
1569400601.39703
1569400601.41266
1569400601.42828
1569400601.44391
1569400601.45953
1569400601.47516
1569400601.49079
1569400601.50641
1569400601.52204
1569400601.53766
1569400601.55329
1569400601.56891
1569400601.58454
1569400601.60017
1569400601.61579
1569400601.63142
1569400601.64704
1569400601.66267
1569400601.67829
1569400601.69392
1569400601.70955
1569400601.72517
1569400601.7408
1569400601.75642
1569400601.77205
1569400601.78767
1569400601.8033
1569400601.81893
1569400601.83455
1569400601.85018
1569400601.8658
1569400601.88143
1569400601.89705
1569400601.91268
1569400601.92831
1569400601.94393
1569400601.95956
1569400601.97518
1569400601.99081
1569400602.00643
1569400602.02206
1569400602.03769
1569400602.05331
1569400602.06894
1569400602.08456
1569400602.10019
1569400602.11581
1569400602.13144
1569400602.14707
1569400602.16269
1569400602.17832
1569400602.19394
1569400602.20957
1569400602.22519
1569400602.24082
1569400602.25645
1569400602.27207
1569400602.2877
1569400602.30332
1569400602.31895
1569400602.33458
1569400602.3502
1569400602.36583
1569400602.38145
1569400602.39708
1569400602.4127
1569400602.42833
1569400602.44396
1569400602.45958
1569400602.47521
1569400602.49083
1569400602.50646
1569400602.52208
1569400602.53771
1569400602.55334
1569400602.56896
1569400602.58459
1569400602.60021
1569400602.61584
1569400602.63146
1569400602.64709
1569400602.66272
1569400602.67834
1569400602.69397
1569400602.70959
1569400602.72522
1569400602.74084
1569400602.75647
1569400602.7721
1569400602.78772
1569400602.80335
1569400602.81897
1569400602.8346
1569400602.85022
1569400602.86585
1569400602.88148
1569400602.8971
1569400602.91273
1569400602.92835
1569400602.94398
1569400602.9596
1569400602.97523
1569400602.99086
1569400603.00648
1569400603.02211
1569400603.03773
1569400603.05336
1569400603.06898
1569400603.08461
1569400603.10024
1569400603.11586
1569400603.13149
1569400603.14711
1569400603.16274
1569400603.17836
1569400603.19399
1569400603.20962
1569400603.22524
1569400603.24087
1569400603.25649
1569400603.27212
1569400603.28774
1569400603.30337
1569400603.319
1569400603.33462
1569400603.35025
1569400603.36587
1569400603.3815
1569400603.39712
1569400603.41275
1569400603.42838
1569400603.444
1569400603.45963
1569400603.47525
1569400603.49088
1569400603.5065
1569400603.52213
1569400603.53776
1569400603.55338
1569400603.56901
1569400603.58463
1569400603.60026
1569400603.61588
1569400603.63151
1569400603.64714
1569400603.66276
1569400603.67839
1569400603.69401
1569400603.70964
1569400603.72526
1569400603.74089
1569400603.75652
1569400603.77214
1569400603.78777
1569400603.80339
1569400603.81902
1569400603.83464
1569400603.85027
1569400603.8659
1569400603.88152
1569400603.89715
1569400603.91277
1569400603.9284
1569400603.94402
1569400603.95965
1569400603.97528
1569400603.9909
1569400604.00653
1569400604.02215
1569400604.03778
1569400604.0534
1569400604.06903
1569400604.08466
1569400604.10028
1569400604.11591
1569400604.13153
1569400604.14716
1569400604.16278
1569400604.17841
1569400604.19404
1569400604.20966
1569400604.22529
1569400604.24091
1569400604.25654
1569400604.27216
1569400604.28779
1569400604.30342
1569400604.31904
1569400604.33467
1569400604.35029
1569400604.36592
1569400604.38154
1569400604.39717
1569400604.4128
1569400604.42842
1569400604.44405
1569400604.45967
1569400604.4753
1569400604.49092
1569400604.50655
1569400604.52218
1569400604.5378
1569400604.55343
1569400604.56905
1569400604.58468
1569400604.60031
1569400604.61593
1569400604.63156
1569400604.64718
1569400604.66281
1569400604.67843
1569400604.69406
1569400604.70969
1569400604.72531
1569400604.74094
1569400604.75656
1569400604.77219
1569400604.78781
1569400604.80344
1569400604.81907
1569400604.83469
1569400604.85032
1569400604.86594
1569400604.88157
1569400604.89719
1569400604.91282
1569400604.92845
1569400604.94407
1569400604.9597
1569400604.97532
1569400604.99095
1569400605.00657
1569400605.0222
1569400605.03783
1569400605.05345
1569400605.06908
1569400605.0847
1569400605.10033
1569400605.11595
1569400605.13158
1569400605.14721
1569400605.16283
1569400605.17846
1569400605.19408
1569400605.20971
1569400605.22533
1569400605.24096
1569400605.25659
1569400605.27221
1569400605.28784
1569400605.30346
1569400605.31909
1569400605.33471
1569400605.35034
1569400605.36597
1569400605.38159
1569400605.39722
1569400605.41284
1569400605.42847
1569400605.44409
1569400605.45972
1569400605.47535
1569400605.49097
1569400605.5066
1569400605.52222
1569400605.53785
1569400605.55347
1569400605.5691
1569400605.58473
1569400605.60035
1569400605.61598
1569400605.6316
1569400605.64723
1569400605.66285
1569400605.67848
1569400605.69411
1569400605.70973
1569400605.72536
1569400605.74098
1569400605.75661
1569400605.77223
1569400605.78786
1569400605.80349
1569400605.81911
1569400605.83474
1569400605.85036
1569400605.86599
1569400605.88161
1569400605.89724
1569400605.91287
1569400605.92849
1569400605.94412
1569400605.95974
1569400605.97537
1569400605.99099
1569400606.00662
1569400606.02225
1569400606.03787
1569400606.0535
1569400606.06912
1569400606.08475
1569400606.10037
1569400606.116
1569400606.13163
1569400606.14725
1569400606.16288
1569400606.1785
1569400606.19413
1569400606.20975
1569400606.22538
1569400606.24101
1569400606.25663
1569400606.27226
1569400606.28788
1569400606.30351
1569400606.31913
1569400606.33476
1569400606.35039
1569400606.36601
1569400606.38164
1569400606.39726
1569400606.41289
1569400606.42851
1569400606.44414
1569400606.45977
1569400606.47539
1569400606.49102
1569400606.50664
1569400606.52227
1569400606.53789
1569400606.55352
1569400606.56915
1569400606.58477
1569400606.6004
1569400606.61602
1569400606.63165
1569400606.64727
1569400606.6629
1569400606.67853
1569400606.69415
1569400606.70978
1569400606.7254
1569400606.74103
1569400606.75665
1569400606.77228
1569400606.78791
1569400606.80353
1569400606.81916
1569400606.83478
1569400606.85041
1569400606.86603
1569400606.88166
1569400606.89729
1569400606.91291
1569400606.92854
1569400606.94416
1569400606.95979
1569400606.97541
1569400606.99104
1569400607.00667
1569400607.02229
1569400607.03792
1569400607.05354
1569400607.06917
1569400607.0848
1569400607.10042
1569400607.11605
1569400607.13167
1569400607.1473
1569400607.16292
1569400607.17855
1569400607.19418
1569400607.2098
1569400607.22543
1569400607.24105
1569400607.25668
1569400607.2723
1569400607.28793
1569400607.30356
1569400607.31918
1569400607.33481
1569400607.35043
1569400607.36606
1569400607.38168
1569400607.39731
1569400607.41294
1569400607.42856
1569400607.44419
1569400607.45981
1569400607.47544
1569400607.49106
1569400607.50669
1569400607.52232
1569400607.53794
1569400607.55357
1569400607.56919
1569400607.58482
1569400607.60044
1569400607.61607
1569400607.6317
1569400607.64732
1569400607.66295
1569400607.67857
1569400607.6942
1569400607.70982
1569400607.72545
1569400607.74108
1569400607.7567
1569400607.77233
1569400607.78795
1569400607.80358
1569400607.8192
1569400607.83483
1569400607.85046
1569400607.86608
1569400607.88171
1569400607.89733
1569400607.91296
1569400607.92858
1569400607.94421
1569400607.95984
1569400607.97546
1569400607.99109
1569400608.00671
1569400608.02234
1569400608.03796
1569400608.05359
1569400608.06922
1569400608.08484
1569400608.10047
1569400608.11609
1569400608.13172
1569400608.14734
1569400608.16297
1569400608.1786
1569400608.19422
1569400608.20985
1569400608.22547
1569400608.2411
1569400608.25672
1569400608.27235
1569400608.28798
1569400608.3036
1569400608.31923
1569400608.33485
1569400608.35048
1569400608.3661
1569400608.38173
1569400608.39736
1569400608.41298
1569400608.42861
1569400608.44423
1569400608.45986
1569400608.47548
1569400608.49111
1569400608.50674
1569400608.52236
1569400608.53799
1569400608.55361
1569400608.56924
1569400608.58486
1569400608.60049
1569400608.61612
1569400608.63174
1569400608.64737
1569400608.66299
1569400608.67862
1569400608.69424
1569400608.70987
1569400608.7255
1569400608.74112
1569400608.75675
1569400608.77237
1569400608.788
1569400608.80362
1569400608.81925
1569400608.83488
1569400608.8505
1569400608.86613
1569400608.88175
1569400608.89738
1569400608.913
1569400608.92863
1569400608.94426
1569400608.95988
1569400608.97551
1569400608.99113
1569400609.00676
1569400609.02238
1569400609.03801
1569400609.05364
1569400609.06926
1569400609.08489
1569400609.10051
1569400609.11614
1569400609.13176
1569400609.14739
1569400609.16302
1569400609.17864
1569400609.19427
1569400609.20989
1569400609.22552
1569400609.24114
1569400609.25677
1569400609.2724
1569400609.28802
1569400609.30365
1569400609.31927
1569400609.3349
1569400609.35052
1569400609.36615
1569400609.38178
1569400609.3974
1569400609.41303
1569400609.42865
1569400609.44428
1569400609.45991
1569400609.47553
1569400609.49116
1569400609.50678
1569400609.52241
1569400609.53803
1569400609.55366
1569400609.56929
1569400609.58491
1569400609.60054
1569400609.61616
1569400609.63179
1569400609.64741
1569400609.66304
1569400609.67867
1569400609.69429
1569400609.70992
1569400609.72554
1569400609.74117
1569400609.75679
1569400609.77242
1569400609.78805
1569400609.80367
1569400609.8193
1569400609.83492
1569400609.85055
1569400609.86617
1569400609.8818
1569400609.89743
1569400609.91305
1569400609.92868
1569400609.9443
1569400609.95993
1569400609.97555
1569400609.99118
1569400610.00681
1569400610.02243
1569400610.03806
1569400610.05368
1569400610.06931
1569400610.08493
1569400610.10056
1569400610.11619
1569400610.13181
1569400610.14744
1569400610.16306
1569400610.17869
1569400610.19431
1569400610.20994
1569400610.22557
1569400610.24119
1569400610.25682
1569400610.27244
1569400610.28807
1569400610.30369
1569400610.31932
1569400610.33495
1569400610.35057
1569400610.3662
1569400610.38182
1569400610.39745
1569400610.41307
1569400610.4287
1569400610.44433
1569400610.45995
1569400610.47558
1569400610.4912
1569400610.50683
1569400610.52245
1569400610.53808
1569400610.55371
1569400610.56933
1569400610.58496
1569400610.60058
1569400610.61621
1569400610.63183
1569400610.64746
1569400610.66309
1569400610.67871
1569400610.69434
1569400610.70996
1569400610.72559
1569400610.74121
1569400610.75684
1569400610.77247
1569400610.78809
1569400610.80372
1569400610.81934
1569400610.83497
1569400610.85059
1569400610.86622
1569400610.88185
1569400610.89747
1569400610.9131
1569400610.92872
1569400610.94435
1569400610.95997
1569400610.9756
1569400610.99123
1569400611.00685
1569400611.02248
1569400611.0381
1569400611.05373
1569400611.06935
1569400611.08498
1569400611.10061
1569400611.11623
1569400611.13186
1569400611.14748
1569400611.16311
1569400611.17873
1569400611.19436
1569400611.20999
1569400611.22561
1569400611.24124
1569400611.25686
1569400611.27249
1569400611.28811
1569400611.30374
1569400611.31937
1569400611.33499
1569400611.35062
1569400611.36624
1569400611.38187
1569400611.39749
1569400611.41312
1569400611.42875
1569400611.44437
1569400611.46
1569400611.47562
1569400611.49125
1569400611.50687
1569400611.5225
1569400611.53813
1569400611.55375
1569400611.56938
1569400611.585
1569400611.60063
1569400611.61626
1569400611.63188
1569400611.64751
1569400611.66313
1569400611.67876
1569400611.69438
1569400611.71001
1569400611.72564
1569400611.74126
1569400611.75689
1569400611.77251
1569400611.78814
1569400611.80376
1569400611.81939
1569400611.83502
1569400611.85064
1569400611.86627
1569400611.88189
1569400611.89752
1569400611.91314
1569400611.92877
1569400611.9444
1569400611.96002
1569400611.97565
1569400611.99127
1569400612.0069
1569400612.02252
1569400612.03815
1569400612.05378
1569400612.0694
1569400612.08503
1569400612.10065
1569400612.11628
1569400612.1319
1569400612.14753
1569400612.16316
1569400612.17878
1569400612.19441
1569400612.21003
1569400612.22566
1569400612.24128
1569400612.25691
1569400612.27254
1569400612.28816
1569400612.30379
1569400612.31941
1569400612.33504
1569400612.35066
1569400612.36629
1569400612.38192
1569400612.39754
1569400612.41317
1569400612.42879
1569400612.44442
1569400612.46004
1569400612.47567
1569400612.4913
1569400612.50692
1569400612.52255
1569400612.53817
1569400612.5538
1569400612.56942
1569400612.58505
1569400612.60068
1569400612.6163
1569400612.63193
1569400612.64755
1569400612.66318
1569400612.6788
1569400612.69443
1569400612.71006
1569400612.72568
1569400612.74131
1569400612.75693
1569400612.77256
1569400612.78818
1569400612.80381
1569400612.81944
1569400612.83506
1569400612.85069
1569400612.86631
1569400612.88194
1569400612.89756
1569400612.91319
1569400612.92882
1569400612.94444
1569400612.96007
1569400612.97569
1569400612.99132
1569400613.00694
1569400613.02257
1569400613.0382
1569400613.05382
1569400613.06945
1569400613.08507
1569400613.1007
1569400613.11632
1569400613.13195
1569400613.14758
1569400613.1632
1569400613.17883
1569400613.19445
1569400613.21008
1569400613.2257
1569400613.24133
1569400613.25696
1569400613.27258
1569400613.28821
1569400613.30383
1569400613.31946
1569400613.33508
1569400613.35071
1569400613.36634
1569400613.38196
1569400613.39759
1569400613.41321
1569400613.42884
1569400613.44446
1569400613.46009
1569400613.47572
1569400613.49134
1569400613.50697
1569400613.52259
1569400613.53822
1569400613.55384
1569400613.56947
1569400613.5851
1569400613.60072
1569400613.61635
1569400613.63197
1569400613.6476
1569400613.66322
1569400613.67885
1569400613.69448
1569400613.7101
1569400613.72573
1569400613.74135
1569400613.75698
1569400613.7726
1569400613.78823
1569400613.80386
1569400613.81948
1569400613.83511
1569400613.85073
1569400613.86636
1569400613.88198
1569400613.89761
1569400613.91324
1569400613.92886
1569400613.94449
1569400613.96011
1569400613.97574
1569400613.99136
1569400614.00699
1569400614.02262
1569400614.03824
1569400614.05387
1569400614.06949
1569400614.08512
1569400614.10074
1569400614.11637
1569400614.132
1569400614.14762
1569400614.16325
1569400614.17887
1569400614.1945
1569400614.21012
1569400614.22575
1569400614.24138
1569400614.257
1569400614.27263
1569400614.28825
1569400614.30388
1569400614.31951
1569400614.33513
1569400614.35076
1569400614.36638
1569400614.38201
1569400614.39763
1569400614.41326
1569400614.42889
1569400614.44451
1569400614.46014
1569400614.47576
1569400614.49139
1569400614.50701
1569400614.52264
1569400614.53827
1569400614.55389
1569400614.56952
1569400614.58514
1569400614.60077
1569400614.61639
1569400614.63202
1569400614.64765
1569400614.66327
1569400614.6789
1569400614.69452
1569400614.71015
1569400614.72577
1569400614.7414
1569400614.75703
1569400614.77265
1569400614.78828
1569400614.8039
1569400614.81953
1569400614.83515
1569400614.85078
1569400614.86641
1569400614.88203
1569400614.89766
1569400614.91328
1569400614.92891
1569400614.94453
1569400614.96016
1569400614.97579
1569400614.99141
1569400615.00704
1569400615.02266
1569400615.03829
1569400615.05391
1569400615.06954
1569400615.08517
1569400615.10079
1569400615.11642
1569400615.13204
1569400615.14767
1569400615.16329
1569400615.17892
1569400615.19455
1569400615.21017
1569400615.2258
1569400615.24142
1569400615.25705
1569400615.27267
1569400615.2883
1569400615.30393
1569400615.31955
1569400615.33518
1569400615.3508
1569400615.36643
1569400615.38205
1569400615.39768
1569400615.41331
1569400615.42893
1569400615.44456
1569400615.46018
1569400615.47581
1569400615.49143
1569400615.50706
1569400615.52269
1569400615.53831
1569400615.55394
1569400615.56956
1569400615.58519
1569400615.60081
1569400615.61644
1569400615.63207
1569400615.64769
1569400615.66332
1569400615.67894
1569400615.69457
1569400615.71019
1569400615.72582
1569400615.74145
1569400615.75707
1569400615.7727
1569400615.78832
1569400615.80395
1569400615.81957
1569400615.8352
1569400615.85083
1569400615.86645
1569400615.88208
1569400615.8977
1569400615.91333
1569400615.92895
1569400615.94458
1569400615.96021
1569400615.97583
1569400615.99146
1569400616.00708
1569400616.02271
1569400616.03833
1569400616.05396
1569400616.06959
1569400616.08521
1569400616.10084
1569400616.11646
1569400616.13209
1569400616.14771
1569400616.16334
1569400616.17897
1569400616.19459
1569400616.21022
1569400616.22584
1569400616.24147
1569400616.25709
1569400616.27272
1569400616.28835
1569400616.30397
1569400616.3196
1569400616.33522
1569400616.35085
1569400616.36647
1569400616.3821
1569400616.39773
1569400616.41335
1569400616.42898
1569400616.4446
1569400616.46023
1569400616.47586
1569400616.49148
1569400616.50711
1569400616.52273
1569400616.53836
1569400616.55398
1569400616.56961
1569400616.58524
1569400616.60086
1569400616.61649
1569400616.63211
1569400616.64774
1569400616.66336
1569400616.67899
1569400616.69462
1569400616.71024
1569400616.72587
1569400616.74149
1569400616.75712
1569400616.77274
1569400616.78837
1569400616.804
1569400616.81962
1569400616.83525
1569400616.85087
1569400616.8665
1569400616.88212
1569400616.89775
1569400616.91338
1569400616.929
1569400616.94463
1569400616.96025
1569400616.97588
1569400616.9915
1569400617.00713
1569400617.02276
1569400617.03838
1569400617.05401
1569400617.06963
1569400617.08526
1569400617.10088
1569400617.11651
1569400617.13214
1569400617.14776
1569400617.16339
1569400617.17901
1569400617.19464
1569400617.21026
1569400617.22589
1569400617.24152
1569400617.25714
1569400617.27277
1569400617.28839
1569400617.30402
1569400617.31964
1569400617.33527
1569400617.3509
1569400617.36652
1569400617.38215
1569400617.39777
1569400617.4134
1569400617.42902
1569400617.44465
1569400617.46028
1569400617.4759
1569400617.49153
1569400617.50715
1569400617.52278
1569400617.5384
1569400617.55403
1569400617.56966
1569400617.58528
1569400617.60091
1569400617.61653
1569400617.63216
1569400617.64778
1569400617.66341
1569400617.67904
1569400617.69466
1569400617.71029
1569400617.72591
1569400617.74154
1569400617.75716
1569400617.77279
1569400617.78842
1569400617.80404
1569400617.81967
1569400617.83529
1569400617.85092
1569400617.86654
1569400617.88217
1569400617.8978
1569400617.91342
1569400617.92905
1569400617.94467
1569400617.9603
1569400617.97592
1569400617.99155
1569400618.00718
1569400618.0228
1569400618.03843
1569400618.05405
1569400618.06968
1569400618.0853
1569400618.10093
1569400618.11656
1569400618.13218
1569400618.14781
1569400618.16343
1569400618.17906
1569400618.19468
1569400618.21031
1569400618.22594
1569400618.24156
1569400618.25719
1569400618.27281
1569400618.28844
1569400618.30406
1569400618.31969
1569400618.33532
1569400618.35094
1569400618.36657
1569400618.38219
1569400618.39782
1569400618.41344
1569400618.42907
1569400618.4447
1569400618.46032
1569400618.47595
1569400618.49157
1569400618.5072
1569400618.52282
1569400618.53845
1569400618.55408
1569400618.5697
1569400618.58533
1569400618.60095
1569400618.61658
1569400618.6322
1569400618.64783
1569400618.66346
1569400618.67908
1569400618.69471
1569400618.71033
1569400618.72596
1569400618.74159
1569400618.75721
1569400618.77284
1569400618.78846
1569400618.80409
1569400618.81971
1569400618.83534
1569400618.85097
1569400618.86659
1569400618.88222
1569400618.89784
1569400618.91347
1569400618.92909
1569400618.94472
1569400618.96035
1569400618.97597
1569400618.9916
1569400619.00722
1569400619.02285
1569400619.03847
1569400619.0541
1569400619.06973
1569400619.08535
1569400619.10098
1569400619.1166
1569400619.13223
1569400619.14785
1569400619.16348
1569400619.17911
1569400619.19473
1569400619.21036
1569400619.22598
1569400619.24161
1569400619.25723
1569400619.27286
1569400619.28849
1569400619.30411
1569400619.31974
1569400619.33536
1569400619.35099
1569400619.36661
1569400619.38224
1569400619.39787
1569400619.41349
1569400619.42912
1569400619.44474
1569400619.46037
1569400619.47599
1569400619.49162
1569400619.50725
1569400619.52287
1569400619.5385
1569400619.55412
1569400619.56975
1569400619.58537
1569400619.601
1569400619.61663
1569400619.63225
1569400619.64788
1569400619.6635
1569400619.67913
1569400619.69475
1569400619.71038
1569400619.72601
1569400619.74163
1569400619.75726
1569400619.77288
1569400619.78851
1569400619.80413
1569400619.81976
1569400619.83539
1569400619.85101
1569400619.86664
1569400619.88226
1569400619.89789
1569400619.91351
1569400619.92914
1569400619.94477
1569400619.96039
1569400619.97602
1569400619.99164
1569400620.00727
1569400620.02289
1569400620.03852
1569400620.05415
1569400620.06977
1569400620.0854
1569400620.10102
1569400620.11665
1569400620.13227
1569400620.1479
1569400620.16353
1569400620.17915
1569400620.19478
1569400620.2104
1569400620.22603
1569400620.24165
1569400620.25728
1569400620.27291
1569400620.28853
1569400620.30416
1569400620.31978
1569400620.33541
1569400620.35103
1569400620.36666
1569400620.38229
1569400620.39791
1569400620.41354
1569400620.42916
1569400620.44479
1569400620.46041
1569400620.47604
1569400620.49167
1569400620.50729
1569400620.52292
1569400620.53854
1569400620.55417
1569400620.56979
1569400620.58542
1569400620.60105
1569400620.61667
1569400620.6323
1569400620.64792
1569400620.66355
1569400620.67917
1569400620.6948
1569400620.71043
1569400620.72605
1569400620.74168
1569400620.7573
1569400620.77293
1569400620.78855
1569400620.80418
1569400620.81981
1569400620.83543
1569400620.85106
1569400620.86668
1569400620.88231
1569400620.89793
1569400620.91356
1569400620.92919
1569400620.94481
1569400620.96044
1569400620.97606
1569400620.99169
1569400621.00731
1569400621.02294
1569400621.03857
1569400621.05419
1569400621.06982
1569400621.08544
1569400621.10107
1569400621.11669
1569400621.13232
1569400621.14795
1569400621.16357
1569400621.1792
1569400621.19482
1569400621.21045
1569400621.22607
1569400621.2417
1569400621.25733
1569400621.27295
1569400621.28858
1569400621.3042
1569400621.31983
1569400621.33546
1569400621.35108
1569400621.36671
1569400621.38233
1569400621.39796
1569400621.41358
1569400621.42921
1569400621.44484
1569400621.46046
1569400621.47609
1569400621.49171
1569400621.50734
1569400621.52296
1569400621.53859
1569400621.55422
1569400621.56984
1569400621.58547
1569400621.60109
1569400621.61672
1569400621.63234
1569400621.64797
1569400621.6636
1569400621.67922
1569400621.69485
1569400621.71047
1569400621.7261
1569400621.74172
1569400621.75735
1569400621.77298
1569400621.7886
1569400621.80423
1569400621.81985
1569400621.83548
1569400621.8511
1569400621.86673
1569400621.88236
1569400621.89798
1569400621.91361
1569400621.92923
1569400621.94486
1569400621.96048
1569400621.97611
1569400621.99174
1569400622.00736
1569400622.02299
1569400622.03861
1569400622.05424
1569400622.06986
1569400622.08549
1569400622.10112
1569400622.11674
1569400622.13237
1569400622.14799
1569400622.16362
1569400622.17924
1569400622.19487
1569400622.2105
1569400622.22612
1569400622.24175
1569400622.25737
1569400622.273
1569400622.28862
1569400622.30425
1569400622.31988
1569400622.3355
1569400622.35113
1569400622.36675
1569400622.38238
1569400622.398
1569400622.41363
1569400622.42926
1569400622.44488
1569400622.46051
1569400622.47613
1569400622.49176
1569400622.50738
1569400622.52301
1569400622.53864
1569400622.55426
1569400622.56989
1569400622.58551
1569400622.60114
1569400622.61676
1569400622.63239
1569400622.64802
1569400622.66364
1569400622.67927
1569400622.69489
1569400622.71052
1569400622.72614
1569400622.74177
1569400622.7574
1569400622.77302
1569400622.78865
1569400622.80427
1569400622.8199
1569400622.83552
1569400622.85115
1569400622.86678
1569400622.8824
1569400622.89803
1569400622.91365
1569400622.92928
1569400622.9449
1569400622.96053
1569400622.97616
1569400622.99178
1569400623.00741
1569400623.02303
1569400623.03866
1569400623.05428
1569400623.06991
1569400623.08554
1569400623.10116
1569400623.11679
1569400623.13241
1569400623.14804
1569400623.16366
1569400623.17929
1569400623.19492
1569400623.21054
1569400623.22617
1569400623.24179
1569400623.25742
1569400623.27304
1569400623.28867
1569400623.3043
1569400623.31992
1569400623.33555
1569400623.35117
1569400623.3668
1569400623.38242
1569400623.39805
1569400623.41368
1569400623.4293
1569400623.44493
1569400623.46055
1569400623.47618
1569400623.4918
1569400623.50743
1569400623.52306
1569400623.53868
1569400623.55431
1569400623.56993
1569400623.58556
1569400623.60119
1569400623.61681
1569400623.63244
1569400623.64806
1569400623.66369
1569400623.67931
1569400623.69494
1569400623.71057
1569400623.72619
1569400623.74182
1569400623.75744
1569400623.77307
1569400623.78869
1569400623.80432
1569400623.81995
1569400623.83557
1569400623.8512
1569400623.86682
1569400623.88245
1569400623.89807
1569400623.9137
1569400623.92933
1569400623.94495
1569400623.96058
1569400623.9762
1569400623.99183
1569400624.00745
1569400624.02308
1569400624.03871
1569400624.05433
1569400624.06996
1569400624.08558
1569400624.10121
1569400624.11683
1569400624.13246
1569400624.14809
1569400624.16371
1569400624.17934
1569400624.19496
1569400624.21059
1569400624.22621
1569400624.24184
1569400624.25747
1569400624.27309
1569400624.28872
1569400624.30434
1569400624.31997
1569400624.33559
1569400624.35122
1569400624.36685
1569400624.38247
1569400624.3981
1569400624.41372
1569400624.42935
1569400624.44497
1569400624.4606
1569400624.47623
1569400624.49185
1569400624.50748
1569400624.5231
1569400624.53873
1569400624.55435
1569400624.56998
1569400624.58561
1569400624.60123
1569400624.61686
1569400624.63248
1569400624.64811
1569400624.66373
1569400624.67936
1569400624.69499
1569400624.71061
1569400624.72624
1569400624.74186
1569400624.75749
1569400624.77311
1569400624.78874
1569400624.80437
1569400624.81999
1569400624.83562
1569400624.85124
1569400624.86687
1569400624.88249
1569400624.89812
1569400624.91375
1569400624.92937
1569400624.945
1569400624.96062
1569400624.97625
1569400624.99187
1569400625.0075
1569400625.02313
1569400625.03875
1569400625.05438
1569400625.07
1569400625.08563
1569400625.10125
1569400625.11688
1569400625.13251
1569400625.14813
1569400625.16376
1569400625.17938
1569400625.19501
1569400625.21063
1569400625.22626
1569400625.24189
1569400625.25751
1569400625.27314
1569400625.28876
1569400625.30439
1569400625.32001
1569400625.33564
1569400625.35127
1569400625.36689
1569400625.38252
1569400625.39814
1569400625.41377
1569400625.42939
1569400625.44502
1569400625.46065
1569400625.47627
1569400625.4919
1569400625.50752
1569400625.52315
1569400625.53877
1569400625.5544
1569400625.57003
1569400625.58565
1569400625.60128
1569400625.6169
1569400625.63253
1569400625.64815
1569400625.66378
1569400625.67941
1569400625.69503
1569400625.71066
1569400625.72628
1569400625.74191
1569400625.75753
1569400625.77316
1569400625.78879
1569400625.80441
1569400625.82004
1569400625.83566
1569400625.85129
1569400625.86691
1569400625.88254
1569400625.89817
1569400625.91379
1569400625.92942
1569400625.94504
1569400625.96067
1569400625.97629
1569400625.99192
1569400626.00755
1569400626.02317
1569400626.0388
1569400626.05442
