-27.18976
-18.83543
-11.10049
-4.649551
0.3060455
4.08905
7.193405
10.06537
12.90698
15.65295
18.03722
19.84662
21.00282
21.63046
22.03035
22.47037
23.04837
23.76558
24.49486
25.14594
25.70467
26.18202
26.57555
26.83745
26.83139
26.35396
25.40222
24.03157
22.43964
20.85538
19.4774
18.33847
17.36043
16.35464
15.06299
13.37689
11.31079
9.049835
6.848679
4.888031
3.181107
1.544083
-0.3089905
-2.618301
-5.4086
-8.546204
-11.7032
-14.56735
-16.93816
-18.80125
-20.32176
-21.8067
-23.59196
-25.95457
-29.07669
-32.91225
-37.03816
-40.77194
-43.14195
-43.1996
-40.4032
-34.78668
-27.05594
-18.3325
-9.864716
-2.554153
3.123138
7.18457
9.905304
11.67751
12.82088
13.54616
13.98087
14.1665
14.15118
14.01494
13.91246
13.96422
14.37198
15.209
16.43526
17.93828
19.53752
21.04814
22.31052
23.28741
23.90811
24.09335
23.75256
22.78455
21.15088
18.9796
16.39445
13.54138
10.62823
7.77739
5.102051
2.677872
0.5364075
-1.34903
-3.01651
-4.563644
-6.086853
-7.606384
-9.115189
-10.5457
-11.84711
-13.01314
-14.11172
-15.31304
-16.80246
-18.81271
-21.48763
-24.8474
-28.66729
-32.41563
-35.37589
-36.74714
-35.89291
-32.55245
-26.99306
-19.90858
-12.31139
-5.239281
0.58638
4.831421
7.627411
9.401169
10.62195
11.64303
12.63067
13.5339
14.21033
14.57659
14.65878
14.55894
14.44231
14.40945
14.54494
14.90916
15.58454
16.57845
17.8651
19.27937
20.57773
21.49425
21.74216
21.16271
19.70736
17.52837
14.84691
12.02982
9.305344
6.805809
4.557472
2.493942
0.475647
-1.559837
-3.627983
-5.710342
-7.728477
-9.648575
-11.44056
-13.05943
-14.44066
-15.62285
-16.67615
-17.70864
-18.89037
-20.35728
-22.27597
-24.8238
-28.10357
-32.01796
-36.16102
-39.75494
-41.86502
-41.65234
-38.67224
-33.15231
-25.84291
-17.83754
-10.19201
-3.608364
1.66103
5.691032
8.716763
10.9833
12.61996
13.70156
14.34032
14.62241
14.70056
14.73369
14.87044
15.1451
15.58195
16.12404
16.66703
17.15704
17.51081
17.6572
17.57336
17.28098
16.78606
16.11808
15.20825
14.07029
12.76896
11.39456
10.15867
9.172054
8.492565
8.033007
7.624807
7.065348
6.22397
5.126112
3.819754
2.458736
1.052544
-0.4768753
-2.251266
-4.33004
-6.68256
-9.215925
-11.74111
-14.18659
-16.51779
-18.86789
-21.45193
-24.482
-28.04838
-32.08176
-36.2562
-39.99523
-42.62238
-43.38181
-41.77608
-37.72267
-31.58114
-24.15689
-16.4052
-9.227159
-3.181355
1.460111
4.791536
7.101651
8.691753
9.907552
10.92757
11.92333
12.93797
13.98183
14.95566
15.75866
16.36653
16.78423
17.17421
17.6263
18.16959
18.72549
19.11339
19.11985
18.60232
17.55133
16.04916
14.28513
12.40815
10.52878
8.777166
7.235524
6.005731
5.169158
4.734886
4.600319
4.615717
4.517453
4.068988
3.160052
1.711093
-0.2095668
-2.499157
-5.024925
-7.710782
-10.45578
-13.21152
-15.93637
-18.57742
-21.15704
-23.6814
-26.26414
-28.99742
-31.86657
-34.5614
-36.50068
-36.95359
-35.28853
-31.30035
-25.2944
-18.02639
-10.48475
-3.512949
2.400837
7.127515
10.83633
13.73615
15.94685
17.48817
18.36918
18.57574
18.20641
17.39058
16.34985
15.31697
14.49141
14.00369
13.89944
14.12358
14.55738
15.12079
15.65864
16.122
16.44645
16.58966
16.55384
16.36414
16.02429
15.49169
14.70318
13.49275
11.76708
9.508873
6.817099
3.922877
1.099883
-1.557831
-4.067127
-6.462705
-8.821477
-11.10401
-13.21242
-15.08537
-16.77261
-18.41673
-20.28978
-22.55504
-25.24987
-28.36483
-31.84591
-35.61249
-39.52499
-43.17645
-45.87634
-46.73055
-44.92469
-40.15318
-32.8065
-23.86821
-14.60619
-6.17581
0.6995478
5.799536
9.302157
11.59023
12.9939
13.74534
14.08081
14.20675
14.31417
14.58296
15.06828
15.7027
16.36068
16.90167
17.235
17.44348
17.69029
18.10828
18.80422
19.69678
20.5776
21.20066
21.40881
21.18584
20.6622
20.00895
19.32034
18.59158
17.67616
16.41298
14.71564
12.63383
10.39752
8.245522
6.353803
4.710913
3.182638
1.515256
-0.5043077
-3.000341
-5.951817
-9.232015
-12.64507
-15.97657
-19.09186
-21.8865
-24.39665
-26.80925
-29.4101
-32.50185
-36.1983
-40.2831
-44.10939
-46.7966
-47.43373
-45.4678
-40.96167
-34.52544
-27.11973
-19.70869
-12.97603
-7.185375
-2.272809
1.979813
5.814858
9.365171
12.68083
15.7296
18.40655
20.57808
22.13704
23.05172
23.401
23.36465
23.15975
22.96712
22.85066
22.78238
22.68509
22.51392
22.33315
22.18253
22.04027
21.83473
21.39377
20.52899
19.17148
17.40891
15.43522
13.45692
11.59395
9.786922
7.950535
5.972893
3.855972
1.660908
-0.462944
-2.424679
-4.268898
-6.103554
-8.048477
-10.11634
-12.23488
-14.24806
-16.07856
-17.79477
-19.58358
-21.75637
-24.57037
-28.06821
-31.96783
-35.75366
-38.64606
-39.84253
-38.7845
-35.24871
-29.50924
-22.28234
-14.51397
-7.067032
-0.5928307
4.648113
8.733067
11.8457
14.2655
16.1273
17.48694
18.33184
18.6567
18.52733
18.14328
17.75393
17.51399
17.51446
17.72722
18.09824
18.59311
19.23712
20.07337
21.13385
22.32479
23.38749
24.05748
24.14245
23.54205
22.28779
20.47772
18.25824
15.80922
13.32098
10.90822
8.687538
6.694878
4.802868
2.875759
0.7310181
-1.752754
-4.612377
-7.732044
-10.94199
-13.98335
-16.62647
-18.77901
-20.37189
-21.53931
-22.55291
-23.84057
-25.82994
-28.83478
-32.78505
-37.2499
-41.39313
-44.12459
-44.50473
-42.02772
-36.80289
-29.53766
-21.31429
-13.22651
-6.135231
-0.471138
3.787094
6.927429
9.255814
11.06768
12.4966
13.62112
14.5319
15.33861
16.12843
16.93562
17.74167
18.46577
19.07589
19.57893
20.09453
20.74774
21.64563
22.79457
24.07155
25.25684
26.15649
26.59969
26.47523
25.7923
24.62629
23.12971
21.45842
19.72607
17.96176
16.12924
14.16755
12.0352
9.75573
7.45266
5.281311
3.333549
1.53524
-0.3213425
-2.49781
-5.180374
-8.310135
-11.66313
-14.9071
-17.69458
-19.90765
-21.64955
-23.18929
-24.89359
-27.12074
-30.1608
-34.12101
-38.84009
-43.74238
-47.91139
-50.26669
-49.90736
-46.45905
-40.22332
-32.1173
-23.35067
-14.96886
-7.65699
-1.588524
3.395584
7.575912
11.17284
14.30868
17.02086
19.28407
21.08546
22.39165
23.18064
23.45901
23.31477
22.89274
22.44859
22.27469
22.52905
23.2337
24.27139
25.39003
26.34651
26.95435
27.12113
26.79017
25.93839
24.5474
22.69284
20.54059
18.32915
16.3065
14.58
13.09873
11.67407
10.10025
8.335754
6.535484
4.96032
3.751854
2.900269
2.151924
1.14151
-0.4418182
-2.720139
-5.56308
-8.682945
-11.70515
-14.39023
-16.6632
-18.66328
-20.69081
-23.06922
-26.05295
-29.75095
-34.03816
-38.4412
-42.28722
-44.6943
-44.87199
-42.35862
-37.21095
-30.0724
-21.97935
-14.05305
-7.155487
-1.712387
2.325859
5.259064
7.4655
9.251968
10.78813
12.16281
13.45294
14.72743
16.02261
17.36192
18.72397
20.06556
21.34992
22.51778
23.47395
24.11404
24.38954
24.25996
23.81908
23.17621
22.42245
21.61553
20.69373
19.57825
18.24833
16.72801
15.09115
13.42561
11.72569
9.965118
8.103943
6.090691
3.973694
1.834846
-0.2737045
-2.39505
-4.634033
-7.114059
-9.874847
-12.80678
-15.7743
-18.61488
-21.2664
-23.79926
-26.36708
-29.14146
-32.26637
-35.76545
-39.48971
-43.07312
-45.90939
-47.26736
-46.44527
-43.02977
-37.1096
-29.31859
-20.6423
-12.14429
-4.65966
1.404182
6.057175
9.575142
12.37206
14.74931
16.83997
18.63068
20.02869
20.95539
21.36508
21.35558
21.05303
20.71535
20.59384
20.89947
21.72679
22.99671
24.50455
25.93416
26.98619
27.46479
27.29041
26.56279
25.43001
24.05571
22.51501
20.85063
19.0498
17.08113
14.92812
12.60986
10.19925
7.781616
5.488052
3.371704
1.471313
-0.3130264
-2.187386
-4.376778
-7.069443
-10.32812
-14.041
-17.91264
-21.60254
-24.77705
-27.31863
-29.39193
-31.3439
-33.68918
-36.83905
-40.8605
-45.29358
-49.23094
-51.50476
-51.09891
-47.58708
-41.23036
-32.95042
-24.03456
-15.60757
-8.381287
-2.565887
2.083862
5.96196
9.395889
12.51385
15.23404
17.41364
18.98758
20.03789
20.68365
21.13954
21.54387
21.95277
22.32413
22.59195
22.74159
22.91505
23.31761
24.06036
25.1779
26.43399
27.47881
27.96046
27.67416
26.67253
25.22447
23.66765
22.23047
20.99069
19.84032
18.54335
16.94223
14.951
12.6568
10.23331
7.914948
5.881577
4.183487
2.758972
1.378769
-0.2065277
-2.187454
-4.640228
-7.488663
-10.49445
-13.35246
-15.79022
-17.71178
-19.25294
-20.75565
-22.69012
-25.51833
-29.48103
-34.42085
-39.71449
-44.37149
-47.28392
-47.5148
-44.65013
-38.8476
-30.90421
-21.90219
-12.92094
-4.807785
1.936768
7.180176
11.01611
13.63033
15.26546
16.11639
16.41968
16.41519
16.32973
16.37263
16.65541
17.23889
18.10025
19.1571
20.33728
21.55225
22.81793
24.11147
25.44423
26.70746
27.72864
28.25081
28.06549
27.06232
25.31723
23.06053
20.58116
18.21384
16.146
14.40569
12.84293
11.32549
9.708435
7.946182
6.07341
4.137665
2.152176
0.09263611
-2.140076
-4.62883
-7.402908
-10.36763
-13.40805
-16.32599
-18.99437
-21.3983
-23.64319
-26.02786
-28.88849
-32.53909
-36.99162
-41.94083
-46.58002
-49.8632
-50.77293
-48.6571
-43.48306
-35.89285
-27.04135
-18.18481
-10.39023
-4.11705
0.5842438
4.053757
6.724258
8.97406
11.06592
13.10681
15.13641
17.16714
19.22667
21.29755
23.32574
25.23383
26.89807
28.25716
29.28412
30.01704
30.5726
31.06737
31.52119
31.80524
31.70389
30.90906
29.26472
26.88087
24.10588
21.38591
19.13132
17.50949
16.41649
15.59172
14.68987
13.50963
11.99895
10.30637
8.554405
6.85717
5.271835
3.712166
2.053558
0.08721161
-2.379745
-5.489136
-9.223595
-13.44913
-17.90769
-22.26029
-26.24695
-29.72359
-32.79084
-35.66808
-38.68942
-42.12594
-46.04098
-50.13686
-53.72874
-55.87032
-55.57609
-52.28692
-46.01808
-37.5095
-27.91502
-18.45568
-10.06991
-3.178848
2.218025
6.426331
9.736198
12.36375
14.42091
16.00491
17.29456
18.46449
19.64931
20.88847
22.13899
23.27491
24.19176
24.8687
25.33794
25.77914
26.29809
26.93015
27.60608
28.17007
28.44475
28.25918
27.54548
26.28049
24.59645
22.60029
20.45842
18.27467
16.07402
13.92448
11.81351
9.816933
7.948524
6.284721
4.848579
3.658203
2.734619
1.965889
1.20842
0.2102051
-1.288536
-3.506317
-6.470276
-9.992958
-13.76253
-17.36941
-20.55615
-23.22602
-25.4857
-27.58807
-29.86037
-32.59212
-35.90987
-39.75048
-43.69635
-47.08284
-49.01099
-48.64102
-45.46587
-39.53141
-31.5363
-22.5789
-13.82146
-6.120552
0.1308441
4.994957
8.820168
11.91834
14.48704
16.47852
17.77125
18.30877
18.16539
17.60346
16.93388
16.49236
16.49574
16.95665
17.76324
18.75452
19.79227
20.81085
21.8366
22.80456
23.59486
24.04625
23.96935
23.28656
22.03957
20.37097
18.3913
16.21631
13.87789
11.38828
8.847549
6.388336
4.102905
2.03257
0.0989151
-1.860756
-3.93177
-6.160828
-8.515594
-10.92527
-13.34765
-15.78981
-18.27818
-20.87007
-23.56317
-26.3979
-29.44281
-32.86675
-36.81371
-41.2664
-45.81594
-49.60933
-51.59498
-50.75719
-46.57734
-39.28426
-29.91427
-19.89697
-10.67425
-3.182915
2.294556
6.003143
8.461205
10.20255
11.61203
12.84563
13.99798
15.04697
16.03794
16.97133
17.88943
18.75106
19.52348
20.1483
20.57373
20.90308
21.24802
21.78513
22.60526
23.6467
24.65863
25.33534
25.41522
24.7877
23.6451
22.24653
20.84157
19.577
18.41167
17.17021
15.7044
13.93588
11.87593
9.71917
7.702957
5.982185
4.627464
3.489059
2.237061
0.5721512
-1.740097
-4.784035
-8.427139
-12.40186
-16.4542
-20.30888
-23.83982
-27.01701
-29.91441
-32.73906
-35.82414
-39.45705
-43.74677
-48.43684
-52.69883
-55.44837
-55.59482
-52.43992
-46.08046
-37.32622
-27.41714
-17.70583
-9.176224
-2.213432
3.232262
7.459587
10.81798
13.51521
15.66354
17.40085
18.8018
19.96766
20.98398
21.87054
22.59667
23.21391
23.72031
24.23328
24.92696
25.89095
27.15598
28.64353
30.10654
31.22574
31.73913
31.39336
30.14813
28.15418
25.68282
23.0948
20.6839
18.66491
17.10458
15.99692
15.21841
14.6122
14.0203
13.27869
12.28367
10.99924
9.463165
7.702812
5.820938
3.840134
1.82074
-0.2531357
-2.401627
-4.702087
-7.242363
-10.13374
-13.42666
-17.03216
-20.7365
-24.23862
-27.34302
-30.04393
-32.58137
-35.39763
-38.85455
-43.08015
-47.84731
-52.4387
-55.89203
-57.21033
-55.63997
-50.96119
-43.59597
-34.49644
-24.82127
-15.69897
-7.832664
-1.486153
3.460571
7.309868
10.36134
12.80911
14.7424
16.22353
17.27951
17.98942
18.45792
18.79414
19.15363
19.61962
20.23223
21.00912
21.91868
22.90918
24.01379
25.22372
26.49002
27.7794
28.91833
29.74433
30.11211
29.91016
29.08577
27.70454
25.91391
23.85044
21.70029
19.59412
17.58812
15.67213
13.73146
11.60498
9.192986
6.531441
3.767151
1.156303
-1.124817
-2.990105
-4.549232
-6.037231
-7.697418
-9.669434
-11.89402
-14.16959
-16.22694
-17.97726
-19.48762
-20.99471
-22.81062
-25.24324
-28.45631
-32.50604
-37.23998
-42.22607
-46.81779
-50.10691
-51.18192
-49.32314
-44.39012
-36.83662
-27.6563
-18.07926
-9.18145
-1.716774
4.10923
8.416077
11.56078
13.93107
15.79582
17.33048
18.56547
19.5
20.11684
20.53327
20.89056
21.3319
21.88734
22.47038
22.95083
23.25708
23.47703
23.76012
24.22559
24.74767
25.02066
24.70039
23.55968
21.67191
19.3626
17.0816
15.12308
13.5474
12.1048
10.50253
8.602829
6.401886
4.067261
1.747559
-0.4933777
-2.751068
-5.140999
-7.793015
-10.68605
-13.66207
-16.55762
-19.2434
-21.72655
-24.1314
-26.68913
-29.63512
-33.20793
-37.55278
-42.59296
-47.91176
-52.69736
-55.86144
-56.33271
-53.44236
-47.15954
-38.18031
-27.72598
-17.14403
-7.535713
0.5031509
6.840088
11.6781
15.30119
18.00499
20.00227
21.44119
22.40677
22.98976
23.3418
23.61954
24.00142
24.58955
25.39804
26.33882
27.24913
28.01019
28.54468
28.84016
28.87848
28.60178
27.95035
26.89371
25.46988
23.75125
21.93082
20.1321
18.41068
16.73441
15.00021
13.10229
10.99669
8.718826
6.279144
3.769241
1.152344
-1.66864
-4.815994
-8.393829
-12.41502
-16.73706
-21.05127
-25.0641
-28.52184
-31.40802
-33.93633
-36.4563
-39.38718
-43.00928
-47.33586
-51.98499
-56.18021
-58.90976
-59.16742
-56.29504
-50.1702
-41.41934
-31.18828
-20.84825
-11.54877
-3.952011
1.861374
6.273636
9.780746
12.84
15.6559
18.26067
20.53305
22.3808
23.79457
24.86952
25.74359
26.54373
27.36897
28.27068
29.2601
30.36284
31.59155
32.93932
34.37384
35.77145
36.93716
37.60858
37.57512
36.7285
35.07507
32.80313
30.16512
27.45372
24.92671
22.67426
20.64713
18.6729
16.5161
13.9812
11.01999
7.722351
4.302887
1.03125
-1.934952
-4.544205
-6.925369
-9.245209
-11.72404
-14.46819
-17.45467
-20.55887
-23.59691
-26.43057
-29.03766
-31.59619
-34.36739
-37.68068
-41.78369
-46.76892
-52.48323
-58.42186
-63.68814
-67.0858
-67.49448
-64.13966
-57.00145
-46.88367
-35.18649
-23.50569
-13.12724
-4.695496
1.830399
6.875443
11.02086
14.66399
17.9691
20.88916
23.24396
24.95139
26.03787
26.67024
27.09058
27.48962
27.95454
28.48453
29.08997
29.78087
30.65794
31.79463
33.13695
34.46672
35.45987
35.75171
35.13715
33.70782
31.73486
29.65695
27.83472
26.4458
25.41281
24.51297
23.41046
21.80481
19.5769
16.79083
13.69931
10.55746
7.623169
5.009247
2.70932
0.6009827
-1.540222
-3.986267
-6.896545
-10.26709
-13.93561
-17.56805
-20.84677
-23.59711
-25.88724
-28.05008
-30.53827
-33.73187
-37.82773
-42.70673
-47.88391
-52.54913
-55.69363
-56.25214
-53.51941
-47.35742
-38.32632
-27.60474
-16.68036
-6.828186
1.157654
7.045715
11.19308
14.16309
16.52423
18.66968
20.72345
22.5976
24.20004
25.43533
26.28531
26.88394
27.43704
28.15634
29.18945
30.55963
32.1908
34.00156
35.84119
37.49527
38.69601
39.18231
38.72696
37.34839
35.21436
32.75687
30.46713
28.72031
27.61456
26.98331
26.45966
25.6496
24.37161
22.61264
20.5719
18.49167
16.57504
14.82645
13.15958
11.40161
9.376862
7.093323
4.637604
2.168915
-0.1550293
-2.2659
-4.281403
-6.409912
-8.913971
-12.02353
-15.79437
-20.11719
-24.74652
-29.33987
-33.60042
-37.34567
-40.58044
-43.49896
-46.50626
-50.03714
-54.40482
-59.53528
-64.77475
-68.9967
-70.83902
-69.18094
-63.60661
-54.65691
-43.588
-31.97177
-21.20995
-12.04753
-4.597656
1.513443
6.772095
11.54829
15.98267
20.05666
23.70244
26.76924
29.22574
30.97386
32.01422
32.43622
32.41623
32.24619
32.22005
32.57768
33.38098
34.65694
36.22989
37.88226
39.34085
40.28395
40.49481
39.85559
38.44962
36.49092
34.32892
32.23787
30.44981
29.12054
28.1601
27.44547
26.70595
25.67171
24.14494
22.14095
19.77879
17.27432
14.84018
12.4397
10.0415
7.5289
4.852234
2.133453
-0.4245148
-2.668808
-4.519073
-6.056808
-7.589539
-9.345856
-11.5769
-14.41782
-17.8084
-21.56114
-25.42065
-29.1058
-32.39587
-35.27502
-37.74608
-40.04109
-42.48553
-45.46361
-49.33743
-54.2047
-59.70726
-64.90836
-68.5555
-69.27286
-66.19411
-59.29134
-49.40295
-38.02802
-26.75114
-16.71613
-8.429626
-1.817078
3.550064
8.05957
12.01535
15.51802
18.5195
20.9893
22.94418
24.40993
25.46515
26.23758
26.79987
27.31567
27.90996
28.59302
29.3681
30.22218
31.10915
31.99864
32.82283
33.43796
33.66306
33.32259
32.29491
30.63086
28.57858
26.46109
24.54204
22.94179
21.59044
20.37321
19.2357
18.21922
17.43323
16.91325
16.57841
16.18642
15.42484
14.03581
11.9274
9.176743
5.959702
2.525269
-0.9412994
-4.278214
-7.399124
-10.31609
-13.1637
-16.01974
-18.88217
-21.59877
-23.93513
-25.7231
-27.00239
-28.0442
-29.25738
-31.10359
-33.87758
-37.63935
-42.16108
-46.94668
-51.21314
-53.98368
-54.25359
-51.30431
-45.02337
-36.04141
-25.57622
-15.02045
-5.595909
2.027695
7.7173
11.65945
14.23759
15.81732
16.73483
17.27802
17.68484
18.07395
18.45744
18.84456
19.22063
19.68575
20.35244
21.29422
22.5059
23.84624
25.19328
26.43247
27.53941
28.47255
29.17587
29.5256
29.31293
28.4051
26.8053
24.68991
22.3496
20.14735
18.27804
16.81149
15.5992
14.29189
12.59855
10.3421
7.559761
4.46917
1.355392
-1.589638
-4.302628
-6.84549
-9.3843
-12.03786
-14.84656
-17.76404
-20.66481
-23.42516
-25.90588
-28.02207
-29.73135
-31.17777
-32.60146
-34.43358
-37.15038
-41.0876
-46.25497
-52.10734
-57.56918
-61.23217
-61.81283
-58.53812
-51.48542
-41.50365
-29.96242
-18.32212
-7.713062
1.176228
8.17807
13.404
17.11198
19.60288
21.13929
22.03379
22.57346
22.97905
23.34821
23.6862
23.94091
24.05833
24.07732
24.11932
24.35765
24.88846
25.71234
26.68199
27.61328
28.38223
28.84027
28.9102
28.55487
27.75881
26.53802
24.98715
23.2621
21.51871
19.91911
18.47203
17.12081
15.71583
14.07029
12.06289
9.626432
6.848643
3.883157
1.019785
-1.489751
-3.487833
-5.009519
-6.402537
-8.113856
-10.61053
-14.0766
-18.34682
-22.87167
-27.01861
-30.32634
-32.68762
-34.45794
-36.15941
-38.38361
-41.50997
-45.57969
-50.17652
-54.51834
-57.58923
-58.32664
-55.98303
-50.29601
-41.74209
-31.35955
-20.50923
-10.42235
-1.919331
4.670156
9.49509
12.85874
15.19314
16.83155
18.04678
19.0529
19.999
20.93485
21.74808
22.33063
22.55627
22.44127
22.13262
21.83643
21.75854
22.02986
22.72795
23.82425
25.27382
26.90495
28.42062
29.45269
29.65319
28.8308
27.00223
24.4905
21.66199
18.88124
16.2528
13.74957
11.2258
8.625996
6.010584
3.499918
1.326067
-0.4116096
-1.704844
-2.734491
-3.761915
-5.09153
-6.966812
-9.533421
-12.75771
-16.4402
-20.33761
-24.17641
-27.80465
-31.24897
-34.63164
-38.15895
-42.02378
-46.23055
-50.51583
-54.34928
-56.9395
-57.37199
-54.95818
-49.45697
-41.24396
-31.29457
-20.90252
-11.26391
-3.290874
2.690365
6.830292
9.480778
11.10348
12.04461
12.53213
12.72342
12.77245
12.80421
12.96014
13.33668
13.95992
14.90462
16.17868
17.73652
19.4288
21.12195
22.59363
23.72486
24.50194
24.94257
25.08424
24.90277
24.27499
23.05549
21.23622
18.9012
16.26616
13.56786
10.9119
8.337837
5.741844
2.979296
-0.07963753
-3.511526
-7.353565
-11.55193
-15.90892
-20.19846
-24.08167
-27.36376
-30.0438
-32.36554
-34.69503
-37.40292
-40.70902
-44.5623
-48.75489
-52.73491
-55.72918
-56.8185
-55.19275
-50.40802
-42.67753
-32.88919
-22.37258
-12.53749
-4.320648
1.962722
6.588418
10.09307
12.9782
15.44854
17.48695
19.01859
19.96862
20.47837
20.7461
21.03683
21.50241
22.17732
22.99159
23.82745
24.6516
25.39447
26.0519
26.56435
26.85449
26.83183
26.42093
25.63056
24.49783
23.14796
21.65279
20.06077
18.36323
16.52429
14.53643
12.41619
10.24667
8.086212
5.960762
3.779739
1.425606
-1.246372
-4.379509
-7.97694
-11.96391
-16.13221
-20.27053
-24.1167
-27.53999
-30.53381
-33.24404
-36.02143
-39.30923
-43.53163
-48.87104
-55.07626
-61.26674
-66.13385
-68.28161
-66.70261
-61.20564
-52.49233
-41.95405
-31.10297
-21.13642
-12.58471
-5.397049
0.8787079
6.710884
12.38561
17.93024
23.10632
27.60754
31.13086
33.47475
34.65296
34.87219
34.51988
34.01718
33.73293
33.91728
34.60385
35.73447
37.15872
38.65848
39.99413
40.97456
41.41795
41.26837
40.54387
39.30826
37.68898
35.8327
33.89729
31.97949
30.15956
28.45546
26.85121
25.27495
23.60916
21.74826
19.56892
17.08337
14.35513
11.50348
8.672165
5.893616
3.104263
0.1195068
-3.211426
-7.001694
-11.21205
-15.62366
-19.95036
-23.89679
-27.2867
-30.08087
-32.43417
-34.63956
-37.15709
-40.47194
-44.93004
-50.4772
-56.54565
-62.04807
-65.54416
-65.71947
-61.82802
-54.05598
-43.4478
-31.62115
-20.19392
-10.2925
-2.349136
3.851578
8.878098
13.32086
17.58286
21.79295
25.81735
29.37695
32.18863
34.10519
35.14969
35.49899
35.43987
35.26633
35.12547
35.11467
35.22447
35.46288
35.85378
36.42235
37.03912
37.5341
37.69359
37.33441
36.48314
35.28857
34.00412
32.81645
31.8102
30.90044
29.96503
28.88213
27.6169
26.23788
24.79057
23.31831
21.74336
19.98767
17.98112
15.71643
13.24072
10.61526
7.977859
5.371399
2.856918
0.4139557
-2.035629
-4.571716
-7.319809
-10.37238
-13.79465
-17.4287
-21.13515
-24.67932
-27.91208
-30.80406
-33.47221
-36.19843
-39.36696
-43.3826
-48.34464
-53.93997
-59.24625
-62.90628
-63.5105
-60.15681
-52.81851
-42.41583
-30.55449
-18.9288
-8.812439
-0.792923
5.23349
9.723022
13.19133
16.03719
18.43311
20.45523
22.10036
23.4055
24.44348
25.34608
26.19131
27.03113
27.91368
28.87302
29.9048
31.04382
32.28166
33.59254
34.92476
36.12694
36.98988
37.34286
37.02834
36.03281
34.53142
32.84978
31.30646
30.13519
29.37254
28.7877
28.13573
27.13254
25.69318
23.9187
22.01251
20.18553
18.51974
17.02127
15.57567
14.10562
12.50757
10.70605
8.709915
6.505981
4.168213
1.792236
-0.4649277
-2.509949
-4.33873
-6.101196
-8.120972
-10.66008
-13.90672
-17.82355
-22.16037
-26.47182
-30.40779
-33.72039
-36.40818
-38.75993
-41.11336
-43.9045
-47.4724
-51.96264
-57.15278
-62.43966
-66.78342
-68.94205
-67.89017
-63.08591
-54.86388
-44.28535
-32.84249
-21.99125
-12.79661
-5.64431
-0.3123932
3.651997
6.86467
9.781792
12.68592
15.70899
18.80846
21.77036
24.39685
26.51799
27.94479
28.72663
28.96914
28.9209
28.88836
29.09153
29.57123
30.29703
31.13328
31.86385
32.36764
32.55955
32.43245
31.99589
31.24822
30.16457
28.83926
27.45068
26.16311
25.09894
24.20809
23.28459
22.12307
20.59192
18.72621
16.70852
14.74424
12.90686
11.19626
9.471495
7.619934
5.658578
3.661214
1.700607
-0.1770172
-2.025519
-3.876637
-5.649399
-7.261362
-8.642292
-9.857887
-11.13207
-12.81624
-15.17767
-18.32521
-22.05441
-25.98112
-29.74038
-33.0617
-35.89304
-38.31377
-40.56828
-42.91866
-45.65469
-48.83456
-52.25466
-55.30198
-57.03731
-56.47364
-52.93409
-46.44286
-37.65376
-27.79526
-18.13249
-9.637581
-2.775345
2.493622
6.435341
9.400749
11.62341
13.26572
14.41287
15.16157
15.61137
15.82781
15.91087
15.91403
15.96189
16.21043
16.79377
17.78213
19.18183
20.89319
22.75974
24.6293
26.29698
27.58896
28.36469
28.51547
27.99391
26.87893
25.3286
23.4913
21.54568
19.565
17.55254
15.46241
13.22929
10.85034
8.438034
6.114944
3.993721
2.190315
0.6817703
-0.6113739
-1.80719
-3.056091
-4.452271
-6.007095
-7.783463
-9.825607
-12.12199
-14.66626
-17.37637
-20.09766
-22.70724
-25.14458
-27.43188
-29.75578
-32.37025
-35.4794
-39.22116
-43.38693
-47.4272
-50.46953
-51.54024
-49.84425
-45.1114
-37.7673
-28.86459
-19.839
-11.91325
-5.770523
-1.434753
1.575653
3.929764
6.173859
8.516953
10.96098
13.34016
15.51924
17.47421
19.18864
20.6508
21.83682
22.739
23.37953
23.87651
24.35422
24.91014
25.55861
26.19136
26.64064
26.72743
26.37798
25.61856
24.64638
23.69318
22.9402
22.42323
22.0818
21.72038
21.19696
20.4257
19.39658
18.15569
16.70093
14.99541
12.96857
10.59856
7.954224
5.214005
2.575134
0.2466736
-1.655441
-3.156799
-4.412781
-5.690002
-7.312897
-9.546738
-12.4944
-16.07472
-20.01984
-24.01547
-27.81126
-31.26016
-34.41315
-37.42235
-40.60486
-44.25908
-48.59932
-53.47174
-58.25389
-61.90602
-63.17546
-61.03477
-55.05539
-45.7193
-34.27692
-22.34676
-11.40509
-2.387741
4.404114
9.170151
12.33231
14.35933
15.60382
16.31592
16.72141
17.0089
17.32269
17.71143
18.18575
18.64845
19.076
19.44382
19.80327
20.22302
20.77515
21.51396
22.46037
23.59018
24.69798
25.55609
25.89725
25.54477
24.5191
22.92847
21.02112
19.02628
17.07816
15.21835
13.43265
11.73499
10.13712
8.704834
7.389038
6.121094
4.792725
3.336853
1.720978
0.0352478
-1.609283
-3.203094
-4.819458
-6.614899
-8.758453
-11.35123
-14.34683
-17.65417
-21.09293
-24.48575
-27.65756
-30.4639
-32.81915
-34.77975
-36.54013
-38.50082
-41.12973
-44.75314
-49.32019
-54.19446
-58.24689
-60.11322
-58.74487
-53.67096
-45.32883
-34.89337
-23.89276
-13.74283
-5.403687
0.759491
4.895569
7.39679
8.82193
9.632416
10.22623
10.92545
11.9057
13.20078
14.68921
16.18478
17.50949
18.57861
19.44498
20.28452
21.29739
22.55582
23.97244
25.31503
26.26419
26.58121
26.16278
25.07562
23.52554
21.80771
20.17838
18.77051
17.61685
16.56021
15.41147
13.93713
12.02194
9.709656
7.17543
4.65152
2.316849
0.2017517
-1.831314
-3.948532
-6.32251
-8.970352
-11.80698
-14.64157
-17.3399
-19.80771
-22.07599
-24.26273
-26.52971
-29.0751
-32.11682
-35.71761
-39.69144
-43.54028
-46.37505
-47.16078
-45.02969
-39.65813
-31.43962
-21.49701
-11.24557
-2.033279
5.296417
10.55569
14.05281
16.29764
17.76639
18.77011
19.37422
19.59561
19.46698
19.10176
18.67845
18.38875
18.29784
18.43983
18.79207
19.28775
19.90543
20.61087
21.35362
22.04202
22.49162
22.46663
21.79962
20.4698
18.62711
16.53601
14.45505
12.52289
10.7952
9.231735
7.762192
6.346832
4.879547
3.130981
0.8665009
-2.138321
-5.919754
-10.22839
-14.6387
-18.76266
-22.4016
-25.66006
-28.84076
-32.20747
-35.9792
-40.22945
-44.95232
-49.99199
-55.04919
-59.46069
-62.30406
-62.54172
-59.35988
-52.62358
-43.00323
-31.81158
-20.62585
-10.78334
-2.983414
2.693649
6.676132
9.618668
12.03931
14.30934
16.6322
19.03195
21.43886
23.71577
25.66776
27.09253
27.90346
28.10214
27.86005
27.48505
27.30443
27.55467
28.31766
29.50407
30.8174
31.9502
32.62791
32.69881
32.22775
31.35226
30.2404
28.96393
27.47595
25.57998
23.09758
19.89618
16.06474
11.90169
7.720047
3.831696
0.3246078
-2.921555
-6.152176
-9.535721
-13.11024
-16.75608
-20.23115
-23.37614
-26.13781
-28.56948
-30.89615
-33.39856
-36.35867
-40.02511
-44.57273
-49.87761
-55.43716
-60.26999
-63.06503
-62.61974
-58.27094
-50.2412
-39.61146
-28.006
-17.02594
-7.765434
-0.5129433
5.027939
9.409378
13.11769
16.3525
19.13579
21.46655
23.43634
25.20205
26.9493
28.72596
30.44614
31.95793
33.16167
34.08638
34.91063
35.86808
37.11269
38.62712
40.1782
41.47573
42.24368
42.2896
41.60112
40.2659
38.40939
36.2089
33.76778
31.13824
28.43235
25.74633
23.11642
20.56075
18.00275
15.37833
12.7198
10.12338
7.709428
5.583249
3.726436
1.947868
-0.01003337
-2.467763
-5.63962
-9.557134
-14.01716
-18.65388
-23.0419
-26.90084
-30.18417
-33.0949
-36.0549
-39.52876
-43.88796
-49.23188
-55.29193
-61.39574
-66.54037
-69.51675
-69.16225
-64.80885
-56.51411
-45.16991
-32.31762
-19.6158
-8.401678
0.609621
7.383005
12.32166
15.88681
18.45656
20.23191
21.36265
21.98521
22.31741
22.59616
23.0491
23.81876
24.94876
26.40836
28.05519
29.80381
31.54453
33.22435
34.82665
36.3037
37.52928
38.32943
38.48198
37.79235
36.2318
33.94266
31.21971
28.38084
25.76418
23.56769
21.90563
20.72722
19.84166
19.02282
18.02885
16.74701
15.18797
13.46545
11.72589
9.991379
8.111824
5.753746
2.663906
-1.28513
-5.914589
-10.78916
-15.45386
-19.58047
-23.13542
-26.3289
-29.57274
-33.22963
-37.59361
-42.6864
-48.20148
-53.44535
-57.42846
-59.00236
-57.23496
-51.77377
-42.98289
-31.99285
-20.30919
-9.331306
-0.01360321
7.400024
13.16359
17.7468
21.49517
24.53098
26.76109
28.06928
28.50758
28.28755
27.80882
27.49232
27.61723
28.22815
29.19583
30.28259
31.22853
31.96429
32.45613
32.73048
32.72509
32.33295
31.37972
29.77751
27.56785
25.01743
22.54155
20.5019
19.1464
18.41862
18.02655
17.54885
16.61864
14.99597
12.69912
9.961739
7.073868
4.265045
1.649883
-0.8654137
-3.505898
-6.524429
-10.09577
-14.19394
-18.563
-22.82779
-26.66226
-29.85565
-32.55263
-35.10308
-38.02922
-41.75423
-46.45895
-51.85365
-57.20072
-61.44144
-63.35149
-61.99062
-56.95216
-48.57508
-37.78653
-25.93086
-14.32277
-4.004288
4.411007
10.80879
15.36193
18.49717
20.68301
22.36209
23.80791
25.07495
26.057
26.58345
26.62469
26.31686
25.95941
25.85851
26.19116
26.91265
27.82154
28.69783
29.42539
30.00203
30.47978
30.91041
31.24821
31.31995
30.96148
30.11092
28.84205
27.35846
25.84666
24.37717
22.83925
21.03167
18.72545
15.84066
12.52407
9.100578
5.89497
3.163727
0.9565506
-0.870739
-2.56768
-4.426857
-6.717751
-9.584547
-13.07224
-17.1006
-21.42317
-25.70698
-29.6282
-33.00792
-35.86325
-38.44507
-41.18188
-44.50643
-48.6821
-53.67703
-59.00478
-63.7768
-66.76831
-66.75526
-62.88179
-55.07011
-44.12281
-31.52752
-19.02087
-8.087725
0.4223747
6.4349
10.33122
12.80054
14.43048
15.67488
16.79699
17.9994
19.31951
20.74245
22.21569
23.61364
24.85981
25.95166
26.96723
28.03531
29.26524
30.67336
32.14922
33.51211
34.4965
34.88052
34.56826
33.56152
31.91978
29.79313
27.33911
24.72599
22.14703
19.77922
17.80221
16.31927
15.32907
14.65964
14.08551
13.3701
12.32815
10.88083
9.026621
6.873643
4.552336
2.211493
-0.1482635
-2.605756
-5.327082
-8.449577
-11.98161
-15.74578
-19.42242
-22.69463
-25.36042
-27.55722
-29.6337
-32.03796
-35.16232
-39.23501
-44.24504
-49.9065
-55.61252
-60.4146
-63.19424
-62.90799
-58.85869
-51.12719
-40.60227
-28.77116
-17.26884
-7.372857
0.3236804
5.886331
9.774211
12.53283
14.51276
15.87116
16.67191
17.04138
17.17525
17.33708
17.66684
18.21432
18.90553
19.66919
20.52187
21.53325
22.72098
24.07641
25.44062
26.55898
27.20478
27.20585
26.56312
25.46852
24.17671
22.80185
21.38751
19.86812
18.10374
16.04014
13.70809
11.25369
8.898861
6.8333
5.03589
3.357659
1.56357
-0.6180189
-3.306532
-6.478855
-9.978897
-13.52074
-16.81341
-19.69208
-22.15236
-24.39024
-26.72582
-29.4931
-33.03518
-37.43709
-42.46835
-47.48848
-51.45851
-53.22793
-51.85645
-46.99072
-38.97747
-28.95003
-18.32342
-8.420854
-0.1020994
6.392784
11.25371
14.9021
17.65638
19.78466
21.36408
22.45852
23.13189
23.4506
23.51635
23.44468
23.37888
23.44608
23.74531
24.28033
25.01174
25.8073
26.46388
26.8596
26.83943
26.34066
25.36728
23.99588
22.35437
20.62745
18.98029
17.42166
15.94188
14.39813
12.66905
10.70722
8.513684
6.132701
3.578559
0.8469782
-2.176784
-5.536765
-9.268808
-13.24937
-17.2684
-21.055
-24.33202
-26.99266
-29.1469
-31.09946
-33.29332
-36.24004
-40.20457
-45.06054
-50.19677
-54.51714
-56.7439
-55.87925
-51.45367
-43.78323
-33.92726
-23.25176
-12.98218
-3.939064
3.57791
9.676924
14.54019
18.43381
21.50452
23.88286
25.75407
27.29871
28.59763
29.66336
30.42733
30.81534
30.85947
30.66172
30.39323
30.29817
30.53025
31.11826
31.95832
32.84617
33.45058
33.55779
33.07299
32.07216
30.81237
29.56139
28.53716
27.82162
27.36898
26.94184
26.33822
25.35143
23.89593
22.04708
19.88593
17.56258
15.17491
12.76834
10.34142
7.956977
5.652005
3.55703
1.776416
0.3036709
-0.9321938
-2.144602
-3.603188
-5.681982
-8.621023
-12.55284
-17.35327
-22.62542
-27.85251
-32.57604
-36.52493
-39.68646
-42.34445
-44.94455
-47.95644
-51.71758
-56.26536
-61.14757
-65.41906
-67.76938
-66.93651
-62.14318
-53.5143
-42.10925
-29.59518
-17.6446
-7.480042
0.4161339
6.149277
10.13178
12.84757
14.70412
16.04123
17.14669
18.30169
19.69076
21.31799
23.0305
24.58746
25.81977
26.69407
27.26987
27.69993
28.1366
28.70676
29.46078
30.34018
31.20348
31.86065
32.14669
31.94936
31.36265
30.57658
29.81946
29.29656
29.04443
28.87881
28.50232
27.59698
25.93312
23.58845
20.77747
17.77412
14.84846
12.09836
9.494591
6.911736
4.223495
1.369728
-1.579422
-4.522278
-7.322777
-9.846855
-12.08584
-14.11435
-16.12029
-18.27837
-20.68015
-23.24833
-25.8101
-28.17434
-30.25949
-32.18078
-34.25797
-36.8306
-40.21873
-44.57665
-49.76238
-55.32597
-60.40768
-63.83437
-64.41775
-61.27244
-54.1903
-43.79859
-31.45684
-18.85539
-7.515091
1.625755
8.259537
12.6239
15.25768
16.72217
17.55499
18.07876
18.54884
19.06442
19.65388
20.29747
20.92691
21.50765
21.97942
22.38498
22.77235
23.30229
24.14153
25.41466
27.13679
29.07482
30.8616
32.02233
32.26952
31.47092
29.8266
27.7188
25.48862
23.41889
21.55209
19.78071
17.91898
15.88806
13.66277
11.32507
9.068199
6.915504
4.890541
2.887924
0.8648987
-1.200874
-3.156288
-4.84922
-6.205711
-7.284683
-8.355804
-9.710876
-11.61691
-14.13002
-17.11064
-20.29453
-23.43631
-26.38304
-29.07942
-31.65041
-34.1944
-36.89526
-39.95226
-43.50269
-47.45563
-51.40271
-54.49248
-55.60023
-53.78096
-48.509
-40.04037
-29.40009
-18.05341
-7.408691
1.455292
8.10936
12.65395
15.45219
17.04216
17.89226
18.40305
18.84784
19.43005
20.20636
21.1524
22.19873
23.22215
24.13977
24.86725
25.34056
25.53421
25.46045
25.11932
24.57724
23.90854
23.16118
22.37292
21.52872
20.56334
19.50832
18.45224
17.54729
16.97154
16.76591
16.80083
16.80519
16.37126
15.20689
13.18831
10.46271
7.31041
4.10257
1.118042
-1.525436
-3.879227
-6.147781
-8.52507
-11.14481
-13.96066
-16.7993
-19.44125
-21.77455
-23.88341
-26.09244
-28.92891
-32.86638
-38.12184
-44.36615
-50.68283
-55.71027
-58.04027
-56.63564
-51.29147
-42.72235
-32.2558
-21.48523
-11.64458
-3.437454
2.956909
7.689133
10.9982
13.12241
14.33694
14.97968
15.4028
15.93806
16.73949
17.7632
18.88271
19.96112
20.95102
21.92302
23.00067
24.24606
25.64059
27.12743
28.57324
29.83244
30.71439
30.98607
30.49057
29.22409
27.35127
25.22144
23.18489
21.41525
19.86028
18.22339
16.13721
13.35046
9.870651
5.944992
1.990494
-1.650146
-4.766846
-7.361069
-9.597733
-11.70949
-13.93657
-16.43196
-19.2408
-22.27577
-25.39662
-28.49535
-31.48491
-34.43042
-37.4536
-40.77373
-44.62845
-49.10989
-53.94614
-58.41075
-61.38689
-61.65785
-58.38441
-51.41013
-41.47533
-29.98378
-18.49001
-8.227203
0.1802216
6.668732
11.47989
14.89851
17.16649
18.47275
19.04594
19.22762
19.30479
19.5062
19.85307
20.30075
20.73553
21.10292
21.46146
21.87704
22.45743
23.18788
24.03566
24.82088
25.34528
25.32927
24.52823
22.89673
20.59123
18.01352
15.61906
13.81035
12.68829
12.07591
11.58881
10.83383
9.569595
7.759125
5.55394
3.186569
0.8661041
-1.319717
-3.461487
-5.712494
-8.247681
-11.13271
-14.35294
-17.71982
-20.95586
-23.81212
-26.17058
-28.12057
-30.00349
-32.30002
-35.44926
-39.74022
-45.04439
-50.73759
-55.80087
-59.00308
-59.27802
-56.07349
-49.59225
-40.64139
-30.48308
-20.35976
-11.16849
-3.377411
3.022552
8.229111
12.46601
15.79624
18.22303
19.7567
20.47946
20.62701
20.46238
20.26212
20.21938
20.39629
20.76593
21.29229
21.95055
22.72749
23.62405
24.56937
25.45728
26.15678
26.51433
26.43936
25.92829
25.09841
24.08739
23.05858
22.06099
21.09455
20.05092
18.76518
17.13531
15.11128
12.7992
10.30289
7.85173
5.545128
3.403984
1.328003
-0.9344635
-3.594582
-6.738884
-10.25894
-13.92996
-17.39104
-20.47417
-23.13546
-25.54586
-27.98866
-30.75835
-34.06493
-37.92445
-42.11523
-46.03867
-48.85318
-49.53462
-47.25401
-41.67994
-33.22744
-22.98527
-12.35939
-2.703289
5.100979
10.75326
14.4313
16.66639
17.98131
18.81613
19.38524
19.79896
20.06648
20.25402
20.48482
20.85451
21.44511
22.21059
23.07975
24.00183
25.06977
26.4169
28.15651
30.18301
32.08337
33.32846
33.48341
32.45489
30.44622
27.88102
25.18778
22.65149
20.39358
18.37034
16.51945
14.7341
12.94864
11.11856
9.240595
7.373311
5.607698
4.012815
2.512783
0.9764948
-0.84904
-3.21757
-6.250864
-9.884521
-13.93915
-18.06712
-21.95715
-25.37062
-28.27132
-30.81975
-33.41322
-36.46367
-40.28418
-44.93049
-49.9702
-54.52414
-57.39146
-57.48075
-54.1434
-47.49874
-38.39119
-28.17289
-18.22408
-9.53653
-2.552374
2.826791
6.965815
10.32748
13.2366
15.86566
18.27682
20.46203
22.45816
24.28018
25.94752
27.48874
28.88281
30.14422
31.25467
32.24023
33.11458
33.97642
34.84113
35.68014
36.42252
36.88153
36.90966
36.41268
35.38789
33.88048
32.08054
30.12824
28.17426
26.34616
24.65507
23.07655
21.54146
19.93134
18.08263
15.9276
13.47022
10.78073
8.069473
5.433392
2.963457
0.621376
-1.73
-4.26371
-7.139706
-10.44709
-14.18663
-18.21407
-22.39276
-26.48144
-30.22741
-33.4781
-36.20181
-38.5923
-41.06763
-44.12745
-48.13389
-53.13963
-58.65562
-63.595
-66.5969
-66.37724
-62.23952
-54.35897
-43.78696
-32.01564
-20.5676
-10.53111
-2.32123
4.098423
9.067162
12.917
15.92573
18.29311
20.1968
21.84706
23.36983
24.82035
26.09557
27.08461
27.66532
27.86085
27.84595
27.84033
28.09304
28.74071
29.78241
30.99444
32.06845
32.71517
32.75712
32.31068
31.6014
30.86847
30.22161
29.64472
29.01358
28.20802
27.18572
25.96096
24.54289
22.91368
21.04082
18.90234
16.60009
14.357
12.37
10.72502
9.333466
7.994358
6.509007
4.789501
2.852303
0.8182373
-1.199173
-3.246574
-5.490402
-8.189898
-11.47441
-15.33068
-19.52046
-23.68678
-27.46742
-30.64477
-33.21737
-35.37698
-37.47859
-39.87727
-42.8863
-46.62414
-50.95301
-55.26643
-58.59092
-59.74384
-57.73937
-52.23737
-43.69366
-33.27469
-22.48438
-12.69792
-4.711988
1.259233
5.506121
8.502359
10.67903
12.33232
13.70614
14.94352
16.16931
17.4536
18.77413
20.09332
21.37603
22.5715
23.66532
24.6507
25.50875
26.28074
27.02436
27.76463
28.49882
29.17782
29.62173
29.67376
29.22095
28.29049
27.0235
25.62648
24.22952
22.90956
21.64402
20.29362
18.69928
16.71843
14.29132
11.48083
8.48698
5.562143
2.941669
0.736433
-1.170691
-2.994553
-5.033325
-7.459581
-10.27021
-13.27387
-16.1786
-18.74766
-20.91693
-22.84906
-24.80518
-27.11537
-30.02781
-33.74486
-38.30032
-43.5172
-48.9101
-53.61842
-56.52803
-56.55798
-53.08036
-46.20018
-36.826
-26.36712
-16.23514
-7.417181
-0.2617798
5.447111
10.16542
14.25132
17.85367
20.93879
23.38353
25.17283
26.38424
27.18967
27.74676
28.14607
28.43127
28.69266
29.0113
29.52629
30.35921
31.50943
32.89324
34.26628
35.34749
35.84119
35.58905
34.53233
32.72909
30.39322
27.73977
25.07621
22.60955
20.5148
18.81008
17.41466
16.15083
14.83377
13.35488
11.61042
9.606124
7.354121
4.907407
2.347914
-0.2586107
-2.804904
-5.227818
-7.539812
-9.868525
-12.34831
-15.10722
-18.12797
-21.26899
-24.29287
-27.001
-29.36632
-31.47486
-33.64726
-36.25124
-39.66784
-44.10625
-49.4218
-55.01076
-59.7873
-62.50973
-61.99002
-57.67528
-49.78389
-39.34277
-27.8212
-16.6054
-6.771287
1.215683
7.325788
11.86502
15.1899
17.67307
19.59382
21.14331
22.45144
23.55853
24.43265
25.0409
25.38724
25.47811
25.43169
25.35586
25.39432
25.70879
26.42699
27.62594
29.16219
30.77296
32.0836
32.7429
32.60262
31.70827
30.26585
28.49681
26.5667
24.49593
22.22621
19.77322
17.20749
14.67663
12.31959
10.25224
8.443985
6.833073
5.304972
3.749653
2.10355
0.3579369
-1.468006
-3.363991
-5.347446
-7.456932
-9.679508
-12.05615
-14.52127
-17.01305
-19.45101
-21.74596
-23.89389
-25.939
-27.9525
-30.05236
-32.43806
-35.29972
-38.84172
-43.11129
-47.8219
-52.2952
-55.40885
-55.97597
-53.13741
-46.75615
-37.55912
-26.93242
-16.40131
-7.221397
-0.0787735
5.011082
8.424042
10.64653
12.09197
13.06472
13.70386
14.11483
14.37028
14.5043
14.61312
14.76302
15.04215
15.51458
16.23096
17.2328
18.57101
20.26385
22.25756
24.38506
26.32299
27.72394
28.26962
27.79739
26.38939
24.39617
22.20995
20.21502
18.63448
17.41657
16.41131
15.39509
14.12595
12.45393
10.37444
7.980186
5.43441
2.964401
0.6898804
-1.309402
-3.146927
-5.0354
-7.212402
-9.761597
-12.64923
-15.6961
-18.70282
-21.56866
-24.29815
-27.01281
-29.87326
-33.02681
-36.53271
-40.33554
-44.12881
-47.32097
-49.10589
-48.5743
-45.09856
-38.61356
-29.74689
-19.66645
-9.722672
-1.027771
5.775078
10.60627
13.79252
15.77253
16.95091
17.59776
17.87868
17.93597
17.94461
18.04174
18.34509
18.88786
19.60779
20.40071
21.12966
21.75658
22.26479
22.73278
23.19469
23.63016
23.94598
23.9263
23.4161
22.34191
20.81492
19.08451
17.5125
16.3351
15.62307
15.17348
14.65871
13.72736
12.17731
9.989479
7.392647
4.67025
2.055374
-0.3121719
-2.447281
-4.466873
-6.532623
-8.834305
-11.49809
-14.54124
-17.88554
-21.36031
-24.77636
-28.00923
-31.11717
-34.29105
-37.87041
-42.16283
-47.22477
-52.73029
-57.87507
-61.50944
-62.45779
-59.93623
-53.83472
-44.84242
-34.23667
-23.46161
-13.72576
-5.702881
0.4956894
5.123085
8.583557
11.26129
13.44804
15.35367
17.12919
18.88844
20.65707
22.34409
23.77171
24.76429
25.19613
25.13762
24.83308
24.62477
24.81042
25.49559
26.49631
27.42095
27.85225
27.48892
26.33036
24.58738
22.65645
20.92747
19.63333
18.81411
18.25085
17.69041
16.80839
15.39635
13.38411
10.86818
8.073425
5.192535
2.364655
-0.4293518
-3.276184
-6.337044
-9.695755
-13.29097
-16.98603
-20.55776
-23.82629
-26.7066
-29.25659
-31.67782
-34.288
-37.42574
-41.29603
-45.89406
-50.85035
-55.40198
-58.47635
-59.022
-56.3595
-50.40504
-41.81565
-31.72564
-21.49518
-12.24713
-4.597984
1.387024
6.057713
9.936565
13.40795
16.6446
19.58598
22.01375
23.77853
24.90322
25.50961
25.85715
26.11656
26.3124
26.39513
26.31024
26.14425
26.03148
26.17194
26.56146
27.07605
27.4286
27.38085
26.8004
25.73634
24.41462
23.01888
21.73688
20.58542
19.52601
18.44565
17.22808
15.73831
13.89275
11.71928
9.369274
7.045631
4.918842
3.068527
1.41629
-0.2680397
-2.259178
-4.802921
-7.952484
-11.4913
-15.02983
-18.16388
-20.67808
-22.61249
-24.31972
-26.27749
-28.96854
-32.66575
-37.27697
-42.24281
-46.68347
-49.53751
-49.79544
-46.85623
-40.70969
-31.9303
-21.69967
-11.35821
-2.091982
5.386745
10.88667
14.67712
17.27224
19.15518
20.68161
21.90732
22.80735
23.28181
23.32226
23.05208
22.64129
22.30541
22.15167
22.21487
22.4226
22.76201
23.26564
23.96273
24.87202
25.82361
26.48841
26.47488
25.53649
23.65775
21.13571
18.52688
16.28797
14.75917
13.8778
13.35067
12.69905
11.60708
9.9819
7.962268
5.88242
3.999971
2.497635
1.259575
0.001298904
-1.684097
-4.069971
-7.211657
-10.93366
-14.8471
-18.61264
-21.91586
-24.68885
-27.01266
-29.10822
-31.28682
-33.84812
-37.12907
-41.30784
-46.3506
-51.71626
-56.39723
-59.06796
-58.48657
-54.00608
-45.86512
-35.22524
-23.69481
-12.87486
-3.822047
3.052569
7.92044
11.26749
13.61757
15.46296
17.19466
19.1107
21.30135
23.62648
25.74486
27.25092
27.91792
27.74409
27.0362
26.22436
25.68559
25.63171
26.02305
26.76536
27.66985
28.48079
29.00898
29.15428
28.85555
28.21766
27.40247
26.56184
25.81442
25.16088
24.46665
23.60413
22.48274
21.08094
19.47223
17.75955
16.03552
14.33191
12.59438
10.69735
8.560308
6.10772
3.39769
0.6774697
-1.794002
-3.908509
-5.751427
-7.637864
-9.966393
-12.90657
-16.42706
-20.21366
-23.74212
-26.6409
-28.84787
-30.56721
-32.24875
-34.4214
-37.45443
-41.53329
-46.46018
-51.61128
-56.00442
-58.51218
-58.12168
-54.31276
-47.31362
-37.97216
-27.61563
-17.55106
-8.759158
-1.721872
3.612441
7.628525
10.79906
13.50903
16.03237
18.4229
20.56226
22.30463
23.49714
24.12986
24.33612
24.30311
24.21755
24.26913
24.54448
25.08549
25.94534
27.1331
28.61584
30.21907
31.68922
32.69356
33.01904
32.5139
31.2509
29.48167
27.47761
25.50756
23.63966
21.8551
20.04436
18.14342
16.149
14.19744
12.47689
11.07292
9.96109
8.954834
7.855238
6.466602
4.810631
2.998556
1.213171
-0.4454327
-2.003954
-3.634682
-5.534452
-7.855049
-10.59748
-13.55545
-16.4281
-18.95459
-21.07525
-22.92286
-24.72079
-26.79947
-29.44326
-32.85429
-37.12226
-42.05943
-47.18727
-51.66722
-54.34771
-54.06336
-50.16865
-42.76769
-32.82339
-21.85098
-11.35389
-2.450275
4.407227
9.312622
12.67637
14.9022
16.33705
17.22308
17.70791
17.97691
18.14255
18.2745
18.44132
18.67319
19.04214
19.62811
20.44824
21.44902
22.59141
23.81811
25.09683
26.33872
27.33929
27.82013
27.54224
26.39375
24.48284
22.17384
19.88662
18.03991
16.77514
15.98294
15.39693
14.68134
13.57796
11.9535
9.841599
7.376816
4.742798
2.173561
-0.1969376
-2.237015
-3.865311
-5.187469
-6.397919
-7.822464
-9.699028
-12.16656
-15.07449
-18.10803
-20.86308
-23.07088
-24.75987
-26.15358
-27.72926
-29.91966
-33.09226
-37.29501
-42.24729
-47.21984
-51.15092
-52.8908
-51.53075
-46.80956
-39.23209
-29.97358
-20.40789
-11.76383
-4.713318
0.6165619
4.447533
7.168365
9.095566
10.49549
11.63374
12.755
14.01614
15.40904
16.82513
18.04916
18.9733
19.59264
20.07315
20.68052
21.56897
22.82231
24.33116
25.93735
27.4048
28.59566
29.36565
29.64121
29.37966
28.53317
27.1389
25.29404
23.17828
20.97786
18.91344
17.08366
15.50946
14.07528
12.65052
11.12988
9.48613
7.735306
5.891357
4.005775
2.101891
0.1590271
-1.80957
-3.848053
-6.026672
-8.455284
-11.24142
-14.39542
-17.78357
-21.17025
-24.29302
-26.93931
-29.09009
-30.89439
-32.68636
-34.84341
-37.66573
-41.28899
-45.54126
-49.85739
-53.26424
-54.68076
-53.22184
-48.56747
-41.11156
-31.92291
-22.37685
-13.68227
-6.568604
-1.075127
3.103897
6.470711
9.400146
12.05372
14.41134
16.38317
17.9454
19.07739
19.82396
20.17986
20.1824
19.92117
19.55093
19.26865
19.18479
19.43445
19.97686
20.77941
21.74837
22.72958
23.55763
23.99099
23.85221
23.0285
21.62434
19.84818
18.01176
16.39146
15.02151
13.78211
12.37654
10.62385
8.513588
6.235153
4.093376
2.336182
1.055779
0.07305908
-0.8562927
-2.089294
-3.76741
-5.928299
-8.473358
-11.2382
-14.07339
-16.83025
-19.43486
-21.75995
-23.85301
-25.76375
-27.73372
-30.05836
-32.91209
-36.26221
-39.63576
-42.23648
-43.07425
-41.41821
-36.97701
-30.123
-21.81934
-13.19739
-5.295044
1.262009
6.27298
9.915344
12.47823
14.2663
15.47263
16.13528
16.33995
16.1597
15.7347
15.28596
15.02095
15.08747
15.5383
16.35017
17.4195
18.73125
20.21466
21.81825
23.39749
24.70328
25.43639
25.36235
24.3716
22.54408
20.19709
17.64463
15.11611
12.71819
10.3877
8.036446
5.659492
3.378174
1.318245
-0.3794785
-1.839386
-3.353371
-5.281517
-7.877457
-11.15603
-14.82921
-18.45368
-21.66447
-24.26186
-26.27903
-27.92612
-29.55611
-31.57104
-34.30143
-37.91903
-42.27113
-46.81848
-50.59245
-52.47785
-51.48226
-47.20239
-40.06382
-31.1269
-21.81734
-13.35674
-6.418129
-1.050652
3.091438
6.51664
9.615395
12.50022
15.13303
17.45002
19.4536
21.187
22.71131
24.01884
25.07243
25.82635
26.24509
26.35564
26.2571
26.08282
26.00296
26.10919
26.38297
26.66581
26.71098
26.26453
25.18726
23.53801
21.60065
19.73304
18.24208
17.23179
16.5421
15.90327
15.01115
13.67253
11.87424
9.725708
7.436264
5.209999
3.154251
1.245232
-0.6188889
-2.595749
-4.773903
-7.193619
-9.799568
-12.55702
-15.40202
-18.33141
-21.37673
-24.56023
-27.94556
-31.57493
-35.57526
-40.02619
-44.9455
-50.0195
-54.596
-57.7187
-58.34886
-55.74399
-49.74046
-40.86562
-30.23456
-19.23684
-9.066734
-0.5869675
5.893402
10.49683
13.64444
15.84363
17.53807
19.01765
20.40527
21.70547
22.85375
23.83746
24.68733
25.42265
26.04971
26.55621
26.9038
27.12248
27.29295
27.57513
28.06127
28.70604
29.32886
29.61485
29.31227
28.32821
26.76526
24.86715
22.87593
20.97314
19.19238
17.5
15.8927
14.3885
12.9908
11.70605
10.42691
9.032467
7.447823
5.631725
3.688248
1.812057
0.140976
-1.324318
-2.726959
-4.340202
-6.38382
-8.957893
-12.02089
-15.32436
-18.57948
-21.54474
-24.09536
-26.35424
-28.51262
-30.86514
-33.71336
-37.21134
-41.21304
-45.20928
-48.31822
-49.40932
-47.58363
-42.45634
-34.44348
-24.67326
-14.65461
-5.718266
1.31723
6.296646
9.653343
11.99622
13.82579
15.39175
16.73202
17.81439
18.64796
19.24493
19.7193
20.20423
20.76534
21.40817
22.11246
22.81143
23.46736
24.07552
24.6292
25.18494
25.76767
26.25865
26.46651
26.23018
25.45493
24.25147
22.86735
21.52163
20.3819
19.45574
18.51433
17.29979
15.60247
13.35934
10.72103
7.984097
5.428551
3.312748
1.696285
0.4355087
-0.7353134
-2.199841
-4.26656
-7.085186
-10.55091
-14.36778
-18.07063
-21.21203
-23.60913
-25.31995
-26.76659
-28.50911
-31.06982
-34.67455
-39.17644
-43.94791
-48.02349
-50.43108
-50.24963
-47.11794
-41.26815
-33.44147
-24.67928
-16.03046
-8.248703
-1.637215
3.770966
8.254364
12.01983
15.19707
17.80195
19.84101
21.32682
22.28868
22.83118
23.06804
23.16955
23.23534
23.3693
23.61419
24.01022
24.60371
25.39571
26.32998
27.29897
28.14638
28.70276
28.82985
28.47808
27.59734
26.23003
24.47977
22.42252
20.17365
17.8903
15.75032
13.84582
12.24361
10.89495
9.725555
8.67363
7.649139
6.562439
5.295563
3.804176
2.063812
0.1171646
-1.922714
-3.980034
-6.116226
-8.451645
-11.13921
-14.24897
-17.63386
-20.92685
-23.78653
-25.93517
-27.43645
-28.60034
-29.85385
-31.62687
-34.19254
-37.5929
-41.50435
-45.314
-48.13462
-49.07263
-47.41721
-42.97017
-36.15416
-27.90492
-19.40171
-11.57816
-4.969406
0.3768463
4.689064
8.210953
11.13851
13.48777
15.2961
16.60409
17.55599
18.28989
18.97849
19.71047
20.50428
21.39524
22.32939
23.34592
24.4351
25.60467
26.81447
27.98753
28.94759
29.48976
29.47887
28.8503
27.72318
26.26276
24.62031
22.85342
20.9389
18.8461
16.54128
14.17415
11.90131
9.901924
8.293877
7.028954
6.013084
5.088074
4.202065
3.338234
2.542824
1.768608
0.9437256
-0.003669739
-1.180481
-2.603149
-4.268539
-6.126915
-8.189873
-10.44476
-12.99296
-15.85728
-18.94065
-22.11504
-25.16375
-27.95296
-30.48278
-32.93995
-35.62651
-38.82906
-42.64452
-46.68099
-50.22971
-52.20256
-51.71072
-48.26328
-42.03285
-33.79669
-24.70302
-15.89606
-8.222885
-2.062714
2.694153
6.335236
9.246201
11.68686
13.78546
15.54465
16.9487
18.0265
18.82267
19.46289
20.01286
20.43199
20.68349
20.68159
20.40266
19.95158
19.50601
19.2337
19.24207
19.48826
19.78275
19.92471
19.76765
19.27292
18.55779
17.81885
17.20833
16.87003
16.80212
16.9503
17.18692
17.35168
17.25847
16.71767
15.57738
13.7928
11.46565
8.759766
5.932861
3.218933
0.7735748
-1.42157
-3.461075
-5.539795
-7.77742
-10.18068
-12.64516
-14.95792
-16.9415
-18.50505
-19.70259
-20.69806
-21.75119
-23.17679
-25.24054
-28.0849
-31.55157
-35.1841
-38.20631
-39.68054
-38.8609
-35.44872
-29.70941
-22.33162
-14.28304
-6.482681
0.3608551
5.84874
9.863968
12.51802
14.00699
14.50992
14.30907
13.64217
12.74745
11.88773
11.28708
11.09906
11.35558
11.97568
12.77176
13.62535
14.52937
15.55165
16.80772
18.28847
19.80011
21.03777
21.69374
21.52043
20.47896
18.72011
16.49829
14.15778
11.9543
9.982117
8.195389
6.462875
4.627106
2.62056
0.4975739
-1.568008
-3.341736
-4.708939
-5.708939
-6.586761
-7.651337
-9.142868
-11.12999
-13.45799
-15.81477
-17.85303
-19.39995
-20.53729
-21.52542
-22.70461
-24.33905
-26.57889
-29.50903
-33.08281
-37.07545
-40.9711
-43.90549
-44.83209
-42.96538
-38.09508
-30.80553
-22.36456
-14.2
-7.364212
-2.242828
1.427887
4.227859
6.648575
8.845901
10.73581
12.18919
13.18649
13.90009
14.57816
15.41936
16.44351
17.5351
18.50827
19.28021
19.87866
20.39079
20.89525
21.44682
22.0336
22.56845
22.94215
23.05965
22.88652
22.45477
21.79729
20.97002
20.04866
19.05759
17.95821
16.6852
15.17152
13.33916
11.18857
8.734329
6.065826
3.329361
0.6428375
-1.900864
-4.364471
-6.850815
-9.526703
-12.47592
-15.72525
-19.13673
-22.5153
-25.61215
-28.20921
-30.19955
-31.72278
-33.12123
-34.91414
-37.62924
-41.40817
-45.91383
-50.22768
-53.08073
-53.33688
-50.46249
-44.64926
-36.75348
-27.972
-19.34483
-11.55183
-4.872482
0.7601471
5.519379
9.557678
12.9812
15.80455
18.08681
19.87819
21.19888
22.09019
22.6339
22.88594
22.92615
22.85806
22.78275
22.82786
23.14964
23.78984
24.73192
25.8714
26.92435
27.57645
27.55453
26.68018
24.95563
22.59447
19.92375
17.36346
15.25159
13.70711
12.65982
11.87077
11.08238
10.12671
8.997002
7.773903
6.587845
5.429253
4.14119
2.535049
0.4149246
-2.302444
-5.497581
-8.94136
-12.42043
-15.75775
-18.92809
-22.0132
-25.03252
-28.02666
-31.01143
-34.06406
-37.3432
-41.06385
-45.27818
-49.65899
-53.41411
-55.46284
-54.76136
-50.77683
-43.72054
-34.46644
-24.32062
-14.56753
-6.158569
0.4872742
5.391068
8.837418
11.17642
12.7112
13.69686
14.28768
14.71069
15.0834
15.53903
16.17553
16.97154
17.93489
19.09294
20.53416
22.32523
24.54239
27.10109
29.75364
32.10796
33.72366
34.28136
33.63418
31.97876
29.62115
27.00474
24.4799
22.18005
20.06491
17.93916
15.66659
13.2039
10.73075
8.471458
6.621506
5.228188
4.13063
3.076851
1.754818
0.009723663
-2.238514
-4.89875
-7.759987
-10.64454
-13.4105
-16.0259
-18.54506
-21.1498
-24.02107
-27.36833
-31.27698
-35.54892
-39.63123
-42.63071
-43.58698
-41.74071
-36.94832
-29.69488
-21.02553
-12.13382
-3.97957
2.87961
8.348019
12.58414
15.7858
18.1013
19.64238
20.48119
20.75892
20.64238
20.32671
20.00853
19.85349
20.01522
20.57268
21.54737
22.88656
24.45509
26.10264
27.655
28.96556
29.88577
30.24413
29.9038
28.8028
26.97098
24.58265
21.94881
19.35099
17.02573
15.08666
13.42248
11.816
10.02203
7.79464
5.069415
1.942488
-1.432855
-4.823483
-8.086614
-11.20907
-14.27174
-17.29877
-20.28285
-23.09989
-25.56685
-27.61451
-29.34713
-31.05062
-33.13691
-35.99643
-39.80362
-44.44231
-49.38921
-53.75692
-56.47359
-56.55023
-53.40131
-47.10518
-38.3796
-28.45841
-18.71085
-10.17797
-3.346272
1.82071
5.768054
9.005683
11.91429
14.70536
17.38981
19.8852
22.11958
24.07649
25.73006
27.16212
28.44227
29.62578
30.71585
31.66931
32.38486
32.78683
32.84641
32.47993
31.72232
30.62127
29.20032
27.52514
25.67659
23.756
21.90845
20.31123
19.05247
18.19249
17.64733
17.1855
16.58551
15.64071
14.27411
12.54856
10.59609
8.562799
6.57649
4.653976
2.732599
0.6802845
-1.655659
-4.406942
-7.58218
-11.07111
-14.72235
-18.28296
-21.59373
-24.60241
-27.36351
-30.03829
-32.89739
-36.10774
-39.79284
-43.89432
-48.07519
-51.70903
-53.90973
-53.70049
-50.43526
-44.09919
-35.3353
-25.39756
-15.68049
-7.323208
-0.8768425
3.693489
6.881302
9.247631
11.27689
13.23689
15.24749
17.34134
19.55099
21.83915
24.09581
26.19942
27.98831
29.38844
30.36783
30.99041
31.3389
31.57364
31.73316
31.77915
31.57212
30.93552
29.78142
28.13795
26.17991
24.15094
22.31418
20.73714
19.38867
18.16006
16.94196
15.73688
14.61172
13.57714
12.57183
11.44974
10.04301
8.264183
6.161552
3.885975
1.661179
-0.2919044
-1.900795
-3.300793
-4.758278
-6.581146
-9.002003
-12.04492
-15.51676
-19.08358
-22.40349
-25.24525
-27.64804
-29.80236
-32.05023
-34.747
-38.09941
-42.12843
-46.46404
-50.38271
-52.85965
-52.83258
-49.58348
-42.99797
-33.74712
-23.04271
-12.36747
-2.958855
4.460064
9.76873
13.30615
15.56089
17.02087
17.99094
18.65585
19.10358
19.40928
19.64228
19.83313
20.00818
20.1402
20.19729
20.19874
20.18675
20.18223
20.25018
20.41082
20.63202
20.91187
21.18652
21.40513
21.51361
21.50821
21.38062
21.17797
20.96864
20.77157
20.53904
20.09586
19.26674
17.86838
15.83272
13.26775
10.38353
7.44051
4.649555
2.09457
-0.3354759
-2.793686
-5.489174
-8.597977
-12.15501
-15.97918
-19.81144
-23.30222
-26.15904
-28.32401
-29.90473
-31.28755
-33.01423
-35.5531
-39.0704
-43.32302
-47.48498
-50.38567
-50.8541
-48.09879
-42.08585
-33.54595
-23.73984
-14.00239
-5.398382
1.60306
6.989519
11.04347
14.10716
16.44772
18.26279
19.71999
20.92955
21.92231
22.69751
23.17524
23.29377
23.08805
22.71889
22.42089
22.40668
22.75795
23.47698
24.48592
25.71188
26.9724
28.10653
28.82827
28.90598
28.16264
26.59122
24.42329
22.02533
19.79377
17.94333
16.54092
15.37096
14.21974
12.85052
11.15456
9.164429
6.987078
4.770185
2.627054
0.6362114
-1.227015
-2.97327
-4.691799
-6.473629
-8.456314
-10.77444
-13.50342
-16.56836
-19.7586
-22.79155
-25.45645
-27.68613
-29.73129
-31.93937
-34.79199
-38.55177
-43.1668
-48.25342
-53.01077
-56.44094
-57.49295
-55.44758
-50.0494
-41.81936
-31.82289
-21.41766
-11.87444
-3.996719
2.049221
6.521919
9.901875
12.60766
14.83276
16.64399
18.06204
19.06693
19.70991
20.04107
20.11796
20.00817
19.8343
19.7019
19.73886
20.10057
20.81823
21.91883
23.389
25.11706
26.93432
28.5989
29.77962
30.17987
29.71342
28.45691
26.63166
24.50118
22.24177
19.95395
17.72767
15.59442
13.588
11.75447
10.09689
8.563684
7.124314
5.683128
4.19986
2.638552
0.9588156
-0.9600773
-3.21888
-5.991957
-9.332774
-13.14211
-17.16439
-20.97169
-24.17654
-26.57627
-28.29052
-29.6874
-31.33713
-33.74006
-37.1825
-41.65897
-46.73943
-51.6489
-55.35843
-56.75607
-54.99189
-49.78679
-41.57188
-31.42588
-20.80642
-11.01437
-2.945074
3.099889
7.370907
10.31966
12.44017
14.04567
15.29599
16.19361
16.74871
16.98089
16.9318
16.71619
16.34747
15.93073
15.54845
15.37357
15.53973
16.1776
17.26212
18.61938
19.98673
21.00743
21.46269
21.27624
20.53108
19.49418
18.47927
17.73964
17.34447
17.18129
16.94784
16.36708
15.25615
13.59509
11.56492
9.34271
7.04401
4.552431
1.668306
-1.803127
-5.849562
-10.21486
-14.50373
-18.27315
-21.33479
-23.70839
-25.64786
-27.44436
-29.44164
-31.87117
-34.81827
-38.20247
-41.59906
-44.27404
-45.28742
-43.77542
-39.29095
-32.07856
-23.04318
-13.41492
-4.427303
3.093212
8.847496
12.97912
15.83891
17.73982
18.91002
19.45694
19.51998
19.26884
18.92609
18.65715
18.56465
18.65482
18.83046
19.03958
19.27142
19.55038
19.93174
20.41449
20.91873
21.23541
21.21347
20.72299
19.73582
18.35547
16.72726
15.02468
13.3655
11.8201
10.35305
8.95113
7.569073
6.127296
4.49612
2.522076
0.07471085
-2.921238
-6.386543
-10.09596
-13.75159
-17.0743
-19.89476
-22.3027
-24.58909
-27.12132
-30.29797
-34.38921
-39.45776
-45.37615
-51.64226
-57.45958
-61.72859
-63.34138
-61.41376
-55.69991
-46.73434
-35.75048
-24.31514
-13.81389
-5.089348
1.725067
6.94738
11.13011
14.7327
17.98241
20.84171
23.14418
24.7459
25.59675
25.87959
25.8428
25.76601
25.89171
26.3332
27.10342
28.14377
29.37541
30.7146
32.09199
33.39057
34.37698
34.83754
34.60172
33.63898
32.04151
30.01848
27.75771
25.45916
23.2567
21.20832
19.36613
17.65739
15.9966
14.20519
12.15602
9.790588
7.215134
4.582954
2.018127
-0.4381638
-2.921768
-5.578865
-8.518387
-11.79085
-15.3279
-18.96022
-22.50725
-25.81026
-28.78084
-31.42508
-33.84901
-36.25395
-38.96651
-42.28249
-46.29836
-50.69145
-54.73909
-57.34402
-57.42612
-54.30443
-47.98529
-39.27357
-29.49388
-20.05466
-11.93495
-5.502625
-0.5486755
3.435623
6.914551
10.21149
13.40102
16.46394
19.31764
21.85384
24.01424
25.72577
26.96913
27.77631
28.30367
28.70741
29.15173
29.67181
30.27396
30.90657
31.54207
32.17325
32.71388
33.02881
32.90613
32.21568
30.9265
29.24907
27.47404
25.95937
24.86906
24.18423
23.69838
23.1438
22.33856
21.21686
19.85616
18.27939
16.47078
14.32436
11.78772
8.883438
5.752289
2.568008
-0.5922546
-3.758209
-7.041046
-10.54649
-14.20827
-17.7746
-20.90605
-23.37498
-25.16397
-26.59189
-28.14583
-30.2802
-33.32178
-37.23471
-41.68036
-45.96571
-49.2524
-50.65318
-49.56285
-45.75146
-39.46324
-31.40407
-22.4581
-13.60387
-5.594604
1.050323
6.178848
9.87851
12.45348
14.29645
15.74785
17.04643
18.19653
19.07655
19.56303
19.71815
19.73416
19.91039
20.45911
21.39905
22.58812
23.8474
25.01825
26.07469
27.03105
27.83133
28.30774
28.22293
27.41031
25.8866
23.87653
21.72816
19.78528
18.2002
16.88773
15.64618
14.20815
12.4433
10.4341
8.347946
6.405151
4.685089
3.038666
1.165039
-1.165955
-4.082321
-7.468842
-11.05692
-14.56345
-17.78008
-20.66727
-23.37599
-26.16646
-29.31125
-33.03136
-37.37445
-42.03099
-46.3051
-49.17558
-49.57671
-46.85846
-41.05376
-32.90103
-23.62314
-14.50926
-6.438721
0.1905365
5.516724
9.891876
13.63008
16.92632
19.78854
22.18268
24.05884
25.44376
26.31404
26.75877
26.86986
26.7365
26.48306
26.19952
25.96487
25.88904
26.11058
26.64767
27.43571
28.25076
28.71097
28.51196
27.44882
25.53053
23.08055
20.57814
18.45984
17.00934
16.26006
15.96265
15.72211
15.08919
13.75162
11.64655
8.992264
6.157639
3.51355
1.272919
-0.6556702
-2.506699
-4.675446
-7.447647
-10.88084
-14.75948
-18.7388
-22.41014
-25.52994
-28.10205
-30.2377
-32.23111
-34.36119
-36.89822
-40.02553
-43.76395
-47.85815
-51.7186
-54.45186
-55.1127
-52.97171
-47.86404
-40.27386
-31.17152
-21.72443
-12.8981
-5.267212
1.038361
6.178055
10.44066
14.06502
17.19127
19.84636
22.02597
23.73293
25.02534
25.97766
26.69208
27.26273
27.743
28.16818
28.61362
29.17274
29.92809
30.94897
32.18269
33.43329
34.45966
34.98764
34.79187
33.87247
32.36281
30.46065
28.45267
26.54234
24.83316
23.32352
21.89371
20.38744
18.69327
16.79436
14.75645
12.78329
11.05189
9.662125
8.598892
7.696808
6.74984
5.602219
4.187645
2.532036
0.7740326
-0.9936523
-2.744522
-4.521988
-6.44313
-8.656448
-11.23354
-14.15632
-17.31631
-20.54308
-23.69834
-26.74964
-29.67781
-32.58919
-35.56681
-38.75535
-42.32816
-46.47213
-51.28089
-56.52026
-61.51593
-65.11314
-66.08393
-63.4879
-57.16879
-47.84343
-36.86635
-25.74427
-15.64647
-7.192142
-0.4179611
4.948349
9.255566
12.82207
15.82956
18.39882
20.57482
22.38235
23.79155
24.76598
25.30532
25.4822
25.40966
25.21206
25.05922
25.04678
25.29884
25.87037
26.71711
27.74649
28.74528
29.49338
29.80365
29.5929
28.88369
27.84361
26.68003
25.55806
24.58942
23.70776
22.77003
21.54533
19.90655
17.82761
15.482
13.15553
11.06857
9.387814
8.070368
6.961386
5.830965
4.52088
2.924332
1.057636
-0.9860268
-3.128998
-5.277065
-7.474508
-9.823843
-12.50671
-15.59048
-19.01843
-22.59123
-25.95405
-28.79336
-30.93346
-32.50422
-33.83477
-35.39786
-37.62
-40.80718
-45.03222
-50.00969
-55.12933
-59.39627
-61.69939
-61.043
-56.93037
-49.58867
-39.93359
-29.31721
-19.03403
-10.07106
-2.857952
2.658027
6.799454
9.95163
12.37663
14.25934
15.65303
16.69784
17.41694
17.94276
18.40745
18.90519
19.48861
20.14014
20.83575
21.51754
22.27771
23.11301
24.06349
25.04747
25.83614
26.18806
25.86381
24.83079
23.23464
21.45415
19.87955
18.8253
18.35295
18.24121
18.12562
17.59131
16.36427
14.43307
11.98824
9.31493
6.654791
4.164137
1.843748
-0.3281956
-2.484421
-4.733549
-7.164125
-9.785973
-12.55175
-15.31762
-17.86854
-20.09983
-21.95456
-23.57137
-25.19925
-27.18715
-29.82552
-33.3154
-37.58055
-42.15745
-46.2407
-48.74743
-48.64241
-45.33246
-38.94592
-30.27901
-20.54847
-11.00684
-2.603058
4.204597
9.418148
13.28269
16.07589
17.98772
19.11076
19.53638
19.39392
18.87807
18.27404
17.89132
17.97964
18.65009
19.85635
21.35251
22.82731
24.03018
24.81657
25.1813
25.22811
25.03154
24.59734
23.89285
22.86219
21.53022
20.0254
18.48936
17.07579
15.81091
14.61744
13.33284
11.80804
9.926311
7.681068
5.0737
2.134323
-1.137554
-4.759106
-8.698586
-12.87161
-17.11697
-21.25808
-25.09665
-28.58555
-31.73907
-34.66511
-37.61776
-40.83155
-44.41438
-48.27707
-52.00286
-54.8145
-55.79417
-54.16009
-49.53553
-42.22943
-33.09909
-23.29376
-13.9729
-5.985317
0.246563
4.716389
7.720348
9.712486
11.18257
12.54474
14.05756
15.76797
17.57291
19.28708
20.72718
21.83154
22.63928
23.22839
23.73216
24.25268
24.81662
25.46143
26.19928
26.89225
27.40319
27.54189
27.1012
26.01143
24.36243
22.28365
20.01115
17.74753
15.59151
13.56855
11.61109
9.607769
7.491268
5.272709
3.016685
0.8625526
-1.116627
-3.022713
-5.052696
-7.478043
-10.51446
-14.13706
-18.13158
-22.18925
-26.00437
-29.45362
-32.70654
-36.04912
-39.82528
-44.26661
-49.27252
-54.34967
-58.61642
-60.93045
-60.27866
-56.17826
-48.79742
-39.03919
-28.20108
-17.54544
-8.009071
-0.05481339
6.311897
11.31099
15.21681
18.33315
20.83014
22.87952
24.64475
26.23733
27.68634
28.94683
29.90668
30.45288
30.55796
30.25108
29.67793
29.16557
28.9952
29.41142
30.40622
31.72336
32.90182
33.47074
33.05627
31.55559
29.2415
26.52307
23.90144
21.66376
19.78356
18.02219
16.04426
13.64819
10.8659
8.002272
5.342974
3.125256
1.322378
-0.3127918
-2.08346
-4.289927
-7.064819
-10.43555
-14.28326
-18.48708
-22.82697
-27.09839
-31.16862
-34.91141
-38.38084
-41.85151
-45.72346
-50.31261
-55.61768
-61.00937
-65.3281
-67.23356
-65.54737
-59.92313
-50.89761
-39.79441
-28.20865
-17.47511
-8.305197
-0.8202257
5.224156
10.19948
14.35395
17.80433
20.56062
22.61542
24.01048
24.83917
25.25491
25.37319
25.32881
25.18789
24.96698
24.68898
24.37709
24.08384
23.94398
24.06976
24.48191
25.07684
25.59543
25.76267
25.39219
24.42352
23.04232
21.50239
20.04956
18.75546
17.55078
16.23542
14.66791
12.84767
10.894
8.988937
7.219086
5.507025
3.60803
1.265663
-1.674034
-5.155775
-8.919352
-12.6747
-16.12916
-19.20427
-21.9909
-24.70029
-27.655
-31.15674
-35.40469
-40.29844
-45.37745
-49.74309
-52.30264
-52.06273
-48.39145
-41.43864
-32.02518
-21.47847
-11.14726
-2.125069
5.07589
10.42373
14.24017
16.95743
18.86752
20.13203
20.81605
20.97844
20.76755
20.44923
20.33449
20.66705
21.58224
22.96569
24.59866
26.24395
27.61433
28.56164
29.03727
29.13132
28.92202
28.54061
27.98407
27.18905
26.0671
24.38324
22.07586
19.17577
15.93363
12.63979
9.556629
6.772129
4.224026
1.766842
-0.8000793
-3.573696
-6.573647
-9.693314
-12.78633
-15.67416
-18.24436
-20.48934
-22.49549
-24.49374
-26.81281
-29.77886
-33.65357
-38.42289
-43.7119
-48.73598
-52.42135
-53.62371
-51.52672
-45.95511
-37.49467
-27.33473
-16.8337
-7.229881
0.7523575
6.891357
11.38872
14.64455
17.07034
18.93755
20.35363
21.36752
21.99729
22.35065
22.53585
22.75558
23.13911
23.75051
24.5607
25.45963
26.33633
27.1634
28.00014
28.86124
29.74202
30.50749
30.96635
30.94659
30.39367
29.29594
27.74792
25.85265
23.63631
21.12017
18.32168
15.27758
12.04493
8.803703
5.691711
2.813553
0.1987991
-2.29731
-4.84655
-7.635086
-10.79426
-14.28334
-17.94659
-21.65549
-25.33573
-29.04383
-32.91332
-37.04401
-41.46369
-46.10074
-50.67041
-54.68497
-57.36678
-57.83012
-55.32283
-49.54531
-40.86417
-30.32744
-19.36133
-9.296539
-1.021362
5.262131
9.902603
13.50806
16.59399
19.44863
22.09522
24.40982
26.29852
27.71225
28.68285
29.29179
29.61024
29.60188
29.33434
28.86996
28.38914
28.12563
28.22198
28.72789
29.52475
30.3497
30.86826
30.83821
30.13382
28.88157
27.35719
25.84965
24.59647
23.6357
22.81282
21.85143
20.48298
18.53281
16.01262
13.07726
9.913246
6.703285
3.550545
0.4205322
-2.755867
-6.026131
-9.475533
-13.06165
-16.67687
-20.19318
-23.46682
-26.38551
-29.01101
-31.4741
-34.00963
-36.96722
-40.6067
-45.04178
-50.01785
-54.83809
-58.41222
-59.58765
-57.51305
-51.99957
-43.68924
-33.78704
-23.7019
-14.52956
-6.798958
-0.550415
4.501297
8.650291
12.1283
14.98139
17.26637
19.03282
20.35072
21.37947
22.23847
23.05126
23.86666
24.70354
25.48973
26.18324
26.78143
27.34544
28.01877
28.84739
29.74697
30.46895
30.74574
30.37126
29.28744
27.69177
25.82925
24.00055
22.3605
20.95663
19.66234
18.29706
16.70436
14.73382
12.42822
9.881729
7.344566
5.024757
3.068642
1.386826
-0.2743149
-2.209709
-4.657791
-7.661434
-11.04578
-14.51709
-17.80276
-20.70284
-23.2444
-25.57473
-27.96952
-30.78896
-34.3676
-38.81926
-43.84183
-48.60931
-51.90889
-52.48981
-49.54001
-43.02755
-33.783
-23.18548
-12.69081
-3.44521
4.015278
9.654903
13.77981
16.74426
18.90083
20.43576
21.485
22.13292
22.42879
22.40434
22.12319
21.67836
21.15861
20.72352
20.45744
20.48653
20.9348
21.87753
23.34689
25.23677
27.28047
29.03341
30.09176
30.14595
29.18171
27.44281
25.3416
23.31044
21.63722
20.32824
19.15425
17.73486
15.71733
12.96602
9.642101
6.059195
2.593403
-0.512888
-3.265063
-5.854721
-8.539176
-11.47771
-14.66513
-17.90537
-21.04503
-23.91962
-26.46218
-28.65466
-30.56457
-32.33218
-34.21962
-36.65334
-39.99862
-44.44572
-49.6643
-54.77942
-58.46322
-59.32196
-56.43995
-49.74279
-40.10455
-29.02729
-18.14381
-8.626825
-1.062288
4.600312
8.810402
12.08046
14.79072
17.1335
19.18219
20.95222
22.47439
23.72802
24.6804
25.35824
25.8203
26.18013
26.52102
26.9225
27.37701
27.86228
28.33218
28.72565
28.98259
28.95718
28.4785
27.43787
25.82146
23.81979
21.72305
19.81278
18.277
17.10842
16.08841
15.01541
13.73738
12.19537
10.39195
8.407814
6.272938
4.057896
1.873974
-0.2038345
-2.094265
-3.833199
-5.579308
-7.605927
-10.04053
-12.94224
-16.13234
-19.33696
-22.30381
-24.90001
-27.20248
-29.42211
-31.88978
-34.8863
-38.68882
-43.2609
-48.21029
-52.73133
-55.67242
-55.91189
-52.77646
-46.2953
-37.26948
-27.05304
-17.04992
-8.30336
-1.346436
3.861107
7.71003
10.66348
13.09987
15.25943
17.21284
18.91084
20.32175
21.39934
22.18757
22.74349
23.12732
23.33684
23.3729
23.27293
23.14985
23.23682
23.71278
24.64302
25.84744
26.95527
27.57287
27.44312
26.49142
24.89971
22.93422
20.8067
18.70087
16.6937
14.80872
12.99152
11.16172
9.16745
6.946739
4.54924
2.122185
-0.1092453
-1.966393
-3.429535
-4.665329
-5.917549
-7.461128
-9.382874
-11.62628
-14.04323
-16.38966
-18.48531
-20.23592
-21.69465
-23.04298
-24.64373
-26.84809
-29.9943
-34.1459
-39.0089
-43.86189
-47.68436
-49.39133
-48.17906
-43.83456
-36.79781
-28.07455
-18.85709
-10.24022
-2.866402
3.095772
7.894829
11.82291
15.08662
17.69518
19.4659
20.27455
20.18161
19.43108
18.41998
17.55863
17.0141
16.82579
16.95531
17.28959
17.85571
18.72324
19.9335
21.42448
23.04092
24.49894
25.56086
26.05865
25.91336
25.16188
23.9187
22.32068
20.5199
18.63745
16.67357
14.52472
12.01884
8.962143
5.401215
1.559219
-2.169983
-5.38974
-7.869888
-9.708801
-11.23593
-12.81967
-14.75453
-17.01155
-19.39111
-21.62743
-23.54877
-25.13666
-26.54279
-27.96866
-29.58629
-31.6373
-34.3165
-37.79485
-42.04788
-46.64049
-50.59566
-52.65022
-51.65175
-47.00551
-39.07053
-28.97575
-18.28021
-8.409851
-0.2175598
6.047943
10.64192
13.96304
16.38745
18.13127
19.33865
20.11806
20.55016
20.67754
20.49301
20.01003
19.3571
18.77847
18.47374
18.66225
19.40729
20.65727
22.28214
24.09085
25.83832
27.28136
28.17244
28.26663
27.57457
26.21375
24.4812
22.70036
21.06242
19.59572
18.16751
16.62758
14.89345
12.98335
10.92209
8.721329
6.385849
3.886307
1.293503
-1.22847
-3.478958
-5.285858
-6.626099
-7.733582
-8.95105
-10.55484
-12.77773
-15.5377
-18.59583
-21.62332
-24.29303
-26.44884
-28.1974
-29.81689
-31.68541
-34.24506
-37.71579
-42.095
-47.02057
-51.68149
-55.01099
-55.89452
-53.55937
-47.88248
-39.52975
-29.67346
-19.65993
-10.60699
-3.096268
2.786469
7.290085
10.81438
13.70139
16.13066
18.21938
19.96988
21.32704
22.2822
22.81339
22.94527
22.82146
22.56441
22.28772
22.13631
22.18701
22.5191
23.18036
24.17511
25.40396
26.75748
28.05841
29.10843
29.7383
29.8351
29.37038
28.40337
27.07111
25.42798
23.56758
21.513
19.27678
16.9068
14.52161
12.25026
10.16949
8.247269
6.308456
4.181259
1.791199
-0.7839355
-3.334229
-5.62381
-7.573425
-9.302231
-11.08026
-13.16232
-15.68031
-18.50813
-21.39787
-24.05363
-26.30537
-28.24069
-30.12042
-32.32416
-35.20732
-39.02766
-43.83159
-49.3503
-54.86948
-59.282
-61.33289
-59.92224
-54.5787
-45.73502
-34.62138
-22.86563
-12.02861
-3.042999
3.819534
8.825256
12.44809
15.08963
16.96342
18.18463
18.92113
19.36061
19.71231
20.12108
20.59447
21.02644
21.30208
21.40166
21.47858
21.76161
22.46411
23.57124
24.88982
26.08594
26.80257
26.79112
25.9785
24.4836
22.5461
20.4962
18.60243
17.04187
15.8942
15.10597
14.53708
13.98708
13.19165
11.96159
10.23744
8.070068
5.651459
3.194809
0.927536
-1.054672
-2.776031
-4.41954
-6.2061
-8.276505
-10.61642
-13.07739
-15.4346
-17.50298
-19.19901
-20.61769
-22.0482
-23.82242
-26.24153
-29.48448
-33.56039
-38.25102
-43.05713
-47.15692
-49.48965
-49.1335
-45.58559
-39.06946
-30.51941
-21.25201
-12.5818
-5.394867
0.04385376
4.018784
6.959869
9.226654
11.0126
12.38403
13.44014
14.34979
15.29111
16.39688
17.67873
19.02589
20.325
21.49425
22.50273
23.37151
24.17174
24.87032
25.4406
25.8036
25.87016
25.61674
25.00478
23.99832
22.57837
20.83447
18.87036
16.7865
14.71922
12.76973
11.02078
9.49411
8.13591
6.923599
5.76268
4.594879
3.256058
1.630051
-0.4437408
-3.054596
-6.253143
-9.948914
-13.9407
-18.01396
-21.90282
-25.49161
-28.7139
-31.74413
-34.8221
-38.21507
-41.92183
-45.58559
-48.44106
-49.43346
-47.6353
-42.58304
-34.61034
-24.71008
-14.2549
-4.556152
3.466965
9.527588
13.83005
16.7854
18.75888
19.97444
20.51921
20.4906
20.02707
19.36189
18.74825
18.43051
18.48921
18.89188
19.5648
20.36668
21.25357
22.16817
23.09296
23.93672
24.6144
24.93201
24.7944
24.12305
22.8786
21.10107
18.8503
16.22363
13.30943
10.30698
7.333939
4.604836
2.249153
0.2772369
-1.394859
-3.001678
-4.819077
-7.111511
-9.899559
-13.10707
-16.49657
-19.76994
-22.77179
-25.44991
-27.90386
-30.31805
-32.94472
-35.96095
-39.53438
-43.68338
-48.13165
-52.34192
-55.39792
-56.32146
-54.27339
-48.90228
-40.54089
-30.15911
-19.07923
-8.602364
0.2231979
7.001953
11.7702
14.92721
16.95621
18.26733
19.15861
19.8373
20.47035
21.05295
21.63893
22.22458
22.76058
23.24737
23.69945
24.16547
24.66348
25.27052
25.90495
26.4991
26.84377
26.72601
25.93713
24.38798
22.21512
19.71409
17.41381
15.7387
14.93494
14.86526
15.15256
15.32249
14.9887
14.06168
12.68998
11.20988
9.859238
8.707001
7.49958
5.857033
3.424232
0.009811401
-4.287975
-9.138142
-14.11541
-18.86276
-23.17676
-27.03488
-30.58628
-34.02368
-37.62569
-41.62407
-46.20666
-51.30819
-56.44775
-60.63678
-62.5985
-61.17277
-55.77121
-46.72216
-35.15353
-22.7347
-10.99833
-0.968277
6.972839
12.96135
17.31294
20.40434
22.48316
23.81173
24.61276
25.08929
25.40598
25.60346
25.69166
25.66187
25.60433
25.58053
25.70185
26.01467
26.53066
27.25999
28.18245
29.25242
30.36348
31.32035
31.85149
31.78629
31.09649
29.95289
28.65825
27.46898
26.5116
25.73756
24.88658
23.70534
21.96619
19.54606
16.47912
12.95839
9.240232
5.645852
2.447881
-0.3428006
-2.830237
-5.33187
-8.199765
-11.63855
-15.5917
-19.78016
-23.8014
-27.30687
-30.22126
-32.65166
-34.91321
-37.38141
-40.3415
-44.03679
-48.51439
-53.54527
-58.53929
-62.52686
-64.33271
-62.96567
-57.98257
-49.65854
-39.09768
-27.78308
-17.13514
-8.110634
-1.017867
4.432657
8.758917
12.46581
15.90754
19.06623
21.80735
24.00706
25.64186
26.80793
27.73736
28.57628
29.3412
29.98354
30.33669
30.33775
30.10811
29.8186
29.6176
29.55732
29.51735
29.27042
28.66853
27.69787
26.47238
25.23083
24.13429
23.26767
22.64116
22.15715
21.63893
20.84624
19.54568
17.56108
14.92607
11.80983
8.542511
5.423107
2.620472
0.1320686
-2.174118
-4.457058
-6.813908
-9.208099
-11.63043
-13.94709
-16.07305
-17.95128
-19.55121
-20.93505
-22.21482
-23.64494
-25.49712
-28.13721
-31.80185
-36.46889
-41.72002
-46.65664
-50.07156
-50.74572
-47.95269
-41.69091
-32.75186
-22.47318
-12.23693
-3.108788
4.415863
10.29935
14.82139
18.20584
20.57705
21.94946
22.33725
21.87504
20.87595
19.81715
19.08031
18.99005
19.5718
20.65389
21.97367
23.25668
24.41765
25.46685
26.53412
27.51991
28.23267
28.36433
27.71638
26.34205
24.4903
22.57829
20.86958
19.49963
18.24697
16.91045
15.25151
13.23191
10.99382
8.69606
6.509445
4.45063
2.508156
0.5064392
-1.667366
-4.091927
-6.806892
-9.716942
-12.74923
-15.78958
-18.81945
-21.82464
-24.92248
-28.25735
-32.00402
-36.39238
-41.40638
-46.73617
-51.56767
-54.77296
-55.16549
-52.0116
-45.34108
-35.99016
-25.44445
-15.10506
-6.101807
1.113312
6.627922
10.85518
14.26126
17.18616
19.80549
22.09171
24.0516
25.61607
26.74116
27.40573
27.67422
27.61884
27.35226
27.05677
26.87358
26.98087
27.45262
28.26661
29.27992
30.25275
30.93713
31.04765
30.50117
29.31526
27.72916
26.03928
24.53709
23.37551
22.56303
21.98565
21.47156
20.86448
20.01836
18.82571
17.21812
15.17287
12.6833
9.802177
6.631744
3.345985
0.1364975
-2.902275
-5.791481
-8.639999
-11.61073
-14.84938
-18.3549
-22.00451
-25.60281
-28.96375
-32.04168
-34.96694
-37.94297
-41.17487
-44.80754
-48.8703
-53.12846
-57.12064
-60.00843
-60.8466
-58.79925
-53.49709
-45.26814
-35.06023
-24.21875
-14.02354
-5.420616
1.256752
6.090958
9.513298
11.98404
13.88586
15.54826
17.2448
19.14629
21.2851
23.61151
25.86517
27.83379
29.29853
30.20388
30.64368
30.82008
30.93728
31.09379
31.35506
31.67268
31.97868
32.16772
32.1188
31.70161
30.85228
29.61137
28.10727
26.5542
25.11314
23.86839
22.76171
21.64563
20.39337
18.86675
17.08681
15.21196
13.45377
11.99776
10.91597
10.07551
9.198566
8.052452
6.397755
4.275734
1.912609
-0.4012871
-2.44017
-4.153698
-5.681435
-7.296875
-9.224682
-11.65366
-14.59367
-17.92338
-21.4229
-24.87119
-28.08759
-30.99043
-33.66019
-36.28989
-39.14232
-42.48403
-46.47307
-50.9824
-55.40248
-58.72847
-59.77102
-57.60772
-51.98244
-43.46006
-33.22055
-22.72485
-13.19128
-5.262361
0.9426785
5.651355
9.209315
11.89547
13.95288
15.59002
16.99997
18.33519
19.64182
20.87428
21.894
22.60285
22.97123
23.06046
22.99749
22.91646
23.00845
23.36399
24.06172
25.05759
26.20609
27.27837
28.10104
28.51964
28.48756
28.02018
27.13854
25.88346
24.28951
22.39572
20.2855
18.10971
16.02745
14.13311
12.50306
11.14194
10.0671
9.286723
8.752745
8.343613
7.836617
6.987555
5.655993
3.921745
1.945034
-0.01870537
-1.795773
-3.398165
-4.999037
-6.969208
-9.633072
-13.15159
-17.37918
-21.97994
-26.50507
-30.59827
-34.09107
-37.01444
-39.61652
-42.22259
-45.13372
-48.49185
-52.13015
-55.47366
-57.59974
-57.44766
-54.20994
-47.69349
-38.56913
-28.13515
-17.93753
-9.24469
-2.648952
1.870441
4.790005
6.74744
8.272251
9.684025
11.12915
12.59367
14.01472
15.34887
16.51801
17.52979
18.36823
19.05841
19.60833
20.06453
20.43775
20.79337
21.245
21.84551
22.63417
23.47054
24.13623
24.38378
24.06264
23.12868
21.73838
20.14512
18.48968
16.86457
15.21301
13.39043
11.32571
9.031185
6.6553
4.431046
2.583416
1.204025
0.3283691
-0.131073
-0.3641739
-0.5677643
-1.063339
-2.036713
-3.657097
-5.902451
-8.67836
-11.6991
-14.72506
-17.60206
-20.24807
-22.76427
-25.24889
-27.89288
-30.8374
-34.24795
-38.06376
-42.05231
-45.62564
-47.92598
-48.08141
-45.45591
-39.93547
-31.9911
-22.59901
-12.89268
-3.924278
3.633324
9.502266
13.65401
16.23403
17.46775
17.59184
16.88602
15.65426
14.21577
12.8611
11.86185
11.36914
11.47362
12.1741
13.36702
14.94048
16.73761
18.62437
20.41469
21.92279
22.93131
23.33559
23.0743
22.25312
21.02921
19.57198
17.95854
16.12691
14.03648
11.64848
9.092606
6.536285
4.111794
1.875473
-0.2697906
-2.498352
-4.921257
-7.508675
-10.12647
-12.62267
-14.8206
-16.68241
-18.24373
-19.58446
-20.85308
-22.22247
-23.95472
-26.33161
-29.56825
-33.51997
-37.69505
-41.24549
-43.16914
-42.67958
-39.46412
-33.82338
-26.53661
-18.5659
-10.7159
-3.575836
2.636108
7.913246
12.27559
15.75864
18.31683
19.94108
20.65655
20.58381
19.90181
18.82011
17.62209
16.48254
15.56525
15.00163
14.83654
15.08172
15.67429
16.52415
17.4752
18.39598
19.09402
19.45039
19.32856
18.60884
17.26571
15.29671
12.85377
10.15876
7.475899
4.952946
2.680103
0.5678024
-1.608456
-3.982891
-6.651039
-9.539074
-12.45443
-15.21155
-17.7267
-20.0494
-22.37044
-25.04918
-28.34228
-32.45435
-37.41347
-42.97573
-48.5825
-53.3469
-56.19189
-56.13647
-52.63963
-45.78476
-36.40768
-25.7859
-15.32812
-6.110394
1.319145
6.903534
10.96291
13.90063
16.15966
17.9897
19.58041
21.03538
22.40732
23.65569
24.72115
25.55289
26.17976
26.74795
27.3986
28.25222
29.34823
30.56041
31.62687
32.27525
32.26768
31.47445
29.94679
27.83882
25.42668
23.01824
20.86135
19.07066
17.58682
16.2366
14.73616
12.92297
10.67882
8.062697
5.230525
2.3238
-0.5399133
-3.395879
-6.317572
-9.498486
-13.0012
-16.86379
-20.95413
-24.99869
-28.77057
-32.08332
-34.96255
-37.65552
-40.6414
-44.25449
-48.56649
-53.07944
-56.79508
-58.51264
-57.18603
-52.38238
-44.37503
-34.17348
-23.08593
-12.35288
-2.845371
5.043325
11.25184
16.01095
19.54801
22.1783
24.22023
25.94199
27.56703
29.14997
30.59538
31.69257
32.33284
32.47501
32.2635
31.98645
31.90549
32.18487
32.81449
33.70731
34.66532
35.53645
36.1208
36.23668
35.75768
34.6287
32.93076
30.85138
28.6503
26.56839
24.71658
23.04275
21.41513
19.73712
17.89954
15.90853
13.7864
11.491
9.017982
6.349052
3.468102
0.4081841
-2.794247
-6.190121
-9.829567
-13.70571
-17.72281
-21.66802
-25.29936
-28.44944
-31.11723
-33.49507
-35.88293
-38.68062
-42.16749
-46.47344
-51.50143
-56.83678
-61.75317
-65.21658
-66.18515
-63.82442
-57.90911
-48.9447
-38.08571
-26.76618
-16.25103
-7.408215
-0.4405403
4.802444
8.732704
11.74124
14.11338
16.01606
17.61021
19.0905
20.50185
21.93082
23.26707
24.48606
25.55967
26.51646
27.41972
28.28624
29.15975
29.96964
30.67804
31.15116
31.29457
31.03046
30.3041
29.19025
27.80646
26.38434
25.09336
24.06223
23.22644
22.42263
21.529
20.4567
19.3024
18.15285
17.07365
16.02396
14.91957
13.59112
11.97543
10.07314
7.946163
5.713501
3.401653
1.009819
-1.539845
-4.293789
-7.356159
-10.68849
-14.24116
-17.90464
-21.47399
-24.80993
-27.85834
-30.67086
-33.41653
-36.36698
-39.74555
-43.62821
-47.83849
-51.7576
-54.47882
-54.97254
-52.37839
-46.4534
-37.67154
-27.16909
-16.40118
-6.688
1.21986
7.169567
11.47269
14.61803
17.00499
18.83844
20.12817
20.86903
21.07142
20.91293
20.61497
20.42887
20.53347
20.94234
21.58651
22.30748
22.97876
23.52992
24.05464
24.6576
25.36851
26.04218
26.41609
26.19471
25.27719
23.76975
21.99678
20.39265
19.28946
18.80783
18.72881
18.6698
18.14503
16.87816
14.82776
12.25039
9.516727
6.941628
4.63752
2.448051
0.0597496
-2.874889
-6.453587
-10.56281
-14.79185
-18.73051
-22.09506
-24.82384
-27.09831
-29.2023
-31.49514
-34.26109
-37.74389
-42.05626
-47.09192
-52.39587
-57.13109
-60.15792
-60.35789
-57.09466
-50.45383
-41.29317
-30.89648
-20.60296
-11.37121
-3.642345
2.571239
7.523418
11.51114
14.75283
17.35297
19.45894
21.23544
22.82228
24.34614
25.78456
27.11095
28.25107
29.193
29.94179
30.56701
31.17565
31.79387
32.37466
32.79157
32.90933
32.5474
31.67986
30.32324
28.63544
26.87025
25.21091
23.83893
22.72736
21.83338
20.9509
19.96444
18.73183
17.14467
15.12617
12.63519
9.791519
6.732571
3.752178
1.057522
-1.211636
-3.158226
-4.968193
-6.951817
-9.343796
-12.22985
-15.57613
-19.22673
-23.00184
-26.67267
-30.15636
-33.38026
-36.36842
-39.27684
-42.35564
-45.85781
-49.85568
-54.17543
-58.18454
-61.00203
-61.62955
-59.27084
-53.6661
-45.23688
-34.99679
-24.19178
-14.02385
-5.351665
1.491009
6.61203
10.44873
13.54694
16.36566
19.0649
21.64645
23.92244
25.68991
26.81066
27.25183
27.14244
26.69088
26.23986
26.06023
26.36988
27.25955
28.68263
30.39925
32.04795
33.29411
33.85677
33.63422
32.66791
31.08814
29.09877
26.91988
24.75169
22.65963
20.66136
18.7498
16.90939
15.15178
13.4732
11.79106
9.987156
7.973846
5.684452
3.230347
0.7649231
-1.52573
-3.509972
-5.27631
-7.048664
-9.092579
-11.53194
-14.40024
-17.51155
-20.6413
-23.5583
-26.13715
-28.4348
-30.69939
-33.27787
-36.47723
-40.50167
-45.29356
-50.41809
-55.12448
-58.37143
-59.135
-56.70197
-50.91902
-42.28926
-31.90393
-21.07424
-10.97065
-2.356297
4.543438
9.837868
13.85561
16.91228
19.22724
20.88634
21.96227
22.51271
22.66307
22.63502
22.61471
22.78923
23.24174
23.94149
24.77934
25.68574
26.58254
27.42613
28.13537
28.53921
28.46093
27.75843
26.3742
24.44594
22.22128
19.94274
17.7721
15.71298
13.67363
11.54819
9.311863
7.026798
4.878105
3.089714
1.708935
0.589756
-0.5473213
-2.100388
-4.417816
-7.629269
-11.63797
-16.0945
-20.48653
-24.38256
-27.51056
-29.90109
-31.82728
-33.73265
-36.08091
-39.20683
-43.22596
-47.87664
-52.4987
-56.01582
-57.3053
-55.4218
-50.01056
-41.52548
-31.02832
-19.96797
-9.631969
-0.8654175
6.086857
11.33374
15.16352
17.86819
19.64408
20.65012
21.02608
20.98827
20.72373
20.49416
20.49925
20.85275
21.60959
22.69166
23.99995
25.386
26.77921
28.14158
29.46827
30.67963
31.59241
31.98382
31.61072
30.47943
28.74017
26.65327
24.49214
22.37201
20.24334
17.90356
15.21195
12.16951
8.992737
5.98156
3.39006
1.314407
-0.3491821
-1.797356
-3.309219
-5.124527
-7.441803
-10.33427
-13.77453
-17.62959
-21.66817
-25.66811
-29.42553
-32.9035
-36.24775
-39.79809
-43.89838
-48.78954
-54.35023
-59.95045
-64.49429
-66.60238
-65.11569
-59.54856
-50.3771
-38.91281
-26.94052
-15.99373
-7.025505
-0.2357864
4.80426
8.730621
12.08833
15.17449
18.07632
20.69794
23.02611
25.04409
26.76375
28.20781
29.35918
30.18572
30.7085
31.01953
31.26762
31.62277
32.17264
32.81734
33.3723
33.57349
33.20712
32.25549
30.86125
29.24496
27.66937
26.2719
25.0256
23.89267
22.71964
21.44225
20.01396
18.41966
16.55911
14.39024
11.88229
9.108459
6.330429
3.790466
1.730789
0.2100983
-0.9059906
-1.981705
-3.359314
-5.284927
-7.820831
-10.82205
-14.06235
-17.28137
-20.29079
-22.98276
-25.40703
-27.68291
-30.0228
-32.74037
-36.14531
-40.40767
-45.34418
-50.25793
-54.01414
-55.35803
-53.30246
-47.57527
-38.78683
-28.18068
-17.25529
-7.25145
1.129105
7.741608
12.91188
17.03474
20.42224
23.21025
25.38844
26.87965
27.62251
27.62106
26.96701
25.92644
24.80235
23.88162
23.366
23.40338
24.02065
25.14719
26.68506
28.44417
30.14409
31.46114
32.00575
31.53738
30.06354
27.78642
25.12749
22.49619
20.18604
18.25409
16.56783
14.87061
12.98799
10.86324
8.590744
6.373718
4.326843
2.449326
0.5723572
-1.576706
-4.21254
-7.415237
-11.07535
-14.95789
-18.76062
-22.28293
-25.48819
-28.45003
-31.35046
-34.4202
-37.90228
-41.90569
-46.32704
-50.6488
-54.03119
-55.40506
-53.851
-48.98355
-41.14935
-31.39481
-21.06134
-11.40837
-3.174057
3.504059
8.88472
13.37534
17.27187
20.61371
23.27527
25.14696
26.21519
26.62828
26.70026
26.78673
27.17409
27.94942
29.02567
30.14809
31.04572
31.56662
31.67606
31.48849
31.09918
30.55057
29.74594
28.62163
27.06557
25.18066
23.13283
21.17293
19.49783
18.17656
17.1786
16.36032
15.601
14.72795
13.66443
12.34969
10.80362
9.089157
7.303116
5.53894
3.800781
1.990204
-0.1438293
-2.808685
-6.15152
-10.09172
-14.33839
-18.50194
-22.25287
-25.40596
-27.96811
-30.1772
-32.38393
-34.99283
-38.3638
-42.63135
-47.64372
-52.85658
-57.36394
-59.98874
-59.73224
-55.95078
-48.74939
-38.98012
-27.93364
-17.03523
-7.37735
0.4264526
6.361603
10.72379
13.99577
16.57294
18.67307
20.38754
21.65149
22.43228
22.69066
22.57281
22.30768
22.16261
22.34602
22.91171
23.79108
24.82208
25.87175
26.83441
27.68877
28.40335
28.91755
29.16223
29.04333
28.55932
27.71587
26.61152
25.35487
24.04149
22.69764
21.26505
19.64215
17.70644
15.45411
12.98083
10.52091
8.290619
6.440315
4.953659
3.702827
2.558479
1.400902
0.1581879
-1.255936
-2.947388
-5.056
-7.647125
-10.63351
-13.76518
-16.71133
-19.21063
-21.24191
-23.00903
-24.89262
-27.31498
-30.61452
-34.83607
-39.71778
-44.60968
-48.58628
-50.65804
-49.98023
-46.19143
-39.58282
-31.04645
-21.81187
-13.02187
-5.427361
0.6612167
5.349709
8.93763
11.72256
13.86535
15.47134
16.62045
17.44679
18.14587
18.84362
19.54273
20.21677
20.79733
21.23091
21.56857
21.92687
22.41619
23.1344
24.10933
25.19844
26.19714
26.85122
26.9162
26.30027
25.05333
23.32372
21.33587
19.31981
17.35515
15.42655
13.42425
11.2487
8.852131
6.269447
3.563572
0.8918228
-1.614361
-3.827114
-5.740936
-7.48167
-9.248272
-11.26068
-13.63399
-16.30949
-19.0739
-21.68438
-24.0264
-26.1755
-28.40954
-31.1081
-34.52732
-38.67252
-43.242
-47.60293
-50.87609
-52.18379
-50.82849
-46.52066
-39.5221
-30.56431
-20.70242
-11.04205
-2.518612
4.313488
9.294413
12.63041
14.76704
16.27061
17.60326
19.03176
20.56319
21.98986
23.10711
23.87004
24.38002
24.81473
25.26086
25.64977
25.81353
25.59918
25.01316
24.2328
23.48594
22.91956
22.52581
22.10126
21.47569
20.65124
19.72607
18.91182
18.34842
18.02375
17.76804
17.41551
16.78974
15.83297
14.56919
13.01175
11.23285
9.252659
7.059067
4.645845
2.117153
-0.3992271
-2.747633
-4.818079
-6.625969
-8.309324
-10.122
-12.35199
-15.10002
-18.26797
-21.58039
-24.67715
-27.25682
-29.2154
-30.67249
-31.93174
-33.46944
-35.65591
-38.79587
-42.9188
-47.62972
-52.08667
-55.17262
-55.75691
-53.0907
-47.13762
-38.53802
-28.57418
-18.61351
-9.798073
-2.73238
2.512886
6.237751
8.91431
10.95986
12.68932
14.26031
15.72818
17.05463
18.11789
18.81799
19.15012
19.23427
19.25038
19.45444
20.0527
21.14359
22.72423
24.6581
26.67505
28.52881
29.90051
30.52828
30.24411
29.09248
27.28047
25.14186
23.00837
21.09209
19.46616
18.04563
16.69863
15.31254
13.86501
12.35441
10.79898
9.199226
7.570404
5.929329
4.340263
2.883858
1.652237
0.6925659
-0.1292343
-0.9825668
-2.170975
-3.925812
-6.405693
-9.540985
-13.12778
-16.77401
-20.14076
-23.0255
-25.40487
-27.44263
-29.44895
-31.79158
-34.71285
-38.25582
-42.15109
-45.76867
-48.20479
-48.49587
-45.91223
-40.33803
-32.35417
-23.09042
-13.85233
-5.773964
0.5567322
5.098145
8.208176
10.38985
12.06454
13.52
14.88609
16.18498
17.39624
18.53043
19.59158
20.60071
21.55402
22.37801
22.98624
23.27698
23.22057
22.93908
22.6376
22.51273
22.56802
22.65411
22.49073
21.88777
20.85632
19.55455
18.26308
17.13101
16.12859
15.0378
13.59453
11.63416
9.22438
6.602493
4.015518
1.674591
-0.3331757
-2.068359
-3.675949
-5.313858
-7.152374
-9.282761
-11.73
-14.40746
-17.15802
-19.75136
-22.01859
-23.91612
-25.58415
-27.32213
-29.539
-32.61189
-36.60982
-41.19302
-45.56337
-48.58067
-49.06102
-46.27794
-40.11963
-31.33057
-21.23941
-11.29347
-2.673477
3.94455
8.515381
11.41472
13.17101
14.30162
15.16083
15.95714
16.72531
17.47603
18.11719
18.62466
18.93065
19.05501
19.04768
18.98843
18.99841
19.16714
19.53485
20.13419
20.99315
22.02536
23.12399
24.13033
24.81256
24.98119
24.55028
23.51709
22.00255
20.20244
18.23698
16.17032
14.04291
11.82585
9.545898
7.240448
4.877853
2.45813
0.007232666
-2.391418
-4.626953
-6.596161
-8.378479
-10.12628
-12.0535
-14.37762
-17.15414
-20.28549
-23.58844
-26.84825
-29.87178
-32.61188
-35.07048
-37.35799
-39.73557
-42.47023
-45.74225
-49.37328
-52.67303
-54.60561
-54.11421
-50.52081
-43.88963
-34.98436
-24.99936
-15.19496
-6.48819
0.7136383
6.358368
10.63164
13.78961
16.05356
17.58401
18.49434
18.87202
18.73289
18.19673
17.42204
16.63162
16.08311
15.96515
16.32355
17.12334
18.27394
19.67136
21.28815
23.01566
24.69302
26.05249
26.84085
26.83606
26.05243
24.62849
22.83955
20.9615
19.14655
17.44487
15.75575
13.99611
12.04781
9.941971
7.740784
5.557465
3.519577
1.647842
-0.1202087
-1.908783
-3.803162
-5.864288
-8.020599
-10.20306
-12.29854
-14.19223
-15.84151
-17.28453
-18.62
-19.99142
-21.58023
-23.54678
-26.1149
-29.42052
-33.31473
-37.37309
-40.76352
-42.46524
-41.5802
-37.65556
-30.89369
-22.12579
-12.60568
-3.500168
4.300201
10.4005
14.78955
17.67288
19.32639
20.03464
20.02368
19.48547
18.6244
17.58867
16.54715
15.62454
14.89645
14.38997
14.1429
14.17625
14.53017
15.2717
16.34839
17.64807
18.88095
19.68248
19.73219
18.92453
17.4017
15.50822
13.60187
11.87563
10.29132
8.683578
6.902023
4.94075
2.981308
1.197464
-0.3426514
-1.825729
-3.56752
-5.887955
-8.952362
-12.64857
-16.73639
-20.82924
-24.6524
-27.99174
-30.76126
-32.97809
-34.7415
-36.30916
-38.09138
-40.4702
-43.66109
-47.37263
-50.81281
-52.79819
-52.1395
-48.09506
-40.77386
-31.13837
-20.65709
-10.82886
-2.683014
3.428711
7.778976
10.84689
13.15041
14.9296
16.31046
17.41031
18.41658
19.56004
20.91873
22.45432
23.80939
24.61545
24.57878
23.76466
22.55511
21.49055
21.0177
21.23326
21.89914
22.54527
22.67493
22.02815
20.71394
19.02246
17.29662
15.74461
14.4285
13.25182
12.09723
10.87531
9.537369
8.116898
6.614777
4.990509
3.219147
1.276581
-0.9098206
-3.381088
-6.233093
-9.446991
-12.92754
-16.50175
-19.95398
-23.14828
-26.09087
-28.94264
-31.93889
-35.36975
-39.40576
-44.09415
-49.18277
-54.08223
-57.90144
-59.66011
-58.51736
-54.14359
-46.86081
-37.60117
-27.61612
-18.07956
-9.764374
-2.968994
2.350998
6.467896
9.675262
12.18947
14.14285
15.61153
16.6877
17.52582
18.25726
18.99319
19.82158
20.76747
21.81756
22.95445
24.14218
25.42546
26.86305
28.44014
30.04993
31.47092
32.40865
32.63402
32.06113
30.74421
28.92645
26.83692
24.64964
22.43291
20.15815
17.73885
15.0873
12.20419
9.132774
6.075699
3.295601
1.051308
-0.5383072
-1.533249
-2.223351
-2.983215
-4.192451
-6.079361
-8.659622
-11.74636
-15.05557
-18.32977
-21.43885
-24.44979
-27.50031
-30.8195
-34.60691
-38.90993
-43.59382
-48.23139
-52.10581
-54.31688
-53.99531
-50.56814
-44.05667
-35.13753
-24.92343
-14.65883
-5.350849
2.464603
8.657307
13.40971
16.9879
19.56181
21.25701
22.18696
22.54125
22.57908
22.54081
22.62922
22.90668
23.38051
23.95793
24.53164
25.10706
25.66468
26.26086
26.87646
27.396
27.58834
27.26261
26.30071
24.7515
22.89203
21.00373
19.38016
18.10803
17.08029
15.98325
14.55385
12.6515
10.3567
7.926672
5.585561
3.516817
1.658614
-0.1967545
-2.391682
-5.18899
-8.642463
-12.59649
-16.69909
-20.64978
-24.18995
-27.29368
-30.1787
-33.20536
-36.78315
-41.17696
-46.28843
-51.4981
-55.85986
-58.16356
-57.40564
-53.19112
-45.81562
-36.25925
-25.87446
-15.86873
-7.0438
0.2809105
6.209419
11.05051
15.0625
18.48374
21.44558
23.96104
25.99615
27.50632
28.46079
28.89375
28.99184
28.94038
28.96484
29.21035
29.67519
30.28703
30.91782
31.46139
31.83961
32.00333
31.89377
31.50852
30.82919
29.90651
28.83044
27.68803
26.56339
25.52487
24.53574
23.42914
22.00688
20.07571
17.55889
14.62135
11.5305
8.582176
6.047409
3.96138
2.129135
0.2542038
-1.929909
-4.615799
-7.732613
-11.0957
-14.48847
-17.69165
-20.6069
-23.34901
-26.16534
-29.36143
-33.30582
-38.19017
-44.09812
-50.78457
-57.6569
-63.66981
-67.56099
-68.16109
-64.74135
-57.46503
-47.21037
-35.51019
-23.92455
-13.65744
-5.294296
1.203186
6.23111
10.27855
13.76186
17.01091
20.16527
23.2345
26.12764
28.62271
30.57129
31.97057
32.9272
33.63872
34.36444
35.19647
36.12787
37.05498
37.73639
37.96693
37.60738
36.61282
35.03705
33.06819
30.96539
28.94745
27.19861
25.78333
24.68243
23.8474
23.11948
22.32756
21.31586
20.02187
18.51945
16.96771
15.53323
14.28169
13.09557
11.65912
9.72731
7.267914
4.476166
1.762817
-0.5468292
-2.330017
-3.783661
-5.274628
-7.205551
-9.768814
-12.87151
-16.29912
-19.74721
-23.04683
-26.15248
-29.21152
-32.39728
-35.95062
-40.09315
-44.87822
-50.17654
-55.36157
-59.45242
-61.21332
-59.66403
-54.40602
-45.87045
-35.22508
-23.93127
-13.34015
-4.26738
3.03067
8.705826
13.06519
16.4131
18.97105
20.85866
22.20251
23.11305
23.74268
24.23495
24.69995
25.23717
25.90376
26.68283
27.52452
28.45691
29.48586
30.74562
32.24796
33.8739
35.33224
36.18918
36.0742
34.80779
32.54836
29.6564
26.65186
23.96796
21.85822
20.31854
19.15849
18.09766
16.87178
15.3542
13.50266
11.36806
9.052429
6.637405
4.160187
1.608566
-1.04364
-3.850388
-6.869766
-10.17603
-13.80632
-17.75562
-21.90764
-26.05609
-30.02983
-33.68985
-37.13789
-40.67352
-44.66928
-49.32249
-54.48007
-59.51901
-63.33432
-64.74825
-62.76338
-57.04057
-47.97279
-36.68539
-24.55571
-12.91023
-2.688248
5.732773
12.37399
17.48611
21.34653
24.21902
26.21071
27.45889
28.13503
28.42444
28.47762
28.37558
28.09705
27.59061
26.98546
26.48552
26.41957
27.11278
28.70595
31.08136
33.80684
36.30002
38.00987
38.63687
38.11249
36.61497
34.47299
31.98328
29.37639
26.76505
24.15437
21.55385
19.01761
16.58824
14.30957
12.15495
9.988113
7.737122
5.36853
2.93898
0.5534058
-1.723846
-3.946091
-6.274902
-8.896347
-12.01552
-15.60085
-19.50398
-23.46497
-27.20406
-30.56212
-33.48288
-36.07773
-38.56898
-41.31161
-44.62711
-48.77939
-53.74416
-59.09987
-63.97667
-67.21825
-67.65829
-64.54495
-57.81252
-48.10226
-36.63193
-24.80763
-13.89883
-4.709152
2.429199
7.69371
11.51364
14.40331
16.79965
19.00667
21.18068
23.3127
25.32976
27.0872
28.459
29.36862
29.81226
29.86552
29.70166
29.61385
29.83437
30.53731
31.68307
33.08952
34.4944
35.651
36.37006
36.48772
36.01869
34.99197
33.51976
31.78375
29.93698
28.13174
26.47058
24.95705
23.44267
21.76291
19.70718
17.14865
14.09593
10.58452
6.741531
2.686371
-1.434265
-5.475845
-9.295593
-12.79382
-15.95451
-18.81798
-21.53737
-24.22319
-26.89798
-29.4554
-31.76636
-33.79152
-35.57648
-37.36784
-39.46519
-42.21408
-45.79131
-50.08304
-54.57481
-58.31326
-60.15479
-59.05055
-54.44673
-46.5535
-36.31187
-25.06792
-14.21341
-4.784363
2.745834
8.363037
12.37039
15.15977
17.11661
18.54147
19.65431
20.58009
21.38887
22.13286
22.84273
23.57468
24.37454
25.28055
26.30141
27.36615
28.42218
29.42619
30.30843
30.91318
31.09866
30.70154
29.64314
28.0274
26.07051
24.05788
22.24643
20.74701
19.39885
17.90714
15.92719
13.17924
9.611389
5.448441
1.06955
-3.131821
-6.86882
-10.10884
-12.95262
-15.51807
-17.84451
-19.85249
-21.43231
-22.60825
-23.57042
-24.64803
-26.2059
-28.59924
-32.04256
-36.5963
-42.00443
-47.69215
-52.68987
-55.79446
-55.88771
-52.31265
-45.13725
-35.19659
-23.83801
-12.44814
-2.126022
6.471176
13.14128
17.98003
21.27895
23.37753
24.65977
25.4113
25.84911
26.1057
26.20398
26.16757
26.04231
25.90598
25.8333
25.91121
26.16621
26.58124
27.15683
27.82816
28.45949
28.88722
28.88068
28.27109
27.0242
25.29852
23.37456
21.55991
19.98064
18.48877
16.80177
14.59599
11.75189
8.406281
4.878113
1.465744
-1.691635
-4.652802
-7.659836
-10.87134
-14.29739
-17.77187
-21.05798
-24.01961
-26.66501
-29.15489
-31.63885
-34.31935
-37.34758
-40.8868
-45.10922
-50.03023
-55.38869
-60.47864
-64.20744
-65.32796
-62.97963
-56.90053
-47.68355
-36.5739
-24.96989
-14.11833
-4.75705
2.874527
8.926636
13.69328
17.51736
20.66605
23.27907
25.46765
27.27562
28.65152
29.55307
29.99347
30.04012
29.84676
29.60336
29.43771
29.48972
29.84332
30.47705
31.28619
32.11707
32.72017
32.87016
32.38992
31.2524
29.56448
27.50598
25.25208
22.94597
20.65308
18.32439
15.83974
13.136
10.2312
7.254669
4.35553
1.686905
-0.7328796
-2.978409
-5.255829
-7.759109
-10.58176
-13.73004
-17.08047
-20.44879
-23.66608
-26.62323
-29.32158
-31.89174
-34.53516
-37.47621
-41.00374
-45.33424
-50.41527
-55.82988
-60.7113
-63.82167
-63.938
-60.26357
-52.79666
-42.39857
-30.54507
-18.79639
-8.410782
0.02218628
6.500381
11.37636
15.05486
17.86932
20.03625
21.77144
23.31203
24.78566
26.27367
27.70375
28.95709
29.95078
30.73094
31.39694
32.09084
32.90265
33.75475
34.53831
35.07745
35.20744
34.78821
33.74699
32.02394
29.67253
26.90369
24.01671
21.40311
19.35115
17.98378
17.16386
16.55586
15.75877
14.48016
12.70325
10.59012
8.425964
6.338364
4.253723
1.9375
-0.9028931
-4.451157
-8.664856
-13.24178
-17.79593
-21.93269
-25.47508
-28.41837
-30.97121
-33.43529
-36.14832
-39.39325
-43.1669
-47.1584
-50.64566
-52.63159
-52.13449
-48.55524
-41.87773
-32.80034
-22.53801
-12.37155
-3.3302
4.115616
10.06956
14.93372
19.14308
22.94638
26.32251
29.07343
30.99854
32.02336
32.27472
31.98048
31.38924
30.63277
29.79555
28.98901
28.33929
28.06027
28.27563
29.02208
30.11411
31.21886
31.90274
31.87709
31.03206
29.49307
27.58408
25.56551
23.65237
21.84952
20.08768
18.23972
16.29881
14.30518
12.38142
10.61244
8.914505
7.15686
5.14502
2.862381
0.4275513
-1.899353
-3.902908
-5.619354
-7.272919
-9.244507
-11.81481
-15.01587
-18.60412
-22.2122
-25.55029
-28.49875
-31.20861
-33.89952
-36.82799
-40.31079
-44.53242
-49.6262
-55.43743
-61.34953
-66.23867
-68.77177
-67.73247
-62.59932
-53.80376
-42.5348
-30.36461
-18.69353
-8.443398
0.04093933
6.76873
11.9679
15.87326
18.72208
20.75915
22.22298
23.33022
24.2181
24.95805
25.58509
26.11602
26.62525
27.11397
27.57534
27.97522
28.32365
28.71429
29.2009
29.80083
30.40768
30.85109
30.91962
30.56159
29.78619
28.77278
27.72997
26.74687
25.83602
24.88513
23.76208
22.33683
20.61782
18.68918
16.70828
14.87652
13.3194
12.1034
11.15111
10.34724
9.542381
8.654312
7.633209
6.465851
5.141579
3.64315
1.931526
-0.1548767
-2.717567
-5.822304
-9.472
-13.57485
-17.95441
-22.38574
-26.63748
-30.45707
-33.7546
-36.51847
-38.91353
-41.28236
-44.06134
-47.5912
-51.94047
-56.7222
-60.99462
-63.46601
-62.89128
-58.56118
-50.62511
-40.0472
-28.33138
-16.97651
-7.043781
1.089638
7.541466
12.70633
16.9114
20.2507
22.73073
24.30431
25.05191
25.1368
24.79153
24.18061
23.42214
22.61877
21.8563
21.33017
21.20334
21.64957
22.67559
24.12361
25.66735
26.93982
27.6544
27.65454
27.0107
25.88366
24.5295
23.12396
21.72587
20.32928
18.88045
17.36697
15.77183
14.16913
12.59798
11.08395
9.650286
8.291933
7.036642
5.853311
4.729848
3.579587
2.333332
0.9215636
-0.7511883
-2.713548
-5.00109
-7.55353
-10.33178
-13.23764
-16.20717
-19.19678
-22.15591
-25.10256
-27.97379
-30.80156
-33.65909
-36.75596
-40.23927
-44.08507
-47.86864
-50.71937
-51.52277
-49.23355
-43.45952
-34.58938
-23.8515
-12.74807
-2.674753
5.503815
11.58951
15.77381
18.51919
20.14277
20.90211
20.94533
20.45896
19.70779
18.90898
18.27883
17.85559
17.60712
17.48719
17.44431
17.53099
17.81202
18.37338
19.22596
20.35434
21.57586
22.67916
23.45953
23.75191
23.51158
22.75579
21.59535
20.1985
18.82788
17.66396
16.7799
16.09047
15.33614
14.26164
12.60475
10.29125
7.421021
4.27179
1.193413
-1.550789
-3.833336
-5.78318
-7.584702
-9.518967
-11.81483
-14.5128
-17.58165
-20.80389
-23.95978
-26.87353
-29.48034
-31.79585
-33.91614
-36.04224
-38.40271
-41.24966
-44.69896
-48.51202
-51.98788
-54.07612
-53.58583
-49.67246
-42.23609
-32.00858
-20.43817
-9.168861
0.4967499
7.92495
13.12466
16.49857
18.52657
19.55128
19.85152
19.63776
19.21493
18.89046
18.82848
19.02077
19.23428
19.18451
18.71054
17.94772
17.19114
16.81423
17.07626
17.97799
19.26777
20.64365
21.78609
22.47305
22.65244
22.35318
21.6362
20.61963
19.40269
18.04578
16.66014
15.28333
13.90948
12.51842
11.05054
9.437042
7.644455
5.677979
3.622375
1.604614
-0.1999512
-1.663101
-2.800186
-3.799408
-4.963333
-6.582016
-8.86618
-11.82939
-15.26744
-18.86787
-22.32201
-25.40132
-28.06184
-30.41032
-32.6675
-35.13919
-38.1505
-41.83537
-46.05847
-50.33618
-53.8065
-55.48193
-54.50026
-50.36258
-43.19893
-33.7256
-23.11183
-12.64738
-3.43364
3.877701
9.0952
12.41489
14.29144
15.26056
15.82539
16.25867
16.67303
17.0023
17.17213
17.15756
17.03444
17.00714
17.27911
17.95621
19.01704
20.30827
21.645
22.91154
24.00839
24.8093
25.20831
25.06107
24.25684
22.84543
20.98788
18.9561
17.03331
15.37027
13.95943
12.6344
11.15736
9.317413
7.056595
4.475235
1.787552
-0.7287598
-2.902939
-4.723389
-6.352097
-8.010605
-9.979309
-12.36598
-15.11368
-17.99013
-20.65068
-22.82187
-24.41243
-25.54971
-26.53944
-27.8179
-29.76253
-32.59059
-36.20981
-40.13936
-43.56923
-45.54597
-45.16357
-41.92545
-35.91066
-27.81694
-18.78459
-10.04308
-2.46759
3.521835
7.972778
11.23076
13.58994
15.2507
16.26384
16.67216
16.56454
16.23477
15.99658
16.09235
16.62788
17.4908
18.53014
19.64964
20.80357
22.01376
23.27089
24.45316
25.33534
25.67967
25.25418
23.96756
21.94722
19.3764
16.5616
13.79967
11.29164
9.122452
7.227432
5.396042
3.441666
1.318176
-0.8579559
-2.844254
-4.430161
-5.554642
-6.369339
-7.198792
-8.382645
-10.08762
-12.31831
-14.9044
-17.60977
-20.32181
-23.03528
-25.85565
-28.9427
-32.51959
-36.71883
-41.63351
-47.13295
-52.70294
-57.52451
-60.51624
-60.6837
-57.39835
-50.73338
-41.44598
-30.82401
-20.21588
-10.73018
-2.975143
2.985809
7.400269
10.79015
13.6266
16.2446
18.77483
21.24014
23.53329
25.48596
27.02361
28.08358
28.75258
29.18464
29.49796
29.76086
29.97215
30.11251
30.12408
29.97954
29.62489
28.96659
27.91121
26.36517
24.3886
22.15285
19.99571
18.29181
17.25285
16.8035
16.58559
16.13967
15.04436
13.19691
10.70162
7.900787
5.077255
2.391426
-0.1926498
-2.806488
-5.567574
-8.53257
-11.70262
-15.04505
-18.46938
-21.88976
-25.12738
-28.06892
-30.63918
-32.95579
-35.28378
-37.9602
-41.31573
-45.42295
-50.05397
-54.51476
-57.84575
-58.94104
-56.9736
-51.64268
-43.3616
-33.2254
-22.61996
-12.88802
-4.850113
1.232246
5.629692
8.862
11.43811
13.72713
15.88255
17.98744
20.03875
22.03858
23.96972
25.76093
27.33154
28.62338
29.64258
30.42393
31.09109
31.74785
32.47858
33.26475
33.95617
34.3612
34.22856
33.45349
32.0596
30.2448
28.25028
26.37515
24.77094
23.36184
22.05697
20.62206
18.8868
16.74033
14.17091
11.2791
8.272593
5.370481
2.713594
0.3736858
-1.752897
-3.894827
-6.299988
-9.10511
-12.23251
-15.44112
-18.444
-21.00449
-23.00467
-24.57296
-26.01464
-27.71358
-29.99649
-33.02325
-36.67171
-40.49841
-43.75571
-45.44762
-44.75947
-41.19217
-34.79889
-26.28598
-16.76047
-7.415129
0.8035886
7.437557
12.45714
16.08909
18.69102
20.5627
21.83197
22.54865
22.71751
22.37901
21.64632
20.66289
19.66056
18.91036
18.66973
19.02143
19.98116
21.45543
23.29883
25.35262
27.47446
29.47882
31.0994
32.06774
32.09766
31.11831
29.28857
26.93241
24.37099
21.87337
19.50908
17.17483
14.72939
12.05498
9.167627
6.219004
3.333958
0.6017895
-2.019455
-4.675188
-7.50458
-10.62403
-13.98815
-17.49081
-20.92206
-24.08711
-26.8779
-29.33265
-31.62574
-34.02062
-36.84445
-40.38933
-44.7868
-49.82192
-54.83015
-58.76196
-60.47453
-59.15657
-54.57809
-47.21487
-38.06068
-28.2951
-18.8739
-10.40684
-3.0912
3.152573
8.445168
12.91652
16.70175
19.91843
22.71085
25.24968
27.59362
29.72355
31.56719
32.97149
33.78403
33.94493
33.51023
32.6404
31.63836
30.755
30.16692
29.92517
29.96291
30.07012
30.08454
29.90761
29.46434
28.76994
27.78973
26.46059
24.72748
22.6545
20.35309
18.01969
15.76492
13.59868
11.4566
9.188236
6.766594
4.268162
1.896122
-0.1204872
-1.668282
-2.841438
-3.907719
-5.179359
-6.950138
-9.331417
-12.25249
-15.59987
-19.18173
-22.85621
-26.51641
-30.08584
-33.52629
-36.89359
-40.37693
-44.19774
-48.53827
-53.26887
-57.71523
-60.81365
-61.37352
-58.53072
-52.17156
-43.0091
-32.40122
-21.85986
-12.57534
-5.072086
0.6983795
5.163063
8.808369
12.04144
15.03619
17.84332
20.4129
22.64043
24.41759
25.61582
26.1975
26.26861
26.0667
25.84848
25.82581
26.12057
26.73044
27.59632
28.61225
29.70289
30.78163
31.70953
32.37062
32.61086
32.36297
31.6504
30.54929
29.13216
27.47774
25.68073
23.7768
21.8522
20.00783
18.25052
16.54545
14.80415
12.91997
10.89308
8.764709
6.597771
4.479996
2.426605
0.3923264
-1.7174
-3.991394
-6.470062
-9.189026
-12.16388
-15.39089
-18.73495
-22.03556
-25.09866
-27.85645
-30.39312
-32.98042
-36.00256
-39.76364
-44.3272
-49.27851
-53.7694
-56.62207
-56.70255
-53.28658
-46.41224
-36.8463
-25.86184
-14.81702
-4.822357
3.519897
10.02618
14.7804
17.98965
19.88105
20.7268
20.90559
20.78093
20.67233
20.75397
21.01677
21.41464
21.89983
22.5479
23.46411
24.73447
26.311
28.01262
29.58216
30.73846
31.30031
31.17656
30.38174
28.96095
27.03588
24.77038
22.38622
20.21446
18.44483
17.12495
16.10153
15.01658
13.54638
11.53059
9.018837
6.233765
3.481392
0.9182549
-1.474884
-3.885788
-6.528603
-9.486637
-12.73647
-16.12698
-19.48907
-22.69628
-25.64724
-28.35965
-30.92179
-33.44864
-36.10892
-39.1319
-42.7007
-46.81031
-51.09478
-54.79242
-56.9003
-56.40847
-52.76614
-46.02098
-36.9353
-26.72974
-16.7224
-7.896355
-0.7234612
4.800407
9.08268
12.57286
15.6703
18.53177
21.17509
23.47765
25.35178
26.76644
27.7445
28.36857
28.67402
28.68842
28.40775
27.96466
27.47881
27.13752
27.0966
27.37986
27.92458
28.50835
28.90483
28.95501
28.6152
27.90512
26.91595
25.7647
24.53105
23.30096
22.00579
20.53104
18.76611
16.61617
14.04107
11.09805
7.93
4.747871
1.815548
-0.7373276
-2.882336
-4.731228
-6.530613
-8.541149
-11.00483
-13.97961
-17.41919
-21.06773
-24.65275
-27.9393
-30.7915
-33.27769
-35.56763
-37.99175
-40.93271
-44.71321
-49.33748
-54.36854
-58.89153
-61.68661
-61.65501
-58.1422
-51.26643
-41.90221
-31.38491
-21.11201
-12.12112
-4.95105
0.3512726
4.061108
6.651291
8.618488
10.37749
12.26316
14.41558
16.85305
19.45127
22.02884
24.40332
26.45369
28.09896
29.31157
30.12012
30.53415
30.71145
30.81398
30.99208
31.25996
31.46621
31.3525
30.69352
29.41667
27.56711
25.44578
23.35711
21.5883
20.31052
19.48096
18.91327
18.31293
17.42461
15.99352
13.96443
11.40871
8.52758
5.578705
2.826042
0.3950386
-1.731651
-3.72443
-5.822662
-8.171547
-10.83403
-13.69194
-16.51686
-19.05577
-21.22663
-23.08239
-24.8935
-26.98506
-29.65141
-33.16198
-37.47935
-42.3002
-46.89658
-50.25143
-51.22079
-49.00358
-43.41523
-35.02724
-25.11697
-15.11617
-6.266251
0.7536316
5.881939
9.505703
12.10076
14.03155
15.48467
16.46052
16.99828
17.2075
17.2711
17.43668
17.90338
18.76085
19.95562
21.36234
22.78668
24.13428
25.36217
26.48772
27.53456
28.37864
28.8234
28.57086
27.46689
25.52586
23.04779
20.40978
17.97431
15.94757
14.20512
12.5167
10.59132
8.345806
5.895973
3.55278
1.58453
0.1284981
-0.8674965
-1.698349
-2.672115
-4.098564
-6.165161
-8.895313
-12.15476
-15.76817
-19.46218
-22.99768
-26.21871
-29.06675
-31.71566
-34.45483
-37.64769
-41.50601
-45.96265
-50.44825
-54.01769
-55.54071
-54.03273
-49.18447
-41.38784
-31.65598
-21.35159
-11.71259
-3.541767
2.855034
7.611721
11.11766
13.77517
15.98203
18.04204
20.08869
22.10927
24.00132
25.61023
26.82204
27.67731
28.23538
28.64589
29.03598
29.41718
29.8138
30.25784
30.7612
31.32547
31.91621
32.27999
32.20096
31.47117
29.99693
27.97799
25.69816
23.444
21.47672
19.8716
18.48067
17.10587
15.4965
13.49667
11.10855
8.401527
5.513182
2.624842
-0.1594639
-2.84136
-5.481003
-8.214243
-11.1312
-14.1911
-17.28322
-20.2655
-22.97278
-25.40504
-27.68689
-30.03418
-32.79177
-36.20704
-40.4237
-45.38762
-50.72272
-55.62605
-59.07751
-60.01472
-57.63225
-51.81862
-43.11562
-32.66434
-21.85846
-11.89378
-3.462839
3.224068
8.383089
12.39675
15.53483
18.00504
19.90712
21.30036
22.33558
23.16275
23.89013
24.56651
25.1955
25.7
26.13688
26.57998
27.1445
27.88622
28.73854
29.52603
30.07867
30.24752
29.93898
29.17829
28.00703
26.46412
24.56988
22.37846
20.038
17.79237
15.88365
14.36368
13.1589
12.00717
10.64771
8.895468
6.836346
4.71908
2.845916
1.414714
0.3556106
-0.5990882
-1.817707
-3.627072
-6.174507
-9.35031
-12.85436
-16.32787
-19.48963
-22.26083
-24.77447
-27.32389
-30.24194
-33.80325
-38.07503
-42.80199
-47.35793
-50.74318
-51.8741
-49.91425
-44.64362
-36.54276
-26.74194
-16.60323
-7.350791
0.3118944
6.275137
10.79877
14.21793
16.77309
18.54919
19.61447
20.07704
20.11184
19.96265
19.84646
19.83372
19.88956
19.96194
20.08142
20.42081
21.16415
22.35505
23.83392
25.22873
26.06702
26.05182
25.14378
23.50447
21.45721
19.26701
17.15482
15.19831
13.4223
11.79507
10.26599
8.764378
7.20829
5.619709
4.077469
2.720516
1.59066
0.5575027
-0.6382523
-2.301994
-4.660809
-7.70446
-11.19896
-14.82618
-18.27996
-21.43862
-24.39705
-27.38975
-30.70383
-34.61152
-39.15675
-44.1259
-48.94604
-52.76103
-54.50278
-53.26762
-48.61295
-40.76126
-30.64278
-19.58514
-9.008759
0.03401566
6.983925
11.91252
15.2205
17.46128
19.08257
20.29665
21.16901
21.63488
21.69071
21.45474
21.15101
21.0195
21.20123
21.64862
22.15501
22.51836
22.64022
22.56525
22.42357
22.2434
21.97455
21.40449
20.37044
18.76963
16.77446
14.7273
12.99213
11.81306
11.14787
10.78225
10.35839
9.622192
8.437164
6.864822
5.124908
3.416534
1.882523
0.5001907
-0.8416061
-2.359283
-4.269203
-6.701508
-9.698898
-13.10621
-16.67735
-20.08253
-23.11095
-25.75301
-28.21594
-30.85565
-34.04985
-38.04779
-42.78853
-47.84523
-52.34889
-55.24304
-55.51895
-52.53996
-46.26958
-37.37271
-27.09438
-16.80827
-7.705635
-0.4551849
4.861374
8.547943
11.09134
12.97636
14.52922
15.94468
17.31601
18.67503
20.01327
21.27325
22.43156
23.48292
24.43808
25.3167
26.12817
26.86561
27.5023
28.02975
28.33612
28.34181
27.94381
27.05698
25.66152
23.8767
21.92287
20.03585
18.4577
17.28246
16.52684
16.06877
15.724
15.24551
14.42028
13.05181
11.02338
8.427223
5.465103
2.461868
-0.3274689
-2.799736
-5.0588
-7.368744
-10.01119
-13.18333
-16.81961
-20.70477
-24.48306
-27.87431
-30.76147
-33.1441
-35.26933
-37.40654
-39.92133
-43.04493
-46.87285
-51.0675
-54.91451
-57.44199
-57.5587
-54.57412
-48.37114
-39.58283
-29.33569
-19.00591
-9.693748
-2.018501
3.831001
8.084564
11.09843
13.21767
14.71741
15.84761
16.77323
17.62418
18.49174
19.34724
20.16339
20.88095
21.46998
21.92992
22.27068
22.54087
22.77274
23.05817
23.42793
23.91901
24.44637
24.86047
24.95455
24.57964
23.72426
22.49091
21.11702
19.78934
18.64162
17.65244
16.6508
15.46716
13.9587
12.03208
9.734406
7.253265
4.786163
2.554718
0.6855087
-0.8655624
-2.228363
-3.64502
-5.324181
-7.386185
-9.735374
-12.19054
-14.55215
-16.66547
-18.5182
-20.17659
-21.87589
-23.8766
-26.43398
-29.70057
-33.69924
-38.1768
-42.57984
-46.09553
-47.7501
-46.76956
-42.81427
-36.12841
-27.51569
-18.13213
-9.118736
-1.273979
4.992455
9.782669
13.36642
16.05318
18.06107
19.44702
20.21333
20.33407
19.96555
19.23624
18.38558
17.57717
16.95357
16.59999
16.57922
17.04087
18.04052
19.59153
21.47312
23.32769
24.69286
25.22868
24.78809
23.44434
21.53268
19.38629
17.29799
15.39573
13.69958
12.12646
10.56291
8.948555
7.196007
5.330994
3.410538
1.558258
-0.1625671
-1.734978
-3.267159
-4.985825
-7.03804
-9.552605
-12.45068
-15.56944
-18.65366
-21.53435
-24.15102
-26.62651
-29.23438
-32.28728
-36.06894
-40.56425
-45.43182
-49.89264
-52.9514
-53.65646
-51.41942
-46.22631
-38.62061
-29.65339
-20.36484
-11.64008
-4.007088
2.404419
7.726624
12.17642
15.97478
19.2528
21.99688
24.21442
25.88638
27.0556
27.86622
28.46929
28.97614
29.41326
29.72157
29.80598
29.71478
29.51559
29.3667
29.38781
29.51032
29.49464
29.0819
28.0666
26.48131
24.59256
22.7306
21.15704
20.04995
19.32921
18.84702
18.40843
17.79403
16.8401
15.45463
13.56838
11.19552
8.452408
5.534904
2.721481
0.2594681
-1.725479
-3.214371
-4.307114
-5.243614
-6.273087
-7.650024
-9.577568
-12.10323
-15.14175
-18.48916
-21.89893
-25.11028
-28.05112
-30.77332
-33.51595
-36.6689
-40.57997
-45.31509
-50.54771
-55.47224
-58.94447
-59.80248
-57.23666
-51.16364
-42.22227
-31.65191
-20.80658
-10.80927
-2.334869
4.393044
9.531494
13.39178
16.31032
18.6209
20.56047
22.27095
23.80709
25.0599
25.91576
26.30168
26.24368
25.92671
25.56535
25.39546
25.55662
26.07811
26.88497
27.82762
28.71092
29.3246
29.48316
29.05536
28.01896
26.4546
24.53073
22.43251
20.38239
18.59134
17.19436
16.23125
15.61609
15.17769
14.72603
14.16753
13.47361
12.75731
12.12265
11.55973
10.98148
10.20168
9.040977
7.45063
5.517517
3.454887
1.460815
-0.3729248
-2.107605
-3.927185
-6.046478
-8.678513
-11.93076
-15.71081
-19.75783
-23.73444
-27.36227
-30.55999
-33.45264
-36.31997
-39.54144
-43.34632
-47.74992
-52.39447
-56.63428
-59.58658
-60.35163
-58.26543
-53.0993
-45.18616
-35.35026
-24.7901
-14.6413
-5.8386
1.190651
6.461731
10.23561
12.93398
14.91962
16.48457
17.80492
19.01881
20.18657
21.33289
22.38031
23.19566
23.74626
24.04887
24.22469
24.34413
24.49176
24.70471
24.99644
25.38531
25.76897
26.06356
26.07243
25.66996
24.75571
23.48299
22.06494
20.76084
19.71684
18.87173
18.0952
17.17959
16.06465
14.78332
13.51536
12.39737
11.47806
10.72401
9.932953
8.891983
7.415504
5.439369
3.064529
0.4900513
-2.119629
-4.642159
-7.049507
-9.424339
-11.85899
-14.40444
-17.00344
-19.49933
-21.75753
-23.66425
-25.25425
-26.61234
-28.0221
-29.76515
-32.10822
-35.1789
-38.91621
-42.99673
-46.77264
-49.36015
-49.7894
-47.41318
-42.08311
-34.29875
-25.12221
-15.81387
-7.453186
-0.6305084
4.56443
8.403183
11.19307
13.21234
14.58952
15.39476
15.68233
15.58239
15.27268
14.88621
14.57331
14.42924
14.58549
15.11556
16.04112
17.34118
18.91743
20.61388
22.26029
23.66879
24.62297
24.99303
24.63379
23.48666
21.70905
19.60822
17.5285
15.79533
14.55847
13.67815
12.8899
11.87423
10.3647
8.340813
5.977905
3.513206
1.19648
-0.8352509
-2.586327
-4.197311
-5.84436
-7.715286
-9.867966
-12.32021
-14.93414
-17.55275
-20.04562
-22.36496
-24.57921
-26.85556
-29.42491
-32.45816
-36.04211
-39.94933
-43.63734
-46.2807
-47.02
-45.12732
-40.38255
-33.17851
-24.37404
-15.08122
-6.369789
1.04718
6.874969
11.16446
14.20615
16.3543
17.88263
18.97709
19.75291
20.2179
20.41367
20.36201
20.13342
19.75038
19.33614
19.03098
18.97981
19.33727
20.13798
21.35452
22.78423
24.18113
25.22058
25.71865
25.54324
24.68443
23.24631
21.39792
19.42394
17.55943
16.01555
14.83808
13.91566
13.00515
11.76829
10.00142
7.614731
4.776497
1.749084
-1.180305
-3.828217
-6.223938
-8.501762
-10.93014
-13.66773
-16.76785
-20.09554
-23.3811
-26.37026
-28.90344
-31.02431
-32.95612
-35.03199
-37.49589
-40.52198
-44.09949
-47.93216
-51.46058
-53.8651
-54.18366
-51.61161
-45.87617
-37.35368
-27.08852
-16.52094
-6.994865
0.6284866
6.098412
9.7285
12.11823
13.79903
15.12163
16.27953
17.36506
18.46991
19.63985
20.91634
22.28025
23.64618
24.92638
25.99641
26.76661
27.26897
27.59814
27.83086
28.02493
28.18456
28.19444
27.91171
27.24184
26.14408
24.74889
23.29554
21.98712
20.9216
20.04512
19.14567
17.96189
16.33167
14.17575
11.56309
8.676346
5.736267
2.976311
0.6011887
-1.294746
-2.704185
-3.83033
-5.024994
-6.673988
-9.046951
-12.18027
-15.80592
-19.49816
-22.87302
-25.71243
-28.13191
-30.49154
-33.24434
-36.79164
-41.34373
-46.69633
-52.25862
-57.10232
-60.08451
-60.18201
-56.83839
-50.1263
-40.80288
-30.12295
-19.37325
-9.581902
-1.370567
5.153969
10.15468
13.95557
16.9018
19.26752
21.24293
22.98824
24.58171
25.9938
27.21054
28.16028
28.85556
29.32381
29.64246
29.90389
30.21442
30.64608
31.18617
31.78757
32.23925
32.29572
31.70634
30.34686
28.24151
25.60694
22.7733
20.04079
17.70584
15.82372
14.34451
13.10109
11.94639
10.80896
9.694931
8.681282
7.806412
7.134071
6.593887
6.069855
5.382828
4.309799
2.618088
0.05238342
-3.493401
-7.954994
-13.01232
-18.22285
-23.12135
-27.46343
-31.24265
-34.70865
-38.29272
-42.33238
-46.98908
-52.07848
-57.0235
-60.87267
-62.55627
-61.16806
-56.29775
-48.26694
-38.07615
-27.13819
-16.82818
-8.145969
-1.409332
3.629894
7.442295
10.52268
13.13181
15.31718
17.01571
18.2123
18.97396
19.454
19.78121
20.01686
20.17613
20.21874
20.18222
20.19466
20.3788
20.84312
21.57984
22.45216
23.25055
23.81715
24.00061
23.75278
23.15416
22.33245
21.45375
20.64534
19.92262
19.08663
17.88379
16.0196
13.31789
9.933098
6.241579
2.759266
-0.1519794
-2.361622
-4.077875
-5.657219
-7.380653
-9.368244
-11.475
-13.48704
-15.21339
-16.62488
-17.90626
-19.33538
-21.19866
-23.69974
-26.95991
-30.96213
-35.56237
-40.36578
-44.63306
-47.38827
-47.66701
-44.80843
-38.79967
-30.30072
-20.45247
-10.51882
-1.520029
6.018952
12.01453
16.63949
20.08392
22.46545
23.79475
24.12329
23.59175
22.48041
21.17379
20.0244
19.31864
19.18561
19.59233
20.42947
21.54874
22.82686
24.12356
25.33991
26.30782
26.85632
26.85274
26.18468
24.82219
22.92129
20.66928
18.27275
15.87911
13.55441
11.27888
9.026556
6.814737
4.659868
2.618423
0.7272358
-1.052561
-2.825514
-4.733801
-6.900026
-9.382233
-12.16156
-15.148
-18.22331
-21.2775
-24.28881
-27.3826
-30.80046
-34.80692
-39.51223
-44.66879
-49.54461
-53.05467
-54.07472
-51.78113
-46.04499
-37.54115
-27.48452
-17.2758
-8.037788
-0.3998299
5.55621
10.11061
13.64671
16.5034
18.85129
20.70386
22.04419
22.90076
23.33656
23.48729
23.54791
23.649
23.93497
24.41853
25.09294
25.98827
27.16395
28.66489
30.4229
32.25811
33.79978
34.7174
34.70176
33.66724
31.74387
29.15944
26.24298
23.27938
20.52563
18.07853
15.92651
13.91863
11.8378
9.536304
6.980175
4.297276
1.75206
-0.4169121
-2.158604
-3.613983
-5.10162
-6.940861
-9.287758
-12.14064
-15.25533
-18.37823
-21.3641
-24.22107
-27.10863
-30.24384
-33.87925
-38.16257
-43.13612
-48.57087
-53.911
-58.32151
-60.74558
-60.25708
-56.37526
-49.32421
-39.96284
-29.57631
-19.42129
-10.41315
-2.961533
2.995193
7.753311
11.62752
14.84817
17.53439
19.72806
21.48288
22.78889
23.70578
24.29774
24.64823
24.90071
25.18335
25.5632
26.09176
26.7408
27.47969
28.2774
29.15004
30.03757
30.8665
31.51381
31.80859
31.6797
31.12612
30.24244
29.16807
28.01195
26.78601
25.44389
23.89342
22.05121
19.92672
17.54788
15.0323
12.54979
10.27241
8.358459
6.861504
5.718269
4.748268
3.765259
2.608376
1.208977
-0.4423599
-2.398003
-4.727699
-7.545944
-10.8668
-14.62077
-18.56168
-22.38997
-25.83785
-28.77998
-31.28752
-33.58995
-36.01657
-38.90947
-42.4842
-46.69512
-51.1713
-55.16619
-57.71833
-57.91218
-55.18072
-49.54163
-41.602
-32.37444
-22.99444
-14.34785
-6.975876
-1.007713
3.730965
7.555283
10.76746
13.63403
16.28685
18.67934
20.73356
22.26022
23.21549
23.664
23.78125
23.78078
23.88648
24.21719
24.82904
25.76176
26.93851
28.25501
29.45674
30.28336
30.51497
30.05956
28.99204
27.58395
26.13231
24.86282
23.87549
23.06064
22.2813
21.41667
20.41248
19.23372
17.88587
16.31747
14.4521
12.25806
9.768082
7.16423
4.674004
2.442841
0.446991
-1.52076
-3.746017
-6.471931
-9.723007
-13.29761
-16.86501
-20.04841
-22.6812
-24.74828
-26.46302
-28.1185
-30.0293
-32.49253
-35.70034
-39.6111
-43.8192
-47.55295
-49.74036
-49.41548
-46.03592
-39.76551
-31.43304
-22.25436
-13.4348
-5.763351
0.4324417
5.257607
9.032745
12.0679
14.55443
16.63083
18.38128
19.81753
20.97435
21.82717
22.39313
22.73149
22.93139
23.11203
23.38729
23.85861
24.5494
25.44781
26.42623
27.3295
27.93648
28.03772
27.49863
26.28853
24.51081
22.43583
20.3815
18.64833
17.38342
16.56633
15.99402
15.37844
14.5056
13.19436
11.45281
9.362762
7.067833
4.683086
2.351585
0.1271667
-1.969334
-4.000233
-6.185535
-8.725243
-11.74802
-15.19959
-18.85706
-22.35931
-25.45188
-28.03001
-30.21807
-32.28986
-34.49899
-37.12073
-40.30541
-44.04301
-48.0399
-51.62166
-53.84701
-53.70437
-50.54238
-44.31072
-35.71784
-25.95351
-16.32968
-7.851822
-0.9866505
4.274914
8.274033
11.39164
13.98071
16.29216
18.40509
20.36107
22.04315
23.29887
24.0197
24.24331
24.07383
23.69936
23.31783
23.06438
23.07506
23.3532
23.90572
24.62175
25.38337
25.97618
26.24355
26.10614
25.57242
24.72294
23.63404
22.37033
20.9522
19.40409
17.78631
16.24596
14.88807
13.78853
12.90415
12.08982
11.14643
9.905965
8.252096
6.236985
4.020018
1.713127
-0.6578951
-3.188429
-6.079148
-9.519796
-13.48808
-17.76041
-21.86594
-25.36815
-28.01154
-29.92408
-31.48841
-33.29501
-35.84595
-39.39504
-43.89279
-48.85098
-53.52354
-56.91735
-58.0474
-56.17293
-51.09979
-43.26168
-33.65002
-23.5839
-14.23902
-6.386697
-0.214004
4.514482
8.253672
11.42501
14.24527
16.7962
19.02653
20.92538
22.5163
23.85831
24.99374
25.92651
26.64918
27.14415
27.47749
27.66187
27.75599
27.74854
27.57317
27.18639
26.55348
25.70527
24.6934
23.56811
22.28208
20.77256
19.03342
17.14752
15.30032
13.6669
12.28032
10.97864
9.544721
7.754027
5.564844
3.185967
0.8966322
-1.02037
-2.547156
-3.913359
-5.452149
-7.419258
-9.876565
-12.70163
-15.57561
-18.28368
-20.64394
-22.68994
-24.61075
-26.64988
-29.00864
-31.86577
-35.27196
-39.09141
-42.97009
-46.25624
-48.12001
-47.78641
-44.79969
-39.14245
-31.48435
-22.83643
-14.31404
-6.787251
-0.6860094
4.008764
7.533341
10.22467
12.33596
13.92565
15.00229
15.57975
15.66906
15.40368
15.04248
14.75817
14.75351
15.07344
15.64664
16.36048
17.1186
17.80392
18.4471
19.08452
19.71162
20.2654
20.56826
20.42882
19.74077
18.53346
16.85231
14.84832
12.63743
10.31576
7.955272
5.676701
3.561934
1.68474
-0.01202548
-1.758371
-3.72875
-6.023764
-8.583797
-11.15995
-13.4733
-15.3693
-16.8684
-18.23081
-19.88823
-22.2118
-25.42138
-29.47325
-33.92547
-38.01162
-40.74384
-41.21458
-38.86637
-33.76433
-26.52328
-18.17945
-9.835032
-2.317342
3.898472
8.695438
12.18241
14.53062
15.90893
16.49253
16.4415
15.97799
15.36926
14.90118
14.76491
15.1014
15.8917
17.02419
18.35093
19.72466
21.08425
22.45218
23.81911
25.06713
25.97931
26.24315
25.61795
24.03638
21.63256
18.71508
15.63381
12.64928
9.885401
7.313164
4.877239
2.543827
0.2912273
-1.901608
-4.112341
-6.454556
-9.032379
-11.8596
-14.8187
-17.73491
-20.41834
-22.79485
-25.0205
-27.42001
-30.39857
-34.18583
-38.63495
-43.12327
-46.65888
-48.17262
-46.86452
-42.55299
-35.76405
-27.5139
-18.96724
-11.07905
-4.347055
1.182941
5.753323
9.705835
13.27775
16.52765
19.41331
21.86328
23.82747
25.33885
26.47482
27.34533
28.04377
28.6335
29.13146
29.55094
29.85921
30.06141
30.18296
30.286
30.41936
30.55948
30.6032
30.38756
29.8211
28.80606
27.37188
25.6357
23.72527
21.74444
19.78434
17.89832
16.11588
14.51379
13.10147
11.83046
10.59482
9.284695
7.811615
6.157036
4.406843
2.638176
0.9486599
-0.7036419
-2.504999
-4.649311
-7.283924
-10.37683
-13.78005
-17.19142
-20.39886
-23.26408
-25.80887
-28.1666
-30.53475
-33.14882
-36.26935
-40.17755
-44.90718
-50.17383
-55.20732
-58.84603
-59.82372
-57.29468
-51.19125
-42.27541
-31.92916
-21.62418
-12.50974
-5.182646
0.3854542
4.599833
7.966588
10.89851
13.6411
16.26434
18.75908
21.0819
23.17638
25.02514
26.56639
27.73154
28.46294
