1569398609.96105
1569398609.97668
1569398609.9923
1569398610.00793
1569398610.02356
1569398610.03918
1569398610.05481
1569398610.07043
1569398610.08606
1569398610.10168
1569398610.11731
1569398610.13294
1569398610.14856
1569398610.16419
1569398610.17981
1569398610.19544
1569398610.21106
1569398610.22669
1569398610.24232
1569398610.25794
1569398610.27357
1569398610.28919
1569398610.30482
1569398610.32044
1569398610.33607
1569398610.3517
1569398610.36732
1569398610.38295
1569398610.39857
1569398610.4142
1569398610.42982
1569398610.44545
1569398610.46108
1569398610.4767
1569398610.49233
1569398610.50795
1569398610.52358
1569398610.5392
1569398610.55483
1569398610.57046
1569398610.58608
1569398610.60171
1569398610.61733
1569398610.63296
1569398610.64858
1569398610.66421
1569398610.67984
1569398610.69546
1569398610.71109
1569398610.72671
1569398610.74234
1569398610.75796
1569398610.77359
1569398610.78922
1569398610.80484
1569398610.82047
1569398610.83609
1569398610.85172
1569398610.86734
1569398610.88297
1569398610.8986
1569398610.91422
1569398610.92985
1569398610.94547
1569398610.9611
1569398610.97672
1569398610.99235
1569398611.00798
1569398611.0236
1569398611.03923
1569398611.05485
1569398611.07048
1569398611.0861
1569398611.10173
1569398611.11736
1569398611.13298
1569398611.14861
1569398611.16423
1569398611.17986
1569398611.19548
1569398611.21111
1569398611.22674
1569398611.24236
1569398611.25799
1569398611.27361
1569398611.28924
1569398611.30486
1569398611.32049
1569398611.33612
1569398611.35174
1569398611.36737
1569398611.38299
1569398611.39862
1569398611.41424
1569398611.42987
1569398611.4455
1569398611.46112
1569398611.47675
1569398611.49237
1569398611.508
1569398611.52363
1569398611.53925
1569398611.55488
1569398611.5705
1569398611.58613
1569398611.60175
1569398611.61738
1569398611.63301
1569398611.64863
1569398611.66426
1569398611.67988
1569398611.69551
1569398611.71113
1569398611.72676
1569398611.74239
1569398611.75801
1569398611.77364
1569398611.78926
1569398611.80489
1569398611.82051
1569398611.83614
1569398611.85177
1569398611.86739
1569398611.88302
1569398611.89864
1569398611.91427
1569398611.92989
1569398611.94552
1569398611.96115
1569398611.97677
1569398611.9924
1569398612.00802
1569398612.02365
1569398612.03927
1569398612.0549
1569398612.07053
1569398612.08615
1569398612.10178
1569398612.1174
1569398612.13303
1569398612.14865
1569398612.16428
1569398612.17991
1569398612.19553
1569398612.21116
1569398612.22678
1569398612.24241
1569398612.25803
1569398612.27366
1569398612.28929
1569398612.30491
1569398612.32054
1569398612.33616
1569398612.35179
1569398612.36741
1569398612.38304
1569398612.39867
1569398612.41429
1569398612.42992
1569398612.44554
1569398612.46117
1569398612.47679
1569398612.49242
1569398612.50805
1569398612.52367
1569398612.5393
1569398612.55492
1569398612.57055
1569398612.58617
1569398612.6018
1569398612.61743
1569398612.63305
1569398612.64868
1569398612.6643
1569398612.67993
1569398612.69555
1569398612.71118
1569398612.72681
1569398612.74243
1569398612.75806
1569398612.77368
1569398612.78931
1569398612.80493
1569398612.82056
1569398612.83619
1569398612.85181
1569398612.86744
1569398612.88306
1569398612.89869
1569398612.91431
1569398612.92994
1569398612.94557
1569398612.96119
1569398612.97682
1569398612.99244
1569398613.00807
1569398613.02369
1569398613.03932
1569398613.05495
1569398613.07057
1569398613.0862
1569398613.10182
1569398613.11745
1569398613.13307
1569398613.1487
1569398613.16433
1569398613.17995
1569398613.19558
1569398613.2112
1569398613.22683
1569398613.24245
1569398613.25808
1569398613.27371
1569398613.28933
1569398613.30496
1569398613.32058
1569398613.33621
1569398613.35183
1569398613.36746
1569398613.38309
1569398613.39871
1569398613.41434
1569398613.42996
1569398613.44559
1569398613.46121
1569398613.47684
1569398613.49247
1569398613.50809
1569398613.52372
1569398613.53934
1569398613.55497
1569398613.57059
1569398613.58622
1569398613.60185
1569398613.61747
1569398613.6331
1569398613.64872
1569398613.66435
1569398613.67997
1569398613.6956
1569398613.71123
1569398613.72685
1569398613.74248
1569398613.7581
1569398613.77373
1569398613.78936
1569398613.80498
1569398613.82061
1569398613.83623
1569398613.85186
1569398613.86748
1569398613.88311
1569398613.89874
1569398613.91436
1569398613.92999
1569398613.94561
1569398613.96124
1569398613.97686
1569398613.99249
1569398614.00812
1569398614.02374
1569398614.03937
1569398614.05499
1569398614.07062
1569398614.08624
1569398614.10187
1569398614.1175
1569398614.13312
1569398614.14875
1569398614.16437
1569398614.18
1569398614.19562
1569398614.21125
1569398614.22688
1569398614.2425
1569398614.25813
1569398614.27375
1569398614.28938
1569398614.305
1569398614.32063
1569398614.33626
1569398614.35188
1569398614.36751
1569398614.38313
1569398614.39876
1569398614.41438
1569398614.43001
1569398614.44564
1569398614.46126
1569398614.47689
1569398614.49251
1569398614.50814
1569398614.52376
1569398614.53939
1569398614.55502
1569398614.57064
1569398614.58627
1569398614.60189
1569398614.61752
1569398614.63314
1569398614.64877
1569398614.6644
1569398614.68002
1569398614.69565
1569398614.71127
1569398614.7269
1569398614.74252
1569398614.75815
1569398614.77378
1569398614.7894
1569398614.80503
1569398614.82065
1569398614.83628
1569398614.8519
1569398614.86753
1569398614.88316
1569398614.89878
1569398614.91441
1569398614.93003
1569398614.94566
1569398614.96128
1569398614.97691
1569398614.99254
1569398615.00816
1569398615.02379
1569398615.03941
1569398615.05504
1569398615.07066
1569398615.08629
1569398615.10192
1569398615.11754
1569398615.13317
1569398615.14879
1569398615.16442
1569398615.18004
1569398615.19567
1569398615.2113
1569398615.22692
1569398615.24255
1569398615.25817
1569398615.2738
1569398615.28942
1569398615.30505
1569398615.32068
1569398615.3363
1569398615.35193
1569398615.36755
1569398615.38318
1569398615.3988
1569398615.41443
1569398615.43006
1569398615.44568
1569398615.46131
1569398615.47693
1569398615.49256
1569398615.50818
1569398615.52381
1569398615.53944
1569398615.55506
1569398615.57069
1569398615.58631
1569398615.60194
1569398615.61756
1569398615.63319
1569398615.64882
1569398615.66444
1569398615.68007
1569398615.69569
1569398615.71132
1569398615.72694
1569398615.74257
1569398615.7582
1569398615.77382
1569398615.78945
1569398615.80507
1569398615.8207
1569398615.83632
1569398615.85195
1569398615.86758
1569398615.8832
1569398615.89883
1569398615.91445
1569398615.93008
1569398615.9457
1569398615.96133
1569398615.97696
1569398615.99258
1569398616.00821
1569398616.02383
1569398616.03946
1569398616.05508
1569398616.07071
1569398616.08634
1569398616.10196
1569398616.11759
1569398616.13321
1569398616.14884
1569398616.16446
1569398616.18009
1569398616.19572
1569398616.21134
1569398616.22697
1569398616.24259
1569398616.25822
1569398616.27384
1569398616.28947
1569398616.3051
1569398616.32072
1569398616.33635
1569398616.35197
1569398616.3676
1569398616.38323
1569398616.39885
1569398616.41448
1569398616.4301
1569398616.44573
1569398616.46135
1569398616.47698
1569398616.49261
1569398616.50823
1569398616.52386
1569398616.53948
1569398616.55511
1569398616.57073
1569398616.58636
1569398616.60199
1569398616.61761
1569398616.63324
1569398616.64886
1569398616.66449
1569398616.68011
1569398616.69574
1569398616.71137
1569398616.72699
1569398616.74262
1569398616.75824
1569398616.77387
1569398616.78949
1569398616.80512
1569398616.82075
1569398616.83637
1569398616.852
1569398616.86762
1569398616.88325
1569398616.89887
1569398616.9145
1569398616.93013
1569398616.94575
1569398616.96138
1569398616.977
1569398616.99263
1569398617.00825
1569398617.02388
1569398617.03951
1569398617.05513
1569398617.07076
1569398617.08638
1569398617.10201
1569398617.11763
1569398617.13326
1569398617.14889
1569398617.16451
1569398617.18014
1569398617.19576
1569398617.21139
1569398617.22701
1569398617.24264
1569398617.25827
1569398617.27389
1569398617.28952
1569398617.30514
1569398617.32077
1569398617.33639
1569398617.35202
1569398617.36765
1569398617.38327
1569398617.3989
1569398617.41452
1569398617.43015
1569398617.44577
1569398617.4614
1569398617.47703
1569398617.49265
1569398617.50828
1569398617.5239
1569398617.53953
1569398617.55515
1569398617.57078
1569398617.58641
1569398617.60203
1569398617.61766
1569398617.63328
1569398617.64891
1569398617.66453
1569398617.68016
1569398617.69579
1569398617.71141
1569398617.72704
1569398617.74266
1569398617.75829
1569398617.77391
1569398617.78954
1569398617.80517
1569398617.82079
1569398617.83642
1569398617.85204
1569398617.86767
1569398617.88329
1569398617.89892
1569398617.91455
1569398617.93017
1569398617.9458
1569398617.96142
1569398617.97705
1569398617.99267
1569398618.0083
1569398618.02393
1569398618.03955
1569398618.05518
1569398618.0708
1569398618.08643
1569398618.10205
1569398618.11768
1569398618.13331
1569398618.14893
1569398618.16456
1569398618.18018
1569398618.19581
1569398618.21143
1569398618.22706
1569398618.24269
1569398618.25831
1569398618.27394
1569398618.28956
1569398618.30519
1569398618.32081
1569398618.33644
1569398618.35207
1569398618.36769
1569398618.38332
1569398618.39894
1569398618.41457
1569398618.43019
1569398618.44582
1569398618.46145
1569398618.47707
1569398618.4927
1569398618.50832
1569398618.52395
1569398618.53957
1569398618.5552
1569398618.57083
1569398618.58645
1569398618.60208
1569398618.6177
1569398618.63333
1569398618.64896
1569398618.66458
1569398618.68021
1569398618.69583
1569398618.71146
1569398618.72708
1569398618.74271
1569398618.75834
1569398618.77396
1569398618.78959
1569398618.80521
1569398618.82084
1569398618.83646
1569398618.85209
1569398618.86772
1569398618.88334
1569398618.89897
1569398618.91459
1569398618.93022
1569398618.94584
1569398618.96147
1569398618.9771
1569398618.99272
1569398619.00835
1569398619.02397
1569398619.0396
1569398619.05522
1569398619.07085
1569398619.08648
1569398619.1021
1569398619.11773
1569398619.13335
1569398619.14898
1569398619.1646
1569398619.18023
1569398619.19586
1569398619.21148
1569398619.22711
1569398619.24273
1569398619.25836
1569398619.27398
1569398619.28961
1569398619.30524
1569398619.32086
1569398619.33649
1569398619.35211
1569398619.36774
1569398619.38336
1569398619.39899
1569398619.41462
1569398619.43024
1569398619.44587
1569398619.46149
1569398619.47712
1569398619.49274
1569398619.50837
1569398619.524
1569398619.53962
1569398619.55525
1569398619.57087
1569398619.5865
1569398619.60212
1569398619.61775
1569398619.63338
1569398619.649
1569398619.66463
1569398619.68025
1569398619.69588
1569398619.7115
1569398619.72713
1569398619.74276
1569398619.75838
1569398619.77401
1569398619.78963
1569398619.80526
1569398619.82088
1569398619.83651
1569398619.85214
1569398619.86776
1569398619.88339
1569398619.89901
1569398619.91464
1569398619.93026
1569398619.94589
1569398619.96152
1569398619.97714
1569398619.99277
1569398620.00839
1569398620.02402
1569398620.03964
1569398620.05527
1569398620.0709
1569398620.08652
1569398620.10215
1569398620.11777
1569398620.1334
1569398620.14902
1569398620.16465
1569398620.18028
1569398620.1959
1569398620.21153
1569398620.22715
1569398620.24278
1569398620.2584
1569398620.27403
1569398620.28966
1569398620.30528
1569398620.32091
1569398620.33653
1569398620.35216
1569398620.36778
1569398620.38341
1569398620.39904
1569398620.41466
1569398620.43029
1569398620.44591
1569398620.46154
1569398620.47716
1569398620.49279
1569398620.50842
1569398620.52404
1569398620.53967
1569398620.55529
1569398620.57092
1569398620.58654
1569398620.60217
1569398620.6178
1569398620.63342
1569398620.64905
1569398620.66467
1569398620.6803
1569398620.69592
1569398620.71155
1569398620.72718
1569398620.7428
1569398620.75843
1569398620.77405
1569398620.78968
1569398620.80531
1569398620.82093
1569398620.83656
1569398620.85218
1569398620.86781
1569398620.88343
1569398620.89906
1569398620.91469
1569398620.93031
1569398620.94594
1569398620.96156
1569398620.97719
1569398620.99281
1569398621.00844
1569398621.02407
1569398621.03969
1569398621.05532
1569398621.07094
1569398621.08657
1569398621.10219
1569398621.11782
1569398621.13345
1569398621.14907
1569398621.1647
1569398621.18032
1569398621.19595
1569398621.21157
1569398621.2272
1569398621.24283
1569398621.25845
1569398621.27408
1569398621.2897
1569398621.30533
1569398621.32095
1569398621.33658
1569398621.35221
1569398621.36783
1569398621.38346
1569398621.39908
1569398621.41471
1569398621.43033
1569398621.44596
1569398621.46159
1569398621.47721
1569398621.49284
1569398621.50846
1569398621.52409
1569398621.53971
1569398621.55534
1569398621.57097
1569398621.58659
1569398621.60222
1569398621.61784
1569398621.63347
1569398621.64909
1569398621.66472
1569398621.68035
1569398621.69597
1569398621.7116
1569398621.72722
1569398621.74285
1569398621.75847
1569398621.7741
1569398621.78973
1569398621.80535
1569398621.82098
1569398621.8366
1569398621.85223
1569398621.86785
1569398621.88348
1569398621.89911
1569398621.91473
1569398621.93036
1569398621.94598
1569398621.96161
1569398621.97723
1569398621.99286
1569398622.00849
1569398622.02411
1569398622.03974
1569398622.05536
1569398622.07099
1569398622.08661
1569398622.10224
1569398622.11787
1569398622.13349
1569398622.14912
1569398622.16474
1569398622.18037
1569398622.19599
1569398622.21162
1569398622.22725
1569398622.24287
1569398622.2585
1569398622.27412
1569398622.28975
1569398622.30537
1569398622.321
1569398622.33663
1569398622.35225
1569398622.36788
1569398622.3835
1569398622.39913
1569398622.41475
1569398622.43038
1569398622.44601
1569398622.46163
1569398622.47726
1569398622.49288
1569398622.50851
1569398622.52413
1569398622.53976
1569398622.55539
1569398622.57101
1569398622.58664
1569398622.60226
1569398622.61789
1569398622.63351
1569398622.64914
1569398622.66477
1569398622.68039
1569398622.69602
1569398622.71164
1569398622.72727
1569398622.74289
1569398622.75852
1569398622.77415
1569398622.78977
1569398622.8054
1569398622.82102
1569398622.83665
1569398622.85227
1569398622.8679
1569398622.88353
1569398622.89915
1569398622.91478
1569398622.9304
1569398622.94603
1569398622.96165
1569398622.97728
1569398622.99291
1569398623.00853
1569398623.02416
1569398623.03978
1569398623.05541
1569398623.07103
1569398623.08666
1569398623.10229
1569398623.11791
1569398623.13354
1569398623.14916
1569398623.16479
1569398623.18041
1569398623.19604
1569398623.21167
1569398623.22729
1569398623.24292
1569398623.25854
1569398623.27417
1569398623.28979
1569398623.30542
1569398623.32105
1569398623.33667
1569398623.3523
1569398623.36792
1569398623.38355
1569398623.39917
1569398623.4148
1569398623.43043
1569398623.44605
1569398623.46168
1569398623.4773
1569398623.49293
1569398623.50856
1569398623.52418
1569398623.53981
1569398623.55543
1569398623.57106
1569398623.58668
1569398623.60231
1569398623.61794
1569398623.63356
1569398623.64919
1569398623.66481
1569398623.68044
1569398623.69606
1569398623.71169
1569398623.72732
1569398623.74294
1569398623.75857
1569398623.77419
1569398623.78982
1569398623.80544
1569398623.82107
1569398623.8367
1569398623.85232
1569398623.86795
1569398623.88357
1569398623.8992
1569398623.91482
1569398623.93045
1569398623.94608
1569398623.9617
1569398623.97733
1569398623.99295
1569398624.00858
1569398624.0242
1569398624.03983
1569398624.05546
1569398624.07108
1569398624.08671
1569398624.10233
1569398624.11796
1569398624.13358
1569398624.14921
1569398624.16484
1569398624.18046
1569398624.19609
1569398624.21171
1569398624.22734
1569398624.24296
1569398624.25859
1569398624.27422
1569398624.28984
1569398624.30547
1569398624.32109
1569398624.33672
1569398624.35234
1569398624.36797
1569398624.3836
1569398624.39922
1569398624.41485
1569398624.43047
1569398624.4461
1569398624.46172
1569398624.47735
1569398624.49298
1569398624.5086
1569398624.52423
1569398624.53985
1569398624.55548
1569398624.5711
1569398624.58673
1569398624.60236
1569398624.61798
1569398624.63361
1569398624.64923
1569398624.66486
1569398624.68048
1569398624.69611
1569398624.71174
1569398624.72736
1569398624.74299
1569398624.75861
1569398624.77424
1569398624.78986
1569398624.80549
1569398624.82112
1569398624.83674
1569398624.85237
1569398624.86799
1569398624.88362
1569398624.89924
1569398624.91487
1569398624.9305
1569398624.94612
1569398624.96175
1569398624.97737
1569398624.993
1569398625.00862
1569398625.02425
1569398625.03988
1569398625.0555
1569398625.07113
1569398625.08675
1569398625.10238
1569398625.118
1569398625.13363
1569398625.14926
1569398625.16488
1569398625.18051
1569398625.19613
1569398625.21176
1569398625.22738
1569398625.24301
1569398625.25864
1569398625.27426
1569398625.28989
1569398625.30551
1569398625.32114
1569398625.33676
1569398625.35239
1569398625.36802
1569398625.38364
1569398625.39927
1569398625.41489
1569398625.43052
1569398625.44614
1569398625.46177
1569398625.4774
1569398625.49302
1569398625.50865
1569398625.52427
1569398625.5399
1569398625.55552
1569398625.57115
1569398625.58678
1569398625.6024
1569398625.61803
1569398625.63365
1569398625.64928
1569398625.66491
1569398625.68053
1569398625.69616
1569398625.71178
1569398625.72741
1569398625.74303
1569398625.75866
1569398625.77429
1569398625.78991
1569398625.80554
1569398625.82116
1569398625.83679
1569398625.85241
1569398625.86804
1569398625.88367
1569398625.89929
1569398625.91492
1569398625.93054
1569398625.94617
1569398625.96179
1569398625.97742
1569398625.99305
1569398626.00867
1569398626.0243
1569398626.03992
1569398626.05555
1569398626.07117
1569398626.0868
1569398626.10243
1569398626.11805
1569398626.13368
1569398626.1493
1569398626.16493
1569398626.18055
1569398626.19618
1569398626.21181
1569398626.22743
1569398626.24306
1569398626.25868
1569398626.27431
1569398626.28993
1569398626.30556
1569398626.32119
1569398626.33681
1569398626.35244
1569398626.36806
1569398626.38369
1569398626.39931
1569398626.41494
1569398626.43057
1569398626.44619
1569398626.46182
1569398626.47744
1569398626.49307
1569398626.50869
1569398626.52432
1569398626.53995
1569398626.55557
1569398626.5712
1569398626.58682
1569398626.60245
1569398626.61807
1569398626.6337
1569398626.64933
1569398626.66495
1569398626.68058
1569398626.6962
1569398626.71183
1569398626.72745
1569398626.74308
1569398626.75871
1569398626.77433
1569398626.78996
1569398626.80558
1569398626.82121
1569398626.83683
1569398626.85246
1569398626.86809
1569398626.88371
1569398626.89934
1569398626.91496
1569398626.93059
1569398626.94621
1569398626.96184
1569398626.97747
1569398626.99309
1569398627.00872
1569398627.02434
1569398627.03997
1569398627.05559
1569398627.07122
1569398627.08685
1569398627.10247
1569398627.1181
1569398627.13372
1569398627.14935
1569398627.16497
1569398627.1806
1569398627.19623
1569398627.21185
1569398627.22748
1569398627.2431
1569398627.25873
1569398627.27435
1569398627.28998
1569398627.30561
1569398627.32123
1569398627.33686
1569398627.35248
1569398627.36811
1569398627.38373
1569398627.39936
1569398627.41499
1569398627.43061
1569398627.44624
1569398627.46186
1569398627.47749
1569398627.49311
1569398627.50874
1569398627.52437
1569398627.53999
1569398627.55562
1569398627.57124
1569398627.58687
1569398627.60249
1569398627.61812
1569398627.63375
1569398627.64937
1569398627.665
1569398627.68062
1569398627.69625
1569398627.71187
1569398627.7275
1569398627.74313
1569398627.75875
1569398627.77438
1569398627.79
1569398627.80563
1569398627.82125
1569398627.83688
1569398627.85251
1569398627.86813
1569398627.88376
1569398627.89938
1569398627.91501
1569398627.93063
1569398627.94626
1569398627.96189
1569398627.97751
1569398627.99314
1569398628.00876
1569398628.02439
1569398628.04001
1569398628.05564
1569398628.07127
1569398628.08689
1569398628.10252
1569398628.11814
1569398628.13377
1569398628.14939
1569398628.16502
1569398628.18065
1569398628.19627
1569398628.2119
1569398628.22752
1569398628.24315
1569398628.25878
1569398628.2744
1569398628.29003
1569398628.30565
1569398628.32128
1569398628.3369
1569398628.35253
1569398628.36816
1569398628.38378
1569398628.39941
1569398628.41503
1569398628.43066
1569398628.44628
1569398628.46191
1569398628.47754
1569398628.49316
1569398628.50879
1569398628.52441
1569398628.54004
1569398628.55566
1569398628.57129
1569398628.58692
1569398628.60254
1569398628.61817
1569398628.63379
1569398628.64942
1569398628.66504
1569398628.68067
1569398628.6963
1569398628.71192
1569398628.72755
1569398628.74317
1569398628.7588
1569398628.77442
1569398628.79005
1569398628.80568
1569398628.8213
1569398628.83693
1569398628.85255
1569398628.86818
1569398628.8838
1569398628.89943
1569398628.91506
1569398628.93068
1569398628.94631
1569398628.96193
1569398628.97756
1569398628.99318
1569398629.00881
1569398629.02444
1569398629.04006
1569398629.05569
1569398629.07131
1569398629.08694
1569398629.10256
1569398629.11819
1569398629.13382
1569398629.14944
1569398629.16507
1569398629.18069
1569398629.19632
1569398629.21194
1569398629.22757
1569398629.2432
1569398629.25882
1569398629.27445
1569398629.29007
1569398629.3057
1569398629.32132
1569398629.33695
1569398629.35258
1569398629.3682
1569398629.38383
1569398629.39945
1569398629.41508
1569398629.4307
1569398629.44633
1569398629.46196
1569398629.47758
1569398629.49321
1569398629.50883
1569398629.52446
1569398629.54008
1569398629.55571
1569398629.57134
1569398629.58696
1569398629.60259
1569398629.61821
1569398629.63384
1569398629.64946
1569398629.66509
1569398629.68072
1569398629.69634
1569398629.71197
1569398629.72759
1569398629.74322
1569398629.75884
1569398629.77447
1569398629.7901
1569398629.80572
1569398629.82135
1569398629.83697
1569398629.8526
1569398629.86822
1569398629.88385
1569398629.89948
1569398629.9151
1569398629.93073
1569398629.94635
1569398629.96198
1569398629.9776
1569398629.99323
1569398630.00886
1569398630.02448
1569398630.04011
1569398630.05573
1569398630.07136
1569398630.08698
1569398630.10261
1569398630.11824
1569398630.13386
1569398630.14949
1569398630.16511
1569398630.18074
1569398630.19636
1569398630.21199
1569398630.22762
1569398630.24324
1569398630.25887
1569398630.27449
1569398630.29012
1569398630.30574
1569398630.32137
1569398630.337
1569398630.35262
1569398630.36825
1569398630.38387
1569398630.3995
1569398630.41512
1569398630.43075
1569398630.44638
1569398630.462
1569398630.47763
1569398630.49325
1569398630.50888
1569398630.52451
1569398630.54013
1569398630.55576
1569398630.57138
1569398630.58701
1569398630.60263
1569398630.61826
1569398630.63389
1569398630.64951
1569398630.66514
1569398630.68076
1569398630.69639
1569398630.71201
1569398630.72764
1569398630.74327
1569398630.75889
1569398630.77452
1569398630.79014
1569398630.80577
1569398630.82139
1569398630.83702
1569398630.85265
1569398630.86827
1569398630.8839
1569398630.89952
1569398630.91515
1569398630.93077
1569398630.9464
1569398630.96203
1569398630.97765
1569398630.99328
1569398631.0089
1569398631.02453
1569398631.04015
1569398631.05578
1569398631.07141
1569398631.08703
1569398631.10266
1569398631.11828
1569398631.13391
1569398631.14953
1569398631.16516
1569398631.18079
1569398631.19641
1569398631.21204
1569398631.22766
1569398631.24329
1569398631.25891
1569398631.27454
1569398631.29017
1569398631.30579
1569398631.32142
1569398631.33704
1569398631.35267
1569398631.36829
1569398631.38392
1569398631.39955
1569398631.41517
1569398631.4308
1569398631.44642
1569398631.46205
1569398631.47767
1569398631.4933
1569398631.50893
1569398631.52455
1569398631.54018
1569398631.5558
1569398631.57143
1569398631.58705
1569398631.60268
1569398631.61831
1569398631.63393
1569398631.64956
1569398631.66518
1569398631.68081
1569398631.69643
1569398631.71206
1569398631.72769
1569398631.74331
1569398631.75894
1569398631.77456
1569398631.79019
1569398631.80581
1569398631.82144
1569398631.83707
1569398631.85269
1569398631.86832
1569398631.88394
1569398631.89957
1569398631.91519
1569398631.93082
1569398631.94645
1569398631.96207
1569398631.9777
1569398631.99332
1569398632.00895
1569398632.02457
1569398632.0402
1569398632.05583
1569398632.07145
1569398632.08708
1569398632.1027
1569398632.11833
1569398632.13395
1569398632.14958
1569398632.16521
1569398632.18083
1569398632.19646
1569398632.21208
1569398632.22771
1569398632.24333
1569398632.25896
1569398632.27459
1569398632.29021
1569398632.30584
1569398632.32146
1569398632.33709
1569398632.35271
1569398632.36834
1569398632.38397
1569398632.39959
1569398632.41522
1569398632.43084
1569398632.44647
1569398632.46209
1569398632.47772
1569398632.49335
1569398632.50897
1569398632.5246
1569398632.54022
1569398632.55585
1569398632.57147
1569398632.5871
1569398632.60273
1569398632.61835
1569398632.63398
1569398632.6496
1569398632.66523
1569398632.68085
1569398632.69648
1569398632.71211
1569398632.72773
1569398632.74336
1569398632.75898
1569398632.77461
1569398632.79024
1569398632.80586
1569398632.82149
1569398632.83711
1569398632.85274
1569398632.86836
1569398632.88399
1569398632.89962
1569398632.91524
1569398632.93087
1569398632.94649
1569398632.96212
1569398632.97774
1569398632.99337
1569398633.009
1569398633.02462
1569398633.04025
1569398633.05587
1569398633.0715
1569398633.08712
1569398633.10275
1569398633.11838
1569398633.134
1569398633.14963
1569398633.16525
1569398633.18088
1569398633.1965
1569398633.21213
1569398633.22776
1569398633.24338
1569398633.25901
1569398633.27463
1569398633.29026
1569398633.30588
1569398633.32151
1569398633.33714
1569398633.35276
1569398633.36839
1569398633.38401
1569398633.39964
1569398633.41526
1569398633.43089
1569398633.44652
1569398633.46214
1569398633.47777
1569398633.49339
1569398633.50902
1569398633.52464
1569398633.54027
1569398633.5559
1569398633.57152
1569398633.58715
1569398633.60277
1569398633.6184
1569398633.63402
1569398633.64965
1569398633.66528
1569398633.6809
1569398633.69653
1569398633.71215
1569398633.72778
1569398633.7434
1569398633.75903
1569398633.77466
1569398633.79028
1569398633.80591
1569398633.82153
1569398633.83716
1569398633.85278
1569398633.86841
1569398633.88404
1569398633.89966
1569398633.91529
1569398633.93091
1569398633.94654
1569398633.96216
1569398633.97779
1569398633.99342
1569398634.00904
1569398634.02467
1569398634.04029
1569398634.05592
1569398634.07154
1569398634.08717
1569398634.1028
1569398634.11842
1569398634.13405
1569398634.14967
1569398634.1653
1569398634.18092
1569398634.19655
1569398634.21218
1569398634.2278
1569398634.24343
1569398634.25905
1569398634.27468
1569398634.2903
1569398634.30593
1569398634.32156
1569398634.33718
1569398634.35281
1569398634.36843
1569398634.38406
1569398634.39968
1569398634.41531
1569398634.43094
1569398634.44656
1569398634.46219
1569398634.47781
1569398634.49344
1569398634.50906
1569398634.52469
1569398634.54032
1569398634.55594
1569398634.57157
1569398634.58719
1569398634.60282
1569398634.61844
1569398634.63407
1569398634.6497
1569398634.66532
1569398634.68095
1569398634.69657
1569398634.7122
1569398634.72782
1569398634.74345
1569398634.75908
1569398634.7747
1569398634.79033
1569398634.80595
1569398634.82158
1569398634.8372
1569398634.85283
1569398634.86846
1569398634.88408
1569398634.89971
1569398634.91533
1569398634.93096
1569398634.94658
1569398634.96221
1569398634.97784
1569398634.99346
1569398635.00909
1569398635.02471
1569398635.04034
1569398635.05596
1569398635.07159
1569398635.08722
1569398635.10284
1569398635.11847
1569398635.13409
1569398635.14972
1569398635.16534
1569398635.18097
1569398635.1966
1569398635.21222
1569398635.22785
1569398635.24347
1569398635.2591
1569398635.27472
1569398635.29035
1569398635.30598
1569398635.3216
1569398635.33723
1569398635.35285
1569398635.36848
1569398635.3841
1569398635.39973
1569398635.41536
1569398635.43098
1569398635.44661
1569398635.46223
1569398635.47786
1569398635.49349
1569398635.50911
1569398635.52474
1569398635.54036
1569398635.55599
1569398635.57161
1569398635.58724
1569398635.60287
1569398635.61849
1569398635.63412
1569398635.64974
1569398635.66537
1569398635.68099
1569398635.69662
1569398635.71225
1569398635.72787
1569398635.7435
1569398635.75912
1569398635.77475
1569398635.79037
1569398635.806
1569398635.82163
1569398635.83725
1569398635.85288
1569398635.8685
1569398635.88413
1569398635.89975
1569398635.91538
1569398635.93101
1569398635.94663
1569398635.96226
1569398635.97788
1569398635.99351
1569398636.00913
1569398636.02476
1569398636.04039
1569398636.05601
1569398636.07164
1569398636.08726
1569398636.10289
1569398636.11851
1569398636.13414
1569398636.14977
1569398636.16539
1569398636.18102
1569398636.19664
1569398636.21227
1569398636.22789
1569398636.24352
1569398636.25915
1569398636.27477
1569398636.2904
1569398636.30602
1569398636.32165
1569398636.33727
1569398636.3529
1569398636.36853
1569398636.38415
1569398636.39978
1569398636.4154
1569398636.43103
1569398636.44665
1569398636.46228
1569398636.47791
1569398636.49353
1569398636.50916
1569398636.52478
1569398636.54041
1569398636.55603
1569398636.57166
1569398636.58729
1569398636.60291
1569398636.61854
1569398636.63416
1569398636.64979
1569398636.66541
1569398636.68104
1569398636.69667
1569398636.71229
1569398636.72792
1569398636.74354
1569398636.75917
1569398636.77479
1569398636.79042
1569398636.80605
1569398636.82167
1569398636.8373
1569398636.85292
1569398636.86855
1569398636.88417
1569398636.8998
1569398636.91543
1569398636.93105
1569398636.94668
1569398636.9623
1569398636.97793
1569398636.99355
1569398637.00918
1569398637.02481
1569398637.04043
1569398637.05606
1569398637.07168
1569398637.08731
1569398637.10293
1569398637.11856
1569398637.13419
1569398637.14981
1569398637.16544
1569398637.18106
1569398637.19669
1569398637.21231
1569398637.22794
1569398637.24357
1569398637.25919
1569398637.27482
1569398637.29044
1569398637.30607
1569398637.32169
1569398637.33732
1569398637.35295
1569398637.36857
1569398637.3842
1569398637.39982
1569398637.41545
1569398637.43107
1569398637.4467
1569398637.46233
1569398637.47795
1569398637.49358
1569398637.5092
1569398637.52483
1569398637.54045
1569398637.55608
1569398637.57171
1569398637.58733
1569398637.60296
1569398637.61858
1569398637.63421
1569398637.64984
1569398637.66546
1569398637.68109
1569398637.69671
1569398637.71234
1569398637.72796
1569398637.74359
1569398637.75922
1569398637.77484
1569398637.79047
1569398637.80609
1569398637.82172
1569398637.83734
1569398637.85297
1569398637.8686
1569398637.88422
1569398637.89985
1569398637.91547
1569398637.9311
1569398637.94672
1569398637.96235
1569398637.97798
1569398637.9936
1569398638.00923
1569398638.02485
1569398638.04048
1569398638.0561
1569398638.07173
1569398638.08736
1569398638.10298
1569398638.11861
1569398638.13423
1569398638.14986
1569398638.16548
1569398638.18111
1569398638.19674
1569398638.21236
1569398638.22799
1569398638.24361
1569398638.25924
1569398638.27486
1569398638.29049
1569398638.30612
1569398638.32174
1569398638.33737
1569398638.35299
1569398638.36862
1569398638.38424
1569398638.39987
1569398638.4155
1569398638.43112
1569398638.44675
1569398638.46237
1569398638.478
1569398638.49362
1569398638.50925
1569398638.52488
1569398638.5405
1569398638.55613
1569398638.57175
1569398638.58738
1569398638.603
1569398638.61863
1569398638.63426
1569398638.64988
1569398638.66551
1569398638.68113
1569398638.69676
1569398638.71238
1569398638.72801
1569398638.74364
1569398638.75926
1569398638.77489
1569398638.79051
1569398638.80614
1569398638.82176
1569398638.83739
1569398638.85302
1569398638.86864
1569398638.88427
1569398638.89989
1569398638.91552
1569398638.93114
1569398638.94677
1569398638.9624
1569398638.97802
1569398638.99365
1569398639.00927
1569398639.0249
1569398639.04052
1569398639.05615
1569398639.07178
1569398639.0874
1569398639.10303
1569398639.11865
1569398639.13428
1569398639.1499
1569398639.16553
1569398639.18116
1569398639.19678
1569398639.21241
1569398639.22803
1569398639.24366
1569398639.25928
1569398639.27491
1569398639.29054
1569398639.30616
1569398639.32179
1569398639.33741
1569398639.35304
1569398639.36866
1569398639.38429
1569398639.39992
1569398639.41554
1569398639.43117
1569398639.44679
1569398639.46242
1569398639.47804
1569398639.49367
1569398639.5093
1569398639.52492
1569398639.54055
1569398639.55617
1569398639.5718
1569398639.58742
1569398639.60305
1569398639.61868
1569398639.6343
1569398639.64993
1569398639.66555
1569398639.68118
1569398639.6968
1569398639.71243
1569398639.72806
1569398639.74368
1569398639.75931
1569398639.77493
1569398639.79056
1569398639.80618
1569398639.82181
1569398639.83744
1569398639.85306
1569398639.86869
1569398639.88431
1569398639.89994
1569398639.91557
1569398639.93119
1569398639.94682
1569398639.96244
1569398639.97807
1569398639.99369
1569398640.00932
1569398640.02495
1569398640.04057
1569398640.0562
1569398640.07182
1569398640.08745
1569398640.10307
1569398640.1187
1569398640.13433
1569398640.14995
1569398640.16558
1569398640.1812
1569398640.19683
1569398640.21245
1569398640.22808
1569398640.24371
1569398640.25933
1569398640.27496
1569398640.29058
1569398640.30621
1569398640.32183
1569398640.33746
1569398640.35309
1569398640.36871
1569398640.38434
1569398640.39996
1569398640.41559
1569398640.43121
1569398640.44684
1569398640.46247
1569398640.47809
1569398640.49372
1569398640.50934
1569398640.52497
1569398640.54059
1569398640.55622
1569398640.57185
1569398640.58747
1569398640.6031
1569398640.61872
1569398640.63435
1569398640.64997
1569398640.6656
1569398640.68123
1569398640.69685
1569398640.71248
1569398640.7281
1569398640.74373
1569398640.75935
1569398640.77498
1569398640.79061
1569398640.80623
1569398640.82186
1569398640.83748
1569398640.85311
1569398640.86873
1569398640.88436
1569398640.89999
1569398640.91561
1569398640.93124
1569398640.94686
1569398640.96249
1569398640.97811
1569398640.99374
1569398641.00937
1569398641.02499
1569398641.04062
1569398641.05624
1569398641.07187
1569398641.08749
1569398641.10312
1569398641.11875
1569398641.13437
1569398641.15
1569398641.16562
1569398641.18125
1569398641.19687
1569398641.2125
1569398641.22813
1569398641.24375
1569398641.25938
1569398641.275
1569398641.29063
1569398641.30625
1569398641.32188
1569398641.33751
1569398641.35313
1569398641.36876
1569398641.38438
1569398641.40001
1569398641.41563
1569398641.43126
1569398641.44689
1569398641.46251
1569398641.47814
1569398641.49376
1569398641.50939
1569398641.52501
1569398641.54064
1569398641.55627
1569398641.57189
1569398641.58752
1569398641.60314
1569398641.61877
1569398641.63439
1569398641.65002
1569398641.66565
1569398641.68127
1569398641.6969
1569398641.71252
1569398641.72815
1569398641.74377
1569398641.7594
1569398641.77503
1569398641.79065
1569398641.80628
1569398641.8219
1569398641.83753
1569398641.85315
1569398641.86878
1569398641.88441
1569398641.90003
1569398641.91566
1569398641.93128
1569398641.94691
1569398641.96253
1569398641.97816
1569398641.99379
1569398642.00941
1569398642.02504
1569398642.04066
1569398642.05629
1569398642.07191
1569398642.08754
1569398642.10317
1569398642.11879
1569398642.13442
1569398642.15004
1569398642.16567
1569398642.18129
1569398642.19692
1569398642.21255
1569398642.22817
1569398642.2438
1569398642.25942
1569398642.27505
1569398642.29067
1569398642.3063
1569398642.32193
1569398642.33755
1569398642.35318
1569398642.3688
1569398642.38443
1569398642.40005
1569398642.41568
1569398642.43131
1569398642.44693
1569398642.46256
1569398642.47818
1569398642.49381
1569398642.50944
1569398642.52506
1569398642.54069
1569398642.55631
1569398642.57194
1569398642.58756
1569398642.60319
1569398642.61882
1569398642.63444
1569398642.65007
1569398642.66569
1569398642.68132
1569398642.69694
1569398642.71257
1569398642.7282
1569398642.74382
1569398642.75945
1569398642.77507
1569398642.7907
1569398642.80632
1569398642.82195
1569398642.83758
1569398642.8532
1569398642.86883
1569398642.88445
1569398642.90008
1569398642.9157
1569398642.93133
1569398642.94696
1569398642.96258
1569398642.97821
1569398642.99383
1569398643.00946
1569398643.02508
1569398643.04071
1569398643.05634
1569398643.07196
1569398643.08759
1569398643.10321
1569398643.11884
1569398643.13446
1569398643.15009
1569398643.16572
1569398643.18134
1569398643.19697
1569398643.21259
1569398643.22822
1569398643.24384
1569398643.25947
1569398643.2751
1569398643.29072
1569398643.30635
1569398643.32197
1569398643.3376
1569398643.35322
1569398643.36885
1569398643.38448
1569398643.4001
1569398643.41573
1569398643.43135
1569398643.44698
1569398643.4626
1569398643.47823
1569398643.49386
1569398643.50948
1569398643.52511
1569398643.54073
1569398643.55636
1569398643.57198
1569398643.58761
1569398643.60324
1569398643.61886
1569398643.63449
1569398643.65011
1569398643.66574
1569398643.68136
1569398643.69699
1569398643.71262
1569398643.72824
1569398643.74387
1569398643.75949
1569398643.77512
1569398643.79074
1569398643.80637
1569398643.822
1569398643.83762
1569398643.85325
1569398643.86887
1569398643.8845
1569398643.90012
1569398643.91575
1569398643.93138
1569398643.947
1569398643.96263
1569398643.97825
1569398643.99388
1569398644.0095
1569398644.02513
1569398644.04076
1569398644.05638
1569398644.07201
1569398644.08763
1569398644.10326
1569398644.11888
1569398644.13451
1569398644.15014
1569398644.16576
1569398644.18139
1569398644.19701
1569398644.21264
1569398644.22826
1569398644.24389
1569398644.25952
1569398644.27514
1569398644.29077
1569398644.30639
1569398644.32202
1569398644.33764
1569398644.35327
1569398644.3689
1569398644.38452
1569398644.40015
1569398644.41577
1569398644.4314
1569398644.44702
1569398644.46265
1569398644.47828
1569398644.4939
1569398644.50953
1569398644.52515
1569398644.54078
1569398644.5564
1569398644.57203
1569398644.58766
1569398644.60328
1569398644.61891
1569398644.63453
1569398644.65016
1569398644.66578
1569398644.68141
1569398644.69704
1569398644.71266
1569398644.72829
1569398644.74391
1569398644.75954
1569398644.77517
1569398644.79079
1569398644.80642
1569398644.82204
1569398644.83767
1569398644.85329
1569398644.86892
1569398644.88455
1569398644.90017
1569398644.9158
1569398644.93142
1569398644.94705
1569398644.96267
1569398644.9783
1569398644.99393
1569398645.00955
1569398645.02518
1569398645.0408
1569398645.05643
1569398645.07205
1569398645.08768
1569398645.10331
1569398645.11893
1569398645.13456
1569398645.15018
1569398645.16581
1569398645.18143
1569398645.19706
1569398645.21269
1569398645.22831
1569398645.24394
1569398645.25956
1569398645.27519
1569398645.29081
1569398645.30644
1569398645.32207
1569398645.33769
1569398645.35332
1569398645.36894
1569398645.38457
1569398645.40019
1569398645.41582
1569398645.43145
1569398645.44707
1569398645.4627
1569398645.47832
1569398645.49395
1569398645.50957
1569398645.5252
1569398645.54083
1569398645.55645
1569398645.57208
1569398645.5877
1569398645.60333
1569398645.61895
1569398645.63458
1569398645.65021
1569398645.66583
1569398645.68146
1569398645.69708
1569398645.71271
1569398645.72833
1569398645.74396
1569398645.75959
1569398645.77521
1569398645.79084
1569398645.80646
1569398645.82209
1569398645.83771
1569398645.85334
1569398645.86897
1569398645.88459
1569398645.90022
1569398645.91584
1569398645.93147
1569398645.94709
1569398645.96272
1569398645.97835
1569398645.99397
1569398646.0096
1569398646.02522
1569398646.04085
1569398646.05647
1569398646.0721
1569398646.08773
1569398646.10335
1569398646.11898
1569398646.1346
1569398646.15023
1569398646.16585
1569398646.18148
1569398646.19711
1569398646.21273
1569398646.22836
1569398646.24398
1569398646.25961
1569398646.27523
1569398646.29086
1569398646.30649
1569398646.32211
1569398646.33774
1569398646.35336
1569398646.36899
1569398646.38461
1569398646.40024
1569398646.41587
1569398646.43149
1569398646.44712
1569398646.46274
1569398646.47837
1569398646.49399
1569398646.50962
1569398646.52525
1569398646.54087
1569398646.5565
1569398646.57212
1569398646.58775
1569398646.60337
1569398646.619
1569398646.63463
1569398646.65025
1569398646.66588
1569398646.6815
1569398646.69713
1569398646.71275
1569398646.72838
1569398646.74401
1569398646.75963
1569398646.77526
1569398646.79088
1569398646.80651
1569398646.82213
1569398646.83776
1569398646.85339
1569398646.86901
1569398646.88464
1569398646.90026
1569398646.91589
1569398646.93151
1569398646.94714
1569398646.96277
1569398646.97839
1569398646.99402
1569398647.00964
1569398647.02527
1569398647.04089
1569398647.05652
1569398647.07215
1569398647.08777
1569398647.1034
1569398647.11902
1569398647.13465
1569398647.15027
1569398647.1659
1569398647.18153
1569398647.19715
1569398647.21278
1569398647.2284
1569398647.24403
1569398647.25966
1569398647.27528
1569398647.29091
1569398647.30653
1569398647.32216
1569398647.33778
1569398647.35341
1569398647.36904
1569398647.38466
1569398647.40029
1569398647.41591
1569398647.43154
1569398647.44716
1569398647.46279
1569398647.47842
1569398647.49404
1569398647.50967
1569398647.52529
1569398647.54092
1569398647.55654
1569398647.57217
1569398647.5878
1569398647.60342
1569398647.61905
1569398647.63467
1569398647.6503
1569398647.66592
1569398647.68155
1569398647.69718
1569398647.7128
1569398647.72843
1569398647.74405
1569398647.75968
1569398647.7753
1569398647.79093
1569398647.80656
1569398647.82218
1569398647.83781
1569398647.85343
1569398647.86906
1569398647.88468
1569398647.90031
1569398647.91594
1569398647.93156
1569398647.94719
1569398647.96281
1569398647.97844
1569398647.99406
1569398648.00969
1569398648.02532
1569398648.04094
1569398648.05657
1569398648.07219
1569398648.08782
1569398648.10344
1569398648.11907
1569398648.1347
1569398648.15032
1569398648.16595
1569398648.18157
1569398648.1972
1569398648.21282
1569398648.22845
1569398648.24408
1569398648.2597
1569398648.27533
1569398648.29095
1569398648.30658
1569398648.3222
1569398648.33783
1569398648.35346
1569398648.36908
1569398648.38471
1569398648.40033
1569398648.41596
1569398648.43158
1569398648.44721
1569398648.46284
1569398648.47846
1569398648.49409
1569398648.50971
1569398648.52534
1569398648.54096
1569398648.55659
1569398648.57222
1569398648.58784
1569398648.60347
1569398648.61909
1569398648.63472
1569398648.65034
1569398648.66597
1569398648.6816
1569398648.69722
1569398648.71285
1569398648.72847
1569398648.7441
1569398648.75972
1569398648.77535
1569398648.79098
1569398648.8066
1569398648.82223
1569398648.83785
1569398648.85348
1569398648.8691
1569398648.88473
1569398648.90036
1569398648.91598
1569398648.93161
1569398648.94723
1569398648.96286
1569398648.97848
1569398648.99411
1569398649.00974
1569398649.02536
1569398649.04099
1569398649.05661
1569398649.07224
1569398649.08786
1569398649.10349
1569398649.11912
1569398649.13474
1569398649.15037
1569398649.16599
1569398649.18162
1569398649.19724
1569398649.21287
1569398649.2285
1569398649.24412
1569398649.25975
1569398649.27537
1569398649.291
1569398649.30662
1569398649.32225
1569398649.33788
1569398649.3535
1569398649.36913
1569398649.38475
1569398649.40038
1569398649.416
1569398649.43163
1569398649.44726
1569398649.46288
1569398649.47851
1569398649.49413
1569398649.50976
1569398649.52538
1569398649.54101
1569398649.55664
1569398649.57226
1569398649.58789
1569398649.60351
1569398649.61914
1569398649.63477
1569398649.65039
1569398649.66602
1569398649.68164
1569398649.69727
1569398649.71289
1569398649.72852
1569398649.74415
1569398649.75977
1569398649.7754
1569398649.79102
1569398649.80665
1569398649.82227
1569398649.8379
1569398649.85353
1569398649.86915
1569398649.88478
1569398649.9004
1569398649.91603
1569398649.93165
1569398649.94728
1569398649.96291
1569398649.97853
1569398649.99416
1569398650.00978
1569398650.02541
1569398650.04103
1569398650.05666
1569398650.07229
1569398650.08791
1569398650.10354
1569398650.11916
1569398650.13479
1569398650.15041
1569398650.16604
1569398650.18167
1569398650.19729
1569398650.21292
1569398650.22854
1569398650.24417
1569398650.25979
1569398650.27542
1569398650.29105
1569398650.30667
1569398650.3223
1569398650.33792
1569398650.35355
1569398650.36917
1569398650.3848
1569398650.40043
1569398650.41605
1569398650.43168
1569398650.4473
1569398650.46293
1569398650.47855
1569398650.49418
1569398650.50981
1569398650.52543
1569398650.54106
1569398650.55668
1569398650.57231
1569398650.58793
1569398650.60356
1569398650.61919
1569398650.63481
1569398650.65044
1569398650.66606
1569398650.68169
1569398650.69731
1569398650.71294
1569398650.72857
1569398650.74419
1569398650.75982
1569398650.77544
1569398650.79107
1569398650.80669
1569398650.82232
1569398650.83795
1569398650.85357
1569398650.8692
1569398650.88482
1569398650.90045
1569398650.91607
1569398650.9317
1569398650.94733
1569398650.96295
1569398650.97858
1569398650.9942
1569398651.00983
1569398651.02545
1569398651.04108
1569398651.05671
1569398651.07233
1569398651.08796
1569398651.10358
1569398651.11921
1569398651.13483
1569398651.15046
1569398651.16609
1569398651.18171
1569398651.19734
1569398651.21296
1569398651.22859
1569398651.24421
1569398651.25984
1569398651.27547
1569398651.29109
1569398651.30672
1569398651.32234
1569398651.33797
1569398651.35359
1569398651.36922
1569398651.38485
1569398651.40047
1569398651.4161
1569398651.43172
1569398651.44735
1569398651.46297
1569398651.4786
1569398651.49423
1569398651.50985
1569398651.52548
1569398651.5411
1569398651.55673
1569398651.57235
1569398651.58798
1569398651.60361
1569398651.61923
1569398651.63486
1569398651.65048
1569398651.66611
1569398651.68173
1569398651.69736
1569398651.71299
1569398651.72861
1569398651.74424
1569398651.75986
1569398651.77549
1569398651.79112
1569398651.80674
1569398651.82237
1569398651.83799
1569398651.85362
1569398651.86924
1569398651.88487
1569398651.9005
1569398651.91612
1569398651.93175
1569398651.94737
1569398651.963
1569398651.97862
1569398651.99425
1569398652.00988
1569398652.0255
1569398652.04113
1569398652.05675
1569398652.07238
1569398652.088
1569398652.10363
1569398652.11926
1569398652.13488
1569398652.15051
1569398652.16613
1569398652.18176
1569398652.19738
1569398652.21301
1569398652.22864
1569398652.24426
1569398652.25989
1569398652.27551
1569398652.29114
1569398652.30676
1569398652.32239
1569398652.33802
1569398652.35364
1569398652.36927
1569398652.38489
1569398652.40052
1569398652.41614
1569398652.43177
1569398652.4474
1569398652.46302
1569398652.47865
1569398652.49427
1569398652.5099
1569398652.52552
1569398652.54115
1569398652.55678
1569398652.5724
1569398652.58803
1569398652.60365
1569398652.61928
1569398652.6349
1569398652.65053
1569398652.66616
1569398652.68178
1569398652.69741
1569398652.71303
1569398652.72866
1569398652.74428
1569398652.75991
1569398652.77554
1569398652.79116
1569398652.80679
1569398652.82241
1569398652.83804
1569398652.85366
1569398652.86929
1569398652.88492
1569398652.90054
1569398652.91617
1569398652.93179
1569398652.94742
1569398652.96304
1569398652.97867
1569398652.9943
1569398653.00992
1569398653.02555
1569398653.04117
1569398653.0568
1569398653.07242
1569398653.08805
1569398653.10368
1569398653.1193
1569398653.13493
1569398653.15055
1569398653.16618
1569398653.1818
1569398653.19743
1569398653.21306
1569398653.22868
1569398653.24431
1569398653.25993
1569398653.27556
1569398653.29118
1569398653.30681
1569398653.32244
1569398653.33806
1569398653.35369
1569398653.36931
1569398653.38494
1569398653.40056
1569398653.41619
1569398653.43182
1569398653.44744
1569398653.46307
1569398653.47869
1569398653.49432
1569398653.50994
1569398653.52557
1569398653.5412
1569398653.55682
1569398653.57245
1569398653.58807
1569398653.6037
1569398653.61932
1569398653.63495
1569398653.65058
1569398653.6662
1569398653.68183
1569398653.69745
1569398653.71308
1569398653.7287
1569398653.74433
1569398653.75996
1569398653.77558
1569398653.79121
1569398653.80683
1569398653.82246
1569398653.83808
1569398653.85371
1569398653.86934
1569398653.88496
1569398653.90059
1569398653.91621
1569398653.93184
1569398653.94746
1569398653.96309
1569398653.97872
1569398653.99434
1569398654.00997
1569398654.02559
1569398654.04122
1569398654.05684
1569398654.07247
1569398654.0881
1569398654.10372
1569398654.11935
1569398654.13497
1569398654.1506
1569398654.16622
1569398654.18185
1569398654.19748
1569398654.2131
1569398654.22873
1569398654.24435
1569398654.25998
1569398654.2756
1569398654.29123
1569398654.30686
1569398654.32248
1569398654.33811
1569398654.35373
1569398654.36936
1569398654.38498
1569398654.40061
1569398654.41624
1569398654.43186
1569398654.44749
1569398654.46311
1569398654.47874
1569398654.49437
1569398654.50999
1569398654.52562
1569398654.54124
1569398654.55687
1569398654.57249
1569398654.58812
1569398654.60375
1569398654.61937
1569398654.635
1569398654.65062
1569398654.66625
1569398654.68187
1569398654.6975
1569398654.71313
1569398654.72875
1569398654.74438
1569398654.76
1569398654.77563
1569398654.79125
1569398654.80688
1569398654.82251
1569398654.83813
1569398654.85376
1569398654.86938
1569398654.88501
1569398654.90063
1569398654.91626
1569398654.93189
1569398654.94751
1569398654.96314
1569398654.97876
1569398654.99439
1569398655.01001
1569398655.02564
1569398655.04127
1569398655.05689
1569398655.07252
1569398655.08814
1569398655.10377
1569398655.11939
1569398655.13502
1569398655.15065
1569398655.16627
1569398655.1819
1569398655.19752
1569398655.21315
1569398655.22877
1569398655.2444
1569398655.26003
1569398655.27565
1569398655.29128
1569398655.3069
1569398655.32253
1569398655.33815
1569398655.35378
1569398655.36941
1569398655.38503
1569398655.40066
1569398655.41628
1569398655.43191
1569398655.44753
1569398655.46316
1569398655.47879
1569398655.49441
1569398655.51004
1569398655.52566
1569398655.54129
1569398655.55691
1569398655.57254
1569398655.58817
1569398655.60379
1569398655.61942
1569398655.63504
1569398655.65067
1569398655.66629
1569398655.68192
1569398655.69755
1569398655.71317
1569398655.7288
1569398655.74442
1569398655.76005
1569398655.77567
1569398655.7913
1569398655.80693
1569398655.82255
1569398655.83818
1569398655.8538
1569398655.86943
1569398655.88505
1569398655.90068
1569398655.91631
1569398655.93193
1569398655.94756
1569398655.96318
1569398655.97881
1569398655.99443
1569398656.01006
1569398656.02569
1569398656.04131
1569398656.05694
1569398656.07256
1569398656.08819
1569398656.10381
1569398656.11944
1569398656.13507
1569398656.15069
1569398656.16632
1569398656.18194
1569398656.19757
1569398656.21319
1569398656.22882
1569398656.24445
1569398656.26007
1569398656.2757
1569398656.29132
1569398656.30695
1569398656.32257
1569398656.3382
1569398656.35383
1569398656.36945
1569398656.38508
1569398656.4007
1569398656.41633
1569398656.43195
1569398656.44758
1569398656.46321
1569398656.47883
1569398656.49446
1569398656.51008
1569398656.52571
1569398656.54133
1569398656.55696
1569398656.57259
1569398656.58821
1569398656.60384
1569398656.61946
1569398656.63509
1569398656.65072
1569398656.66634
1569398656.68197
1569398656.69759
1569398656.71322
1569398656.72884
1569398656.74447
1569398656.7601
1569398656.77572
1569398656.79135
1569398656.80697
1569398656.8226
1569398656.83822
1569398656.85385
1569398656.86948
1569398656.8851
1569398656.90073
1569398656.91635
1569398656.93198
1569398656.9476
1569398656.96323
1569398656.97886
1569398656.99448
1569398657.01011
1569398657.02573
1569398657.04136
1569398657.05698
1569398657.07261
1569398657.08824
1569398657.10386
1569398657.11949
1569398657.13511
1569398657.15074
1569398657.16636
1569398657.18199
1569398657.19762
1569398657.21324
1569398657.22887
1569398657.24449
1569398657.26012
1569398657.27574
1569398657.29137
1569398657.307
1569398657.32262
1569398657.33825
1569398657.35387
1569398657.3695
1569398657.38512
1569398657.40075
1569398657.41638
1569398657.432
1569398657.44763
1569398657.46325
1569398657.47888
1569398657.4945
1569398657.51013
1569398657.52576
1569398657.54138
1569398657.55701
1569398657.57263
1569398657.58826
1569398657.60388
1569398657.61951
1569398657.63514
1569398657.65076
1569398657.66639
1569398657.68201
1569398657.69764
1569398657.71326
1569398657.72889
1569398657.74452
1569398657.76014
1569398657.77577
1569398657.79139
1569398657.80702
1569398657.82264
1569398657.83827
1569398657.8539
1569398657.86952
1569398657.88515
1569398657.90077
1569398657.9164
1569398657.93202
1569398657.94765
1569398657.96328
1569398657.9789
1569398657.99453
1569398658.01015
1569398658.02578
1569398658.0414
1569398658.05703
1569398658.07266
1569398658.08828
1569398658.10391
1569398658.11953
1569398658.13516
1569398658.15078
1569398658.16641
1569398658.18204
1569398658.19766
1569398658.21329
1569398658.22891
1569398658.24454
1569398658.26016
1569398658.27579
1569398658.29142
1569398658.30704
1569398658.32267
1569398658.33829
1569398658.35392
1569398658.36954
1569398658.38517
1569398658.4008
1569398658.41642
1569398658.43205
1569398658.44767
1569398658.4633
1569398658.47892
1569398658.49455
1569398658.51018
1569398658.5258
1569398658.54143
1569398658.55705
1569398658.57268
1569398658.5883
1569398658.60393
1569398658.61956
1569398658.63518
1569398658.65081
1569398658.66643
1569398658.68206
1569398658.69768
1569398658.71331
1569398658.72894
1569398658.74456
1569398658.76019
1569398658.77581
1569398658.79144
1569398658.80706
1569398658.82269
1569398658.83832
1569398658.85394
1569398658.86957
1569398658.88519
1569398658.90082
1569398658.91645
1569398658.93207
1569398658.9477
1569398658.96332
1569398658.97895
1569398658.99457
1569398659.0102
1569398659.02583
1569398659.04145
1569398659.05708
1569398659.0727
1569398659.08833
1569398659.10395
1569398659.11958
1569398659.13521
1569398659.15083
1569398659.16646
1569398659.18208
1569398659.19771
1569398659.21333
1569398659.22896
1569398659.24459
1569398659.26021
1569398659.27584
1569398659.29146
1569398659.30709
1569398659.32271
1569398659.33834
1569398659.35397
1569398659.36959
1569398659.38522
1569398659.40084
1569398659.41647
1569398659.43209
1569398659.44772
1569398659.46335
1569398659.47897
1569398659.4946
1569398659.51022
1569398659.52585
1569398659.54147
1569398659.5571
1569398659.57273
1569398659.58835
1569398659.60398
1569398659.6196
1569398659.63523
1569398659.65085
1569398659.66648
1569398659.68211
1569398659.69773
1569398659.71336
1569398659.72898
1569398659.74461
1569398659.76023
1569398659.77586
1569398659.79149
1569398659.80711
1569398659.82274
1569398659.83836
1569398659.85399
1569398659.86961
1569398659.88524
1569398659.90087
1569398659.91649
1569398659.93212
1569398659.94774
1569398659.96337
1569398659.97899
1569398659.99462
1569398660.01025
1569398660.02587
1569398660.0415
1569398660.05712
1569398660.07275
1569398660.08837
1569398660.104
1569398660.11963
1569398660.13525
1569398660.15088
1569398660.1665
1569398660.18213
1569398660.19775
1569398660.21338
1569398660.22901
1569398660.24463
1569398660.26026
1569398660.27588
1569398660.29151
1569398660.30713
1569398660.32276
1569398660.33839
1569398660.35401
1569398660.36964
1569398660.38526
1569398660.40089
1569398660.41651
1569398660.43214
1569398660.44777
1569398660.46339
1569398660.47902
1569398660.49464
1569398660.51027
1569398660.52589
1569398660.54152
1569398660.55715
1569398660.57277
1569398660.5884
1569398660.60402
1569398660.61965
1569398660.63527
1569398660.6509
1569398660.66653
1569398660.68215
1569398660.69778
1569398660.7134
1569398660.72903
1569398660.74465
1569398660.76028
1569398660.77591
1569398660.79153
1569398660.80716
1569398660.82278
1569398660.83841
1569398660.85403
1569398660.86966
1569398660.88529
1569398660.90091
1569398660.91654
1569398660.93216
1569398660.94779
1569398660.96341
1569398660.97904
1569398660.99467
1569398661.01029
1569398661.02592
1569398661.04154
1569398661.05717
1569398661.07279
1569398661.08842
1569398661.10405
1569398661.11967
1569398661.1353
1569398661.15092
1569398661.16655
1569398661.18217
1569398661.1978
1569398661.21343
1569398661.22905
1569398661.24468
1569398661.2603
1569398661.27593
1569398661.29155
1569398661.30718
1569398661.32281
1569398661.33843
1569398661.35406
1569398661.36968
1569398661.38531
1569398661.40093
1569398661.41656
1569398661.43219
1569398661.44781
1569398661.46344
1569398661.47906
1569398661.49469
1569398661.51031
1569398661.52594
1569398661.54157
1569398661.55719
1569398661.57282
1569398661.58844
1569398661.60407
1569398661.6197
1569398661.63532
1569398661.65095
1569398661.66657
1569398661.6822
1569398661.69782
1569398661.71345
1569398661.72908
1569398661.7447
1569398661.76033
1569398661.77595
1569398661.79158
1569398661.8072
1569398661.82283
1569398661.83846
1569398661.85408
1569398661.86971
1569398661.88533
1569398661.90096
1569398661.91658
1569398661.93221
1569398661.94784
1569398661.96346
1569398661.97909
1569398661.99471
1569398662.01034
1569398662.02596
1569398662.04159
1569398662.05722
1569398662.07284
1569398662.08847
1569398662.10409
1569398662.11972
1569398662.13534
1569398662.15097
1569398662.1666
1569398662.18222
1569398662.19785
1569398662.21347
1569398662.2291
1569398662.24472
1569398662.26035
1569398662.27598
1569398662.2916
1569398662.30723
1569398662.32285
1569398662.33848
1569398662.3541
1569398662.36973
1569398662.38536
1569398662.40098
1569398662.41661
1569398662.43223
1569398662.44786
1569398662.46348
1569398662.47911
1569398662.49474
1569398662.51036
1569398662.52599
1569398662.54161
1569398662.55724
1569398662.57286
1569398662.58849
1569398662.60412
1569398662.61974
1569398662.63537
1569398662.65099
1569398662.66662
1569398662.68224
1569398662.69787
1569398662.7135
1569398662.72912
1569398662.74475
1569398662.76037
1569398662.776
1569398662.79162
1569398662.80725
1569398662.82288
1569398662.8385
1569398662.85413
1569398662.86975
1569398662.88538
1569398662.901
1569398662.91663
1569398662.93226
1569398662.94788
1569398662.96351
1569398662.97913
1569398662.99476
1569398663.01038
1569398663.02601
1569398663.04164
1569398663.05726
1569398663.07289
1569398663.08851
1569398663.10414
1569398663.11976
1569398663.13539
1569398663.15102
1569398663.16664
1569398663.18227
1569398663.19789
1569398663.21352
1569398663.22914
1569398663.24477
1569398663.2604
1569398663.27602
1569398663.29165
1569398663.30727
1569398663.3229
1569398663.33852
1569398663.35415
1569398663.36978
1569398663.3854
1569398663.40103
1569398663.41665
1569398663.43228
1569398663.4479
1569398663.46353
1569398663.47916
1569398663.49478
1569398663.51041
1569398663.52603
1569398663.54166
1569398663.55728
1569398663.57291
1569398663.58854
1569398663.60416
1569398663.61979
1569398663.63541
1569398663.65104
1569398663.66666
1569398663.68229
1569398663.69792
1569398663.71354
1569398663.72917
1569398663.74479
1569398663.76042
1569398663.77605
1569398663.79167
1569398663.8073
1569398663.82292
1569398663.83855
1569398663.85417
1569398663.8698
1569398663.88543
1569398663.90105
1569398663.91668
1569398663.9323
1569398663.94793
1569398663.96355
1569398663.97918
1569398663.99481
1569398664.01043
1569398664.02606
1569398664.04168
1569398664.05731
1569398664.07293
1569398664.08856
1569398664.10419
1569398664.11981
1569398664.13544
1569398664.15106
1569398664.16669
1569398664.18231
1569398664.19794
1569398664.21357
1569398664.22919
1569398664.24482
1569398664.26044
1569398664.27607
1569398664.29169
1569398664.30732
1569398664.32295
1569398664.33857
1569398664.3542
1569398664.36982
1569398664.38545
1569398664.40107
1569398664.4167
1569398664.43233
1569398664.44795
1569398664.46358
1569398664.4792
1569398664.49483
1569398664.51045
1569398664.52608
1569398664.54171
1569398664.55733
1569398664.57296
1569398664.58858
1569398664.60421
1569398664.61983
1569398664.63546
1569398664.65109
1569398664.66671
1569398664.68234
1569398664.69796
1569398664.71359
1569398664.72921
1569398664.74484
1569398664.76047
1569398664.77609
1569398664.79172
1569398664.80734
1569398664.82297
1569398664.83859
1569398664.85422
1569398664.86985
1569398664.88547
1569398664.9011
1569398664.91672
1569398664.93235
1569398664.94797
1569398664.9636
1569398664.97923
1569398664.99485
1569398665.01048
1569398665.0261
1569398665.04173
1569398665.05735
1569398665.07298
1569398665.08861
1569398665.10423
1569398665.11986
1569398665.13548
1569398665.15111
1569398665.16673
1569398665.18236
1569398665.19799
1569398665.21361
1569398665.22924
1569398665.24486
1569398665.26049
1569398665.27611
1569398665.29174
1569398665.30737
1569398665.32299
1569398665.33862
1569398665.35424
1569398665.36987
1569398665.38549
1569398665.40112
1569398665.41675
1569398665.43237
1569398665.448
1569398665.46362
1569398665.47925
1569398665.49487
1569398665.5105
1569398665.52613
1569398665.54175
1569398665.55738
1569398665.573
1569398665.58863
1569398665.60425
1569398665.61988
1569398665.63551
1569398665.65113
1569398665.66676
1569398665.68238
1569398665.69801
1569398665.71363
1569398665.72926
1569398665.74489
1569398665.76051
1569398665.77614
1569398665.79176
1569398665.80739
1569398665.82301
1569398665.83864
1569398665.85427
1569398665.86989
1569398665.88552
1569398665.90114
1569398665.91677
1569398665.93239
1569398665.94802
1569398665.96365
1569398665.97927
1569398665.9949
1569398666.01052
1569398666.02615
1569398666.04177
1569398666.0574
1569398666.07303
1569398666.08865
1569398666.10428
1569398666.1199
1569398666.13553
1569398666.15116
1569398666.16678
1569398666.18241
1569398666.19803
1569398666.21366
1569398666.22928
1569398666.24491
1569398666.26054
1569398666.27616
1569398666.29179
1569398666.30741
1569398666.32304
1569398666.33866
1569398666.35429
1569398666.36992
1569398666.38554
1569398666.40117
1569398666.41679
1569398666.43242
1569398666.44804
1569398666.46367
1569398666.4793
1569398666.49492
1569398666.51055
1569398666.52617
1569398666.5418
1569398666.55742
1569398666.57305
1569398666.58868
1569398666.6043
1569398666.61993
1569398666.63555
1569398666.65118
1569398666.6668
1569398666.68243
1569398666.69806
1569398666.71368
1569398666.72931
1569398666.74493
1569398666.76056
1569398666.77618
1569398666.79181
1569398666.80744
1569398666.82306
1569398666.83869
1569398666.85431
1569398666.86994
1569398666.88556
1569398666.90119
1569398666.91682
1569398666.93244
1569398666.94807
1569398666.96369
1569398666.97932
1569398666.99494
1569398667.01057
1569398667.0262
1569398667.04182
1569398667.05745
1569398667.07307
1569398667.0887
1569398667.10432
1569398667.11995
1569398667.13558
1569398667.1512
1569398667.16683
1569398667.18245
1569398667.19808
1569398667.2137
1569398667.22933
1569398667.24496
1569398667.26058
1569398667.27621
1569398667.29183
1569398667.30746
1569398667.32308
1569398667.33871
1569398667.35434
1569398667.36996
1569398667.38559
1569398667.40121
1569398667.41684
1569398667.43246
1569398667.44809
1569398667.46372
1569398667.47934
1569398667.49497
1569398667.51059
1569398667.52622
1569398667.54184
1569398667.55747
1569398667.5731
1569398667.58872
1569398667.60435
1569398667.61997
1569398667.6356
1569398667.65122
1569398667.66685
1569398667.68248
1569398667.6981
1569398667.71373
1569398667.72935
1569398667.74498
1569398667.7606
1569398667.77623
1569398667.79186
1569398667.80748
1569398667.82311
1569398667.83873
1569398667.85436
1569398667.86998
1569398667.88561
1569398667.90124
1569398667.91686
1569398667.93249
1569398667.94811
1569398667.96374
1569398667.97936
1569398667.99499
1569398668.01062
1569398668.02624
1569398668.04187
1569398668.05749
1569398668.07312
1569398668.08874
1569398668.10437
1569398668.12
1569398668.13562
1569398668.15125
1569398668.16687
1569398668.1825
1569398668.19812
1569398668.21375
1569398668.22938
1569398668.245
1569398668.26063
1569398668.27625
1569398668.29188
1569398668.3075
1569398668.32313
1569398668.33876
1569398668.35438
1569398668.37001
1569398668.38563
1569398668.40126
1569398668.41688
1569398668.43251
1569398668.44814
1569398668.46376
1569398668.47939
1569398668.49501
1569398668.51064
1569398668.52626
1569398668.54189
1569398668.55752
1569398668.57314
1569398668.58877
1569398668.60439
1569398668.62002
1569398668.63565
1569398668.65127
1569398668.6669
1569398668.68252
1569398668.69815
1569398668.71377
1569398668.7294
1569398668.74503
1569398668.76065
1569398668.77628
1569398668.7919
1569398668.80753
1569398668.82315
1569398668.83878
1569398668.85441
1569398668.87003
1569398668.88566
1569398668.90128
1569398668.91691
1569398668.93253
1569398668.94816
1569398668.96379
1569398668.97941
1569398668.99504
1569398669.01066
1569398669.02629
1569398669.04191
1569398669.05754
1569398669.07317
1569398669.08879
1569398669.10442
1569398669.12004
1569398669.13567
1569398669.15129
1569398669.16692
1569398669.18255
1569398669.19817
1569398669.2138
1569398669.22942
1569398669.24505
1569398669.26067
1569398669.2763
1569398669.29193
1569398669.30755
1569398669.32318
1569398669.3388
1569398669.35443
1569398669.37005
1569398669.38568
1569398669.40131
1569398669.41693
1569398669.43256
1569398669.44818
1569398669.46381
1569398669.47943
1569398669.49506
1569398669.51069
1569398669.52631
1569398669.54194
1569398669.55756
1569398669.57319
1569398669.58881
1569398669.60444
1569398669.62007
1569398669.63569
1569398669.65132
1569398669.66694
1569398669.68257
1569398669.69819
1569398669.71382
1569398669.72945
1569398669.74507
1569398669.7607
1569398669.77632
1569398669.79195
1569398669.80757
1569398669.8232
1569398669.83883
1569398669.85445
1569398669.87008
1569398669.8857
1569398669.90133
1569398669.91695
1569398669.93258
1569398669.94821
1569398669.96383
1569398669.97946
1569398669.99508
1569398670.01071
1569398670.02633
1569398670.04196
1569398670.05759
1569398670.07321
1569398670.08884
1569398670.10446
1569398670.12009
1569398670.13571
1569398670.15134
1569398670.16697
1569398670.18259
1569398670.19822
1569398670.21384
1569398670.22947
1569398670.24509
1569398670.26072
1569398670.27635
1569398670.29197
1569398670.3076
1569398670.32322
1569398670.33885
1569398670.35447
1569398670.3701
1569398670.38573
1569398670.40135
1569398670.41698
1569398670.4326
1569398670.44823
1569398670.46385
1569398670.47948
1569398670.49511
1569398670.51073
1569398670.52636
1569398670.54198
1569398670.55761
1569398670.57323
1569398670.58886
1569398670.60449
1569398670.62011
1569398670.63574
1569398670.65136
1569398670.66699
1569398670.68261
1569398670.69824
1569398670.71387
1569398670.72949
1569398670.74512
1569398670.76074
1569398670.77637
1569398670.79199
1569398670.80762
1569398670.82325
1569398670.83887
1569398670.8545
1569398670.87012
1569398670.88575
1569398670.90138
1569398670.917
1569398670.93263
1569398670.94825
1569398670.96388
1569398670.9795
1569398670.99513
1569398671.01076
1569398671.02638
1569398671.04201
1569398671.05763
1569398671.07326
1569398671.08888
1569398671.10451
1569398671.12014
1569398671.13576
1569398671.15139
1569398671.16701
1569398671.18264
1569398671.19826
1569398671.21389
1569398671.22952
1569398671.24514
1569398671.26077
1569398671.27639
1569398671.29202
1569398671.30764
1569398671.32327
1569398671.3389
1569398671.35452
1569398671.37015
1569398671.38577
1569398671.4014
1569398671.41702
1569398671.43265
1569398671.44828
1569398671.4639
1569398671.47953
1569398671.49515
1569398671.51078
1569398671.5264
1569398671.54203
1569398671.55766
1569398671.57328
1569398671.58891
1569398671.60453
1569398671.62016
1569398671.63578
1569398671.65141
1569398671.66704
1569398671.68266
1569398671.69829
1569398671.71391
1569398671.72954
1569398671.74516
1569398671.76079
1569398671.77642
1569398671.79204
1569398671.80767
1569398671.82329
1569398671.83892
1569398671.85454
1569398671.87017
1569398671.8858
1569398671.90142
1569398671.91705
1569398671.93267
1569398671.9483
1569398671.96392
1569398671.97955
1569398671.99518
1569398672.0108
1569398672.02643
1569398672.04205
1569398672.05768
1569398672.0733
1569398672.08893
1569398672.10456
1569398672.12018
1569398672.13581
1569398672.15143
1569398672.16706
1569398672.18268
1569398672.19831
1569398672.21394
1569398672.22956
1569398672.24519
1569398672.26081
1569398672.27644
1569398672.29206
1569398672.30769
1569398672.32332
1569398672.33894
1569398672.35457
1569398672.37019
1569398672.38582
1569398672.40144
1569398672.41707
1569398672.4327
1569398672.44832
1569398672.46395
1569398672.47957
1569398672.4952
1569398672.51082
1569398672.52645
1569398672.54208
1569398672.5577
1569398672.57333
1569398672.58895
1569398672.60458
1569398672.6202
1569398672.63583
1569398672.65146
1569398672.66708
1569398672.68271
1569398672.69833
1569398672.71396
1569398672.72958
1569398672.74521
1569398672.76084
1569398672.77646
1569398672.79209
1569398672.80771
1569398672.82334
1569398672.83896
1569398672.85459
1569398672.87022
1569398672.88584
1569398672.90147
1569398672.91709
1569398672.93272
1569398672.94834
1569398672.96397
1569398672.9796
1569398672.99522
1569398673.01085
1569398673.02647
1569398673.0421
1569398673.05772
1569398673.07335
1569398673.08898
1569398673.1046
1569398673.12023
1569398673.13585
1569398673.15148
1569398673.1671
1569398673.18273
1569398673.19836
1569398673.21398
1569398673.22961
1569398673.24523
1569398673.26086
1569398673.27648
1569398673.29211
1569398673.30774
1569398673.32336
1569398673.33899
1569398673.35461
1569398673.37024
1569398673.38586
1569398673.40149
1569398673.41712
1569398673.43274
1569398673.44837
1569398673.46399
1569398673.47962
1569398673.49525
1569398673.51087
1569398673.5265
1569398673.54212
1569398673.55775
1569398673.57337
1569398673.589
1569398673.60463
1569398673.62025
1569398673.63588
1569398673.6515
1569398673.66713
1569398673.68275
1569398673.69838
1569398673.71401
1569398673.72963
1569398673.74526
1569398673.76088
1569398673.77651
1569398673.79213
1569398673.80776
1569398673.82339
1569398673.83901
1569398673.85464
1569398673.87026
1569398673.88589
1569398673.90151
1569398673.91714
1569398673.93277
1569398673.94839
1569398673.96402
1569398673.97964
1569398673.99527
1569398674.01089
1569398674.02652
1569398674.04215
1569398674.05777
1569398674.0734
1569398674.08902
1569398674.10465
1569398674.12027
1569398674.1359
1569398674.15153
1569398674.16715
1569398674.18278
1569398674.1984
1569398674.21403
1569398674.22965
1569398674.24528
1569398674.26091
1569398674.27653
1569398674.29216
1569398674.30778
1569398674.32341
1569398674.33903
1569398674.35466
1569398674.37029
1569398674.38591
1569398674.40154
1569398674.41716
1569398674.43279
1569398674.44841
1569398674.46404
1569398674.47967
1569398674.49529
1569398674.51092
1569398674.52654
1569398674.54217
1569398674.55779
1569398674.57342
1569398674.58905
1569398674.60467
1569398674.6203
1569398674.63592
1569398674.65155
1569398674.66717
1569398674.6828
1569398674.69843
1569398674.71405
1569398674.72968
1569398674.7453
1569398674.76093
1569398674.77655
1569398674.79218
1569398674.80781
1569398674.82343
1569398674.83906
1569398674.85468
1569398674.87031
1569398674.88593
1569398674.90156
1569398674.91719
1569398674.93281
1569398674.94844
1569398674.96406
1569398674.97969
1569398674.99531
1569398675.01094
1569398675.02657
1569398675.04219
1569398675.05782
1569398675.07344
1569398675.08907
1569398675.10469
1569398675.12032
1569398675.13595
1569398675.15157
1569398675.1672
1569398675.18282
1569398675.19845
1569398675.21407
1569398675.2297
1569398675.24533
1569398675.26095
1569398675.27658
1569398675.2922
1569398675.30783
1569398675.32345
1569398675.33908
1569398675.35471
1569398675.37033
1569398675.38596
1569398675.40158
1569398675.41721
1569398675.43283
1569398675.44846
1569398675.46409
1569398675.47971
1569398675.49534
1569398675.51096
1569398675.52659
1569398675.54221
1569398675.55784
1569398675.57347
1569398675.58909
1569398675.60472
1569398675.62034
1569398675.63597
1569398675.65159
1569398675.66722
1569398675.68285
1569398675.69847
1569398675.7141
1569398675.72972
1569398675.74535
1569398675.76098
1569398675.7766
1569398675.79223
1569398675.80785
1569398675.82348
1569398675.8391
1569398675.85473
1569398675.87036
1569398675.88598
1569398675.90161
1569398675.91723
1569398675.93286
1569398675.94848
1569398675.96411
1569398675.97974
1569398675.99536
1569398676.01099
1569398676.02661
1569398676.04224
1569398676.05786
1569398676.07349
1569398676.08912
1569398676.10474
1569398676.12037
1569398676.13599
1569398676.15162
1569398676.16724
1569398676.18287
1569398676.1985
1569398676.21412
1569398676.22975
1569398676.24537
1569398676.261
1569398676.27662
1569398676.29225
1569398676.30788
1569398676.3235
1569398676.33913
1569398676.35475
1569398676.37038
1569398676.386
1569398676.40163
1569398676.41726
1569398676.43288
1569398676.44851
1569398676.46413
1569398676.47976
1569398676.49538
1569398676.51101
1569398676.52664
1569398676.54226
1569398676.55789
1569398676.57351
1569398676.58914
1569398676.60476
1569398676.62039
1569398676.63602
1569398676.65164
1569398676.66727
1569398676.68289
1569398676.69852
1569398676.71414
1569398676.72977
1569398676.7454
1569398676.76102
1569398676.77665
1569398676.79227
1569398676.8079
1569398676.82352
1569398676.83915
1569398676.85478
1569398676.8704
1569398676.88603
1569398676.90165
1569398676.91728
1569398676.9329
1569398676.94853
1569398676.96416
1569398676.97978
1569398676.99541
1569398677.01103
1569398677.02666
1569398677.04228
1569398677.05791
1569398677.07354
1569398677.08916
1569398677.10479
1569398677.12041
1569398677.13604
1569398677.15166
1569398677.16729
1569398677.18292
1569398677.19854
1569398677.21417
1569398677.22979
1569398677.24542
1569398677.26104
1569398677.27667
1569398677.2923
1569398677.30792
1569398677.32355
1569398677.33917
1569398677.3548
1569398677.37042
1569398677.38605
1569398677.40168
1569398677.4173
1569398677.43293
1569398677.44855
1569398677.46418
1569398677.4798
1569398677.49543
1569398677.51106
1569398677.52668
1569398677.54231
1569398677.55793
1569398677.57356
1569398677.58918
1569398677.60481
1569398677.62044
1569398677.63606
1569398677.65169
1569398677.66731
1569398677.68294
1569398677.69856
1569398677.71419
1569398677.72982
1569398677.74544
1569398677.76107
1569398677.77669
1569398677.79232
1569398677.80794
1569398677.82357
1569398677.8392
1569398677.85482
1569398677.87045
1569398677.88607
1569398677.9017
1569398677.91733
1569398677.93295
1569398677.94858
1569398677.9642
1569398677.97983
1569398677.99545
1569398678.01108
1569398678.02671
1569398678.04233
1569398678.05796
1569398678.07358
1569398678.08921
1569398678.10483
1569398678.12046
1569398678.13609
1569398678.15171
1569398678.16734
1569398678.18296
1569398678.19859
1569398678.21421
1569398678.22984
1569398678.24547
1569398678.26109
1569398678.27672
1569398678.29234
1569398678.30797
1569398678.32359
1569398678.33922
1569398678.35485
1569398678.37047
1569398678.3861
1569398678.40172
1569398678.41735
1569398678.43297
1569398678.4486
1569398678.46423
1569398678.47985
1569398678.49548
1569398678.5111
1569398678.52673
1569398678.54235
1569398678.55798
1569398678.57361
1569398678.58923
1569398678.60486
1569398678.62048
1569398678.63611
1569398678.65173
1569398678.66736
1569398678.68299
1569398678.69861
1569398678.71424
1569398678.72986
1569398678.74549
1569398678.76111
1569398678.77674
1569398678.79237
1569398678.80799
1569398678.82362
1569398678.83924
1569398678.85487
1569398678.87049
1569398678.88612
1569398678.90175
1569398678.91737
1569398678.933
1569398678.94862
1569398678.96425
1569398678.97987
1569398678.9955
1569398679.01113
1569398679.02675
1569398679.04238
1569398679.058
1569398679.07363
1569398679.08925
1569398679.10488
1569398679.12051
1569398679.13613
1569398679.15176
1569398679.16738
1569398679.18301
1569398679.19863
1569398679.21426
1569398679.22989
1569398679.24551
1569398679.26114
1569398679.27676
1569398679.29239
1569398679.30801
1569398679.32364
1569398679.33927
1569398679.35489
1569398679.37052
1569398679.38614
1569398679.40177
1569398679.41739
1569398679.43302
1569398679.44865
1569398679.46427
1569398679.4799
1569398679.49552
1569398679.51115
1569398679.52677
1569398679.5424
1569398679.55803
1569398679.57365
1569398679.58928
1569398679.6049
1569398679.62053
1569398679.63615
1569398679.65178
1569398679.66741
1569398679.68303
1569398679.69866
1569398679.71428
1569398679.72991
1569398679.74553
1569398679.76116
1569398679.77679
1569398679.79241
1569398679.80804
1569398679.82366
1569398679.83929
1569398679.85491
1569398679.87054
1569398679.88617
1569398679.90179
1569398679.91742
1569398679.93304
1569398679.94867
1569398679.96429
1569398679.97992
1569398679.99555
1569398680.01117
1569398680.0268
1569398680.04242
1569398680.05805
1569398680.07367
1569398680.0893
1569398680.10493
1569398680.12055
1569398680.13618
1569398680.1518
1569398680.16743
1569398680.18305
1569398680.19868
1569398680.21431
1569398680.22993
1569398680.24556
1569398680.26118
1569398680.27681
1569398680.29243
1569398680.30806
1569398680.32369
1569398680.33931
1569398680.35494
1569398680.37056
1569398680.38619
1569398680.40181
1569398680.41744
1569398680.43307
1569398680.44869
1569398680.46432
1569398680.47994
1569398680.49557
1569398680.51119
1569398680.52682
1569398680.54245
1569398680.55807
1569398680.5737
1569398680.58932
1569398680.60495
1569398680.62058
1569398680.6362
1569398680.65183
1569398680.66745
1569398680.68308
1569398680.6987
1569398680.71433
1569398680.72996
1569398680.74558
1569398680.76121
1569398680.77683
1569398680.79246
1569398680.80808
1569398680.82371
1569398680.83934
1569398680.85496
1569398680.87059
1569398680.88621
1569398680.90184
1569398680.91746
1569398680.93309
1569398680.94872
1569398680.96434
1569398680.97997
1569398680.99559
1569398681.01122
1569398681.02684
1569398681.04247
1569398681.0581
1569398681.07372
1569398681.08935
1569398681.10497
1569398681.1206
1569398681.13622
1569398681.15185
1569398681.16748
1569398681.1831
1569398681.19873
1569398681.21435
1569398681.22998
1569398681.2456
1569398681.26123
1569398681.27686
1569398681.29248
1569398681.30811
1569398681.32373
1569398681.33936
1569398681.35498
1569398681.37061
1569398681.38624
1569398681.40186
1569398681.41749
1569398681.43311
1569398681.44874
1569398681.46436
1569398681.47999
1569398681.49562
1569398681.51124
1569398681.52687
1569398681.54249
1569398681.55812
1569398681.57374
1569398681.58937
1569398681.605
1569398681.62062
1569398681.63625
1569398681.65187
1569398681.6675
1569398681.68312
1569398681.69875
1569398681.71438
1569398681.73
1569398681.74563
1569398681.76125
1569398681.77688
1569398681.7925
1569398681.80813
1569398681.82376
1569398681.83938
1569398681.85501
1569398681.87063
1569398681.88626
1569398681.90188
1569398681.91751
1569398681.93314
1569398681.94876
1569398681.96439
1569398681.98001
1569398681.99564
1569398682.01126
1569398682.02689
1569398682.04252
1569398682.05814
1569398682.07377
1569398682.08939
1569398682.10502
1569398682.12064
1569398682.13627
1569398682.1519
1569398682.16752
1569398682.18315
1569398682.19877
1569398682.2144
1569398682.23002
1569398682.24565
1569398682.26128
1569398682.2769
1569398682.29253
1569398682.30815
1569398682.32378
1569398682.3394
1569398682.35503
1569398682.37066
1569398682.38628
1569398682.40191
1569398682.41753
1569398682.43316
1569398682.44878
1569398682.46441
1569398682.48004
1569398682.49566
1569398682.51129
1569398682.52691
1569398682.54254
1569398682.55816
1569398682.57379
1569398682.58942
1569398682.60504
1569398682.62067
1569398682.63629
1569398682.65192
1569398682.66754
1569398682.68317
1569398682.6988
1569398682.71442
1569398682.73005
1569398682.74567
1569398682.7613
1569398682.77693
1569398682.79255
1569398682.80818
1569398682.8238
1569398682.83943
1569398682.85505
1569398682.87068
1569398682.88631
1569398682.90193
1569398682.91756
1569398682.93318
1569398682.94881
1569398682.96443
1569398682.98006
1569398682.99569
1569398683.01131
1569398683.02694
1569398683.04256
1569398683.05819
1569398683.07381
1569398683.08944
1569398683.10507
1569398683.12069
1569398683.13632
1569398683.15194
1569398683.16757
1569398683.18319
1569398683.19882
1569398683.21445
1569398683.23007
1569398683.2457
1569398683.26132
1569398683.27695
1569398683.29257
1569398683.3082
1569398683.32383
1569398683.33945
1569398683.35508
1569398683.3707
1569398683.38633
1569398683.40195
1569398683.41758
1569398683.43321
1569398683.44883
1569398683.46446
1569398683.48008
1569398683.49571
1569398683.51133
1569398683.52696
1569398683.54259
1569398683.55821
1569398683.57384
1569398683.58946
1569398683.60509
1569398683.62071
1569398683.63634
1569398683.65197
1569398683.66759
1569398683.68322
1569398683.69884
1569398683.71447
1569398683.73009
1569398683.74572
1569398683.76135
1569398683.77697
1569398683.7926
1569398683.80822
1569398683.82385
1569398683.83947
1569398683.8551
1569398683.87073
1569398683.88635
1569398683.90198
1569398683.9176
1569398683.93323
1569398683.94885
1569398683.96448
1569398683.98011
1569398683.99573
1569398684.01136
1569398684.02698
1569398684.04261
1569398684.05823
1569398684.07386
1569398684.08949
1569398684.10511
1569398684.12074
1569398684.13636
1569398684.15199
1569398684.16761
1569398684.18324
1569398684.19887
1569398684.21449
1569398684.23012
1569398684.24574
1569398684.26137
1569398684.27699
1569398684.29262
1569398684.30825
1569398684.32387
1569398684.3395
1569398684.35512
1569398684.37075
1569398684.38637
1569398684.402
1569398684.41763
1569398684.43325
1569398684.44888
1569398684.4645
1569398684.48013
1569398684.49575
1569398684.51138
1569398684.52701
1569398684.54263
1569398684.55826
1569398684.57388
1569398684.58951
1569398684.60513
1569398684.62076
1569398684.63639
1569398684.65201
1569398684.66764
1569398684.68326
1569398684.69889
1569398684.71451
1569398684.73014
1569398684.74577
1569398684.76139
1569398684.77702
1569398684.79264
1569398684.80827
1569398684.82389
1569398684.83952
1569398684.85515
1569398684.87077
1569398684.8864
1569398684.90202
1569398684.91765
1569398684.93327
1569398684.9489
1569398684.96453
1569398684.98015
1569398684.99578
1569398685.0114
1569398685.02703
1569398685.04265
1569398685.05828
1569398685.07391
1569398685.08953
1569398685.10516
1569398685.12078
1569398685.13641
1569398685.15204
1569398685.16766
1569398685.18329
1569398685.19891
1569398685.21454
1569398685.23016
1569398685.24579
1569398685.26142
1569398685.27704
1569398685.29267
1569398685.30829
1569398685.32392
1569398685.33954
1569398685.35517
1569398685.3708
1569398685.38642
1569398685.40205
1569398685.41767
1569398685.4333
1569398685.44892
1569398685.46455
1569398685.48018
1569398685.4958
1569398685.51143
1569398685.52705
1569398685.54268
1569398685.5583
1569398685.57393
1569398685.58956
1569398685.60518
1569398685.62081
1569398685.63643
1569398685.65206
1569398685.66768
1569398685.68331
1569398685.69894
1569398685.71456
1569398685.73019
1569398685.74581
1569398685.76144
1569398685.77706
1569398685.79269
1569398685.80832
1569398685.82394
1569398685.83957
1569398685.85519
1569398685.87082
1569398685.88644
1569398685.90207
1569398685.9177
1569398685.93332
1569398685.94895
1569398685.96457
1569398685.9802
1569398685.99582
1569398686.01145
1569398686.02708
1569398686.0427
1569398686.05833
1569398686.07395
1569398686.08958
1569398686.1052
1569398686.12083
1569398686.13646
1569398686.15208
1569398686.16771
1569398686.18333
1569398686.19896
1569398686.21458
1569398686.23021
1569398686.24584
1569398686.26146
1569398686.27709
1569398686.29271
1569398686.30834
1569398686.32396
1569398686.33959
1569398686.35522
1569398686.37084
1569398686.38647
1569398686.40209
1569398686.41772
1569398686.43334
1569398686.44897
1569398686.4646
1569398686.48022
1569398686.49585
1569398686.51147
1569398686.5271
1569398686.54272
1569398686.55835
1569398686.57398
1569398686.5896
1569398686.60523
1569398686.62085
1569398686.63648
1569398686.6521
1569398686.66773
1569398686.68336
1569398686.69898
1569398686.71461
1569398686.73023
1569398686.74586
1569398686.76148
1569398686.77711
1569398686.79274
1569398686.80836
1569398686.82399
1569398686.83961
1569398686.85524
1569398686.87086
1569398686.88649
1569398686.90212
1569398686.91774
1569398686.93337
1569398686.94899
1569398686.96462
1569398686.98024
1569398686.99587
1569398687.0115
1569398687.02712
1569398687.04275
1569398687.05837
1569398687.074
1569398687.08962
1569398687.10525
1569398687.12088
1569398687.1365
1569398687.15213
1569398687.16775
1569398687.18338
1569398687.199
1569398687.21463
1569398687.23026
1569398687.24588
1569398687.26151
1569398687.27713
1569398687.29276
1569398687.30838
1569398687.32401
1569398687.33964
1569398687.35526
1569398687.37089
1569398687.38651
1569398687.40214
1569398687.41776
1569398687.43339
1569398687.44902
1569398687.46464
1569398687.48027
1569398687.49589
1569398687.51152
1569398687.52714
1569398687.54277
1569398687.5584
1569398687.57402
1569398687.58965
1569398687.60527
1569398687.6209
1569398687.63653
1569398687.65215
1569398687.66778
1569398687.6834
1569398687.69903
1569398687.71465
1569398687.73028
1569398687.74591
1569398687.76153
1569398687.77716
1569398687.79278
1569398687.80841
1569398687.82403
1569398687.83966
1569398687.85529
1569398687.87091
1569398687.88654
1569398687.90216
1569398687.91779
1569398687.93341
1569398687.94904
1569398687.96467
1569398687.98029
1569398687.99592
1569398688.01154
1569398688.02717
1569398688.04279
1569398688.05842
1569398688.07405
1569398688.08967
1569398688.1053
1569398688.12092
1569398688.13655
1569398688.15217
1569398688.1678
1569398688.18343
1569398688.19905
1569398688.21468
1569398688.2303
1569398688.24593
1569398688.26155
1569398688.27718
1569398688.29281
1569398688.30843
1569398688.32406
1569398688.33968
1569398688.35531
1569398688.37093
1569398688.38656
1569398688.40219
1569398688.41781
1569398688.43344
1569398688.44906
1569398688.46469
1569398688.48031
1569398688.49594
1569398688.51157
1569398688.52719
1569398688.54282
1569398688.55844
1569398688.57407
1569398688.58969
1569398688.60532
1569398688.62095
1569398688.63657
1569398688.6522
1569398688.66782
1569398688.68345
1569398688.69907
1569398688.7147
1569398688.73033
1569398688.74595
1569398688.76158
1569398688.7772
1569398688.79283
1569398688.80845
1569398688.82408
1569398688.83971
1569398688.85533
1569398688.87096
1569398688.88658
1569398688.90221
1569398688.91783
1569398688.93346
1569398688.94909
1569398688.96471
1569398688.98034
1569398688.99596
1569398689.01159
1569398689.02721
1569398689.04284
1569398689.05847
1569398689.07409
1569398689.08972
1569398689.10534
1569398689.12097
1569398689.13659
1569398689.15222
1569398689.16785
1569398689.18347
1569398689.1991
1569398689.21472
1569398689.23035
1569398689.24597
1569398689.2616
1569398689.27723
1569398689.29285
1569398689.30848
1569398689.3241
1569398689.33973
1569398689.35535
1569398689.37098
1569398689.38661
1569398689.40223
1569398689.41786
1569398689.43348
1569398689.44911
1569398689.46473
1569398689.48036
1569398689.49599
1569398689.51161
1569398689.52724
1569398689.54286
1569398689.55849
1569398689.57411
1569398689.58974
1569398689.60537
1569398689.62099
1569398689.63662
1569398689.65224
1569398689.66787
1569398689.68349
1569398689.69912
1569398689.71475
1569398689.73037
1569398689.746
1569398689.76162
1569398689.77725
1569398689.79287
1569398689.8085
1569398689.82413
1569398689.83975
1569398689.85538
1569398689.871
1569398689.88663
1569398689.90226
1569398689.91788
1569398689.93351
1569398689.94913
1569398689.96476
1569398689.98038
1569398689.99601
1569398690.01164
1569398690.02726
1569398690.04289
1569398690.05851
1569398690.07414
1569398690.08976
1569398690.10539
1569398690.12102
1569398690.13664
1569398690.15227
1569398690.16789
1569398690.18352
1569398690.19914
1569398690.21477
1569398690.2304
1569398690.24602
1569398690.26165
1569398690.27727
1569398690.2929
1569398690.30852
1569398690.32415
1569398690.33978
1569398690.3554
1569398690.37103
1569398690.38665
1569398690.40228
1569398690.4179
1569398690.43353
1569398690.44916
1569398690.46478
1569398690.48041
1569398690.49603
1569398690.51166
1569398690.52728
1569398690.54291
1569398690.55854
1569398690.57416
1569398690.58979
1569398690.60541
1569398690.62104
1569398690.63666
1569398690.65229
1569398690.66792
1569398690.68354
1569398690.69917
1569398690.71479
1569398690.73042
1569398690.74604
1569398690.76167
1569398690.7773
1569398690.79292
1569398690.80855
1569398690.82417
1569398690.8398
1569398690.85542
1569398690.87105
1569398690.88668
1569398690.9023
1569398690.91793
1569398690.93355
1569398690.94918
1569398690.9648
1569398690.98043
1569398690.99606
1569398691.01168
1569398691.02731
1569398691.04293
1569398691.05856
1569398691.07418
1569398691.08981
1569398691.10544
1569398691.12106
1569398691.13669
1569398691.15231
1569398691.16794
1569398691.18356
1569398691.19919
1569398691.21482
1569398691.23044
1569398691.24607
1569398691.26169
1569398691.27732
1569398691.29294
1569398691.30857
1569398691.3242
1569398691.33982
1569398691.35545
1569398691.37107
1569398691.3867
1569398691.40232
1569398691.41795
1569398691.43358
1569398691.4492
1569398691.46483
1569398691.48045
1569398691.49608
1569398691.5117
1569398691.52733
1569398691.54296
1569398691.55858
1569398691.57421
1569398691.58983
1569398691.60546
1569398691.62108
1569398691.63671
1569398691.65234
1569398691.66796
1569398691.68359
1569398691.69921
1569398691.71484
1569398691.73046
1569398691.74609
1569398691.76172
1569398691.77734
1569398691.79297
1569398691.80859
1569398691.82422
1569398691.83984
1569398691.85547
1569398691.8711
1569398691.88672
1569398691.90235
1569398691.91797
1569398691.9336
1569398691.94922
1569398691.96485
1569398691.98048
1569398691.9961
1569398692.01173
1569398692.02735
1569398692.04298
1569398692.0586
1569398692.07423
1569398692.08986
1569398692.10548
1569398692.12111
1569398692.13673
1569398692.15236
1569398692.16798
1569398692.18361
1569398692.19924
1569398692.21486
1569398692.23049
1569398692.24611
1569398692.26174
1569398692.27736
1569398692.29299
1569398692.30862
1569398692.32424
1569398692.33987
1569398692.35549
1569398692.37112
1569398692.38674
1569398692.40237
1569398692.418
1569398692.43362
1569398692.44925
1569398692.46487
1569398692.4805
1569398692.49612
1569398692.51175
1569398692.52738
1569398692.543
1569398692.55863
1569398692.57425
1569398692.58988
1569398692.60551
1569398692.62113
1569398692.63676
1569398692.65238
1569398692.66801
1569398692.68363
1569398692.69926
1569398692.71489
1569398692.73051
1569398692.74614
1569398692.76176
1569398692.77739
1569398692.79301
1569398692.80864
1569398692.82427
1569398692.83989
1569398692.85552
1569398692.87114
1569398692.88677
1569398692.90239
1569398692.91802
1569398692.93365
1569398692.94927
1569398692.9649
1569398692.98052
1569398692.99615
1569398693.01177
1569398693.0274
1569398693.04303
1569398693.05865
1569398693.07428
1569398693.0899
1569398693.10553
1569398693.12115
1569398693.13678
1569398693.15241
1569398693.16803
1569398693.18366
1569398693.19928
1569398693.21491
1569398693.23053
1569398693.24616
1569398693.26179
1569398693.27741
1569398693.29304
1569398693.30866
1569398693.32429
1569398693.33991
1569398693.35554
1569398693.37117
1569398693.38679
1569398693.40242
1569398693.41804
1569398693.43367
1569398693.44929
1569398693.46492
1569398693.48055
1569398693.49617
1569398693.5118
1569398693.52742
1569398693.54305
1569398693.55867
1569398693.5743
1569398693.58993
1569398693.60555
1569398693.62118
1569398693.6368
1569398693.65243
1569398693.66805
1569398693.68368
1569398693.69931
1569398693.71493
1569398693.73056
1569398693.74618
1569398693.76181
1569398693.77743
1569398693.79306
1569398693.80869
1569398693.82431
1569398693.83994
1569398693.85556
1569398693.87119
1569398693.88681
1569398693.90244
1569398693.91807
1569398693.93369
1569398693.94932
1569398693.96494
1569398693.98057
1569398693.99619
1569398694.01182
1569398694.02745
1569398694.04307
1569398694.0587
1569398694.07432
1569398694.08995
1569398694.10557
1569398694.1212
1569398694.13683
1569398694.15245
1569398694.16808
1569398694.1837
1569398694.19933
1569398694.21495
1569398694.23058
1569398694.24621
1569398694.26183
1569398694.27746
1569398694.29308
1569398694.30871
1569398694.32433
1569398694.33996
1569398694.35559
1569398694.37121
1569398694.38684
1569398694.40246
1569398694.41809
1569398694.43371
1569398694.44934
1569398694.46497
1569398694.48059
1569398694.49622
1569398694.51184
1569398694.52747
1569398694.54309
1569398694.55872
1569398694.57435
1569398694.58997
1569398694.6056
1569398694.62122
1569398694.63685
1569398694.65247
1569398694.6681
1569398694.68373
1569398694.69935
1569398694.71498
1569398694.7306
1569398694.74623
1569398694.76186
1569398694.77748
1569398694.79311
1569398694.80873
1569398694.82436
1569398694.83998
1569398694.85561
1569398694.87124
1569398694.88686
1569398694.90249
1569398694.91811
1569398694.93374
1569398694.94936
1569398694.96499
1569398694.98062
1569398694.99624
1569398695.01187
1569398695.02749
1569398695.04312
1569398695.05874
1569398695.07437
1569398695.09
1569398695.10562
1569398695.12125
1569398695.13687
1569398695.1525
1569398695.16812
1569398695.18375
1569398695.19938
1569398695.215
1569398695.23063
1569398695.24625
1569398695.26188
1569398695.2775
1569398695.29313
1569398695.30876
1569398695.32438
1569398695.34001
1569398695.35563
1569398695.37126
1569398695.38688
1569398695.40251
1569398695.41814
1569398695.43376
1569398695.44939
1569398695.46501
1569398695.48064
1569398695.49626
1569398695.51189
1569398695.52752
1569398695.54314
1569398695.55877
1569398695.57439
1569398695.59002
1569398695.60564
1569398695.62127
1569398695.6369
1569398695.65252
1569398695.66815
1569398695.68377
1569398695.6994
1569398695.71502
1569398695.73065
1569398695.74628
1569398695.7619
1569398695.77753
1569398695.79315
1569398695.80878
1569398695.8244
1569398695.84003
1569398695.85566
1569398695.87128
1569398695.88691
1569398695.90253
1569398695.91816
1569398695.93378
1569398695.94941
1569398695.96504
1569398695.98066
1569398695.99629
1569398696.01191
1569398696.02754
1569398696.04316
1569398696.05879
1569398696.07442
1569398696.09004
1569398696.10567
1569398696.12129
1569398696.13692
1569398696.15254
1569398696.16817
1569398696.1838
1569398696.19942
1569398696.21505
1569398696.23067
1569398696.2463
1569398696.26192
1569398696.27755
1569398696.29318
1569398696.3088
1569398696.32443
1569398696.34005
1569398696.35568
1569398696.3713
1569398696.38693
1569398696.40256
1569398696.41818
1569398696.43381
1569398696.44943
1569398696.46506
1569398696.48068
1569398696.49631
1569398696.51194
1569398696.52756
1569398696.54319
1569398696.55881
1569398696.57444
1569398696.59006
1569398696.60569
1569398696.62132
1569398696.63694
1569398696.65257
1569398696.66819
1569398696.68382
1569398696.69944
1569398696.71507
1569398696.7307
1569398696.74632
1569398696.76195
1569398696.77757
1569398696.7932
1569398696.80882
1569398696.82445
1569398696.84008
1569398696.8557
1569398696.87133
1569398696.88695
1569398696.90258
1569398696.9182
1569398696.93383
1569398696.94946
1569398696.96508
1569398696.98071
1569398696.99633
1569398697.01196
1569398697.02759
1569398697.04321
1569398697.05884
1569398697.07446
1569398697.09009
1569398697.10571
1569398697.12134
1569398697.13697
1569398697.15259
1569398697.16822
1569398697.18384
1569398697.19947
1569398697.21509
1569398697.23072
1569398697.24635
1569398697.26197
1569398697.2776
1569398697.29322
1569398697.30885
1569398697.32447
1569398697.3401
1569398697.35573
1569398697.37135
1569398697.38698
1569398697.4026
1569398697.41823
1569398697.43385
1569398697.44948
1569398697.46511
1569398697.48073
1569398697.49636
1569398697.51198
1569398697.52761
1569398697.54323
1569398697.55886
1569398697.57449
1569398697.59011
1569398697.60574
1569398697.62136
1569398697.63699
1569398697.65261
1569398697.66824
1569398697.68387
1569398697.69949
1569398697.71512
1569398697.73074
1569398697.74637
1569398697.76199
1569398697.77762
1569398697.79325
1569398697.80887
1569398697.8245
1569398697.84012
1569398697.85575
1569398697.87137
1569398697.887
1569398697.90263
1569398697.91825
1569398697.93388
1569398697.9495
1569398697.96513
1569398697.98075
1569398697.99638
1569398698.01201
1569398698.02763
1569398698.04326
1569398698.05888
1569398698.07451
1569398698.09013
1569398698.10576
1569398698.12139
1569398698.13701
1569398698.15264
1569398698.16826
1569398698.18389
1569398698.19951
1569398698.21514
1569398698.23077
1569398698.24639
1569398698.26202
1569398698.27764
1569398698.29327
1569398698.30889
1569398698.32452
1569398698.34015
1569398698.35577
1569398698.3714
1569398698.38702
1569398698.40265
1569398698.41827
1569398698.4339
1569398698.44953
1569398698.46515
1569398698.48078
1569398698.4964
1569398698.51203
1569398698.52765
1569398698.54328
1569398698.55891
1569398698.57453
1569398698.59016
1569398698.60578
1569398698.62141
1569398698.63703
1569398698.65266
1569398698.66829
1569398698.68391
1569398698.69954
1569398698.71516
1569398698.73079
1569398698.74641
1569398698.76204
1569398698.77767
1569398698.79329
1569398698.80892
1569398698.82454
1569398698.84017
1569398698.85579
1569398698.87142
1569398698.88705
1569398698.90267
1569398698.9183
1569398698.93392
1569398698.94955
1569398698.96517
1569398698.9808
1569398698.99643
1569398699.01205
1569398699.02768
1569398699.0433
1569398699.05893
1569398699.07455
1569398699.09018
1569398699.10581
1569398699.12143
1569398699.13706
1569398699.15268
1569398699.16831
1569398699.18393
1569398699.19956
1569398699.21519
1569398699.23081
1569398699.24644
1569398699.26206
1569398699.27769
1569398699.29331
1569398699.30894
1569398699.32457
1569398699.34019
1569398699.35582
1569398699.37144
1569398699.38707
1569398699.40269
1569398699.41832
1569398699.43395
1569398699.44957
1569398699.4652
1569398699.48082
1569398699.49645
1569398699.51207
1569398699.5277
1569398699.54333
1569398699.55895
1569398699.57458
1569398699.5902
1569398699.60583
1569398699.62146
1569398699.63708
1569398699.65271
1569398699.66833
1569398699.68396
1569398699.69958
1569398699.71521
1569398699.73084
1569398699.74646
1569398699.76209
1569398699.77771
1569398699.79334
1569398699.80896
1569398699.82459
1569398699.84022
1569398699.85584
1569398699.87147
1569398699.88709
1569398699.90272
1569398699.91834
1569398699.93397
1569398699.9496
1569398699.96522
1569398699.98085
1569398699.99647
1569398700.0121
1569398700.02772
1569398700.04335
1569398700.05898
1569398700.0746
1569398700.09023
1569398700.10585
1569398700.12148
1569398700.1371
1569398700.15273
1569398700.16836
1569398700.18398
1569398700.19961
1569398700.21523
1569398700.23086
1569398700.24648
1569398700.26211
1569398700.27774
1569398700.29336
1569398700.30899
1569398700.32461
1569398700.34024
1569398700.35586
1569398700.37149
1569398700.38712
1569398700.40274
1569398700.41837
1569398700.43399
1569398700.44962
1569398700.46524
1569398700.48087
1569398700.4965
1569398700.51212
1569398700.52775
1569398700.54337
1569398700.559
1569398700.57462
1569398700.59025
1569398700.60588
1569398700.6215
1569398700.63713
1569398700.65275
1569398700.66838
1569398700.684
1569398700.69963
1569398700.71526
1569398700.73088
1569398700.74651
1569398700.76213
1569398700.77776
1569398700.79338
1569398700.80901
1569398700.82464
1569398700.84026
1569398700.85589
1569398700.87151
1569398700.88714
1569398700.90276
1569398700.91839
1569398700.93402
1569398700.94964
1569398700.96527
1569398700.98089
1569398700.99652
1569398701.01214
1569398701.02777
1569398701.0434
1569398701.05902
1569398701.07465
1569398701.09027
1569398701.1059
1569398701.12152
1569398701.13715
1569398701.15278
1569398701.1684
1569398701.18403
1569398701.19965
1569398701.21528
1569398701.2309
1569398701.24653
1569398701.26216
1569398701.27778
1569398701.29341
1569398701.30903
1569398701.32466
1569398701.34028
1569398701.35591
1569398701.37154
1569398701.38716
1569398701.40279
1569398701.41841
1569398701.43404
1569398701.44966
1569398701.46529
1569398701.48092
1569398701.49654
1569398701.51217
1569398701.52779
1569398701.54342
1569398701.55904
1569398701.57467
1569398701.5903
1569398701.60592
1569398701.62155
1569398701.63717
1569398701.6528
1569398701.66842
1569398701.68405
1569398701.69968
1569398701.7153
1569398701.73093
1569398701.74655
1569398701.76218
1569398701.7778
1569398701.79343
1569398701.80906
1569398701.82468
1569398701.84031
1569398701.85593
1569398701.87156
1569398701.88719
1569398701.90281
1569398701.91844
1569398701.93406
1569398701.94969
1569398701.96531
1569398701.98094
1569398701.99657
1569398702.01219
1569398702.02782
1569398702.04344
1569398702.05907
1569398702.07469
1569398702.09032
1569398702.10595
1569398702.12157
1569398702.1372
1569398702.15282
1569398702.16845
1569398702.18407
1569398702.1997
1569398702.21533
1569398702.23095
1569398702.24658
1569398702.2622
1569398702.27783
1569398702.29345
1569398702.30908
1569398702.32471
1569398702.34033
1569398702.35596
1569398702.37158
1569398702.38721
1569398702.40283
1569398702.41846
1569398702.43409
1569398702.44971
1569398702.46534
1569398702.48096
1569398702.49659
1569398702.51221
1569398702.52784
1569398702.54347
1569398702.55909
1569398702.57472
1569398702.59034
1569398702.60597
1569398702.62159
1569398702.63722
1569398702.65285
1569398702.66847
1569398702.6841
1569398702.69972
1569398702.71535
1569398702.73097
1569398702.7466
1569398702.76223
1569398702.77785
1569398702.79348
1569398702.8091
1569398702.82473
1569398702.84035
1569398702.85598
1569398702.87161
1569398702.88723
1569398702.90286
1569398702.91848
1569398702.93411
1569398702.94973
1569398702.96536
1569398702.98099
1569398702.99661
1569398703.01224
1569398703.02786
1569398703.04349
1569398703.05911
1569398703.07474
1569398703.09037
1569398703.10599
1569398703.12162
1569398703.13724
1569398703.15287
1569398703.16849
1569398703.18412
1569398703.19975
1569398703.21537
1569398703.231
1569398703.24662
1569398703.26225
1569398703.27787
1569398703.2935
1569398703.30913
1569398703.32475
1569398703.34038
1569398703.356
1569398703.37163
1569398703.38725
1569398703.40288
1569398703.41851
1569398703.43413
1569398703.44976
1569398703.46538
1569398703.48101
1569398703.49663
1569398703.51226
1569398703.52789
1569398703.54351
1569398703.55914
1569398703.57476
1569398703.59039
1569398703.60601
1569398703.62164
1569398703.63727
1569398703.65289
1569398703.66852
1569398703.68414
1569398703.69977
1569398703.71539
1569398703.73102
1569398703.74665
1569398703.76227
1569398703.7779
1569398703.79352
1569398703.80915
1569398703.82477
1569398703.8404
1569398703.85603
1569398703.87165
1569398703.88728
1569398703.9029
1569398703.91853
1569398703.93415
1569398703.94978
1569398703.96541
1569398703.98103
1569398703.99666
1569398704.01228
1569398704.02791
1569398704.04353
1569398704.05916
1569398704.07479
1569398704.09041
1569398704.10604
1569398704.12166
1569398704.13729
1569398704.15292
1569398704.16854
1569398704.18417
1569398704.19979
1569398704.21542
1569398704.23104
1569398704.24667
1569398704.2623
1569398704.27792
1569398704.29355
1569398704.30917
1569398704.3248
1569398704.34042
1569398704.35605
1569398704.37168
1569398704.3873
1569398704.40293
1569398704.41855
1569398704.43418
1569398704.4498
1569398704.46543
1569398704.48106
1569398704.49668
1569398704.51231
1569398704.52793
1569398704.54356
1569398704.55918
1569398704.57481
1569398704.59044
1569398704.60606
1569398704.62169
1569398704.63731
1569398704.65294
1569398704.66856
1569398704.68419
1569398704.69982
1569398704.71544
1569398704.73107
1569398704.74669
1569398704.76232
1569398704.77794
1569398704.79357
1569398704.8092
1569398704.82482
1569398704.84045
1569398704.85607
1569398704.8717
1569398704.88732
1569398704.90295
1569398704.91858
1569398704.9342
1569398704.94983
1569398704.96545
1569398704.98108
1569398704.9967
1569398705.01233
1569398705.02796
1569398705.04358
1569398705.05921
1569398705.07483
1569398705.09046
1569398705.10608
1569398705.12171
1569398705.13734
1569398705.15296
1569398705.16859
1569398705.18421
1569398705.19984
1569398705.21546
1569398705.23109
1569398705.24672
1569398705.26234
1569398705.27797
1569398705.29359
1569398705.30922
1569398705.32484
1569398705.34047
1569398705.3561
1569398705.37172
1569398705.38735
1569398705.40297
1569398705.4186
1569398705.43422
1569398705.44985
1569398705.46548
1569398705.4811
1569398705.49673
1569398705.51235
1569398705.52798
1569398705.5436
1569398705.55923
1569398705.57486
1569398705.59048
1569398705.60611
1569398705.62173
1569398705.63736
1569398705.65298
1569398705.66861
1569398705.68424
1569398705.69986
1569398705.71549
1569398705.73111
1569398705.74674
1569398705.76236
1569398705.77799
1569398705.79362
1569398705.80924
1569398705.82487
1569398705.84049
1569398705.85612
1569398705.87174
1569398705.88737
1569398705.903
1569398705.91862
1569398705.93425
1569398705.94987
1569398705.9655
1569398705.98112
1569398705.99675
1569398706.01238
1569398706.028
1569398706.04363
1569398706.05925
1569398706.07488
1569398706.0905
1569398706.10613
1569398706.12176
1569398706.13738
1569398706.15301
1569398706.16863
1569398706.18426
1569398706.19988
1569398706.21551
1569398706.23114
1569398706.24676
1569398706.26239
1569398706.27801
1569398706.29364
1569398706.30926
1569398706.32489
1569398706.34052
1569398706.35614
1569398706.37177
1569398706.38739
1569398706.40302
1569398706.41864
1569398706.43427
1569398706.4499
1569398706.46552
1569398706.48115
1569398706.49677
1569398706.5124
1569398706.52802
1569398706.54365
1569398706.55928
1569398706.5749
1569398706.59053
1569398706.60615
1569398706.62178
1569398706.6374
1569398706.65303
1569398706.66866
1569398706.68428
1569398706.69991
1569398706.71553
1569398706.73116
1569398706.74679
1569398706.76241
1569398706.77804
1569398706.79366
1569398706.80929
1569398706.82491
1569398706.84054
1569398706.85617
1569398706.87179
1569398706.88742
1569398706.90304
1569398706.91867
1569398706.93429
1569398706.94992
1569398706.96555
1569398706.98117
1569398706.9968
1569398707.01242
1569398707.02805
1569398707.04367
1569398707.0593
1569398707.07493
1569398707.09055
1569398707.10618
1569398707.1218
1569398707.13743
1569398707.15305
1569398707.16868
1569398707.18431
1569398707.19993
1569398707.21556
1569398707.23118
1569398707.24681
1569398707.26243
1569398707.27806
1569398707.29369
1569398707.30931
1569398707.32494
1569398707.34056
1569398707.35619
1569398707.37181
1569398707.38744
1569398707.40307
1569398707.41869
1569398707.43432
1569398707.44994
1569398707.46557
1569398707.48119
1569398707.49682
1569398707.51245
1569398707.52807
1569398707.5437
1569398707.55932
1569398707.57495
1569398707.59057
1569398707.6062
1569398707.62183
1569398707.63745
1569398707.65308
1569398707.6687
1569398707.68433
1569398707.69995
1569398707.71558
1569398707.73121
1569398707.74683
1569398707.76246
1569398707.77808
1569398707.79371
1569398707.80933
1569398707.82496
1569398707.84059
1569398707.85621
1569398707.87184
1569398707.88746
1569398707.90309
1569398707.91871
1569398707.93434
1569398707.94997
1569398707.96559
1569398707.98122
1569398707.99684
1569398708.01247
1569398708.02809
1569398708.04372
1569398708.05935
1569398708.07497
1569398708.0906
1569398708.10622
1569398708.12185
1569398708.13747
1569398708.1531
1569398708.16873
1569398708.18435
1569398708.19998
1569398708.2156
1569398708.23123
1569398708.24685
1569398708.26248
1569398708.27811
1569398708.29373
1569398708.30936
1569398708.32498
1569398708.34061
1569398708.35623
1569398708.37186
1569398708.38749
1569398708.40311
1569398708.41874
1569398708.43436
1569398708.44999
1569398708.46561
1569398708.48124
1569398708.49687
1569398708.51249
1569398708.52812
1569398708.54374
1569398708.55937
1569398708.57499
1569398708.59062
1569398708.60625
1569398708.62187
1569398708.6375
1569398708.65312
1569398708.66875
1569398708.68437
1569398708.7
1569398708.71563
1569398708.73125
1569398708.74688
1569398708.7625
1569398708.77813
1569398708.79375
1569398708.80938
1569398708.82501
1569398708.84063
1569398708.85626
1569398708.87188
1569398708.88751
1569398708.90314
1569398708.91876
1569398708.93439
1569398708.95001
1569398708.96564
1569398708.98126
1569398708.99689
1569398709.01252
1569398709.02814
1569398709.04377
1569398709.05939
1569398709.07502
1569398709.09064
1569398709.10627
1569398709.1219
1569398709.13752
1569398709.15315
1569398709.16877
1569398709.1844
1569398709.20002
1569398709.21565
1569398709.23128
1569398709.2469
1569398709.26253
1569398709.27815
1569398709.29378
1569398709.3094
1569398709.32503
1569398709.34066
1569398709.35628
1569398709.37191
1569398709.38753
1569398709.40316
1569398709.41878
1569398709.43441
1569398709.45004
1569398709.46566
1569398709.48129
1569398709.49691
1569398709.51254
1569398709.52816
1569398709.54379
1569398709.55942
1569398709.57504
1569398709.59067
1569398709.60629
1569398709.62192
1569398709.63754
1569398709.65317
1569398709.6688
1569398709.68442
1569398709.70005
1569398709.71567
1569398709.7313
1569398709.74692
1569398709.76255
1569398709.77818
1569398709.7938
1569398709.80943
1569398709.82505
1569398709.84068
1569398709.8563
1569398709.87193
1569398709.88756
1569398709.90318
1569398709.91881
1569398709.93443
1569398709.95006
1569398709.96568
1569398709.98131
1569398709.99694
1569398710.01256
1569398710.02819
1569398710.04381
1569398710.05944
1569398710.07506
1569398710.09069
1569398710.10632
1569398710.12194
1569398710.13757
1569398710.15319
1569398710.16882
1569398710.18444
1569398710.20007
1569398710.2157
1569398710.23132
1569398710.24695
1569398710.26257
1569398710.2782
1569398710.29382
1569398710.30945
1569398710.32508
1569398710.3407
1569398710.35633
1569398710.37195
1569398710.38758
1569398710.4032
1569398710.41883
1569398710.43446
1569398710.45008
1569398710.46571
1569398710.48133
1569398710.49696
1569398710.51258
1569398710.52821
1569398710.54384
1569398710.55946
1569398710.57509
1569398710.59071
1569398710.60634
1569398710.62196
1569398710.63759
1569398710.65322
1569398710.66884
1569398710.68447
1569398710.70009
1569398710.71572
1569398710.73134
1569398710.74697
1569398710.7626
1569398710.77822
1569398710.79385
1569398710.80947
1569398710.8251
1569398710.84072
1569398710.85635
1569398710.87198
1569398710.8876
1569398710.90323
1569398710.91885
1569398710.93448
1569398710.9501
1569398710.96573
1569398710.98136
1569398710.99698
1569398711.01261
1569398711.02823
1569398711.04386
1569398711.05948
1569398711.07511
1569398711.09074
1569398711.10636
1569398711.12199
1569398711.13761
1569398711.15324
1569398711.16886
1569398711.18449
1569398711.20012
1569398711.21574
1569398711.23137
1569398711.24699
1569398711.26262
1569398711.27824
1569398711.29387
1569398711.3095
1569398711.32512
1569398711.34075
1569398711.35637
1569398711.372
1569398711.38762
1569398711.40325
1569398711.41888
1569398711.4345
1569398711.45013
1569398711.46575
1569398711.48138
1569398711.497
1569398711.51263
1569398711.52826
1569398711.54388
1569398711.55951
1569398711.57513
1569398711.59076
1569398711.60639
1569398711.62201
1569398711.63764
1569398711.65326
1569398711.66889
1569398711.68451
1569398711.70014
1569398711.71577
1569398711.73139
1569398711.74702
1569398711.76264
1569398711.77827
1569398711.79389
1569398711.80952
1569398711.82515
1569398711.84077
1569398711.8564
1569398711.87202
1569398711.88765
1569398711.90327
1569398711.9189
1569398711.93453
1569398711.95015
1569398711.96578
1569398711.9814
1569398711.99703
1569398712.01265
1569398712.02828
1569398712.04391
1569398712.05953
1569398712.07516
1569398712.09078
1569398712.10641
1569398712.12203
1569398712.13766
1569398712.15329
1569398712.16891
1569398712.18454
1569398712.20016
1569398712.21579
1569398712.23141
1569398712.24704
1569398712.26267
1569398712.27829
1569398712.29392
1569398712.30954
1569398712.32517
1569398712.34079
1569398712.35642
1569398712.37205
1569398712.38767
1569398712.4033
1569398712.41892
1569398712.43455
1569398712.45017
1569398712.4658
1569398712.48143
1569398712.49705
1569398712.51268
1569398712.5283
1569398712.54393
1569398712.55955
1569398712.57518
1569398712.59081
1569398712.60643
1569398712.62206
1569398712.63768
1569398712.65331
1569398712.66893
1569398712.68456
1569398712.70019
1569398712.71581
1569398712.73144
1569398712.74706
1569398712.76269
1569398712.77831
1569398712.79394
1569398712.80957
1569398712.82519
1569398712.84082
1569398712.85644
1569398712.87207
1569398712.88769
1569398712.90332
1569398712.91895
1569398712.93457
1569398712.9502
1569398712.96582
1569398712.98145
1569398712.99707
1569398713.0127
1569398713.02833
1569398713.04395
1569398713.05958
1569398713.0752
1569398713.09083
1569398713.10645
1569398713.12208
1569398713.13771
1569398713.15333
1569398713.16896
1569398713.18458
1569398713.20021
1569398713.21583
1569398713.23146
1569398713.24709
1569398713.26271
1569398713.27834
1569398713.29396
1569398713.30959
1569398713.32521
1569398713.34084
1569398713.35647
1569398713.37209
1569398713.38772
1569398713.40334
1569398713.41897
1569398713.43459
1569398713.45022
1569398713.46585
1569398713.48147
1569398713.4971
1569398713.51272
1569398713.52835
1569398713.54397
1569398713.5596
1569398713.57523
1569398713.59085
1569398713.60648
1569398713.6221
1569398713.63773
1569398713.65335
1569398713.66898
1569398713.68461
1569398713.70023
1569398713.71586
1569398713.73148
1569398713.74711
1569398713.76274
1569398713.77836
1569398713.79399
1569398713.80961
1569398713.82524
1569398713.84086
1569398713.85649
1569398713.87212
1569398713.88774
1569398713.90337
1569398713.91899
1569398713.93462
1569398713.95024
1569398713.96587
1569398713.9815
1569398713.99712
1569398714.01275
1569398714.02837
1569398714.044
1569398714.05962
1569398714.07525
1569398714.09088
1569398714.1065
1569398714.12213
1569398714.13775
1569398714.15338
1569398714.169
1569398714.18463
1569398714.20026
1569398714.21588
1569398714.23151
1569398714.24713
1569398714.26276
1569398714.27838
1569398714.29401
1569398714.30964
1569398714.32526
1569398714.34089
1569398714.35651
1569398714.37214
1569398714.38776
1569398714.40339
1569398714.41902
1569398714.43464
1569398714.45027
1569398714.46589
1569398714.48152
1569398714.49714
1569398714.51277
1569398714.5284
1569398714.54402
1569398714.55965
1569398714.57527
1569398714.5909
1569398714.60652
1569398714.62215
1569398714.63778
1569398714.6534
1569398714.66903
1569398714.68465
1569398714.70028
1569398714.7159
1569398714.73153
1569398714.74716
1569398714.76278
1569398714.77841
1569398714.79403
1569398714.80966
1569398714.82528
1569398714.84091
1569398714.85654
1569398714.87216
1569398714.88779
1569398714.90341
1569398714.91904
1569398714.93466
1569398714.95029
1569398714.96592
1569398714.98154
1569398714.99717
1569398715.01279
1569398715.02842
1569398715.04404
1569398715.05967
1569398715.0753
1569398715.09092
1569398715.10655
1569398715.12217
1569398715.1378
1569398715.15342
1569398715.16905
1569398715.18468
1569398715.2003
1569398715.21593
1569398715.23155
1569398715.24718
1569398715.2628
1569398715.27843
1569398715.29406
1569398715.30968
1569398715.32531
1569398715.34093
1569398715.35656
1569398715.37218
1569398715.38781
1569398715.40344
1569398715.41906
1569398715.43469
1569398715.45031
1569398715.46594
1569398715.48156
1569398715.49719
1569398715.51282
1569398715.52844
1569398715.54407
1569398715.55969
1569398715.57532
1569398715.59094
1569398715.60657
1569398715.6222
1569398715.63782
1569398715.65345
1569398715.66907
1569398715.6847
1569398715.70032
1569398715.71595
1569398715.73158
1569398715.7472
1569398715.76283
1569398715.77845
1569398715.79408
1569398715.8097
1569398715.82533
1569398715.84096
1569398715.85658
1569398715.87221
1569398715.88783
1569398715.90346
1569398715.91908
1569398715.93471
1569398715.95034
1569398715.96596
1569398715.98159
1569398715.99721
1569398716.01284
1569398716.02847
1569398716.04409
1569398716.05972
1569398716.07534
1569398716.09097
1569398716.10659
1569398716.12222
1569398716.13785
1569398716.15347
1569398716.1691
1569398716.18472
1569398716.20035
1569398716.21597
1569398716.2316
1569398716.24723
1569398716.26285
1569398716.27848
1569398716.2941
1569398716.30973
1569398716.32535
1569398716.34098
1569398716.35661
1569398716.37223
1569398716.38786
1569398716.40348
1569398716.41911
1569398716.43473
1569398716.45036
1569398716.46599
1569398716.48161
1569398716.49724
1569398716.51286
1569398716.52849
1569398716.54411
1569398716.55974
1569398716.57537
1569398716.59099
1569398716.60662
1569398716.62224
1569398716.63787
1569398716.65349
1569398716.66912
1569398716.68475
1569398716.70037
1569398716.716
1569398716.73162
1569398716.74725
1569398716.76287
1569398716.7785
1569398716.79413
1569398716.80975
1569398716.82538
1569398716.841
1569398716.85663
1569398716.87225
1569398716.88788
1569398716.90351
1569398716.91913
1569398716.93476
1569398716.95038
1569398716.96601
1569398716.98163
1569398716.99726
1569398717.01289
1569398717.02851
1569398717.04414
1569398717.05976
1569398717.07539
1569398717.09101
1569398717.10664
1569398717.12227
1569398717.13789
1569398717.15352
1569398717.16914
1569398717.18477
1569398717.20039
1569398717.21602
1569398717.23165
1569398717.24727
1569398717.2629
1569398717.27852
1569398717.29415
1569398717.30977
1569398717.3254
1569398717.34103
1569398717.35665
1569398717.37228
1569398717.3879
1569398717.40353
1569398717.41915
1569398717.43478
1569398717.45041
1569398717.46603
1569398717.48166
1569398717.49728
1569398717.51291
1569398717.52853
1569398717.54416
1569398717.55979
1569398717.57541
1569398717.59104
1569398717.60666
1569398717.62229
1569398717.63791
1569398717.65354
1569398717.66917
1569398717.68479
1569398717.70042
1569398717.71604
1569398717.73167
1569398717.74729
1569398717.76292
1569398717.77855
1569398717.79417
1569398717.8098
1569398717.82542
1569398717.84105
1569398717.85667
1569398717.8723
1569398717.88793
1569398717.90355
1569398717.91918
1569398717.9348
1569398717.95043
1569398717.96605
1569398717.98168
1569398717.99731
1569398718.01293
1569398718.02856
1569398718.04418
1569398718.05981
1569398718.07543
1569398718.09106
1569398718.10669
1569398718.12231
1569398718.13794
1569398718.15356
1569398718.16919
1569398718.18481
1569398718.20044
1569398718.21607
1569398718.23169
1569398718.24732
1569398718.26294
1569398718.27857
1569398718.29419
1569398718.30982
1569398718.32545
1569398718.34107
1569398718.3567
1569398718.37232
1569398718.38795
1569398718.40357
1569398718.4192
1569398718.43483
1569398718.45045
1569398718.46608
1569398718.4817
1569398718.49733
1569398718.51295
1569398718.52858
1569398718.54421
1569398718.55983
1569398718.57546
1569398718.59108
1569398718.60671
1569398718.62234
1569398718.63796
1569398718.65359
1569398718.66921
1569398718.68484
1569398718.70046
1569398718.71609
1569398718.73172
1569398718.74734
1569398718.76297
1569398718.77859
1569398718.79422
1569398718.80984
1569398718.82547
1569398718.8411
1569398718.85672
1569398718.87235
1569398718.88797
1569398718.9036
1569398718.91922
1569398718.93485
1569398718.95048
1569398718.9661
1569398718.98173
1569398718.99735
1569398719.01298
1569398719.0286
1569398719.04423
1569398719.05986
1569398719.07548
1569398719.09111
1569398719.10673
1569398719.12236
1569398719.13798
1569398719.15361
1569398719.16924
1569398719.18486
1569398719.20049
1569398719.21611
1569398719.23174
1569398719.24736
1569398719.26299
1569398719.27862
1569398719.29424
1569398719.30987
1569398719.32549
1569398719.34112
1569398719.35674
1569398719.37237
1569398719.388
1569398719.40362
1569398719.41925
1569398719.43487
1569398719.4505
1569398719.46612
1569398719.48175
1569398719.49738
1569398719.513
1569398719.52863
1569398719.54425
1569398719.55988
1569398719.5755
1569398719.59113
1569398719.60676
1569398719.62238
1569398719.63801
1569398719.65363
1569398719.66926
1569398719.68488
1569398719.70051
1569398719.71614
1569398719.73176
1569398719.74739
1569398719.76301
1569398719.77864
1569398719.79426
1569398719.80989
1569398719.82552
1569398719.84114
1569398719.85677
1569398719.87239
1569398719.88802
1569398719.90364
1569398719.91927
1569398719.9349
1569398719.95052
1569398719.96615
1569398719.98177
1569398719.9974
1569398720.01302
1569398720.02865
1569398720.04428
1569398720.0599
1569398720.07553
1569398720.09115
1569398720.10678
1569398720.1224
1569398720.13803
1569398720.15366
1569398720.16928
1569398720.18491
1569398720.20053
1569398720.21616
1569398720.23178
1569398720.24741
1569398720.26304
1569398720.27866
1569398720.29429
1569398720.30991
1569398720.32554
1569398720.34116
1569398720.35679
1569398720.37242
1569398720.38804
1569398720.40367
1569398720.41929
1569398720.43492
1569398720.45054
1569398720.46617
1569398720.4818
1569398720.49742
1569398720.51305
1569398720.52867
1569398720.5443
1569398720.55992
1569398720.57555
1569398720.59118
1569398720.6068
1569398720.62243
1569398720.63805
1569398720.65368
1569398720.6693
1569398720.68493
1569398720.70056
1569398720.71618
1569398720.73181
1569398720.74743
1569398720.76306
1569398720.77868
1569398720.79431
1569398720.80994
1569398720.82556
1569398720.84119
1569398720.85681
1569398720.87244
1569398720.88807
1569398720.90369
1569398720.91932
1569398720.93494
1569398720.95057
1569398720.96619
