1569399575.00575
1569399575.02137
1569399575.037
1569399575.05262
1569399575.06825
1569399575.08388
1569399575.0995
1569399575.11513
1569399575.13075
1569399575.14638
1569399575.162
1569399575.17763
1569399575.19326
1569399575.20888
1569399575.22451
1569399575.24013
1569399575.25576
1569399575.27138
1569399575.28701
1569399575.30264
1569399575.31826
1569399575.33389
1569399575.34951
1569399575.36514
1569399575.38076
1569399575.39639
1569399575.41202
1569399575.42764
1569399575.44327
1569399575.45889
1569399575.47452
1569399575.49014
1569399575.50577
1569399575.5214
1569399575.53702
1569399575.55265
1569399575.56827
1569399575.5839
1569399575.59952
1569399575.61515
1569399575.63078
1569399575.6464
1569399575.66203
1569399575.67765
1569399575.69328
1569399575.7089
1569399575.72453
1569399575.74016
1569399575.75578
1569399575.77141
1569399575.78703
1569399575.80266
1569399575.81828
1569399575.83391
1569399575.84954
1569399575.86516
1569399575.88079
1569399575.89641
1569399575.91204
1569399575.92766
1569399575.94329
1569399575.95892
1569399575.97454
1569399575.99017
1569399576.00579
1569399576.02142
1569399576.03704
1569399576.05267
1569399576.0683
1569399576.08392
1569399576.09955
1569399576.11517
1569399576.1308
1569399576.14642
1569399576.16205
1569399576.17768
1569399576.1933
1569399576.20893
1569399576.22455
1569399576.24018
1569399576.2558
1569399576.27143
1569399576.28706
1569399576.30268
1569399576.31831
1569399576.33393
1569399576.34956
1569399576.36518
1569399576.38081
1569399576.39644
1569399576.41206
1569399576.42769
1569399576.44331
1569399576.45894
1569399576.47456
1569399576.49019
1569399576.50582
1569399576.52144
1569399576.53707
1569399576.55269
1569399576.56832
1569399576.58394
1569399576.59957
1569399576.6152
1569399576.63082
1569399576.64645
1569399576.66207
1569399576.6777
1569399576.69332
1569399576.70895
1569399576.72458
1569399576.7402
1569399576.75583
1569399576.77145
1569399576.78708
1569399576.8027
1569399576.81833
1569399576.83396
1569399576.84958
1569399576.86521
1569399576.88083
1569399576.89646
1569399576.91208
1569399576.92771
1569399576.94334
1569399576.95896
1569399576.97459
1569399576.99021
1569399577.00584
1569399577.02147
1569399577.03709
1569399577.05272
1569399577.06834
1569399577.08397
1569399577.09959
1569399577.11522
1569399577.13085
1569399577.14647
1569399577.1621
1569399577.17772
1569399577.19335
1569399577.20897
1569399577.2246
1569399577.24023
1569399577.25585
1569399577.27148
1569399577.2871
1569399577.30273
1569399577.31835
1569399577.33398
1569399577.34961
1569399577.36523
1569399577.38086
1569399577.39648
1569399577.41211
1569399577.42773
1569399577.44336
1569399577.45899
1569399577.47461
1569399577.49024
1569399577.50586
1569399577.52149
1569399577.53711
1569399577.55274
1569399577.56837
1569399577.58399
1569399577.59962
1569399577.61524
1569399577.63087
1569399577.64649
1569399577.66212
1569399577.67775
1569399577.69337
1569399577.709
1569399577.72462
1569399577.74025
1569399577.75587
1569399577.7715
1569399577.78713
1569399577.80275
1569399577.81838
1569399577.834
1569399577.84963
1569399577.86525
1569399577.88088
1569399577.89651
1569399577.91213
1569399577.92776
1569399577.94338
1569399577.95901
1569399577.97463
1569399577.99026
1569399578.00589
1569399578.02151
1569399578.03714
1569399578.05276
1569399578.06839
1569399578.08401
1569399578.09964
1569399578.11527
1569399578.13089
1569399578.14652
1569399578.16214
1569399578.17777
1569399578.19339
1569399578.20902
1569399578.22465
1569399578.24027
1569399578.2559
1569399578.27152
1569399578.28715
1569399578.30277
1569399578.3184
1569399578.33403
1569399578.34965
1569399578.36528
1569399578.3809
1569399578.39653
1569399578.41215
1569399578.42778
1569399578.44341
1569399578.45903
1569399578.47466
1569399578.49028
1569399578.50591
1569399578.52153
1569399578.53716
1569399578.55279
1569399578.56841
1569399578.58404
1569399578.59966
1569399578.61529
1569399578.63091
1569399578.64654
1569399578.66217
1569399578.67779
1569399578.69342
1569399578.70904
1569399578.72467
1569399578.74029
1569399578.75592
1569399578.77155
1569399578.78717
1569399578.8028
1569399578.81842
1569399578.83405
1569399578.84967
1569399578.8653
1569399578.88093
1569399578.89655
1569399578.91218
1569399578.9278
1569399578.94343
1569399578.95905
1569399578.97468
1569399578.99031
1569399579.00593
1569399579.02156
1569399579.03718
1569399579.05281
1569399579.06843
1569399579.08406
1569399579.09969
1569399579.11531
1569399579.13094
1569399579.14656
1569399579.16219
1569399579.17781
1569399579.19344
1569399579.20907
1569399579.22469
1569399579.24032
1569399579.25594
1569399579.27157
1569399579.28719
1569399579.30282
1569399579.31845
1569399579.33407
1569399579.3497
1569399579.36532
1569399579.38095
1569399579.39657
1569399579.4122
1569399579.42783
1569399579.44345
1569399579.45908
1569399579.4747
1569399579.49033
1569399579.50595
1569399579.52158
1569399579.53721
1569399579.55283
1569399579.56846
1569399579.58408
1569399579.59971
1569399579.61533
1569399579.63096
1569399579.64659
1569399579.66221
1569399579.67784
1569399579.69346
1569399579.70909
1569399579.72472
1569399579.74034
1569399579.75597
1569399579.77159
1569399579.78722
1569399579.80284
1569399579.81847
1569399579.8341
1569399579.84972
1569399579.86535
1569399579.88097
1569399579.8966
1569399579.91222
1569399579.92785
1569399579.94348
1569399579.9591
1569399579.97473
1569399579.99035
1569399580.00598
1569399580.0216
1569399580.03723
1569399580.05286
1569399580.06848
1569399580.08411
1569399580.09973
1569399580.11536
1569399580.13098
1569399580.14661
1569399580.16224
1569399580.17786
1569399580.19349
1569399580.20911
1569399580.22474
1569399580.24036
1569399580.25599
1569399580.27162
1569399580.28724
1569399580.30287
1569399580.31849
1569399580.33412
1569399580.34974
1569399580.36537
1569399580.381
1569399580.39662
1569399580.41225
1569399580.42787
1569399580.4435
1569399580.45912
1569399580.47475
1569399580.49038
1569399580.506
1569399580.52163
1569399580.53725
1569399580.55288
1569399580.5685
1569399580.58413
1569399580.59976
1569399580.61538
1569399580.63101
1569399580.64663
1569399580.66226
1569399580.67788
1569399580.69351
1569399580.70914
1569399580.72476
1569399580.74039
1569399580.75601
1569399580.77164
1569399580.78726
1569399580.80289
1569399580.81852
1569399580.83414
1569399580.84977
1569399580.86539
1569399580.88102
1569399580.89664
1569399580.91227
1569399580.9279
1569399580.94352
1569399580.95915
1569399580.97477
1569399580.9904
1569399581.00602
1569399581.02165
1569399581.03728
1569399581.0529
1569399581.06853
1569399581.08415
1569399581.09978
1569399581.1154
1569399581.13103
1569399581.14666
1569399581.16228
1569399581.17791
1569399581.19353
1569399581.20916
1569399581.22478
1569399581.24041
1569399581.25604
1569399581.27166
1569399581.28729
1569399581.30291
1569399581.31854
1569399581.33416
1569399581.34979
1569399581.36542
1569399581.38104
1569399581.39667
1569399581.41229
1569399581.42792
1569399581.44354
1569399581.45917
1569399581.4748
1569399581.49042
1569399581.50605
1569399581.52167
1569399581.5373
1569399581.55292
1569399581.56855
1569399581.58418
1569399581.5998
1569399581.61543
1569399581.63105
1569399581.64668
1569399581.6623
1569399581.67793
1569399581.69356
1569399581.70918
1569399581.72481
1569399581.74043
1569399581.75606
1569399581.77168
1569399581.78731
1569399581.80294
1569399581.81856
1569399581.83419
1569399581.84981
1569399581.86544
1569399581.88107
1569399581.89669
1569399581.91232
1569399581.92794
1569399581.94357
1569399581.95919
1569399581.97482
1569399581.99045
1569399582.00607
1569399582.0217
1569399582.03732
1569399582.05295
1569399582.06857
1569399582.0842
1569399582.09983
1569399582.11545
1569399582.13108
1569399582.1467
1569399582.16233
1569399582.17795
1569399582.19358
1569399582.20921
1569399582.22483
1569399582.24046
1569399582.25608
1569399582.27171
1569399582.28733
1569399582.30296
1569399582.31859
1569399582.33421
1569399582.34984
1569399582.36546
1569399582.38109
1569399582.39671
1569399582.41234
1569399582.42797
1569399582.44359
1569399582.45922
1569399582.47484
1569399582.49047
1569399582.50609
1569399582.52172
1569399582.53735
1569399582.55297
1569399582.5686
1569399582.58422
1569399582.59985
1569399582.61547
1569399582.6311
1569399582.64673
1569399582.66235
1569399582.67798
1569399582.6936
1569399582.70923
1569399582.72485
1569399582.74048
1569399582.75611
1569399582.77173
1569399582.78736
1569399582.80298
1569399582.81861
1569399582.83423
1569399582.84986
1569399582.86549
1569399582.88111
1569399582.89674
1569399582.91236
1569399582.92799
1569399582.94361
1569399582.95924
1569399582.97487
1569399582.99049
1569399583.00612
1569399583.02174
1569399583.03737
1569399583.05299
1569399583.06862
1569399583.08425
1569399583.09987
1569399583.1155
1569399583.13112
1569399583.14675
1569399583.16237
1569399583.178
1569399583.19363
1569399583.20925
1569399583.22488
1569399583.2405
1569399583.25613
1569399583.27175
1569399583.28738
1569399583.30301
1569399583.31863
1569399583.33426
1569399583.34988
1569399583.36551
1569399583.38113
1569399583.39676
1569399583.41239
1569399583.42801
1569399583.44364
1569399583.45926
1569399583.47489
1569399583.49051
1569399583.50614
1569399583.52177
1569399583.53739
1569399583.55302
1569399583.56864
1569399583.58427
1569399583.59989
1569399583.61552
1569399583.63115
1569399583.64677
1569399583.6624
1569399583.67802
1569399583.69365
1569399583.70927
1569399583.7249
1569399583.74053
1569399583.75615
1569399583.77178
1569399583.7874
1569399583.80303
1569399583.81865
1569399583.83428
1569399583.84991
1569399583.86553
1569399583.88116
1569399583.89678
1569399583.91241
1569399583.92803
1569399583.94366
1569399583.95929
1569399583.97491
1569399583.99054
1569399584.00616
1569399584.02179
1569399584.03741
1569399584.05304
1569399584.06867
1569399584.08429
1569399584.09992
1569399584.11554
1569399584.13117
1569399584.1468
1569399584.16242
1569399584.17805
1569399584.19367
1569399584.2093
1569399584.22492
1569399584.24055
1569399584.25618
1569399584.2718
1569399584.28743
1569399584.30305
1569399584.31868
1569399584.3343
1569399584.34993
1569399584.36556
1569399584.38118
1569399584.39681
1569399584.41243
1569399584.42806
1569399584.44368
1569399584.45931
1569399584.47494
1569399584.49056
1569399584.50619
1569399584.52181
1569399584.53744
1569399584.55306
1569399584.56869
1569399584.58432
1569399584.59994
1569399584.61557
1569399584.63119
1569399584.64682
1569399584.66244
1569399584.67807
1569399584.6937
1569399584.70932
1569399584.72495
1569399584.74057
1569399584.7562
1569399584.77182
1569399584.78745
1569399584.80308
1569399584.8187
1569399584.83433
1569399584.84995
1569399584.86558
1569399584.8812
1569399584.89683
1569399584.91246
1569399584.92808
1569399584.94371
1569399584.95933
1569399584.97496
1569399584.99058
1569399585.00621
1569399585.02184
1569399585.03746
1569399585.05309
1569399585.06871
1569399585.08434
1569399585.09996
1569399585.11559
1569399585.13122
1569399585.14684
1569399585.16247
1569399585.17809
1569399585.19372
1569399585.20934
1569399585.22497
1569399585.2406
1569399585.25622
1569399585.27185
1569399585.28747
1569399585.3031
1569399585.31872
1569399585.33435
1569399585.34998
1569399585.3656
1569399585.38123
1569399585.39685
1569399585.41248
1569399585.4281
1569399585.44373
1569399585.45936
1569399585.47498
1569399585.49061
1569399585.50623
1569399585.52186
1569399585.53748
1569399585.55311
1569399585.56874
1569399585.58436
1569399585.59999
1569399585.61561
1569399585.63124
1569399585.64686
1569399585.66249
1569399585.67812
1569399585.69374
1569399585.70937
1569399585.72499
1569399585.74062
1569399585.75624
1569399585.77187
1569399585.7875
1569399585.80312
1569399585.81875
1569399585.83437
1569399585.85
1569399585.86562
1569399585.88125
1569399585.89688
1569399585.9125
1569399585.92813
1569399585.94375
1569399585.95938
1569399585.975
1569399585.99063
1569399586.00626
1569399586.02188
1569399586.03751
1569399586.05313
1569399586.06876
1569399586.08438
1569399586.10001
1569399586.11564
1569399586.13126
1569399586.14689
1569399586.16251
1569399586.17814
1569399586.19376
1569399586.20939
1569399586.22502
1569399586.24064
1569399586.25627
1569399586.27189
1569399586.28752
1569399586.30314
1569399586.31877
1569399586.3344
1569399586.35002
1569399586.36565
1569399586.38127
1569399586.3969
1569399586.41252
1569399586.42815
1569399586.44378
1569399586.4594
1569399586.47503
1569399586.49065
1569399586.50628
1569399586.5219
1569399586.53753
1569399586.55316
1569399586.56878
1569399586.58441
1569399586.60003
1569399586.61566
1569399586.63128
1569399586.64691
1569399586.66254
1569399586.67816
1569399586.69379
1569399586.70941
1569399586.72504
1569399586.74066
1569399586.75629
1569399586.77192
1569399586.78754
1569399586.80317
1569399586.81879
1569399586.83442
1569399586.85005
1569399586.86567
1569399586.8813
1569399586.89692
1569399586.91255
1569399586.92817
1569399586.9438
1569399586.95943
1569399586.97505
1569399586.99068
1569399587.0063
1569399587.02193
1569399587.03755
1569399587.05318
1569399587.06881
1569399587.08443
1569399587.10006
1569399587.11568
1569399587.13131
1569399587.14693
1569399587.16256
1569399587.17819
1569399587.19381
1569399587.20944
1569399587.22506
1569399587.24069
1569399587.25631
1569399587.27194
1569399587.28757
1569399587.30319
1569399587.31882
1569399587.33444
1569399587.35007
1569399587.36569
1569399587.38132
1569399587.39695
1569399587.41257
1569399587.4282
1569399587.44382
1569399587.45945
1569399587.47507
1569399587.4907
1569399587.50633
1569399587.52195
1569399587.53758
1569399587.5532
1569399587.56883
1569399587.58445
1569399587.60008
1569399587.61571
1569399587.63133
1569399587.64696
1569399587.66258
1569399587.67821
1569399587.69383
1569399587.70946
1569399587.72509
1569399587.74071
1569399587.75634
1569399587.77196
1569399587.78759
1569399587.80321
1569399587.81884
1569399587.83447
1569399587.85009
1569399587.86572
1569399587.88134
1569399587.89697
1569399587.91259
1569399587.92822
1569399587.94385
1569399587.95947
1569399587.9751
1569399587.99072
1569399588.00635
1569399588.02197
1569399588.0376
1569399588.05323
1569399588.06885
1569399588.08448
1569399588.1001
1569399588.11573
1569399588.13135
1569399588.14698
1569399588.16261
1569399588.17823
1569399588.19386
1569399588.20948
1569399588.22511
1569399588.24073
1569399588.25636
1569399588.27199
1569399588.28761
1569399588.30324
1569399588.31886
1569399588.33449
1569399588.35011
1569399588.36574
1569399588.38137
1569399588.39699
1569399588.41262
1569399588.42824
1569399588.44387
1569399588.45949
1569399588.47512
1569399588.49075
1569399588.50637
1569399588.522
1569399588.53762
1569399588.55325
1569399588.56887
1569399588.5845
1569399588.60013
1569399588.61575
1569399588.63138
1569399588.647
1569399588.66263
1569399588.67825
1569399588.69388
1569399588.70951
1569399588.72513
1569399588.74076
1569399588.75638
1569399588.77201
1569399588.78763
1569399588.80326
1569399588.81889
1569399588.83451
1569399588.85014
1569399588.86576
1569399588.88139
1569399588.89701
1569399588.91264
1569399588.92827
1569399588.94389
1569399588.95952
1569399588.97514
1569399588.99077
1569399589.0064
1569399589.02202
1569399589.03765
1569399589.05327
1569399589.0689
1569399589.08452
1569399589.10015
1569399589.11578
1569399589.1314
1569399589.14703
1569399589.16265
1569399589.17828
1569399589.1939
1569399589.20953
1569399589.22516
1569399589.24078
1569399589.25641
1569399589.27203
1569399589.28766
1569399589.30328
1569399589.31891
1569399589.33454
1569399589.35016
1569399589.36579
1569399589.38141
1569399589.39704
1569399589.41266
1569399589.42829
1569399589.44392
1569399589.45954
1569399589.47517
1569399589.49079
1569399589.50642
1569399589.52204
1569399589.53767
1569399589.5533
1569399589.56892
1569399589.58455
1569399589.60017
1569399589.6158
1569399589.63142
1569399589.64705
1569399589.66268
1569399589.6783
1569399589.69393
1569399589.70955
1569399589.72518
1569399589.7408
1569399589.75643
1569399589.77206
1569399589.78768
1569399589.80331
1569399589.81893
1569399589.83456
1569399589.85018
1569399589.86581
1569399589.88144
1569399589.89706
1569399589.91269
1569399589.92831
1569399589.94394
1569399589.95956
1569399589.97519
1569399589.99082
1569399590.00644
1569399590.02207
1569399590.03769
1569399590.05332
1569399590.06894
1569399590.08457
1569399590.1002
1569399590.11582
1569399590.13145
1569399590.14707
1569399590.1627
1569399590.17832
1569399590.19395
1569399590.20958
1569399590.2252
1569399590.24083
1569399590.25645
1569399590.27208
1569399590.2877
1569399590.30333
1569399590.31896
1569399590.33458
1569399590.35021
1569399590.36583
1569399590.38146
1569399590.39708
1569399590.41271
1569399590.42834
1569399590.44396
1569399590.45959
1569399590.47521
1569399590.49084
1569399590.50646
1569399590.52209
1569399590.53772
1569399590.55334
1569399590.56897
1569399590.58459
1569399590.60022
1569399590.61584
1569399590.63147
1569399590.6471
1569399590.66272
1569399590.67835
1569399590.69397
1569399590.7096
1569399590.72522
1569399590.74085
1569399590.75648
1569399590.7721
1569399590.78773
1569399590.80335
1569399590.81898
1569399590.8346
1569399590.85023
1569399590.86586
1569399590.88148
1569399590.89711
1569399590.91273
1569399590.92836
1569399590.94398
1569399590.95961
1569399590.97524
1569399590.99086
1569399591.00649
1569399591.02211
1569399591.03774
1569399591.05336
1569399591.06899
1569399591.08462
1569399591.10024
1569399591.11587
1569399591.13149
1569399591.14712
1569399591.16274
1569399591.17837
1569399591.194
1569399591.20962
1569399591.22525
1569399591.24087
1569399591.2565
1569399591.27213
1569399591.28775
1569399591.30338
1569399591.319
1569399591.33463
1569399591.35025
1569399591.36588
1569399591.38151
1569399591.39713
1569399591.41276
1569399591.42838
1569399591.44401
1569399591.45963
1569399591.47526
1569399591.49089
1569399591.50651
1569399591.52214
1569399591.53776
1569399591.55339
1569399591.56901
1569399591.58464
1569399591.60027
1569399591.61589
1569399591.63152
1569399591.64714
1569399591.66277
1569399591.67839
1569399591.69402
1569399591.70965
1569399591.72527
1569399591.7409
1569399591.75652
1569399591.77215
1569399591.78777
1569399591.8034
1569399591.81903
1569399591.83465
1569399591.85028
1569399591.8659
1569399591.88153
1569399591.89715
1569399591.91278
1569399591.92841
1569399591.94403
1569399591.95966
1569399591.97528
1569399591.99091
1569399592.00653
1569399592.02216
1569399592.03779
1569399592.05341
1569399592.06904
1569399592.08466
1569399592.10029
1569399592.11591
1569399592.13154
1569399592.14717
1569399592.16279
1569399592.17842
1569399592.19404
1569399592.20967
1569399592.22529
1569399592.24092
1569399592.25655
1569399592.27217
1569399592.2878
1569399592.30342
1569399592.31905
1569399592.33467
1569399592.3503
1569399592.36593
1569399592.38155
1569399592.39718
1569399592.4128
1569399592.42843
1569399592.44405
1569399592.45968
1569399592.47531
1569399592.49093
1569399592.50656
1569399592.52218
1569399592.53781
1569399592.55343
1569399592.56906
1569399592.58469
1569399592.60031
1569399592.61594
1569399592.63156
1569399592.64719
1569399592.66281
1569399592.67844
1569399592.69407
1569399592.70969
1569399592.72532
1569399592.74094
1569399592.75657
1569399592.77219
1569399592.78782
1569399592.80345
1569399592.81907
1569399592.8347
1569399592.85032
1569399592.86595
1569399592.88157
1569399592.8972
1569399592.91283
1569399592.92845
1569399592.94408
1569399592.9597
1569399592.97533
1569399592.99095
1569399593.00658
1569399593.02221
1569399593.03783
1569399593.05346
1569399593.06908
1569399593.08471
1569399593.10033
1569399593.11596
1569399593.13159
1569399593.14721
1569399593.16284
1569399593.17846
1569399593.19409
1569399593.20971
1569399593.22534
1569399593.24097
1569399593.25659
1569399593.27222
1569399593.28784
1569399593.30347
1569399593.31909
1569399593.33472
1569399593.35035
1569399593.36597
1569399593.3816
1569399593.39722
1569399593.41285
1569399593.42847
1569399593.4441
1569399593.45973
1569399593.47535
1569399593.49098
1569399593.5066
1569399593.52223
1569399593.53785
1569399593.55348
1569399593.56911
1569399593.58473
1569399593.60036
1569399593.61598
1569399593.63161
1569399593.64723
1569399593.66286
1569399593.67849
1569399593.69411
1569399593.70974
1569399593.72536
1569399593.74099
1569399593.75661
1569399593.77224
1569399593.78787
1569399593.80349
1569399593.81912
1569399593.83474
1569399593.85037
1569399593.866
1569399593.88162
1569399593.89725
1569399593.91287
1569399593.9285
1569399593.94412
1569399593.95975
1569399593.97538
1569399593.991
1569399594.00663
1569399594.02225
1569399594.03788
1569399594.0535
1569399594.06913
1569399594.08476
1569399594.10038
1569399594.11601
1569399594.13163
1569399594.14726
1569399594.16288
1569399594.17851
1569399594.19414
1569399594.20976
1569399594.22539
1569399594.24101
1569399594.25664
1569399594.27226
1569399594.28789
1569399594.30352
1569399594.31914
1569399594.33477
1569399594.35039
1569399594.36602
1569399594.38164
1569399594.39727
1569399594.4129
1569399594.42852
1569399594.44415
1569399594.45977
1569399594.4754
1569399594.49102
1569399594.50665
1569399594.52228
1569399594.5379
1569399594.55353
1569399594.56915
1569399594.58478
1569399594.6004
1569399594.61603
1569399594.63166
1569399594.64728
1569399594.66291
1569399594.67853
1569399594.69416
1569399594.70978
1569399594.72541
1569399594.74104
1569399594.75666
1569399594.77229
1569399594.78791
1569399594.80354
1569399594.81916
1569399594.83479
1569399594.85042
1569399594.86604
1569399594.88167
1569399594.89729
1569399594.91292
1569399594.92854
1569399594.94417
1569399594.9598
1569399594.97542
1569399594.99105
1569399595.00667
1569399595.0223
1569399595.03792
1569399595.05355
1569399595.06918
1569399595.0848
1569399595.10043
1569399595.11605
1569399595.13168
1569399595.1473
1569399595.16293
1569399595.17856
1569399595.19418
1569399595.20981
1569399595.22543
1569399595.24106
1569399595.25668
1569399595.27231
1569399595.28794
1569399595.30356
1569399595.31919
1569399595.33481
1569399595.35044
1569399595.36606
1569399595.38169
1569399595.39732
1569399595.41294
1569399595.42857
1569399595.44419
1569399595.45982
1569399595.47544
1569399595.49107
1569399595.5067
1569399595.52232
1569399595.53795
1569399595.55357
1569399595.5692
1569399595.58482
1569399595.60045
1569399595.61608
1569399595.6317
1569399595.64733
1569399595.66295
1569399595.67858
1569399595.6942
1569399595.70983
1569399595.72546
1569399595.74108
1569399595.75671
1569399595.77233
1569399595.78796
1569399595.80358
1569399595.81921
1569399595.83484
1569399595.85046
1569399595.86609
1569399595.88171
1569399595.89734
1569399595.91296
1569399595.92859
1569399595.94422
1569399595.95984
1569399595.97547
1569399595.99109
1569399596.00672
1569399596.02234
1569399596.03797
1569399596.0536
1569399596.06922
1569399596.08485
1569399596.10047
1569399596.1161
1569399596.13173
1569399596.14735
1569399596.16298
1569399596.1786
1569399596.19423
1569399596.20985
1569399596.22548
1569399596.24111
1569399596.25673
1569399596.27236
1569399596.28798
1569399596.30361
1569399596.31923
1569399596.33486
1569399596.35049
1569399596.36611
1569399596.38174
1569399596.39736
1569399596.41299
1569399596.42861
1569399596.44424
1569399596.45987
1569399596.47549
1569399596.49112
1569399596.50674
1569399596.52237
1569399596.53799
1569399596.55362
1569399596.56925
1569399596.58487
1569399596.6005
1569399596.61612
1569399596.63175
1569399596.64737
1569399596.663
1569399596.67863
1569399596.69425
1569399596.70988
1569399596.7255
1569399596.74113
1569399596.75675
1569399596.77238
1569399596.78801
1569399596.80363
1569399596.81926
1569399596.83488
1569399596.85051
1569399596.86613
1569399596.88176
1569399596.89739
1569399596.91301
1569399596.92864
1569399596.94426
1569399596.95989
1569399596.97551
1569399596.99114
1569399597.00677
1569399597.02239
1569399597.03802
1569399597.05364
1569399597.06927
1569399597.08489
1569399597.10052
1569399597.11615
1569399597.13177
1569399597.1474
1569399597.16302
1569399597.17865
1569399597.19427
1569399597.2099
1569399597.22553
1569399597.24115
1569399597.25678
1569399597.2724
1569399597.28803
1569399597.30365
1569399597.31928
1569399597.33491
1569399597.35053
1569399597.36616
1569399597.38178
1569399597.39741
1569399597.41303
1569399597.42866
1569399597.44429
1569399597.45991
1569399597.47554
1569399597.49116
1569399597.50679
1569399597.52241
1569399597.53804
1569399597.55367
1569399597.56929
1569399597.58492
1569399597.60054
1569399597.61617
1569399597.63179
1569399597.64742
1569399597.66305
1569399597.67867
1569399597.6943
1569399597.70992
1569399597.72555
1569399597.74117
1569399597.7568
1569399597.77243
1569399597.78805
1569399597.80368
1569399597.8193
1569399597.83493
1569399597.85055
1569399597.86618
1569399597.88181
1569399597.89743
1569399597.91306
1569399597.92868
1569399597.94431
1569399597.95993
1569399597.97556
1569399597.99119
1569399598.00681
1569399598.02244
1569399598.03806
1569399598.05369
1569399598.06931
1569399598.08494
1569399598.10057
1569399598.11619
1569399598.13182
1569399598.14744
1569399598.16307
1569399598.17869
1569399598.19432
1569399598.20995
1569399598.22557
1569399598.2412
1569399598.25682
1569399598.27245
1569399598.28807
1569399598.3037
1569399598.31933
1569399598.33495
1569399598.35058
1569399598.3662
1569399598.38183
1569399598.39745
1569399598.41308
1569399598.42871
1569399598.44433
1569399598.45996
1569399598.47558
1569399598.49121
1569399598.50683
1569399598.52246
1569399598.53809
1569399598.55371
1569399598.56934
1569399598.58496
1569399598.60059
1569399598.61621
1569399598.63184
1569399598.64747
1569399598.66309
1569399598.67872
1569399598.69434
1569399598.70997
1569399598.7256
1569399598.74122
1569399598.75685
1569399598.77247
1569399598.7881
1569399598.80372
1569399598.81935
1569399598.83498
1569399598.8506
1569399598.86623
1569399598.88185
1569399598.89748
1569399598.9131
1569399598.92873
1569399598.94436
1569399598.95998
1569399598.97561
1569399598.99123
1569399599.00686
1569399599.02248
1569399599.03811
1569399599.05374
1569399599.06936
1569399599.08499
1569399599.10061
1569399599.11624
1569399599.13186
1569399599.14749
1569399599.16312
1569399599.17874
1569399599.19437
1569399599.20999
1569399599.22562
1569399599.24124
1569399599.25687
1569399599.2725
1569399599.28812
1569399599.30375
1569399599.31937
1569399599.335
1569399599.35062
1569399599.36625
1569399599.38188
1569399599.3975
1569399599.41313
1569399599.42875
1569399599.44438
1569399599.46
1569399599.47563
1569399599.49126
1569399599.50688
1569399599.52251
1569399599.53813
1569399599.55376
1569399599.56938
1569399599.58501
1569399599.60064
1569399599.61626
1569399599.63189
1569399599.64751
1569399599.66314
1569399599.67876
1569399599.69439
1569399599.71002
1569399599.72564
1569399599.74127
1569399599.75689
1569399599.77252
1569399599.78814
1569399599.80377
1569399599.8194
1569399599.83502
1569399599.85065
1569399599.86627
1569399599.8819
1569399599.89752
1569399599.91315
1569399599.92878
1569399599.9444
1569399599.96003
1569399599.97565
1569399599.99128
1569399600.0069
1569399600.02253
1569399600.03816
1569399600.05378
1569399600.06941
1569399600.08503
1569399600.10066
1569399600.11628
1569399600.13191
1569399600.14754
1569399600.16316
1569399600.17879
1569399600.19441
1569399600.21004
1569399600.22566
1569399600.24129
1569399600.25692
1569399600.27254
1569399600.28817
1569399600.30379
1569399600.31942
1569399600.33504
1569399600.35067
1569399600.3663
1569399600.38192
1569399600.39755
1569399600.41317
1569399600.4288
1569399600.44442
1569399600.46005
1569399600.47568
1569399600.4913
1569399600.50693
1569399600.52255
1569399600.53818
1569399600.5538
1569399600.56943
1569399600.58506
1569399600.60068
1569399600.61631
1569399600.63193
1569399600.64756
1569399600.66318
1569399600.67881
1569399600.69444
1569399600.71006
1569399600.72569
1569399600.74131
1569399600.75694
1569399600.77256
1569399600.78819
1569399600.80382
1569399600.81944
1569399600.83507
1569399600.85069
1569399600.86632
1569399600.88194
1569399600.89757
1569399600.9132
1569399600.92882
1569399600.94445
1569399600.96007
1569399600.9757
1569399600.99133
1569399601.00695
1569399601.02258
1569399601.0382
1569399601.05383
1569399601.06945
1569399601.08508
1569399601.10071
1569399601.11633
1569399601.13196
1569399601.14758
1569399601.16321
1569399601.17883
1569399601.19446
1569399601.21009
1569399601.22571
1569399601.24134
1569399601.25696
1569399601.27259
1569399601.28821
1569399601.30384
1569399601.31947
1569399601.33509
1569399601.35072
1569399601.36634
1569399601.38197
1569399601.39759
1569399601.41322
1569399601.42885
1569399601.44447
1569399601.4601
1569399601.47572
1569399601.49135
1569399601.50697
1569399601.5226
1569399601.53823
1569399601.55385
1569399601.56948
1569399601.5851
1569399601.60073
1569399601.61635
1569399601.63198
1569399601.64761
1569399601.66323
1569399601.67886
1569399601.69448
1569399601.71011
1569399601.72573
1569399601.74136
1569399601.75699
1569399601.77261
1569399601.78824
1569399601.80386
1569399601.81949
1569399601.83511
1569399601.85074
1569399601.86637
1569399601.88199
1569399601.89762
1569399601.91324
1569399601.92887
1569399601.94449
1569399601.96012
1569399601.97575
1569399601.99137
1569399602.007
1569399602.02262
1569399602.03825
1569399602.05387
1569399602.0695
1569399602.08513
1569399602.10075
1569399602.11638
1569399602.132
1569399602.14763
1569399602.16325
1569399602.17888
1569399602.19451
1569399602.21013
1569399602.22576
1569399602.24138
1569399602.25701
1569399602.27263
1569399602.28826
1569399602.30389
1569399602.31951
1569399602.33514
1569399602.35076
1569399602.36639
1569399602.38201
1569399602.39764
1569399602.41327
1569399602.42889
1569399602.44452
1569399602.46014
1569399602.47577
1569399602.49139
1569399602.50702
1569399602.52265
1569399602.53827
1569399602.5539
1569399602.56952
1569399602.58515
1569399602.60077
1569399602.6164
1569399602.63203
1569399602.64765
1569399602.66328
1569399602.6789
1569399602.69453
1569399602.71015
1569399602.72578
1569399602.74141
1569399602.75703
1569399602.77266
1569399602.78828
1569399602.80391
1569399602.81953
1569399602.83516
1569399602.85079
1569399602.86641
1569399602.88204
1569399602.89766
1569399602.91329
1569399602.92891
1569399602.94454
1569399602.96017
1569399602.97579
1569399602.99142
1569399603.00704
1569399603.02267
1569399603.03829
1569399603.05392
1569399603.06955
1569399603.08517
1569399603.1008
1569399603.11642
1569399603.13205
1569399603.14768
1569399603.1633
1569399603.17893
1569399603.19455
1569399603.21018
1569399603.2258
1569399603.24143
1569399603.25706
1569399603.27268
1569399603.28831
1569399603.30393
1569399603.31956
1569399603.33518
1569399603.35081
1569399603.36644
1569399603.38206
1569399603.39769
1569399603.41331
1569399603.42894
1569399603.44456
1569399603.46019
1569399603.47582
1569399603.49144
1569399603.50707
1569399603.52269
1569399603.53832
1569399603.55394
1569399603.56957
1569399603.5852
1569399603.60082
1569399603.61645
1569399603.63207
1569399603.6477
1569399603.66332
1569399603.67895
1569399603.69458
1569399603.7102
1569399603.72583
1569399603.74145
1569399603.75708
1569399603.7727
1569399603.78833
1569399603.80396
1569399603.81958
1569399603.83521
1569399603.85083
1569399603.86646
1569399603.88208
1569399603.89771
1569399603.91334
1569399603.92896
1569399603.94459
1569399603.96021
1569399603.97584
1569399603.99146
1569399604.00709
1569399604.02272
1569399604.03834
1569399604.05397
1569399604.06959
1569399604.08522
1569399604.10084
1569399604.11647
1569399604.1321
1569399604.14772
1569399604.16335
1569399604.17897
1569399604.1946
1569399604.21022
1569399604.22585
1569399604.24148
1569399604.2571
1569399604.27273
1569399604.28835
1569399604.30398
1569399604.3196
1569399604.33523
1569399604.35086
1569399604.36648
1569399604.38211
1569399604.39773
1569399604.41336
1569399604.42898
1569399604.44461
1569399604.46024
1569399604.47586
1569399604.49149
1569399604.50711
1569399604.52274
1569399604.53836
1569399604.55399
1569399604.56962
1569399604.58524
1569399604.60087
1569399604.61649
1569399604.63212
1569399604.64774
1569399604.66337
1569399604.679
1569399604.69462
1569399604.71025
1569399604.72587
1569399604.7415
1569399604.75712
1569399604.77275
1569399604.78838
1569399604.804
1569399604.81963
1569399604.83525
1569399604.85088
1569399604.8665
1569399604.88213
1569399604.89776
1569399604.91338
1569399604.92901
1569399604.94463
1569399604.96026
1569399604.97588
1569399604.99151
1569399605.00714
1569399605.02276
1569399605.03839
1569399605.05401
1569399605.06964
1569399605.08526
1569399605.10089
1569399605.11652
1569399605.13214
1569399605.14777
1569399605.16339
1569399605.17902
1569399605.19464
1569399605.21027
1569399605.2259
1569399605.24152
1569399605.25715
1569399605.27277
1569399605.2884
1569399605.30402
1569399605.31965
1569399605.33528
1569399605.3509
1569399605.36653
1569399605.38215
1569399605.39778
1569399605.4134
1569399605.42903
1569399605.44466
1569399605.46028
1569399605.47591
1569399605.49153
1569399605.50716
1569399605.52278
1569399605.53841
1569399605.55404
1569399605.56966
1569399605.58529
1569399605.60091
1569399605.61654
1569399605.63216
1569399605.64779
1569399605.66342
1569399605.67904
1569399605.69467
1569399605.71029
1569399605.72592
1569399605.74154
1569399605.75717
1569399605.7728
1569399605.78842
1569399605.80405
1569399605.81967
1569399605.8353
1569399605.85093
1569399605.86655
1569399605.88218
1569399605.8978
1569399605.91343
1569399605.92905
1569399605.94468
1569399605.96031
1569399605.97593
1569399605.99156
1569399606.00718
1569399606.02281
1569399606.03843
1569399606.05406
1569399606.06969
1569399606.08531
1569399606.10094
1569399606.11656
1569399606.13219
1569399606.14781
1569399606.16344
1569399606.17907
1569399606.19469
1569399606.21032
1569399606.22594
1569399606.24157
1569399606.25719
1569399606.27282
1569399606.28845
1569399606.30407
1569399606.3197
1569399606.33532
1569399606.35095
1569399606.36657
1569399606.3822
1569399606.39783
1569399606.41345
1569399606.42908
1569399606.4447
1569399606.46033
1569399606.47595
1569399606.49158
1569399606.50721
1569399606.52283
1569399606.53846
1569399606.55408
1569399606.56971
1569399606.58533
1569399606.60096
1569399606.61659
1569399606.63221
1569399606.64784
1569399606.66346
1569399606.67909
1569399606.69471
1569399606.71034
1569399606.72597
1569399606.74159
1569399606.75722
1569399606.77284
1569399606.78847
1569399606.80409
1569399606.81972
1569399606.83535
1569399606.85097
1569399606.8666
1569399606.88222
1569399606.89785
1569399606.91347
1569399606.9291
1569399606.94473
1569399606.96035
1569399606.97598
1569399606.9916
1569399607.00723
1569399607.02285
1569399607.03848
1569399607.05411
1569399607.06973
1569399607.08536
1569399607.10098
1569399607.11661
1569399607.13223
1569399607.14786
1569399607.16349
1569399607.17911
1569399607.19474
1569399607.21036
1569399607.22599
1569399607.24161
1569399607.25724
1569399607.27287
1569399607.28849
1569399607.30412
1569399607.31974
1569399607.33537
1569399607.35099
1569399607.36662
1569399607.38225
1569399607.39787
1569399607.4135
1569399607.42912
1569399607.44475
1569399607.46037
1569399607.476
1569399607.49163
1569399607.50725
1569399607.52288
1569399607.5385
1569399607.55413
1569399607.56975
1569399607.58538
1569399607.60101
1569399607.61663
1569399607.63226
1569399607.64788
1569399607.66351
1569399607.67913
1569399607.69476
1569399607.71039
1569399607.72601
1569399607.74164
1569399607.75726
1569399607.77289
1569399607.78851
1569399607.80414
1569399607.81977
1569399607.83539
1569399607.85102
1569399607.86664
1569399607.88227
1569399607.89789
1569399607.91352
1569399607.92915
1569399607.94477
1569399607.9604
1569399607.97602
1569399607.99165
1569399608.00728
1569399608.0229
1569399608.03853
1569399608.05415
1569399608.06978
1569399608.0854
1569399608.10103
1569399608.11666
1569399608.13228
1569399608.14791
1569399608.16353
1569399608.17916
1569399608.19478
1569399608.21041
1569399608.22604
1569399608.24166
1569399608.25729
1569399608.27291
1569399608.28854
1569399608.30416
1569399608.31979
1569399608.33542
1569399608.35104
1569399608.36667
1569399608.38229
1569399608.39792
1569399608.41354
1569399608.42917
1569399608.4448
1569399608.46042
1569399608.47605
1569399608.49167
1569399608.5073
1569399608.52292
1569399608.53855
1569399608.55418
1569399608.5698
1569399608.58543
1569399608.60105
1569399608.61668
1569399608.6323
1569399608.64793
1569399608.66356
1569399608.67918
1569399608.69481
1569399608.71043
1569399608.72606
1569399608.74168
1569399608.75731
1569399608.77294
1569399608.78856
1569399608.80419
1569399608.81981
1569399608.83544
1569399608.85106
1569399608.86669
1569399608.88232
1569399608.89794
1569399608.91357
1569399608.92919
1569399608.94482
1569399608.96044
1569399608.97607
1569399608.9917
1569399609.00732
1569399609.02295
1569399609.03857
1569399609.0542
1569399609.06982
1569399609.08545
1569399609.10108
1569399609.1167
1569399609.13233
1569399609.14795
1569399609.16358
1569399609.1792
1569399609.19483
1569399609.21046
1569399609.22608
1569399609.24171
1569399609.25733
1569399609.27296
1569399609.28858
1569399609.30421
1569399609.31984
1569399609.33546
1569399609.35109
1569399609.36671
1569399609.38234
1569399609.39796
1569399609.41359
1569399609.42922
1569399609.44484
1569399609.46047
1569399609.47609
1569399609.49172
1569399609.50734
1569399609.52297
1569399609.5386
1569399609.55422
1569399609.56985
1569399609.58547
1569399609.6011
1569399609.61672
1569399609.63235
1569399609.64798
1569399609.6636
1569399609.67923
1569399609.69485
1569399609.71048
1569399609.7261
1569399609.74173
1569399609.75736
1569399609.77298
1569399609.78861
1569399609.80423
1569399609.81986
1569399609.83548
1569399609.85111
1569399609.86674
1569399609.88236
1569399609.89799
1569399609.91361
1569399609.92924
1569399609.94486
1569399609.96049
1569399609.97612
1569399609.99174
1569399610.00737
1569399610.02299
1569399610.03862
1569399610.05424
1569399610.06987
1569399610.0855
1569399610.10112
1569399610.11675
1569399610.13237
1569399610.148
1569399610.16362
1569399610.17925
1569399610.19488
1569399610.2105
1569399610.22613
1569399610.24175
1569399610.25738
1569399610.27301
1569399610.28863
1569399610.30426
1569399610.31988
1569399610.33551
1569399610.35113
1569399610.36676
1569399610.38239
1569399610.39801
1569399610.41364
1569399610.42926
1569399610.44489
1569399610.46051
1569399610.47614
1569399610.49177
1569399610.50739
1569399610.52302
1569399610.53864
1569399610.55427
1569399610.56989
1569399610.58552
1569399610.60115
1569399610.61677
1569399610.6324
1569399610.64802
1569399610.66365
1569399610.67927
1569399610.6949
1569399610.71053
1569399610.72615
1569399610.74178
1569399610.7574
1569399610.77303
1569399610.78865
1569399610.80428
1569399610.81991
1569399610.83553
1569399610.85116
1569399610.86678
1569399610.88241
1569399610.89803
1569399610.91366
1569399610.92929
1569399610.94491
1569399610.96054
1569399610.97616
1569399610.99179
1569399611.00741
1569399611.02304
1569399611.03867
1569399611.05429
1569399611.06992
1569399611.08554
1569399611.10117
1569399611.11679
1569399611.13242
1569399611.14805
1569399611.16367
1569399611.1793
1569399611.19492
1569399611.21055
1569399611.22617
1569399611.2418
1569399611.25743
1569399611.27305
1569399611.28868
1569399611.3043
1569399611.31993
1569399611.33555
1569399611.35118
1569399611.36681
1569399611.38243
1569399611.39806
1569399611.41368
1569399611.42931
1569399611.44493
1569399611.46056
1569399611.47619
1569399611.49181
1569399611.50744
1569399611.52306
1569399611.53869
1569399611.55431
1569399611.56994
1569399611.58557
1569399611.60119
1569399611.61682
1569399611.63244
1569399611.64807
1569399611.66369
1569399611.67932
1569399611.69495
1569399611.71057
1569399611.7262
1569399611.74182
1569399611.75745
1569399611.77307
1569399611.7887
1569399611.80433
1569399611.81995
1569399611.83558
1569399611.8512
1569399611.86683
1569399611.88245
1569399611.89808
1569399611.91371
1569399611.92933
1569399611.94496
1569399611.96058
1569399611.97621
1569399611.99183
1569399612.00746
1569399612.02309
1569399612.03871
1569399612.05434
1569399612.06996
1569399612.08559
1569399612.10121
1569399612.11684
1569399612.13247
1569399612.14809
1569399612.16372
1569399612.17934
1569399612.19497
1569399612.21059
1569399612.22622
1569399612.24185
1569399612.25747
1569399612.2731
1569399612.28872
1569399612.30435
1569399612.31997
1569399612.3356
1569399612.35123
1569399612.36685
1569399612.38248
1569399612.3981
1569399612.41373
1569399612.42935
1569399612.44498
1569399612.46061
1569399612.47623
1569399612.49186
1569399612.50748
1569399612.52311
1569399612.53873
1569399612.55436
1569399612.56999
1569399612.58561
1569399612.60124
1569399612.61686
1569399612.63249
1569399612.64811
1569399612.66374
1569399612.67937
1569399612.69499
1569399612.71062
1569399612.72624
1569399612.74187
1569399612.75749
1569399612.77312
1569399612.78875
1569399612.80437
1569399612.82
1569399612.83562
1569399612.85125
1569399612.86688
1569399612.8825
1569399612.89813
1569399612.91375
1569399612.92938
1569399612.945
1569399612.96063
1569399612.97626
1569399612.99188
1569399613.00751
1569399613.02313
1569399613.03876
1569399613.05438
1569399613.07001
1569399613.08564
1569399613.10126
1569399613.11689
1569399613.13251
1569399613.14814
1569399613.16376
1569399613.17939
1569399613.19502
1569399613.21064
1569399613.22627
1569399613.24189
1569399613.25752
1569399613.27314
1569399613.28877
1569399613.3044
1569399613.32002
1569399613.33565
1569399613.35127
1569399613.3669
1569399613.38252
1569399613.39815
1569399613.41378
1569399613.4294
1569399613.44503
1569399613.46065
1569399613.47628
1569399613.4919
1569399613.50753
1569399613.52316
1569399613.53878
1569399613.55441
1569399613.57003
1569399613.58566
1569399613.60128
1569399613.61691
1569399613.63254
1569399613.64816
1569399613.66379
1569399613.67941
1569399613.69504
1569399613.71066
1569399613.72629
1569399613.74192
1569399613.75754
1569399613.77317
1569399613.78879
1569399613.80442
1569399613.82004
1569399613.83567
1569399613.8513
1569399613.86692
1569399613.88255
1569399613.89817
1569399613.9138
1569399613.92942
1569399613.94505
1569399613.96068
1569399613.9763
1569399613.99193
1569399614.00755
1569399614.02318
1569399614.0388
1569399614.05443
1569399614.07006
1569399614.08568
1569399614.10131
1569399614.11693
1569399614.13256
1569399614.14818
1569399614.16381
1569399614.17944
1569399614.19506
1569399614.21069
1569399614.22631
1569399614.24194
1569399614.25756
1569399614.27319
1569399614.28882
1569399614.30444
1569399614.32007
1569399614.33569
1569399614.35132
1569399614.36694
1569399614.38257
1569399614.3982
1569399614.41382
1569399614.42945
1569399614.44507
1569399614.4607
1569399614.47632
1569399614.49195
1569399614.50758
1569399614.5232
1569399614.53883
1569399614.55445
1569399614.57008
1569399614.5857
1569399614.60133
1569399614.61696
1569399614.63258
1569399614.64821
1569399614.66383
1569399614.67946
1569399614.69508
1569399614.71071
1569399614.72634
1569399614.74196
1569399614.75759
1569399614.77321
1569399614.78884
1569399614.80446
1569399614.82009
1569399614.83572
1569399614.85134
1569399614.86697
1569399614.88259
1569399614.89822
1569399614.91384
1569399614.92947
1569399614.9451
1569399614.96072
1569399614.97635
1569399614.99197
1569399615.0076
1569399615.02322
1569399615.03885
1569399615.05448
1569399615.0701
1569399615.08573
1569399615.10135
1569399615.11698
1569399615.13261
1569399615.14823
1569399615.16386
1569399615.17948
1569399615.19511
1569399615.21073
1569399615.22636
1569399615.24199
1569399615.25761
1569399615.27324
1569399615.28886
1569399615.30449
1569399615.32011
1569399615.33574
1569399615.35137
1569399615.36699
1569399615.38262
1569399615.39824
1569399615.41387
1569399615.42949
1569399615.44512
1569399615.46075
1569399615.47637
1569399615.492
1569399615.50762
1569399615.52325
1569399615.53887
1569399615.5545
1569399615.57013
1569399615.58575
1569399615.60138
1569399615.617
1569399615.63263
1569399615.64825
1569399615.66388
1569399615.67951
1569399615.69513
1569399615.71076
1569399615.72638
1569399615.74201
1569399615.75763
1569399615.77326
1569399615.78889
1569399615.80451
1569399615.82014
1569399615.83576
1569399615.85139
1569399615.86701
1569399615.88264
1569399615.89827
1569399615.91389
1569399615.92952
1569399615.94514
1569399615.96077
1569399615.97639
1569399615.99202
1569399616.00765
1569399616.02327
1569399616.0389
1569399616.05452
1569399616.07015
1569399616.08577
1569399616.1014
1569399616.11703
1569399616.13265
1569399616.14828
1569399616.1639
1569399616.17953
1569399616.19515
1569399616.21078
1569399616.22641
1569399616.24203
1569399616.25766
1569399616.27328
1569399616.28891
1569399616.30453
1569399616.32016
1569399616.33579
1569399616.35141
1569399616.36704
1569399616.38266
1569399616.39829
1569399616.41391
1569399616.42954
1569399616.44517
1569399616.46079
1569399616.47642
1569399616.49204
1569399616.50767
1569399616.52329
1569399616.53892
1569399616.55455
1569399616.57017
1569399616.5858
1569399616.60142
1569399616.61705
1569399616.63267
1569399616.6483
1569399616.66393
1569399616.67955
1569399616.69518
1569399616.7108
1569399616.72643
1569399616.74205
1569399616.75768
1569399616.77331
1569399616.78893
1569399616.80456
1569399616.82018
1569399616.83581
1569399616.85143
1569399616.86706
1569399616.88269
1569399616.89831
1569399616.91394
1569399616.92956
1569399616.94519
1569399616.96081
1569399616.97644
1569399616.99207
1569399617.00769
1569399617.02332
1569399617.03894
1569399617.05457
1569399617.07019
1569399617.08582
1569399617.10145
1569399617.11707
1569399617.1327
1569399617.14832
1569399617.16395
1569399617.17957
1569399617.1952
1569399617.21083
1569399617.22645
1569399617.24208
1569399617.2577
1569399617.27333
1569399617.28895
1569399617.30458
1569399617.32021
1569399617.33583
1569399617.35146
1569399617.36708
1569399617.38271
1569399617.39833
1569399617.41396
1569399617.42959
1569399617.44521
1569399617.46084
1569399617.47646
1569399617.49209
1569399617.50771
1569399617.52334
1569399617.53897
1569399617.55459
1569399617.57022
1569399617.58584
1569399617.60147
1569399617.61709
1569399617.63272
1569399617.64835
1569399617.66397
1569399617.6796
1569399617.69522
1569399617.71085
1569399617.72648
1569399617.7421
1569399617.75773
1569399617.77335
1569399617.78898
1569399617.8046
1569399617.82023
1569399617.83586
1569399617.85148
1569399617.86711
1569399617.88273
1569399617.89836
1569399617.91398
1569399617.92961
1569399617.94524
1569399617.96086
1569399617.97649
1569399617.99211
1569399618.00774
1569399618.02336
1569399618.03899
1569399618.05462
1569399618.07024
1569399618.08587
1569399618.10149
1569399618.11712
1569399618.13274
1569399618.14837
1569399618.164
1569399618.17962
1569399618.19525
1569399618.21087
1569399618.2265
1569399618.24212
1569399618.25775
1569399618.27338
1569399618.289
1569399618.30463
1569399618.32025
1569399618.33588
1569399618.3515
1569399618.36713
1569399618.38276
1569399618.39838
1569399618.41401
1569399618.42963
1569399618.44526
1569399618.46088
1569399618.47651
1569399618.49214
1569399618.50776
1569399618.52339
1569399618.53901
1569399618.55464
1569399618.57026
1569399618.58589
1569399618.60152
1569399618.61714
1569399618.63277
1569399618.64839
1569399618.66402
1569399618.67964
1569399618.69527
1569399618.7109
1569399618.72652
1569399618.74215
1569399618.75777
1569399618.7734
1569399618.78902
1569399618.80465
1569399618.82028
1569399618.8359
1569399618.85153
1569399618.86715
1569399618.88278
1569399618.8984
1569399618.91403
1569399618.92966
1569399618.94528
1569399618.96091
1569399618.97653
1569399618.99216
1569399619.00778
1569399619.02341
1569399619.03904
1569399619.05466
1569399619.07029
1569399619.08591
1569399619.10154
1569399619.11716
1569399619.13279
1569399619.14842
1569399619.16404
1569399619.17967
1569399619.19529
1569399619.21092
1569399619.22654
1569399619.24217
1569399619.2578
1569399619.27342
1569399619.28905
1569399619.30467
1569399619.3203
1569399619.33592
1569399619.35155
1569399619.36718
1569399619.3828
1569399619.39843
1569399619.41405
1569399619.42968
1569399619.4453
1569399619.46093
1569399619.47656
1569399619.49218
1569399619.50781
1569399619.52343
1569399619.53906
1569399619.55468
1569399619.57031
1569399619.58594
1569399619.60156
1569399619.61719
1569399619.63281
1569399619.64844
1569399619.66406
1569399619.67969
1569399619.69532
1569399619.71094
1569399619.72657
1569399619.74219
1569399619.75782
1569399619.77344
1569399619.78907
1569399619.8047
1569399619.82032
1569399619.83595
1569399619.85157
1569399619.8672
1569399619.88282
1569399619.89845
1569399619.91408
1569399619.9297
1569399619.94533
1569399619.96095
1569399619.97658
1569399619.99221
1569399620.00783
1569399620.02346
1569399620.03908
1569399620.05471
1569399620.07033
1569399620.08596
1569399620.10159
1569399620.11721
1569399620.13284
1569399620.14846
1569399620.16409
1569399620.17971
1569399620.19534
1569399620.21097
1569399620.22659
1569399620.24222
1569399620.25784
1569399620.27347
1569399620.28909
1569399620.30472
1569399620.32035
1569399620.33597
1569399620.3516
1569399620.36722
1569399620.38285
1569399620.39847
1569399620.4141
1569399620.42973
1569399620.44535
1569399620.46098
1569399620.4766
1569399620.49223
1569399620.50785
1569399620.52348
1569399620.53911
1569399620.55473
1569399620.57036
1569399620.58598
1569399620.60161
1569399620.61723
1569399620.63286
1569399620.64849
1569399620.66411
1569399620.67974
1569399620.69536
1569399620.71099
1569399620.72661
1569399620.74224
1569399620.75787
1569399620.77349
1569399620.78912
1569399620.80474
1569399620.82037
1569399620.83599
1569399620.85162
1569399620.86725
1569399620.88287
1569399620.8985
1569399620.91412
1569399620.92975
1569399620.94537
1569399620.961
1569399620.97663
1569399620.99225
1569399621.00788
1569399621.0235
1569399621.03913
1569399621.05475
1569399621.07038
1569399621.08601
1569399621.10163
1569399621.11726
1569399621.13288
1569399621.14851
1569399621.16413
1569399621.17976
1569399621.19539
1569399621.21101
1569399621.22664
1569399621.24226
1569399621.25789
1569399621.27351
1569399621.28914
1569399621.30477
1569399621.32039
1569399621.33602
1569399621.35164
1569399621.36727
1569399621.38289
1569399621.39852
1569399621.41415
1569399621.42977
1569399621.4454
1569399621.46102
1569399621.47665
1569399621.49227
1569399621.5079
1569399621.52353
1569399621.53915
1569399621.55478
1569399621.5704
1569399621.58603
1569399621.60165
1569399621.61728
1569399621.63291
1569399621.64853
1569399621.66416
1569399621.67978
1569399621.69541
1569399621.71103
1569399621.72666
1569399621.74229
1569399621.75791
1569399621.77354
1569399621.78916
1569399621.80479
1569399621.82041
1569399621.83604
1569399621.85167
1569399621.86729
1569399621.88292
1569399621.89854
1569399621.91417
1569399621.92979
1569399621.94542
1569399621.96105
1569399621.97667
1569399621.9923
1569399622.00792
1569399622.02355
1569399622.03917
1569399622.0548
1569399622.07043
1569399622.08605
1569399622.10168
1569399622.1173
1569399622.13293
1569399622.14855
1569399622.16418
1569399622.17981
1569399622.19543
1569399622.21106
1569399622.22668
1569399622.24231
1569399622.25794
1569399622.27356
1569399622.28919
1569399622.30481
1569399622.32044
1569399622.33606
1569399622.35169
1569399622.36732
1569399622.38294
1569399622.39857
1569399622.41419
1569399622.42982
1569399622.44544
1569399622.46107
1569399622.4767
1569399622.49232
1569399622.50795
1569399622.52357
1569399622.5392
1569399622.55482
1569399622.57045
1569399622.58608
1569399622.6017
1569399622.61733
1569399622.63295
1569399622.64858
1569399622.6642
1569399622.67983
1569399622.69546
1569399622.71108
1569399622.72671
1569399622.74233
1569399622.75796
1569399622.77358
1569399622.78921
1569399622.80484
1569399622.82046
1569399622.83609
1569399622.85171
1569399622.86734
1569399622.88296
1569399622.89859
1569399622.91422
1569399622.92984
1569399622.94547
1569399622.96109
1569399622.97672
1569399622.99234
1569399623.00797
1569399623.0236
1569399623.03922
1569399623.05485
1569399623.07047
1569399623.0861
1569399623.10172
1569399623.11735
1569399623.13298
1569399623.1486
1569399623.16423
1569399623.17985
1569399623.19548
1569399623.2111
1569399623.22673
1569399623.24236
1569399623.25798
1569399623.27361
1569399623.28923
1569399623.30486
1569399623.32048
1569399623.33611
1569399623.35174
1569399623.36736
1569399623.38299
1569399623.39861
1569399623.41424
1569399623.42986
1569399623.44549
1569399623.46112
1569399623.47674
1569399623.49237
1569399623.50799
1569399623.52362
1569399623.53924
1569399623.55487
1569399623.5705
1569399623.58612
1569399623.60175
1569399623.61737
1569399623.633
1569399623.64862
1569399623.66425
1569399623.67988
1569399623.6955
1569399623.71113
1569399623.72675
1569399623.74238
1569399623.758
1569399623.77363
1569399623.78926
1569399623.80488
1569399623.82051
1569399623.83613
1569399623.85176
1569399623.86738
1569399623.88301
1569399623.89864
1569399623.91426
1569399623.92989
1569399623.94551
1569399623.96114
1569399623.97676
1569399623.99239
1569399624.00802
1569399624.02364
1569399624.03927
1569399624.05489
1569399624.07052
1569399624.08614
1569399624.10177
1569399624.1174
1569399624.13302
1569399624.14865
1569399624.16427
1569399624.1799
1569399624.19552
1569399624.21115
1569399624.22678
1569399624.2424
1569399624.25803
1569399624.27365
1569399624.28928
1569399624.3049
1569399624.32053
1569399624.33616
1569399624.35178
1569399624.36741
1569399624.38303
1569399624.39866
1569399624.41428
1569399624.42991
1569399624.44554
1569399624.46116
1569399624.47679
1569399624.49241
1569399624.50804
1569399624.52366
1569399624.53929
1569399624.55492
1569399624.57054
1569399624.58617
1569399624.60179
1569399624.61742
1569399624.63304
1569399624.64867
1569399624.6643
1569399624.67992
1569399624.69555
1569399624.71117
1569399624.7268
1569399624.74242
1569399624.75805
1569399624.77368
1569399624.7893
1569399624.80493
1569399624.82055
1569399624.83618
1569399624.85181
1569399624.86743
1569399624.88306
1569399624.89868
1569399624.91431
1569399624.92993
1569399624.94556
1569399624.96119
1569399624.97681
1569399624.99244
1569399625.00806
1569399625.02369
1569399625.03931
1569399625.05494
1569399625.07057
1569399625.08619
1569399625.10182
1569399625.11744
1569399625.13307
1569399625.14869
1569399625.16432
1569399625.17995
1569399625.19557
1569399625.2112
1569399625.22682
1569399625.24245
1569399625.25807
1569399625.2737
1569399625.28933
1569399625.30495
1569399625.32058
1569399625.3362
1569399625.35183
1569399625.36745
1569399625.38308
1569399625.39871
1569399625.41433
1569399625.42996
1569399625.44558
1569399625.46121
1569399625.47683
1569399625.49246
1569399625.50809
1569399625.52371
1569399625.53934
1569399625.55496
1569399625.57059
1569399625.58621
1569399625.60184
1569399625.61747
1569399625.63309
1569399625.64872
1569399625.66434
1569399625.67997
1569399625.69559
1569399625.71122
1569399625.72685
1569399625.74247
1569399625.7581
1569399625.77372
1569399625.78935
1569399625.80497
1569399625.8206
1569399625.83623
1569399625.85185
1569399625.86748
1569399625.8831
1569399625.89873
1569399625.91435
1569399625.92998
1569399625.94561
1569399625.96123
1569399625.97686
1569399625.99248
1569399626.00811
1569399626.02373
1569399626.03936
1569399626.05499
1569399626.07061
1569399626.08624
1569399626.10186
1569399626.11749
1569399626.13311
1569399626.14874
1569399626.16437
1569399626.17999
1569399626.19562
1569399626.21124
1569399626.22687
1569399626.24249
1569399626.25812
1569399626.27375
1569399626.28937
1569399626.305
1569399626.32062
1569399626.33625
1569399626.35187
1569399626.3675
1569399626.38313
1569399626.39875
1569399626.41438
1569399626.43
1569399626.44563
1569399626.46125
1569399626.47688
1569399626.49251
1569399626.50813
1569399626.52376
1569399626.53938
1569399626.55501
1569399626.57063
1569399626.58626
1569399626.60189
1569399626.61751
1569399626.63314
1569399626.64876
1569399626.66439
1569399626.68001
1569399626.69564
1569399626.71127
1569399626.72689
1569399626.74252
1569399626.75814
1569399626.77377
1569399626.78939
1569399626.80502
1569399626.82065
1569399626.83627
1569399626.8519
1569399626.86752
1569399626.88315
1569399626.89877
1569399626.9144
1569399626.93003
1569399626.94565
1569399626.96128
1569399626.9769
1569399626.99253
1569399627.00815
1569399627.02378
1569399627.03941
1569399627.05503
1569399627.07066
1569399627.08628
1569399627.10191
1569399627.11754
1569399627.13316
1569399627.14879
1569399627.16441
1569399627.18004
1569399627.19566
1569399627.21129
1569399627.22692
1569399627.24254
1569399627.25817
1569399627.27379
1569399627.28942
1569399627.30504
1569399627.32067
1569399627.3363
1569399627.35192
1569399627.36755
1569399627.38317
1569399627.3988
1569399627.41442
1569399627.43005
1569399627.44568
1569399627.4613
1569399627.47693
1569399627.49255
1569399627.50818
1569399627.5238
1569399627.53943
1569399627.55506
1569399627.57068
1569399627.58631
1569399627.60193
1569399627.61756
1569399627.63318
1569399627.64881
1569399627.66444
1569399627.68006
1569399627.69569
1569399627.71131
1569399627.72694
1569399627.74256
1569399627.75819
1569399627.77382
1569399627.78944
1569399627.80507
1569399627.82069
1569399627.83632
1569399627.85194
1569399627.86757
1569399627.8832
1569399627.89882
1569399627.91445
1569399627.93007
1569399627.9457
1569399627.96132
1569399627.97695
1569399627.99258
1569399628.0082
1569399628.02383
1569399628.03945
1569399628.05508
1569399628.0707
1569399628.08633
1569399628.10196
1569399628.11758
1569399628.13321
1569399628.14883
1569399628.16446
1569399628.18008
1569399628.19571
1569399628.21134
1569399628.22696
1569399628.24259
1569399628.25821
1569399628.27384
1569399628.28946
1569399628.30509
1569399628.32072
1569399628.33634
1569399628.35197
1569399628.36759
1569399628.38322
1569399628.39884
1569399628.41447
1569399628.4301
1569399628.44572
1569399628.46135
1569399628.47697
1569399628.4926
1569399628.50822
1569399628.52385
1569399628.53948
1569399628.5551
1569399628.57073
1569399628.58635
1569399628.60198
1569399628.6176
1569399628.63323
1569399628.64886
1569399628.66448
1569399628.68011
1569399628.69573
1569399628.71136
1569399628.72698
1569399628.74261
1569399628.75824
1569399628.77386
1569399628.78949
1569399628.80511
1569399628.82074
1569399628.83636
1569399628.85199
1569399628.86762
1569399628.88324
1569399628.89887
1569399628.91449
1569399628.93012
1569399628.94574
1569399628.96137
1569399628.977
1569399628.99262
1569399629.00825
1569399629.02387
1569399629.0395
1569399629.05512
1569399629.07075
1569399629.08638
1569399629.102
1569399629.11763
1569399629.13325
1569399629.14888
1569399629.1645
1569399629.18013
1569399629.19576
1569399629.21138
1569399629.22701
1569399629.24263
1569399629.25826
1569399629.27389
1569399629.28951
1569399629.30514
1569399629.32076
1569399629.33639
1569399629.35201
1569399629.36764
1569399629.38327
1569399629.39889
1569399629.41452
1569399629.43014
1569399629.44577
1569399629.46139
1569399629.47702
1569399629.49265
1569399629.50827
1569399629.5239
1569399629.53952
1569399629.55515
1569399629.57077
1569399629.5864
1569399629.60203
1569399629.61765
1569399629.63328
1569399629.6489
1569399629.66453
1569399629.68015
1569399629.69578
1569399629.71141
1569399629.72703
1569399629.74266
1569399629.75828
1569399629.77391
1569399629.78953
1569399629.80516
1569399629.82079
1569399629.83641
1569399629.85204
1569399629.86766
1569399629.88329
1569399629.89891
1569399629.91454
1569399629.93017
1569399629.94579
1569399629.96142
1569399629.97704
1569399629.99267
1569399630.00829
1569399630.02392
1569399630.03955
1569399630.05517
1569399630.0708
1569399630.08642
1569399630.10205
1569399630.11767
1569399630.1333
1569399630.14893
1569399630.16455
1569399630.18018
1569399630.1958
1569399630.21143
1569399630.22705
1569399630.24268
1569399630.25831
1569399630.27393
1569399630.28956
1569399630.30518
1569399630.32081
1569399630.33643
1569399630.35206
1569399630.36769
1569399630.38331
1569399630.39894
1569399630.41456
1569399630.43019
1569399630.44581
1569399630.46144
1569399630.47707
1569399630.49269
1569399630.50832
1569399630.52394
1569399630.53957
1569399630.55519
1569399630.57082
1569399630.58645
1569399630.60207
1569399630.6177
1569399630.63332
1569399630.64895
1569399630.66457
1569399630.6802
1569399630.69583
1569399630.71145
1569399630.72708
1569399630.7427
1569399630.75833
1569399630.77395
1569399630.78958
1569399630.80521
1569399630.82083
1569399630.83646
1569399630.85208
1569399630.86771
1569399630.88333
1569399630.89896
1569399630.91459
1569399630.93021
1569399630.94584
1569399630.96146
1569399630.97709
1569399630.99271
1569399631.00834
1569399631.02397
1569399631.03959
1569399631.05522
1569399631.07084
1569399631.08647
1569399631.10209
1569399631.11772
1569399631.13335
1569399631.14897
1569399631.1646
1569399631.18022
1569399631.19585
1569399631.21147
1569399631.2271
1569399631.24273
1569399631.25835
1569399631.27398
1569399631.2896
1569399631.30523
1569399631.32085
1569399631.33648
1569399631.35211
1569399631.36773
1569399631.38336
1569399631.39898
1569399631.41461
1569399631.43023
1569399631.44586
1569399631.46149
1569399631.47711
1569399631.49274
1569399631.50836
1569399631.52399
1569399631.53961
1569399631.55524
1569399631.57087
1569399631.58649
1569399631.60212
1569399631.61774
1569399631.63337
1569399631.64899
1569399631.66462
1569399631.68025
1569399631.69587
1569399631.7115
1569399631.72712
1569399631.74275
1569399631.75837
1569399631.774
1569399631.78963
1569399631.80525
1569399631.82088
1569399631.8365
1569399631.85213
1569399631.86775
1569399631.88338
1569399631.89901
1569399631.91463
1569399631.93026
1569399631.94588
1569399631.96151
1569399631.97714
1569399631.99276
1569399632.00839
1569399632.02401
1569399632.03964
1569399632.05526
1569399632.07089
1569399632.08652
1569399632.10214
1569399632.11777
1569399632.13339
1569399632.14902
1569399632.16464
1569399632.18027
1569399632.1959
1569399632.21152
1569399632.22715
1569399632.24277
1569399632.2584
1569399632.27402
1569399632.28965
1569399632.30528
1569399632.3209
1569399632.33653
1569399632.35215
1569399632.36778
1569399632.3834
1569399632.39903
1569399632.41466
1569399632.43028
1569399632.44591
1569399632.46153
1569399632.47716
1569399632.49278
1569399632.50841
1569399632.52404
1569399632.53966
1569399632.55529
1569399632.57091
1569399632.58654
1569399632.60216
1569399632.61779
1569399632.63342
1569399632.64904
1569399632.66467
1569399632.68029
1569399632.69592
1569399632.71154
1569399632.72717
1569399632.7428
1569399632.75842
1569399632.77405
1569399632.78967
1569399632.8053
1569399632.82092
1569399632.83655
1569399632.85218
1569399632.8678
1569399632.88343
1569399632.89905
1569399632.91468
1569399632.9303
1569399632.94593
1569399632.96156
1569399632.97718
1569399632.99281
1569399633.00843
1569399633.02406
1569399633.03968
1569399633.05531
1569399633.07094
1569399633.08656
1569399633.10219
1569399633.11781
1569399633.13344
1569399633.14906
1569399633.16469
1569399633.18032
1569399633.19594
1569399633.21157
1569399633.22719
1569399633.24282
1569399633.25844
1569399633.27407
1569399633.2897
1569399633.30532
1569399633.32095
1569399633.33657
1569399633.3522
1569399633.36782
1569399633.38345
1569399633.39908
1569399633.4147
1569399633.43033
1569399633.44595
1569399633.46158
1569399633.4772
1569399633.49283
1569399633.50846
1569399633.52408
1569399633.53971
1569399633.55533
1569399633.57096
1569399633.58658
1569399633.60221
1569399633.61784
1569399633.63346
1569399633.64909
1569399633.66471
1569399633.68034
1569399633.69596
1569399633.71159
1569399633.72722
1569399633.74284
1569399633.75847
1569399633.77409
1569399633.78972
1569399633.80534
1569399633.82097
1569399633.8366
1569399633.85222
1569399633.86785
1569399633.88347
1569399633.8991
1569399633.91472
1569399633.93035
1569399633.94598
1569399633.9616
1569399633.97723
1569399633.99285
1569399634.00848
1569399634.0241
1569399634.03973
1569399634.05536
1569399634.07098
1569399634.08661
1569399634.10223
1569399634.11786
1569399634.13349
1569399634.14911
1569399634.16474
1569399634.18036
1569399634.19599
1569399634.21161
1569399634.22724
1569399634.24287
1569399634.25849
1569399634.27412
1569399634.28974
1569399634.30537
1569399634.32099
1569399634.33662
1569399634.35225
1569399634.36787
1569399634.3835
1569399634.39912
1569399634.41475
1569399634.43037
1569399634.446
1569399634.46163
1569399634.47725
1569399634.49288
1569399634.5085
1569399634.52413
1569399634.53975
1569399634.55538
1569399634.57101
1569399634.58663
1569399634.60226
1569399634.61788
1569399634.63351
1569399634.64913
1569399634.66476
1569399634.68039
1569399634.69601
1569399634.71164
1569399634.72726
1569399634.74289
1569399634.75851
1569399634.77414
1569399634.78977
1569399634.80539
1569399634.82102
1569399634.83664
1569399634.85227
1569399634.86789
1569399634.88352
1569399634.89915
1569399634.91477
1569399634.9304
1569399634.94602
1569399634.96165
1569399634.97727
1569399634.9929
1569399635.00853
1569399635.02415
1569399635.03978
1569399635.0554
1569399635.07103
1569399635.08665
1569399635.10228
1569399635.11791
1569399635.13353
1569399635.14916
1569399635.16478
1569399635.18041
1569399635.19603
1569399635.21166
1569399635.22729
1569399635.24291
1569399635.25854
1569399635.27416
1569399635.28979
1569399635.30541
1569399635.32104
1569399635.33667
1569399635.35229
1569399635.36792
1569399635.38354
1569399635.39917
1569399635.41479
1569399635.43042
1569399635.44605
1569399635.46167
1569399635.4773
1569399635.49292
1569399635.50855
1569399635.52417
1569399635.5398
1569399635.55543
1569399635.57105
1569399635.58668
1569399635.6023
1569399635.61793
1569399635.63355
1569399635.64918
1569399635.66481
1569399635.68043
1569399635.69606
1569399635.71168
1569399635.72731
1569399635.74293
1569399635.75856
1569399635.77419
1569399635.78981
1569399635.80544
1569399635.82106
1569399635.83669
1569399635.85231
1569399635.86794
1569399635.88357
1569399635.89919
1569399635.91482
1569399635.93044
1569399635.94607
1569399635.96169
1569399635.97732
1569399635.99295
1569399636.00857
1569399636.0242
1569399636.03982
1569399636.05545
1569399636.07107
1569399636.0867
1569399636.10233
1569399636.11795
1569399636.13358
1569399636.1492
1569399636.16483
1569399636.18045
1569399636.19608
1569399636.21171
1569399636.22733
1569399636.24296
1569399636.25858
1569399636.27421
1569399636.28983
1569399636.30546
1569399636.32109
1569399636.33671
1569399636.35234
1569399636.36796
1569399636.38359
1569399636.39921
1569399636.41484
1569399636.43047
1569399636.44609
1569399636.46172
1569399636.47734
1569399636.49297
1569399636.50859
1569399636.52422
1569399636.53985
1569399636.55547
1569399636.5711
1569399636.58672
1569399636.60235
1569399636.61798
1569399636.6336
1569399636.64923
1569399636.66485
1569399636.68048
1569399636.6961
1569399636.71173
1569399636.72736
1569399636.74298
1569399636.75861
1569399636.77423
1569399636.78986
1569399636.80548
1569399636.82111
1569399636.83674
1569399636.85236
1569399636.86799
1569399636.88361
1569399636.89924
1569399636.91486
1569399636.93049
1569399636.94612
1569399636.96174
1569399636.97737
1569399636.99299
1569399637.00862
1569399637.02424
1569399637.03987
1569399637.0555
1569399637.07112
1569399637.08675
1569399637.10237
1569399637.118
1569399637.13362
1569399637.14925
1569399637.16488
1569399637.1805
1569399637.19613
1569399637.21175
1569399637.22738
1569399637.243
1569399637.25863
1569399637.27426
1569399637.28988
1569399637.30551
1569399637.32113
1569399637.33676
1569399637.35238
1569399637.36801
1569399637.38364
1569399637.39926
1569399637.41489
1569399637.43051
1569399637.44614
1569399637.46176
1569399637.47739
1569399637.49302
1569399637.50864
1569399637.52427
1569399637.53989
1569399637.55552
1569399637.57114
1569399637.58677
1569399637.6024
1569399637.61802
1569399637.63365
1569399637.64927
1569399637.6649
1569399637.68052
1569399637.69615
1569399637.71178
1569399637.7274
1569399637.74303
1569399637.75865
1569399637.77428
1569399637.7899
1569399637.80553
1569399637.82116
1569399637.83678
1569399637.85241
1569399637.86803
1569399637.88366
1569399637.89928
1569399637.91491
1569399637.93054
1569399637.94616
1569399637.96179
1569399637.97741
1569399637.99304
1569399638.00866
1569399638.02429
1569399638.03992
1569399638.05554
1569399638.07117
1569399638.08679
1569399638.10242
1569399638.11804
1569399638.13367
1569399638.1493
1569399638.16492
1569399638.18055
1569399638.19617
1569399638.2118
1569399638.22742
1569399638.24305
1569399638.25868
1569399638.2743
1569399638.28993
1569399638.30555
1569399638.32118
1569399638.3368
1569399638.35243
1569399638.36806
1569399638.38368
1569399638.39931
1569399638.41493
1569399638.43056
1569399638.44618
1569399638.46181
1569399638.47744
1569399638.49306
1569399638.50869
1569399638.52431
1569399638.53994
1569399638.55556
1569399638.57119
1569399638.58682
1569399638.60244
1569399638.61807
1569399638.63369
1569399638.64932
1569399638.66494
1569399638.68057
1569399638.6962
1569399638.71182
1569399638.72745
1569399638.74307
1569399638.7587
1569399638.77432
1569399638.78995
1569399638.80558
1569399638.8212
1569399638.83683
1569399638.85245
1569399638.86808
1569399638.8837
1569399638.89933
1569399638.91496
1569399638.93058
1569399638.94621
1569399638.96183
1569399638.97746
1569399638.99309
1569399639.00871
1569399639.02434
1569399639.03996
1569399639.05559
1569399639.07121
1569399639.08684
1569399639.10247
1569399639.11809
1569399639.13372
1569399639.14934
1569399639.16497
1569399639.18059
1569399639.19622
1569399639.21185
1569399639.22747
1569399639.2431
1569399639.25872
1569399639.27435
1569399639.28997
1569399639.3056
1569399639.32123
1569399639.33685
1569399639.35248
1569399639.3681
1569399639.38373
1569399639.39935
1569399639.41498
1569399639.43061
1569399639.44623
1569399639.46186
1569399639.47748
1569399639.49311
1569399639.50873
1569399639.52436
1569399639.53999
1569399639.55561
1569399639.57124
1569399639.58686
1569399639.60249
1569399639.61811
1569399639.63374
1569399639.64937
1569399639.66499
1569399639.68062
1569399639.69624
1569399639.71187
1569399639.72749
1569399639.74312
1569399639.75875
1569399639.77437
1569399639.79
1569399639.80562
1569399639.82125
1569399639.83687
1569399639.8525
1569399639.86813
1569399639.88375
1569399639.89938
1569399639.915
1569399639.93063
1569399639.94625
1569399639.96188
1569399639.97751
1569399639.99313
1569399640.00876
1569399640.02438
1569399640.04001
1569399640.05563
1569399640.07126
1569399640.08689
1569399640.10251
1569399640.11814
1569399640.13376
1569399640.14939
1569399640.16501
1569399640.18064
1569399640.19627
1569399640.21189
1569399640.22752
1569399640.24314
1569399640.25877
1569399640.27439
1569399640.29002
1569399640.30565
1569399640.32127
1569399640.3369
1569399640.35252
1569399640.36815
1569399640.38377
1569399640.3994
1569399640.41503
1569399640.43065
1569399640.44628
1569399640.4619
1569399640.47753
1569399640.49315
1569399640.50878
1569399640.52441
1569399640.54003
1569399640.55566
1569399640.57128
1569399640.58691
1569399640.60253
1569399640.61816
1569399640.63379
1569399640.64941
1569399640.66504
1569399640.68066
1569399640.69629
1569399640.71191
1569399640.72754
1569399640.74317
1569399640.75879
1569399640.77442
1569399640.79004
1569399640.80567
1569399640.82129
1569399640.83692
1569399640.85255
1569399640.86817
1569399640.8838
1569399640.89942
1569399640.91505
1569399640.93067
1569399640.9463
1569399640.96193
1569399640.97755
1569399640.99318
1569399641.0088
1569399641.02443
1569399641.04005
1569399641.05568
1569399641.07131
1569399641.08693
1569399641.10256
1569399641.11818
1569399641.13381
1569399641.14943
1569399641.16506
1569399641.18069
1569399641.19631
1569399641.21194
1569399641.22756
1569399641.24319
1569399641.25882
1569399641.27444
1569399641.29007
1569399641.30569
1569399641.32132
1569399641.33694
1569399641.35257
1569399641.3682
1569399641.38382
1569399641.39945
1569399641.41507
1569399641.4307
1569399641.44632
1569399641.46195
1569399641.47758
1569399641.4932
1569399641.50883
1569399641.52445
1569399641.54008
1569399641.5557
1569399641.57133
1569399641.58696
1569399641.60258
1569399641.61821
1569399641.63383
1569399641.64946
1569399641.66508
1569399641.68071
1569399641.69634
1569399641.71196
1569399641.72759
1569399641.74321
1569399641.75884
1569399641.77446
1569399641.79009
1569399641.80572
1569399641.82134
1569399641.83697
1569399641.85259
1569399641.86822
1569399641.88384
1569399641.89947
1569399641.9151
1569399641.93072
1569399641.94635
1569399641.96197
1569399641.9776
1569399641.99322
1569399642.00885
1569399642.02448
1569399642.0401
1569399642.05573
1569399642.07135
1569399642.08698
1569399642.1026
1569399642.11823
1569399642.13386
1569399642.14948
1569399642.16511
1569399642.18073
1569399642.19636
1569399642.21198
1569399642.22761
1569399642.24324
1569399642.25886
1569399642.27449
1569399642.29011
1569399642.30574
1569399642.32136
1569399642.33699
1569399642.35262
1569399642.36824
1569399642.38387
1569399642.39949
1569399642.41512
1569399642.43074
1569399642.44637
1569399642.462
1569399642.47762
1569399642.49325
1569399642.50887
1569399642.5245
1569399642.54012
1569399642.55575
1569399642.57138
1569399642.587
1569399642.60263
1569399642.61825
1569399642.63388
1569399642.6495
1569399642.66513
1569399642.68076
1569399642.69638
1569399642.71201
1569399642.72763
1569399642.74326
1569399642.75888
1569399642.77451
1569399642.79014
1569399642.80576
1569399642.82139
1569399642.83701
1569399642.85264
1569399642.86826
1569399642.88389
1569399642.89952
1569399642.91514
1569399642.93077
1569399642.94639
1569399642.96202
1569399642.97764
1569399642.99327
1569399643.0089
1569399643.02452
1569399643.04015
1569399643.05577
1569399643.0714
1569399643.08702
1569399643.10265
1569399643.11828
1569399643.1339
1569399643.14953
1569399643.16515
1569399643.18078
1569399643.1964
1569399643.21203
1569399643.22766
1569399643.24328
1569399643.25891
1569399643.27453
1569399643.29016
1569399643.30578
1569399643.32141
1569399643.33704
1569399643.35266
1569399643.36829
1569399643.38391
1569399643.39954
1569399643.41516
1569399643.43079
1569399643.44642
1569399643.46204
1569399643.47767
1569399643.49329
1569399643.50892
1569399643.52454
1569399643.54017
1569399643.5558
1569399643.57142
1569399643.58705
1569399643.60267
1569399643.6183
1569399643.63392
1569399643.64955
1569399643.66518
1569399643.6808
1569399643.69643
1569399643.71205
1569399643.72768
1569399643.7433
1569399643.75893
1569399643.77456
1569399643.79018
1569399643.80581
1569399643.82143
1569399643.83706
1569399643.85268
1569399643.86831
1569399643.88394
1569399643.89956
1569399643.91519
1569399643.93081
1569399643.94644
1569399643.96207
1569399643.97769
1569399643.99332
1569399644.00894
1569399644.02457
1569399644.04019
1569399644.05582
1569399644.07145
1569399644.08707
1569399644.1027
1569399644.11832
1569399644.13395
1569399644.14957
1569399644.1652
1569399644.18083
1569399644.19645
1569399644.21208
1569399644.2277
1569399644.24333
1569399644.25895
1569399644.27458
1569399644.29021
1569399644.30583
1569399644.32146
1569399644.33708
1569399644.35271
1569399644.36833
1569399644.38396
1569399644.39959
1569399644.41521
1569399644.43084
1569399644.44646
1569399644.46209
1569399644.47771
1569399644.49334
1569399644.50897
1569399644.52459
1569399644.54022
1569399644.55584
1569399644.57147
1569399644.58709
1569399644.60272
1569399644.61835
1569399644.63397
1569399644.6496
1569399644.66522
1569399644.68085
1569399644.69647
1569399644.7121
1569399644.72773
1569399644.74335
1569399644.75898
1569399644.7746
1569399644.79023
1569399644.80585
1569399644.82148
1569399644.83711
1569399644.85273
1569399644.86836
1569399644.88398
1569399644.89961
1569399644.91523
1569399644.93086
1569399644.94649
1569399644.96211
1569399644.97774
1569399644.99336
1569399645.00899
1569399645.02461
1569399645.04024
1569399645.05587
1569399645.07149
1569399645.08712
1569399645.10274
1569399645.11837
1569399645.13399
1569399645.14962
1569399645.16525
1569399645.18087
1569399645.1965
1569399645.21212
1569399645.22775
1569399645.24337
1569399645.259
1569399645.27463
1569399645.29025
1569399645.30588
1569399645.3215
1569399645.33713
1569399645.35275
1569399645.36838
1569399645.38401
1569399645.39963
1569399645.41526
1569399645.43088
1569399645.44651
1569399645.46213
1569399645.47776
1569399645.49339
1569399645.50901
1569399645.52464
1569399645.54026
1569399645.55589
1569399645.57151
1569399645.58714
1569399645.60277
1569399645.61839
1569399645.63402
1569399645.64964
1569399645.66527
1569399645.68089
1569399645.69652
1569399645.71215
1569399645.72777
1569399645.7434
1569399645.75902
1569399645.77465
1569399645.79027
1569399645.8059
1569399645.82153
1569399645.83715
1569399645.85278
1569399645.8684
1569399645.88403
1569399645.89965
1569399645.91528
1569399645.93091
1569399645.94653
1569399645.96216
1569399645.97778
1569399645.99341
1569399646.00903
1569399646.02466
1569399646.04029
1569399646.05591
1569399646.07154
1569399646.08716
1569399646.10279
1569399646.11842
1569399646.13404
1569399646.14967
1569399646.16529
1569399646.18092
1569399646.19654
1569399646.21217
1569399646.2278
1569399646.24342
1569399646.25905
1569399646.27467
1569399646.2903
1569399646.30592
1569399646.32155
1569399646.33718
1569399646.3528
1569399646.36843
1569399646.38405
1569399646.39968
1569399646.4153
1569399646.43093
1569399646.44656
1569399646.46218
1569399646.47781
1569399646.49343
1569399646.50906
1569399646.52468
1569399646.54031
1569399646.55594
1569399646.57156
1569399646.58719
1569399646.60281
1569399646.61844
1569399646.63406
1569399646.64969
1569399646.66532
1569399646.68094
1569399646.69657
1569399646.71219
1569399646.72782
1569399646.74344
1569399646.75907
1569399646.7747
1569399646.79032
1569399646.80595
1569399646.82157
1569399646.8372
1569399646.85282
1569399646.86845
1569399646.88408
1569399646.8997
1569399646.91533
1569399646.93095
1569399646.94658
1569399646.9622
1569399646.97783
1569399646.99346
1569399647.00908
1569399647.02471
1569399647.04033
1569399647.05596
1569399647.07158
1569399647.08721
1569399647.10284
1569399647.11846
1569399647.13409
1569399647.14971
1569399647.16534
1569399647.18096
1569399647.19659
1569399647.21222
1569399647.22784
1569399647.24347
1569399647.25909
1569399647.27472
1569399647.29034
1569399647.30597
1569399647.3216
1569399647.33722
1569399647.35285
1569399647.36847
1569399647.3841
1569399647.39972
1569399647.41535
1569399647.43098
1569399647.4466
1569399647.46223
1569399647.47785
1569399647.49348
1569399647.5091
1569399647.52473
1569399647.54036
1569399647.55598
1569399647.57161
1569399647.58723
1569399647.60286
1569399647.61848
1569399647.63411
1569399647.64974
1569399647.66536
1569399647.68099
1569399647.69661
1569399647.71224
1569399647.72786
1569399647.74349
1569399647.75912
1569399647.77474
1569399647.79037
1569399647.80599
1569399647.82162
1569399647.83724
1569399647.85287
1569399647.8685
1569399647.88412
1569399647.89975
1569399647.91537
1569399647.931
1569399647.94662
1569399647.96225
1569399647.97788
1569399647.9935
1569399648.00913
1569399648.02475
1569399648.04038
1569399648.056
1569399648.07163
1569399648.08726
1569399648.10288
1569399648.11851
1569399648.13413
1569399648.14976
1569399648.16538
1569399648.18101
1569399648.19664
1569399648.21226
1569399648.22789
1569399648.24351
1569399648.25914
1569399648.27476
1569399648.29039
1569399648.30602
1569399648.32164
1569399648.33727
1569399648.35289
1569399648.36852
1569399648.38415
1569399648.39977
1569399648.4154
1569399648.43102
1569399648.44665
1569399648.46227
1569399648.4779
1569399648.49353
1569399648.50915
1569399648.52478
1569399648.5404
1569399648.55603
1569399648.57165
1569399648.58728
1569399648.60291
1569399648.61853
1569399648.63416
1569399648.64978
1569399648.66541
1569399648.68103
1569399648.69666
1569399648.71229
1569399648.72791
1569399648.74354
1569399648.75916
1569399648.77479
1569399648.79041
1569399648.80604
1569399648.82167
1569399648.83729
1569399648.85292
1569399648.86854
1569399648.88417
1569399648.89979
1569399648.91542
1569399648.93105
1569399648.94667
1569399648.9623
1569399648.97792
1569399648.99355
1569399649.00917
1569399649.0248
1569399649.04043
1569399649.05605
1569399649.07168
1569399649.0873
1569399649.10293
1569399649.11855
1569399649.13418
1569399649.14981
1569399649.16543
1569399649.18106
1569399649.19668
1569399649.21231
1569399649.22793
1569399649.24356
1569399649.25919
1569399649.27481
1569399649.29044
1569399649.30606
1569399649.32169
1569399649.33731
1569399649.35294
1569399649.36857
1569399649.38419
1569399649.39982
1569399649.41544
1569399649.43107
1569399649.44669
1569399649.46232
1569399649.47795
1569399649.49357
1569399649.5092
1569399649.52482
1569399649.54045
1569399649.55607
1569399649.5717
1569399649.58733
1569399649.60295
1569399649.61858
1569399649.6342
1569399649.64983
1569399649.66545
1569399649.68108
1569399649.69671
1569399649.71233
1569399649.72796
1569399649.74358
1569399649.75921
1569399649.77483
1569399649.79046
1569399649.80609
1569399649.82171
1569399649.83734
1569399649.85296
1569399649.86859
1569399649.88421
1569399649.89984
1569399649.91547
1569399649.93109
1569399649.94672
1569399649.96234
1569399649.97797
1569399649.99359
1569399650.00922
1569399650.02485
1569399650.04047
1569399650.0561
1569399650.07172
1569399650.08735
1569399650.10297
1569399650.1186
1569399650.13423
1569399650.14985
1569399650.16548
1569399650.1811
1569399650.19673
1569399650.21235
1569399650.22798
1569399650.24361
1569399650.25923
1569399650.27486
1569399650.29048
1569399650.30611
1569399650.32173
1569399650.33736
1569399650.35299
1569399650.36861
1569399650.38424
1569399650.39986
1569399650.41549
1569399650.43111
1569399650.44674
1569399650.46237
1569399650.47799
1569399650.49362
1569399650.50924
1569399650.52487
1569399650.54049
1569399650.55612
1569399650.57175
1569399650.58737
1569399650.603
1569399650.61862
1569399650.63425
1569399650.64987
1569399650.6655
1569399650.68113
1569399650.69675
1569399650.71238
1569399650.728
1569399650.74363
1569399650.75925
1569399650.77488
1569399650.79051
1569399650.80613
1569399650.82176
1569399650.83738
1569399650.85301
1569399650.86863
1569399650.88426
1569399650.89989
1569399650.91551
1569399650.93114
1569399650.94676
1569399650.96239
1569399650.97802
1569399650.99364
1569399651.00927
1569399651.02489
1569399651.04052
1569399651.05614
1569399651.07177
1569399651.0874
1569399651.10302
1569399651.11865
1569399651.13427
1569399651.1499
1569399651.16552
1569399651.18115
1569399651.19678
1569399651.2124
1569399651.22803
1569399651.24365
1569399651.25928
1569399651.2749
1569399651.29053
1569399651.30616
1569399651.32178
1569399651.33741
1569399651.35303
1569399651.36866
1569399651.38428
1569399651.39991
1569399651.41554
1569399651.43116
1569399651.44679
1569399651.46241
1569399651.47804
1569399651.49366
1569399651.50929
1569399651.52492
1569399651.54054
1569399651.55617
1569399651.57179
1569399651.58742
1569399651.60304
1569399651.61867
1569399651.6343
1569399651.64992
1569399651.66555
1569399651.68117
1569399651.6968
1569399651.71242
1569399651.72805
1569399651.74368
1569399651.7593
1569399651.77493
1569399651.79055
1569399651.80618
1569399651.8218
1569399651.83743
1569399651.85306
1569399651.86868
1569399651.88431
1569399651.89993
1569399651.91556
1569399651.93118
1569399651.94681
1569399651.96244
1569399651.97806
1569399651.99369
1569399652.00931
1569399652.02494
1569399652.04056
1569399652.05619
1569399652.07182
1569399652.08744
1569399652.10307
1569399652.11869
1569399652.13432
1569399652.14994
1569399652.16557
1569399652.1812
1569399652.19682
1569399652.21245
1569399652.22807
1569399652.2437
1569399652.25932
1569399652.27495
1569399652.29058
1569399652.3062
1569399652.32183
1569399652.33745
1569399652.35308
1569399652.3687
1569399652.38433
1569399652.39996
1569399652.41558
1569399652.43121
1569399652.44683
1569399652.46246
1569399652.47808
1569399652.49371
1569399652.50934
1569399652.52496
1569399652.54059
1569399652.55621
1569399652.57184
1569399652.58746
1569399652.60309
1569399652.61872
1569399652.63434
1569399652.64997
1569399652.66559
1569399652.68122
1569399652.69684
1569399652.71247
1569399652.7281
1569399652.74372
1569399652.75935
1569399652.77497
1569399652.7906
1569399652.80622
1569399652.82185
1569399652.83748
1569399652.8531
1569399652.86873
1569399652.88435
1569399652.89998
1569399652.9156
1569399652.93123
1569399652.94686
1569399652.96248
1569399652.97811
1569399652.99373
1569399653.00936
1569399653.02498
1569399653.04061
1569399653.05624
1569399653.07186
1569399653.08749
1569399653.10311
1569399653.11874
1569399653.13436
1569399653.14999
1569399653.16562
1569399653.18124
1569399653.19687
1569399653.21249
1569399653.22812
1569399653.24375
1569399653.25937
1569399653.275
1569399653.29062
1569399653.30625
1569399653.32187
1569399653.3375
1569399653.35313
1569399653.36875
1569399653.38438
1569399653.4
1569399653.41563
1569399653.43125
1569399653.44688
1569399653.46251
1569399653.47813
1569399653.49376
1569399653.50938
1569399653.52501
1569399653.54063
1569399653.55626
1569399653.57189
1569399653.58751
1569399653.60314
1569399653.61876
1569399653.63439
1569399653.65001
1569399653.66564
1569399653.68127
1569399653.69689
1569399653.71252
1569399653.72814
1569399653.74377
1569399653.75939
1569399653.77502
1569399653.79065
1569399653.80627
1569399653.8219
1569399653.83752
1569399653.85315
1569399653.86877
1569399653.8844
1569399653.90003
1569399653.91565
1569399653.93128
1569399653.9469
1569399653.96253
1569399653.97815
1569399653.99378
1569399654.00941
1569399654.02503
1569399654.04066
1569399654.05628
1569399654.07191
1569399654.08753
1569399654.10316
1569399654.11879
1569399654.13441
1569399654.15004
1569399654.16566
1569399654.18129
1569399654.19691
1569399654.21254
1569399654.22817
1569399654.24379
1569399654.25942
1569399654.27504
1569399654.29067
1569399654.30629
1569399654.32192
1569399654.33755
1569399654.35317
1569399654.3688
1569399654.38442
1569399654.40005
1569399654.41567
1569399654.4313
1569399654.44693
1569399654.46255
1569399654.47818
1569399654.4938
1569399654.50943
1569399654.52505
1569399654.54068
1569399654.55631
1569399654.57193
1569399654.58756
1569399654.60318
1569399654.61881
1569399654.63443
1569399654.65006
1569399654.66569
1569399654.68131
1569399654.69694
1569399654.71256
1569399654.72819
1569399654.74381
1569399654.75944
1569399654.77507
1569399654.79069
1569399654.80632
1569399654.82194
1569399654.83757
1569399654.85319
1569399654.86882
1569399654.88445
1569399654.90007
1569399654.9157
1569399654.93132
1569399654.94695
1569399654.96257
1569399654.9782
1569399654.99383
1569399655.00945
1569399655.02508
1569399655.0407
1569399655.05633
1569399655.07195
1569399655.08758
1569399655.10321
1569399655.11883
1569399655.13446
1569399655.15008
1569399655.16571
1569399655.18133
1569399655.19696
1569399655.21259
1569399655.22821
1569399655.24384
1569399655.25946
1569399655.27509
1569399655.29071
1569399655.30634
1569399655.32197
1569399655.33759
1569399655.35322
1569399655.36884
1569399655.38447
1569399655.40009
1569399655.41572
1569399655.43135
1569399655.44697
1569399655.4626
1569399655.47822
1569399655.49385
1569399655.50947
1569399655.5251
1569399655.54073
1569399655.55635
1569399655.57198
1569399655.5876
1569399655.60323
1569399655.61886
1569399655.63448
1569399655.65011
1569399655.66573
1569399655.68136
1569399655.69698
1569399655.71261
1569399655.72824
1569399655.74386
1569399655.75949
1569399655.77511
1569399655.79074
1569399655.80636
1569399655.82199
1569399655.83762
1569399655.85324
1569399655.86887
1569399655.88449
1569399655.90012
1569399655.91574
1569399655.93137
1569399655.947
1569399655.96262
1569399655.97825
1569399655.99387
1569399656.0095
1569399656.02512
1569399656.04075
1569399656.05638
1569399656.072
1569399656.08763
1569399656.10325
1569399656.11888
1569399656.1345
1569399656.15013
1569399656.16576
1569399656.18138
1569399656.19701
1569399656.21263
1569399656.22826
1569399656.24388
1569399656.25951
1569399656.27514
1569399656.29076
1569399656.30639
1569399656.32201
1569399656.33764
1569399656.35326
1569399656.36889
1569399656.38452
1569399656.40014
1569399656.41577
1569399656.43139
1569399656.44702
1569399656.46264
1569399656.47827
1569399656.4939
1569399656.50952
1569399656.52515
1569399656.54077
1569399656.5564
1569399656.57202
1569399656.58765
1569399656.60328
1569399656.6189
1569399656.63453
1569399656.65015
1569399656.66578
1569399656.6814
1569399656.69703
1569399656.71266
1569399656.72828
1569399656.74391
1569399656.75953
1569399656.77516
1569399656.79078
1569399656.80641
1569399656.82204
1569399656.83766
1569399656.85329
1569399656.86891
1569399656.88454
1569399656.90016
1569399656.91579
1569399656.93142
1569399656.94704
1569399656.96267
1569399656.97829
1569399656.99392
1569399657.00954
1569399657.02517
1569399657.0408
1569399657.05642
1569399657.07205
1569399657.08767
1569399657.1033
1569399657.11892
1569399657.13455
1569399657.15018
1569399657.1658
1569399657.18143
1569399657.19705
1569399657.21268
1569399657.2283
1569399657.24393
1569399657.25956
1569399657.27518
1569399657.29081
1569399657.30643
1569399657.32206
1569399657.33768
1569399657.35331
1569399657.36894
1569399657.38456
1569399657.40019
1569399657.41581
1569399657.43144
1569399657.44706
1569399657.46269
1569399657.47832
1569399657.49394
1569399657.50957
1569399657.52519
1569399657.54082
1569399657.55644
1569399657.57207
1569399657.5877
1569399657.60332
1569399657.61895
1569399657.63457
1569399657.6502
1569399657.66582
1569399657.68145
1569399657.69708
1569399657.7127
1569399657.72833
1569399657.74395
1569399657.75958
1569399657.7752
1569399657.79083
1569399657.80646
1569399657.82208
1569399657.83771
1569399657.85333
1569399657.86896
1569399657.88458
1569399657.90021
1569399657.91584
1569399657.93146
1569399657.94709
1569399657.96271
1569399657.97834
1569399657.99396
1569399658.00959
1569399658.02522
1569399658.04084
1569399658.05647
1569399658.07209
1569399658.08772
1569399658.10335
1569399658.11897
1569399658.1346
1569399658.15022
1569399658.16585
1569399658.18147
1569399658.1971
1569399658.21273
1569399658.22835
1569399658.24398
1569399658.2596
1569399658.27523
1569399658.29085
1569399658.30648
1569399658.32211
1569399658.33773
1569399658.35336
1569399658.36898
1569399658.38461
1569399658.40023
1569399658.41586
1569399658.43149
1569399658.44711
1569399658.46274
1569399658.47836
1569399658.49399
1569399658.50961
1569399658.52524
1569399658.54087
1569399658.55649
1569399658.57212
1569399658.58774
1569399658.60337
1569399658.61899
1569399658.63462
1569399658.65025
1569399658.66587
1569399658.6815
1569399658.69712
1569399658.71275
1569399658.72837
1569399658.744
1569399658.75963
1569399658.77525
1569399658.79088
1569399658.8065
1569399658.82213
1569399658.83775
1569399658.85338
1569399658.86901
1569399658.88463
1569399658.90026
1569399658.91588
1569399658.93151
1569399658.94713
1569399658.96276
1569399658.97839
1569399658.99401
1569399659.00964
1569399659.02526
1569399659.04089
1569399659.05651
1569399659.07214
1569399659.08777
1569399659.10339
1569399659.11902
1569399659.13464
1569399659.15027
1569399659.16589
1569399659.18152
1569399659.19715
1569399659.21277
1569399659.2284
1569399659.24402
1569399659.25965
1569399659.27527
1569399659.2909
1569399659.30653
1569399659.32215
1569399659.33778
1569399659.3534
1569399659.36903
1569399659.38465
1569399659.40028
1569399659.41591
1569399659.43153
1569399659.44716
1569399659.46278
1569399659.47841
1569399659.49403
1569399659.50966
1569399659.52529
1569399659.54091
1569399659.55654
1569399659.57216
1569399659.58779
1569399659.60341
1569399659.61904
1569399659.63467
1569399659.65029
1569399659.66592
1569399659.68154
1569399659.69717
1569399659.71279
1569399659.72842
1569399659.74405
1569399659.75967
1569399659.7753
1569399659.79092
1569399659.80655
1569399659.82217
1569399659.8378
1569399659.85343
1569399659.86905
1569399659.88468
1569399659.9003
1569399659.91593
1569399659.93155
1569399659.94718
1569399659.96281
1569399659.97843
1569399659.99406
1569399660.00968
1569399660.02531
1569399660.04093
1569399660.05656
1569399660.07219
1569399660.08781
1569399660.10344
1569399660.11906
1569399660.13469
1569399660.15031
1569399660.16594
1569399660.18157
1569399660.19719
1569399660.21282
1569399660.22844
1569399660.24407
1569399660.2597
1569399660.27532
1569399660.29095
1569399660.30657
1569399660.3222
1569399660.33782
1569399660.35345
1569399660.36908
1569399660.3847
1569399660.40033
1569399660.41595
1569399660.43158
1569399660.4472
1569399660.46283
1569399660.47846
1569399660.49408
1569399660.50971
1569399660.52533
1569399660.54096
1569399660.55658
1569399660.57221
1569399660.58784
1569399660.60346
1569399660.61909
1569399660.63471
1569399660.65034
1569399660.66596
1569399660.68159
1569399660.69722
1569399660.71284
1569399660.72847
1569399660.74409
1569399660.75972
1569399660.77534
1569399660.79097
1569399660.8066
1569399660.82222
1569399660.83785
1569399660.85347
1569399660.8691
1569399660.88472
1569399660.90035
1569399660.91598
1569399660.9316
1569399660.94723
1569399660.96285
1569399660.97848
1569399660.9941
1569399661.00973
1569399661.02536
1569399661.04098
1569399661.05661
1569399661.07223
1569399661.08786
1569399661.10348
1569399661.11911
1569399661.13474
1569399661.15036
1569399661.16599
1569399661.18161
1569399661.19724
1569399661.21286
1569399661.22849
1569399661.24412
1569399661.25974
1569399661.27537
1569399661.29099
1569399661.30662
1569399661.32224
1569399661.33787
1569399661.3535
1569399661.36912
1569399661.38475
1569399661.40037
1569399661.416
1569399661.43162
1569399661.44725
1569399661.46288
1569399661.4785
1569399661.49413
1569399661.50975
1569399661.52538
1569399661.541
1569399661.55663
1569399661.57226
1569399661.58788
1569399661.60351
1569399661.61913
1569399661.63476
1569399661.65038
1569399661.66601
1569399661.68164
1569399661.69726
1569399661.71289
1569399661.72851
1569399661.74414
1569399661.75976
1569399661.77539
1569399661.79102
1569399661.80664
1569399661.82227
1569399661.83789
1569399661.85352
1569399661.86914
1569399661.88477
1569399661.9004
1569399661.91602
1569399661.93165
1569399661.94727
1569399661.9629
1569399661.97852
1569399661.99415
1569399662.00978
1569399662.0254
1569399662.04103
1569399662.05665
1569399662.07228
1569399662.0879
1569399662.10353
1569399662.11916
1569399662.13478
1569399662.15041
1569399662.16603
1569399662.18166
1569399662.19728
1569399662.21291
1569399662.22854
1569399662.24416
1569399662.25979
1569399662.27541
1569399662.29104
1569399662.30666
1569399662.32229
1569399662.33792
1569399662.35354
1569399662.36917
1569399662.38479
1569399662.40042
1569399662.41604
1569399662.43167
1569399662.4473
1569399662.46292
1569399662.47855
1569399662.49417
1569399662.5098
1569399662.52542
1569399662.54105
1569399662.55668
1569399662.5723
1569399662.58793
1569399662.60355
1569399662.61918
1569399662.6348
1569399662.65043
1569399662.66606
1569399662.68168
1569399662.69731
1569399662.71293
1569399662.72856
1569399662.74418
1569399662.75981
1569399662.77544
1569399662.79106
1569399662.80669
1569399662.82231
1569399662.83794
1569399662.85356
1569399662.86919
1569399662.88482
1569399662.90044
1569399662.91607
1569399662.93169
1569399662.94732
1569399662.96295
1569399662.97857
1569399662.9942
1569399663.00982
1569399663.02545
1569399663.04107
1569399663.0567
1569399663.07233
1569399663.08795
1569399663.10358
1569399663.1192
1569399663.13483
1569399663.15045
1569399663.16608
1569399663.18171
1569399663.19733
1569399663.21296
1569399663.22858
1569399663.24421
1569399663.25983
1569399663.27546
1569399663.29109
1569399663.30671
1569399663.32234
1569399663.33796
1569399663.35359
1569399663.36921
1569399663.38484
1569399663.40047
1569399663.41609
1569399663.43172
1569399663.44734
1569399663.46297
1569399663.47859
1569399663.49422
1569399663.50985
1569399663.52547
1569399663.5411
1569399663.55672
1569399663.57235
1569399663.58797
1569399663.6036
1569399663.61923
1569399663.63485
1569399663.65048
1569399663.6661
1569399663.68173
1569399663.69735
1569399663.71298
1569399663.72861
1569399663.74423
1569399663.75986
1569399663.77548
1569399663.79111
1569399663.80673
1569399663.82236
1569399663.83799
1569399663.85361
1569399663.86924
1569399663.88486
1569399663.90049
1569399663.91611
1569399663.93174
1569399663.94737
1569399663.96299
1569399663.97862
1569399663.99424
1569399664.00987
1569399664.02549
1569399664.04112
1569399664.05675
1569399664.07237
1569399664.088
1569399664.10362
1569399664.11925
1569399664.13487
1569399664.1505
1569399664.16613
1569399664.18175
1569399664.19738
1569399664.213
1569399664.22863
1569399664.24425
1569399664.25988
1569399664.27551
1569399664.29113
1569399664.30676
1569399664.32238
1569399664.33801
1569399664.35363
1569399664.36926
1569399664.38489
1569399664.40051
1569399664.41614
1569399664.43176
1569399664.44739
1569399664.46301
1569399664.47864
1569399664.49427
1569399664.50989
1569399664.52552
1569399664.54114
1569399664.55677
1569399664.57239
1569399664.58802
1569399664.60365
1569399664.61927
1569399664.6349
1569399664.65052
1569399664.66615
1569399664.68177
1569399664.6974
1569399664.71303
1569399664.72865
1569399664.74428
1569399664.7599
1569399664.77553
1569399664.79115
1569399664.80678
1569399664.82241
1569399664.83803
1569399664.85366
1569399664.86928
1569399664.88491
1569399664.90053
1569399664.91616
1569399664.93179
1569399664.94741
1569399664.96304
1569399664.97866
1569399664.99429
1569399665.00991
1569399665.02554
1569399665.04117
1569399665.05679
1569399665.07242
1569399665.08804
1569399665.10367
1569399665.1193
1569399665.13492
1569399665.15055
1569399665.16617
1569399665.1818
1569399665.19742
1569399665.21305
1569399665.22868
1569399665.2443
1569399665.25993
1569399665.27555
1569399665.29118
1569399665.3068
1569399665.32243
1569399665.33806
1569399665.35368
1569399665.36931
1569399665.38493
1569399665.40056
1569399665.41618
1569399665.43181
1569399665.44744
1569399665.46306
1569399665.47869
1569399665.49431
1569399665.50994
1569399665.52556
1569399665.54119
1569399665.55682
1569399665.57244
1569399665.58807
1569399665.60369
1569399665.61932
1569399665.63494
1569399665.65057
1569399665.6662
1569399665.68182
1569399665.69745
1569399665.71307
1569399665.7287
1569399665.74432
1569399665.75995
1569399665.77558
1569399665.7912
1569399665.80683
1569399665.82245
1569399665.83808
1569399665.8537
1569399665.86933
1569399665.88496
1569399665.90058
1569399665.91621
1569399665.93183
1569399665.94746
1569399665.96308
1569399665.97871
1569399665.99434
1569399666.00996
1569399666.02559
1569399666.04121
1569399666.05684
1569399666.07246
1569399666.08809
1569399666.10372
1569399666.11934
1569399666.13497
1569399666.15059
1569399666.16622
1569399666.18184
1569399666.19747
1569399666.2131
1569399666.22872
1569399666.24435
1569399666.25997
1569399666.2756
1569399666.29122
1569399666.30685
1569399666.32248
1569399666.3381
1569399666.35373
1569399666.36935
1569399666.38498
1569399666.4006
1569399666.41623
1569399666.43186
1569399666.44748
1569399666.46311
1569399666.47873
1569399666.49436
1569399666.50998
1569399666.52561
1569399666.54124
1569399666.55686
1569399666.57249
1569399666.58811
1569399666.60374
1569399666.61936
1569399666.63499
1569399666.65062
1569399666.66624
1569399666.68187
1569399666.69749
1569399666.71312
1569399666.72874
1569399666.74437
1569399666.76
1569399666.77562
1569399666.79125
1569399666.80687
1569399666.8225
1569399666.83812
1569399666.85375
1569399666.86938
1569399666.885
1569399666.90063
1569399666.91625
1569399666.93188
1569399666.9475
1569399666.96313
1569399666.97876
1569399666.99438
1569399667.01001
1569399667.02563
1569399667.04126
1569399667.05688
1569399667.07251
1569399667.08814
1569399667.10376
1569399667.11939
1569399667.13501
1569399667.15064
1569399667.16626
1569399667.18189
1569399667.19752
1569399667.21314
1569399667.22877
1569399667.24439
1569399667.26002
1569399667.27564
1569399667.29127
1569399667.3069
1569399667.32252
1569399667.33815
1569399667.35377
1569399667.3694
1569399667.38503
1569399667.40065
1569399667.41628
1569399667.4319
1569399667.44753
1569399667.46315
1569399667.47878
1569399667.49441
1569399667.51003
1569399667.52566
1569399667.54128
1569399667.55691
1569399667.57253
1569399667.58816
1569399667.60379
1569399667.61941
1569399667.63504
1569399667.65066
1569399667.66629
1569399667.68191
1569399667.69754
1569399667.71317
1569399667.72879
1569399667.74442
1569399667.76004
1569399667.77567
1569399667.79129
1569399667.80692
1569399667.82255
1569399667.83817
1569399667.8538
1569399667.86942
1569399667.88505
1569399667.90067
1569399667.9163
1569399667.93193
1569399667.94755
1569399667.96318
1569399667.9788
1569399667.99443
1569399668.01005
1569399668.02568
1569399668.04131
1569399668.05693
1569399668.07256
1569399668.08818
1569399668.10381
1569399668.11943
1569399668.13506
1569399668.15069
1569399668.16631
1569399668.18194
1569399668.19756
1569399668.21319
1569399668.22881
1569399668.24444
1569399668.26007
1569399668.27569
1569399668.29132
1569399668.30694
1569399668.32257
1569399668.33819
1569399668.35382
1569399668.36945
1569399668.38507
1569399668.4007
1569399668.41632
1569399668.43195
1569399668.44757
1569399668.4632
1569399668.47883
1569399668.49445
1569399668.51008
1569399668.5257
1569399668.54133
1569399668.55695
1569399668.57258
1569399668.58821
1569399668.60383
1569399668.61946
1569399668.63508
1569399668.65071
1569399668.66633
1569399668.68196
1569399668.69759
1569399668.71321
1569399668.72884
1569399668.74446
1569399668.76009
1569399668.77571
1569399668.79134
1569399668.80697
1569399668.82259
1569399668.83822
1569399668.85384
1569399668.86947
1569399668.88509
1569399668.90072
1569399668.91635
1569399668.93197
1569399668.9476
1569399668.96322
1569399668.97885
1569399668.99447
1569399669.0101
1569399669.02573
1569399669.04135
1569399669.05698
1569399669.0726
1569399669.08823
1569399669.10385
1569399669.11948
1569399669.13511
1569399669.15073
1569399669.16636
1569399669.18198
1569399669.19761
1569399669.21323
1569399669.22886
1569399669.24449
1569399669.26011
1569399669.27574
1569399669.29136
1569399669.30699
1569399669.32261
1569399669.33824
1569399669.35387
1569399669.36949
1569399669.38512
1569399669.40074
1569399669.41637
1569399669.43199
1569399669.44762
1569399669.46325
1569399669.47887
1569399669.4945
1569399669.51012
1569399669.52575
1569399669.54137
1569399669.557
1569399669.57263
1569399669.58825
1569399669.60388
1569399669.6195
1569399669.63513
1569399669.65075
1569399669.66638
1569399669.68201
1569399669.69763
1569399669.71326
1569399669.72888
1569399669.74451
1569399669.76013
1569399669.77576
1569399669.79139
1569399669.80701
1569399669.82264
1569399669.83826
1569399669.85389
1569399669.86951
1569399669.88514
1569399669.90077
1569399669.91639
1569399669.93202
1569399669.94764
1569399669.96327
1569399669.9789
1569399669.99452
1569399670.01015
1569399670.02577
1569399670.0414
1569399670.05702
1569399670.07265
1569399670.08828
1569399670.1039
1569399670.11953
1569399670.13515
1569399670.15078
1569399670.1664
1569399670.18203
1569399670.19766
1569399670.21328
1569399670.22891
1569399670.24453
1569399670.26016
1569399670.27578
1569399670.29141
1569399670.30704
1569399670.32266
1569399670.33829
1569399670.35391
1569399670.36954
1569399670.38516
1569399670.40079
1569399670.41642
1569399670.43204
1569399670.44767
1569399670.46329
1569399670.47892
1569399670.49454
1569399670.51017
1569399670.5258
1569399670.54142
1569399670.55705
1569399670.57267
1569399670.5883
1569399670.60392
1569399670.61955
1569399670.63518
1569399670.6508
1569399670.66643
1569399670.68205
1569399670.69768
1569399670.7133
1569399670.72893
1569399670.74456
1569399670.76018
1569399670.77581
1569399670.79143
1569399670.80706
1569399670.82268
1569399670.83831
1569399670.85394
1569399670.86956
1569399670.88519
1569399670.90081
1569399670.91644
1569399670.93206
1569399670.94769
1569399670.96332
1569399670.97894
1569399670.99457
1569399671.01019
1569399671.02582
1569399671.04144
1569399671.05707
1569399671.0727
1569399671.08832
1569399671.10395
1569399671.11957
1569399671.1352
1569399671.15082
1569399671.16645
1569399671.18208
1569399671.1977
1569399671.21333
1569399671.22895
1569399671.24458
1569399671.2602
1569399671.27583
1569399671.29146
1569399671.30708
1569399671.32271
1569399671.33833
1569399671.35396
1569399671.36958
1569399671.38521
1569399671.40084
1569399671.41646
1569399671.43209
1569399671.44771
1569399671.46334
1569399671.47896
1569399671.49459
1569399671.51022
1569399671.52584
1569399671.54147
1569399671.55709
1569399671.57272
1569399671.58834
1569399671.60397
1569399671.6196
1569399671.63522
1569399671.65085
1569399671.66647
1569399671.6821
1569399671.69772
1569399671.71335
1569399671.72898
1569399671.7446
1569399671.76023
1569399671.77585
1569399671.79148
1569399671.8071
1569399671.82273
1569399671.83836
1569399671.85398
1569399671.86961
1569399671.88523
1569399671.90086
1569399671.91648
1569399671.93211
1569399671.94774
1569399671.96336
1569399671.97899
1569399671.99461
1569399672.01024
1569399672.02586
1569399672.04149
1569399672.05712
1569399672.07274
1569399672.08837
1569399672.10399
1569399672.11962
1569399672.13524
1569399672.15087
1569399672.1665
1569399672.18212
1569399672.19775
1569399672.21337
1569399672.229
1569399672.24463
1569399672.26025
1569399672.27588
1569399672.2915
1569399672.30713
1569399672.32275
1569399672.33838
1569399672.35401
1569399672.36963
1569399672.38526
1569399672.40088
1569399672.41651
1569399672.43213
1569399672.44776
1569399672.46339
1569399672.47901
1569399672.49464
1569399672.51026
1569399672.52589
1569399672.54151
1569399672.55714
1569399672.57277
1569399672.58839
1569399672.60402
1569399672.61964
1569399672.63527
1569399672.65089
1569399672.66652
1569399672.68215
1569399672.69777
1569399672.7134
1569399672.72902
1569399672.74465
1569399672.76027
1569399672.7759
1569399672.79153
1569399672.80715
1569399672.82278
1569399672.8384
1569399672.85403
1569399672.86965
1569399672.88528
1569399672.90091
1569399672.91653
1569399672.93216
1569399672.94778
1569399672.96341
1569399672.97903
1569399672.99466
1569399673.01029
1569399673.02591
1569399673.04154
1569399673.05716
1569399673.07279
1569399673.08841
1569399673.10404
1569399673.11967
1569399673.13529
1569399673.15092
1569399673.16654
1569399673.18217
1569399673.19779
1569399673.21342
1569399673.22905
1569399673.24467
1569399673.2603
1569399673.27592
1569399673.29155
1569399673.30717
1569399673.3228
1569399673.33843
1569399673.35405
1569399673.36968
1569399673.3853
1569399673.40093
1569399673.41655
1569399673.43218
1569399673.44781
1569399673.46343
1569399673.47906
1569399673.49468
1569399673.51031
1569399673.52593
1569399673.54156
1569399673.55719
1569399673.57281
1569399673.58844
1569399673.60406
1569399673.61969
1569399673.63531
1569399673.65094
1569399673.66657
1569399673.68219
1569399673.69782
1569399673.71344
1569399673.72907
1569399673.74469
1569399673.76032
1569399673.77595
1569399673.79157
1569399673.8072
1569399673.82282
1569399673.83845
1569399673.85407
1569399673.8697
1569399673.88533
1569399673.90095
1569399673.91658
1569399673.9322
1569399673.94783
1569399673.96345
1569399673.97908
1569399673.99471
1569399674.01033
1569399674.02596
1569399674.04158
1569399674.05721
1569399674.07283
1569399674.08846
1569399674.10409
1569399674.11971
1569399674.13534
1569399674.15096
1569399674.16659
1569399674.18221
1569399674.19784
1569399674.21347
1569399674.22909
1569399674.24472
1569399674.26034
1569399674.27597
1569399674.29159
1569399674.30722
1569399674.32285
1569399674.33847
1569399674.3541
1569399674.36972
1569399674.38535
1569399674.40097
1569399674.4166
1569399674.43223
1569399674.44785
1569399674.46348
1569399674.4791
1569399674.49473
1569399674.51036
1569399674.52598
1569399674.54161
1569399674.55723
1569399674.57286
1569399674.58848
1569399674.60411
1569399674.61974
1569399674.63536
1569399674.65099
1569399674.66661
1569399674.68224
1569399674.69786
1569399674.71349
1569399674.72912
1569399674.74474
1569399674.76037
1569399674.77599
1569399674.79162
1569399674.80724
1569399674.82287
1569399674.8385
1569399674.85412
1569399674.86975
1569399674.88537
1569399674.901
1569399674.91662
1569399674.93225
1569399674.94788
1569399674.9635
1569399674.97913
1569399674.99475
1569399675.01038
1569399675.026
1569399675.04163
1569399675.05726
1569399675.07288
1569399675.08851
1569399675.10413
1569399675.11976
1569399675.13538
1569399675.15101
1569399675.16664
1569399675.18226
1569399675.19789
1569399675.21351
1569399675.22914
1569399675.24476
1569399675.26039
1569399675.27602
1569399675.29164
1569399675.30727
1569399675.32289
1569399675.33852
1569399675.35414
1569399675.36977
1569399675.3854
1569399675.40102
1569399675.41665
1569399675.43227
1569399675.4479
1569399675.46352
1569399675.47915
1569399675.49478
1569399675.5104
1569399675.52603
1569399675.54165
1569399675.55728
1569399675.5729
1569399675.58853
1569399675.60416
1569399675.61978
1569399675.63541
1569399675.65103
1569399675.66666
1569399675.68228
1569399675.69791
1569399675.71354
1569399675.72916
1569399675.74479
1569399675.76041
1569399675.77604
1569399675.79166
1569399675.80729
1569399675.82292
1569399675.83854
1569399675.85417
1569399675.86979
1569399675.88542
1569399675.90104
1569399675.91667
1569399675.9323
1569399675.94792
1569399675.96355
1569399675.97917
1569399675.9948
1569399676.01042
1569399676.02605
1569399676.04168
1569399676.0573
1569399676.07293
1569399676.08855
1569399676.10418
1569399676.1198
1569399676.13543
1569399676.15106
1569399676.16668
1569399676.18231
1569399676.19793
1569399676.21356
1569399676.22918
1569399676.24481
1569399676.26044
1569399676.27606
1569399676.29169
1569399676.30731
1569399676.32294
1569399676.33856
1569399676.35419
1569399676.36982
1569399676.38544
1569399676.40107
1569399676.41669
1569399676.43232
1569399676.44794
1569399676.46357
1569399676.4792
1569399676.49482
1569399676.51045
1569399676.52607
1569399676.5417
1569399676.55732
1569399676.57295
1569399676.58858
1569399676.6042
1569399676.61983
1569399676.63545
1569399676.65108
1569399676.6667
1569399676.68233
1569399676.69796
1569399676.71358
1569399676.72921
1569399676.74483
1569399676.76046
1569399676.77608
1569399676.79171
1569399676.80734
1569399676.82296
1569399676.83859
1569399676.85421
1569399676.86984
1569399676.88546
1569399676.90109
1569399676.91672
1569399676.93234
1569399676.94797
1569399676.96359
1569399676.97922
1569399676.99484
1569399677.01047
1569399677.0261
1569399677.04172
1569399677.05735
1569399677.07297
1569399677.0886
1569399677.10423
1569399677.11985
1569399677.13548
1569399677.1511
1569399677.16673
1569399677.18235
1569399677.19798
1569399677.21361
1569399677.22923
1569399677.24486
1569399677.26048
1569399677.27611
1569399677.29173
1569399677.30736
1569399677.32299
1569399677.33861
1569399677.35424
1569399677.36986
1569399677.38549
1569399677.40111
1569399677.41674
1569399677.43237
1569399677.44799
1569399677.46362
1569399677.47924
1569399677.49487
1569399677.51049
1569399677.52612
1569399677.54175
1569399677.55737
1569399677.573
1569399677.58862
1569399677.60425
1569399677.61987
1569399677.6355
1569399677.65113
1569399677.66675
1569399677.68238
1569399677.698
1569399677.71363
1569399677.72925
1569399677.74488
1569399677.76051
1569399677.77613
1569399677.79176
1569399677.80738
1569399677.82301
1569399677.83863
1569399677.85426
1569399677.86989
1569399677.88551
1569399677.90114
1569399677.91676
1569399677.93239
1569399677.94801
1569399677.96364
1569399677.97927
1569399677.99489
1569399678.01052
1569399678.02614
1569399678.04177
1569399678.05739
1569399678.07302
1569399678.08865
1569399678.10427
1569399678.1199
1569399678.13552
1569399678.15115
1569399678.16677
1569399678.1824
1569399678.19803
1569399678.21365
1569399678.22928
1569399678.2449
1569399678.26053
1569399678.27615
1569399678.29178
1569399678.30741
1569399678.32303
1569399678.33866
1569399678.35428
1569399678.36991
1569399678.38553
1569399678.40116
1569399678.41679
1569399678.43241
1569399678.44804
1569399678.46366
1569399678.47929
1569399678.49491
1569399678.51054
1569399678.52617
1569399678.54179
1569399678.55742
1569399678.57304
1569399678.58867
1569399678.60429
1569399678.61992
1569399678.63555
1569399678.65117
1569399678.6668
1569399678.68242
1569399678.69805
1569399678.71367
1569399678.7293
1569399678.74493
1569399678.76055
1569399678.77618
1569399678.7918
1569399678.80743
1569399678.82305
1569399678.83868
1569399678.85431
1569399678.86993
1569399678.88556
1569399678.90118
1569399678.91681
1569399678.93243
1569399678.94806
1569399678.96369
1569399678.97931
1569399678.99494
1569399679.01056
1569399679.02619
1569399679.04181
1569399679.05744
1569399679.07307
1569399679.08869
1569399679.10432
1569399679.11994
1569399679.13557
1569399679.15119
1569399679.16682
1569399679.18245
1569399679.19807
1569399679.2137
1569399679.22932
1569399679.24495
1569399679.26057
1569399679.2762
1569399679.29183
1569399679.30745
1569399679.32308
1569399679.3387
1569399679.35433
1569399679.36996
1569399679.38558
1569399679.40121
1569399679.41683
1569399679.43246
1569399679.44808
1569399679.46371
1569399679.47934
1569399679.49496
1569399679.51059
1569399679.52621
1569399679.54184
1569399679.55746
1569399679.57309
1569399679.58872
1569399679.60434
1569399679.61997
1569399679.63559
1569399679.65122
1569399679.66684
1569399679.68247
1569399679.6981
1569399679.71372
1569399679.72935
1569399679.74497
1569399679.7606
1569399679.77622
1569399679.79185
1569399679.80748
1569399679.8231
1569399679.83873
1569399679.85435
1569399679.86998
1569399679.8856
1569399679.90123
1569399679.91686
1569399679.93248
1569399679.94811
1569399679.96373
1569399679.97936
1569399679.99498
1569399680.01061
1569399680.02624
1569399680.04186
1569399680.05749
1569399680.07311
1569399680.08874
1569399680.10436
1569399680.11999
1569399680.13562
1569399680.15124
1569399680.16687
1569399680.18249
1569399680.19812
1569399680.21374
1569399680.22937
1569399680.245
1569399680.26062
1569399680.27625
1569399680.29187
1569399680.3075
1569399680.32312
1569399680.33875
1569399680.35438
1569399680.37
1569399680.38563
1569399680.40125
1569399680.41688
1569399680.4325
1569399680.44813
1569399680.46376
1569399680.47938
1569399680.49501
1569399680.51063
1569399680.52626
1569399680.54188
1569399680.55751
1569399680.57314
1569399680.58876
1569399680.60439
1569399680.62001
1569399680.63564
1569399680.65126
1569399680.66689
1569399680.68252
1569399680.69814
1569399680.71377
1569399680.72939
1569399680.74502
1569399680.76064
1569399680.77627
1569399680.7919
1569399680.80752
1569399680.82315
1569399680.83877
1569399680.8544
1569399680.87002
1569399680.88565
1569399680.90128
1569399680.9169
1569399680.93253
1569399680.94815
1569399680.96378
1569399680.9794
1569399680.99503
1569399681.01066
1569399681.02628
1569399681.04191
1569399681.05753
1569399681.07316
1569399681.08878
1569399681.10441
1569399681.12004
1569399681.13566
1569399681.15129
1569399681.16691
1569399681.18254
1569399681.19816
1569399681.21379
1569399681.22942
1569399681.24504
1569399681.26067
1569399681.27629
1569399681.29192
1569399681.30754
1569399681.32317
1569399681.3388
1569399681.35442
1569399681.37005
1569399681.38567
1569399681.4013
1569399681.41692
1569399681.43255
1569399681.44818
1569399681.4638
1569399681.47943
1569399681.49505
1569399681.51068
1569399681.5263
1569399681.54193
1569399681.55756
1569399681.57318
1569399681.58881
1569399681.60443
1569399681.62006
1569399681.63568
1569399681.65131
1569399681.66694
1569399681.68256
1569399681.69819
1569399681.71381
1569399681.72944
1569399681.74506
1569399681.76069
1569399681.77632
1569399681.79194
1569399681.80757
1569399681.82319
1569399681.83882
1569399681.85444
1569399681.87007
1569399681.8857
1569399681.90132
1569399681.91695
1569399681.93257
1569399681.9482
1569399681.96383
1569399681.97945
1569399681.99508
1569399682.0107
1569399682.02633
1569399682.04195
1569399682.05758
1569399682.07321
1569399682.08883
1569399682.10446
1569399682.12008
1569399682.13571
1569399682.15133
1569399682.16696
1569399682.18259
1569399682.19821
1569399682.21384
1569399682.22946
1569399682.24509
1569399682.26071
1569399682.27634
1569399682.29197
1569399682.30759
1569399682.32322
1569399682.33884
1569399682.35447
1569399682.37009
1569399682.38572
1569399682.40135
1569399682.41697
1569399682.4326
1569399682.44822
1569399682.46385
1569399682.47947
1569399682.4951
1569399682.51073
1569399682.52635
1569399682.54198
1569399682.5576
1569399682.57323
1569399682.58885
1569399682.60448
1569399682.62011
1569399682.63573
1569399682.65136
1569399682.66698
1569399682.68261
1569399682.69823
1569399682.71386
1569399682.72949
1569399682.74511
1569399682.76074
1569399682.77636
1569399682.79199
1569399682.80761
1569399682.82324
1569399682.83887
1569399682.85449
1569399682.87012
1569399682.88574
1569399682.90137
1569399682.91699
1569399682.93262
1569399682.94825
1569399682.96387
1569399682.9795
1569399682.99512
1569399683.01075
1569399683.02637
1569399683.042
1569399683.05763
1569399683.07325
1569399683.08888
1569399683.1045
1569399683.12013
1569399683.13575
1569399683.15138
1569399683.16701
1569399683.18263
1569399683.19826
1569399683.21388
1569399683.22951
1569399683.24513
1569399683.26076
1569399683.27639
1569399683.29201
1569399683.30764
1569399683.32326
1569399683.33889
1569399683.35451
1569399683.37014
1569399683.38577
1569399683.40139
1569399683.41702
1569399683.43264
1569399683.44827
1569399683.46389
1569399683.47952
1569399683.49515
1569399683.51077
1569399683.5264
1569399683.54202
1569399683.55765
1569399683.57327
1569399683.5889
1569399683.60453
1569399683.62015
1569399683.63578
1569399683.6514
1569399683.66703
1569399683.68265
1569399683.69828
1569399683.71391
1569399683.72953
1569399683.74516
1569399683.76078
1569399683.77641
1569399683.79203
1569399683.80766
1569399683.82329
1569399683.83891
1569399683.85454
1569399683.87016
1569399683.88579
1569399683.90141
1569399683.91704
1569399683.93267
1569399683.94829
1569399683.96392
1569399683.97954
1569399683.99517
1569399684.01079
1569399684.02642
1569399684.04205
1569399684.05767
1569399684.0733
1569399684.08892
1569399684.10455
1569399684.12017
1569399684.1358
1569399684.15143
1569399684.16705
1569399684.18268
1569399684.1983
1569399684.21393
1569399684.22956
1569399684.24518
1569399684.26081
1569399684.27643
1569399684.29206
1569399684.30768
1569399684.32331
1569399684.33894
1569399684.35456
1569399684.37019
1569399684.38581
1569399684.40144
1569399684.41706
1569399684.43269
1569399684.44832
1569399684.46394
1569399684.47957
1569399684.49519
1569399684.51082
1569399684.52644
1569399684.54207
1569399684.5577
1569399684.57332
1569399684.58895
1569399684.60457
1569399684.6202
1569399684.63582
1569399684.65145
1569399684.66708
1569399684.6827
1569399684.69833
1569399684.71395
1569399684.72958
1569399684.7452
1569399684.76083
1569399684.77646
1569399684.79208
1569399684.80771
1569399684.82333
1569399684.83896
1569399684.85458
1569399684.87021
1569399684.88584
1569399684.90146
1569399684.91709
1569399684.93271
1569399684.94834
1569399684.96396
1569399684.97959
1569399684.99522
1569399685.01084
1569399685.02647
1569399685.04209
1569399685.05772
1569399685.07334
1569399685.08897
1569399685.1046
1569399685.12022
1569399685.13585
1569399685.15147
1569399685.1671
1569399685.18272
1569399685.19835
1569399685.21398
1569399685.2296
1569399685.24523
1569399685.26085
1569399685.27648
1569399685.2921
1569399685.30773
1569399685.32336
1569399685.33898
1569399685.35461
1569399685.37023
1569399685.38586
1569399685.40148
1569399685.41711
1569399685.43274
1569399685.44836
1569399685.46399
1569399685.47961
1569399685.49524
1569399685.51086
1569399685.52649
1569399685.54212
1569399685.55774
1569399685.57337
1569399685.58899
1569399685.60462
1569399685.62024
1569399685.63587
1569399685.6515
1569399685.66712
1569399685.68275
1569399685.69837
1569399685.714
1569399685.72962
1569399685.74525
1569399685.76088
1569399685.7765
1569399685.79213
1569399685.80775
1569399685.82338
1569399685.839
1569399685.85463
1569399685.87026
1569399685.88588
1569399685.90151
1569399685.91713
1569399685.93276
1569399685.94838
1569399685.96401
1569399685.97964
1569399685.99526
1569399686.01089
