1569397974.93164
1569397974.94727
1569397974.96289
1569397974.97852
1569397974.99415
1569397975.00977
1569397975.0254
1569397975.04102
1569397975.05665
1569397975.07227
1569397975.0879
1569397975.10353
1569397975.11915
1569397975.13478
1569397975.1504
1569397975.16603
1569397975.18165
1569397975.19728
1569397975.21291
1569397975.22853
1569397975.24416
1569397975.25978
1569397975.27541
1569397975.29103
1569397975.30666
1569397975.32229
1569397975.33791
1569397975.35354
1569397975.36916
1569397975.38479
1569397975.40041
1569397975.41604
1569397975.43167
1569397975.44729
1569397975.46292
1569397975.47854
1569397975.49417
1569397975.50979
1569397975.52542
1569397975.54105
1569397975.55667
1569397975.5723
1569397975.58792
1569397975.60355
1569397975.61917
1569397975.6348
1569397975.65043
1569397975.66605
1569397975.68168
1569397975.6973
1569397975.71293
1569397975.72855
1569397975.74418
1569397975.75981
1569397975.77543
1569397975.79106
1569397975.80668
1569397975.82231
1569397975.83793
1569397975.85356
1569397975.86919
1569397975.88481
1569397975.90044
1569397975.91606
1569397975.93169
1569397975.94731
1569397975.96294
1569397975.97857
1569397975.99419
1569397976.00982
1569397976.02544
1569397976.04107
1569397976.05669
1569397976.07232
1569397976.08795
1569397976.10357
1569397976.1192
1569397976.13482
1569397976.15045
1569397976.16607
1569397976.1817
1569397976.19733
1569397976.21295
1569397976.22858
1569397976.2442
1569397976.25983
1569397976.27546
1569397976.29108
1569397976.30671
1569397976.32233
1569397976.33796
1569397976.35358
1569397976.36921
1569397976.38484
1569397976.40046
1569397976.41609
1569397976.43171
1569397976.44734
1569397976.46296
1569397976.47859
1569397976.49422
1569397976.50984
1569397976.52547
1569397976.54109
1569397976.55672
1569397976.57234
1569397976.58797
1569397976.6036
1569397976.61922
1569397976.63485
1569397976.65047
1569397976.6661
1569397976.68172
1569397976.69735
1569397976.71298
1569397976.7286
1569397976.74423
1569397976.75985
1569397976.77548
1569397976.7911
1569397976.80673
1569397976.82236
1569397976.83798
1569397976.85361
1569397976.86923
1569397976.88486
1569397976.90048
1569397976.91611
1569397976.93174
1569397976.94736
1569397976.96299
1569397976.97861
1569397976.99424
1569397977.00986
1569397977.02549
1569397977.04112
1569397977.05674
1569397977.07237
1569397977.08799
1569397977.10362
1569397977.11924
1569397977.13487
1569397977.1505
1569397977.16612
1569397977.18175
1569397977.19737
1569397977.213
1569397977.22862
1569397977.24425
1569397977.25988
1569397977.2755
1569397977.29113
1569397977.30675
1569397977.32238
1569397977.338
1569397977.35363
1569397977.36926
1569397977.38488
1569397977.40051
1569397977.41613
1569397977.43176
1569397977.44738
1569397977.46301
1569397977.47864
1569397977.49426
1569397977.50989
1569397977.52551
1569397977.54114
1569397977.55676
1569397977.57239
1569397977.58802
1569397977.60364
1569397977.61927
1569397977.63489
1569397977.65052
1569397977.66614
1569397977.68177
1569397977.6974
1569397977.71302
1569397977.72865
1569397977.74427
1569397977.7599
1569397977.77552
1569397977.79115
1569397977.80678
1569397977.8224
1569397977.83803
1569397977.85365
1569397977.86928
1569397977.8849
1569397977.90053
1569397977.91616
1569397977.93178
1569397977.94741
1569397977.96303
1569397977.97866
1569397977.99428
1569397978.00991
1569397978.02554
1569397978.04116
1569397978.05679
1569397978.07241
1569397978.08804
1569397978.10366
1569397978.11929
1569397978.13492
1569397978.15054
1569397978.16617
1569397978.18179
1569397978.19742
1569397978.21304
1569397978.22867
1569397978.2443
1569397978.25992
1569397978.27555
1569397978.29117
1569397978.3068
1569397978.32242
1569397978.33805
1569397978.35368
1569397978.3693
1569397978.38493
1569397978.40055
1569397978.41618
1569397978.4318
1569397978.44743
1569397978.46306
1569397978.47868
1569397978.49431
1569397978.50993
1569397978.52556
1569397978.54118
1569397978.55681
1569397978.57244
1569397978.58806
1569397978.60369
1569397978.61931
1569397978.63494
1569397978.65056
1569397978.66619
1569397978.68182
1569397978.69744
1569397978.71307
1569397978.72869
1569397978.74432
1569397978.75994
1569397978.77557
1569397978.7912
1569397978.80682
1569397978.82245
1569397978.83807
1569397978.8537
1569397978.86932
1569397978.88495
1569397978.90058
1569397978.9162
1569397978.93183
1569397978.94745
1569397978.96308
1569397978.97871
1569397978.99433
1569397979.00996
1569397979.02558
1569397979.04121
1569397979.05683
1569397979.07246
1569397979.08809
1569397979.10371
1569397979.11934
1569397979.13496
1569397979.15059
1569397979.16621
1569397979.18184
1569397979.19747
1569397979.21309
1569397979.22872
1569397979.24434
1569397979.25997
1569397979.27559
1569397979.29122
1569397979.30685
1569397979.32247
1569397979.3381
1569397979.35372
1569397979.36935
1569397979.38497
1569397979.4006
1569397979.41623
1569397979.43185
1569397979.44748
1569397979.4631
1569397979.47873
1569397979.49435
1569397979.50998
1569397979.52561
1569397979.54123
1569397979.55686
1569397979.57248
1569397979.58811
1569397979.60373
1569397979.61936
1569397979.63499
1569397979.65061
1569397979.66624
1569397979.68186
1569397979.69749
1569397979.71311
1569397979.72874
1569397979.74437
1569397979.75999
1569397979.77562
1569397979.79124
1569397979.80687
1569397979.82249
1569397979.83812
1569397979.85375
1569397979.86937
1569397979.885
1569397979.90062
1569397979.91625
1569397979.93187
1569397979.9475
1569397979.96313
1569397979.97875
1569397979.99438
1569397980.01
1569397980.02563
1569397980.04125
1569397980.05688
1569397980.07251
1569397980.08813
1569397980.10376
1569397980.11938
1569397980.13501
1569397980.15063
1569397980.16626
1569397980.18189
1569397980.19751
1569397980.21314
1569397980.22876
1569397980.24439
1569397980.26001
1569397980.27564
1569397980.29127
1569397980.30689
1569397980.32252
1569397980.33814
1569397980.35377
1569397980.36939
1569397980.38502
1569397980.40065
1569397980.41627
1569397980.4319
1569397980.44752
1569397980.46315
1569397980.47877
1569397980.4944
1569397980.51003
1569397980.52565
1569397980.54128
1569397980.5569
1569397980.57253
1569397980.58815
1569397980.60378
1569397980.61941
1569397980.63503
1569397980.65066
1569397980.66628
1569397980.68191
1569397980.69753
1569397980.71316
1569397980.72879
1569397980.74441
1569397980.76004
1569397980.77566
1569397980.79129
1569397980.80691
1569397980.82254
1569397980.83817
1569397980.85379
1569397980.86942
1569397980.88504
1569397980.90067
1569397980.91629
1569397980.93192
1569397980.94755
1569397980.96317
1569397980.9788
1569397980.99442
1569397981.01005
1569397981.02567
1569397981.0413
1569397981.05693
1569397981.07255
1569397981.08818
1569397981.1038
1569397981.11943
1569397981.13506
1569397981.15068
1569397981.16631
1569397981.18193
1569397981.19756
1569397981.21318
1569397981.22881
1569397981.24444
1569397981.26006
1569397981.27569
1569397981.29131
1569397981.30694
1569397981.32256
1569397981.33819
1569397981.35382
1569397981.36944
1569397981.38507
1569397981.40069
1569397981.41632
1569397981.43194
1569397981.44757
1569397981.4632
1569397981.47882
1569397981.49445
1569397981.51007
1569397981.5257
1569397981.54132
1569397981.55695
1569397981.57258
1569397981.5882
1569397981.60383
1569397981.61945
1569397981.63508
1569397981.6507
1569397981.66633
1569397981.68196
1569397981.69758
1569397981.71321
1569397981.72883
1569397981.74446
1569397981.76008
1569397981.77571
1569397981.79134
1569397981.80696
1569397981.82259
1569397981.83821
1569397981.85384
1569397981.86946
1569397981.88509
1569397981.90072
1569397981.91634
1569397981.93197
1569397981.94759
1569397981.96322
1569397981.97884
1569397981.99447
1569397982.0101
1569397982.02572
1569397982.04135
1569397982.05697
1569397982.0726
1569397982.08822
1569397982.10385
1569397982.11948
1569397982.1351
1569397982.15073
1569397982.16635
1569397982.18198
1569397982.1976
1569397982.21323
1569397982.22886
1569397982.24448
1569397982.26011
1569397982.27573
1569397982.29136
1569397982.30698
1569397982.32261
1569397982.33824
1569397982.35386
1569397982.36949
1569397982.38511
1569397982.40074
1569397982.41636
1569397982.43199
1569397982.44762
1569397982.46324
1569397982.47887
1569397982.49449
1569397982.51012
1569397982.52574
1569397982.54137
1569397982.557
1569397982.57262
1569397982.58825
1569397982.60387
1569397982.6195
1569397982.63512
1569397982.65075
1569397982.66638
1569397982.682
1569397982.69763
1569397982.71325
1569397982.72888
1569397982.7445
1569397982.76013
1569397982.77576
1569397982.79138
1569397982.80701
1569397982.82263
1569397982.83826
1569397982.85388
1569397982.86951
1569397982.88514
1569397982.90076
1569397982.91639
1569397982.93201
1569397982.94764
1569397982.96326
1569397982.97889
1569397982.99452
1569397983.01014
1569397983.02577
1569397983.04139
1569397983.05702
1569397983.07264
1569397983.08827
1569397983.1039
1569397983.11952
1569397983.13515
1569397983.15077
1569397983.1664
1569397983.18202
1569397983.19765
1569397983.21328
1569397983.2289
1569397983.24453
1569397983.26015
1569397983.27578
1569397983.2914
1569397983.30703
1569397983.32266
1569397983.33828
1569397983.35391
1569397983.36953
1569397983.38516
1569397983.40078
1569397983.41641
1569397983.43204
1569397983.44766
1569397983.46329
1569397983.47891
1569397983.49454
1569397983.51016
1569397983.52579
1569397983.54142
1569397983.55704
1569397983.57267
1569397983.58829
1569397983.60392
1569397983.61954
1569397983.63517
1569397983.6508
1569397983.66642
1569397983.68205
1569397983.69767
1569397983.7133
1569397983.72892
1569397983.74455
1569397983.76018
1569397983.7758
1569397983.79143
1569397983.80705
1569397983.82268
1569397983.83831
1569397983.85393
1569397983.86956
1569397983.88518
1569397983.90081
1569397983.91643
1569397983.93206
1569397983.94769
1569397983.96331
1569397983.97894
1569397983.99456
1569397984.01019
1569397984.02581
1569397984.04144
1569397984.05707
1569397984.07269
1569397984.08832
1569397984.10394
1569397984.11957
1569397984.13519
1569397984.15082
1569397984.16645
1569397984.18207
1569397984.1977
1569397984.21332
1569397984.22895
1569397984.24457
1569397984.2602
1569397984.27583
1569397984.29145
1569397984.30708
1569397984.3227
1569397984.33833
1569397984.35395
1569397984.36958
1569397984.38521
1569397984.40083
1569397984.41646
1569397984.43208
1569397984.44771
1569397984.46333
1569397984.47896
1569397984.49459
1569397984.51021
1569397984.52584
1569397984.54146
1569397984.55709
1569397984.57271
1569397984.58834
1569397984.60397
1569397984.61959
1569397984.63522
1569397984.65084
1569397984.66647
1569397984.68209
1569397984.69772
1569397984.71335
1569397984.72897
1569397984.7446
1569397984.76022
1569397984.77585
1569397984.79147
1569397984.8071
1569397984.82273
1569397984.83835
1569397984.85398
1569397984.8696
1569397984.88523
1569397984.90085
1569397984.91648
1569397984.93211
1569397984.94773
1569397984.96336
1569397984.97898
1569397984.99461
1569397985.01023
1569397985.02586
1569397985.04149
1569397985.05711
1569397985.07274
1569397985.08836
1569397985.10399
1569397985.11961
1569397985.13524
1569397985.15087
1569397985.16649
1569397985.18212
1569397985.19774
1569397985.21337
1569397985.22899
1569397985.24462
1569397985.26025
1569397985.27587
1569397985.2915
1569397985.30712
1569397985.32275
1569397985.33837
1569397985.354
1569397985.36963
1569397985.38525
1569397985.40088
1569397985.4165
1569397985.43213
1569397985.44775
1569397985.46338
1569397985.47901
1569397985.49463
1569397985.51026
1569397985.52588
1569397985.54151
1569397985.55713
1569397985.57276
1569397985.58839
1569397985.60401
1569397985.61964
1569397985.63526
1569397985.65089
1569397985.66651
1569397985.68214
1569397985.69777
1569397985.71339
1569397985.72902
1569397985.74464
1569397985.76027
1569397985.77589
1569397985.79152
1569397985.80715
1569397985.82277
1569397985.8384
1569397985.85402
1569397985.86965
1569397985.88527
1569397985.9009
1569397985.91653
1569397985.93215
1569397985.94778
1569397985.9634
1569397985.97903
1569397985.99466
1569397986.01028
1569397986.02591
1569397986.04153
1569397986.05716
1569397986.07278
1569397986.08841
1569397986.10404
1569397986.11966
1569397986.13529
1569397986.15091
1569397986.16654
1569397986.18216
1569397986.19779
1569397986.21342
1569397986.22904
1569397986.24467
1569397986.26029
1569397986.27592
1569397986.29154
1569397986.30717
1569397986.3228
1569397986.33842
1569397986.35405
1569397986.36967
1569397986.3853
1569397986.40092
1569397986.41655
1569397986.43218
1569397986.4478
1569397986.46343
1569397986.47905
1569397986.49468
1569397986.5103
1569397986.52593
1569397986.54156
1569397986.55718
1569397986.57281
1569397986.58843
1569397986.60406
1569397986.61968
1569397986.63531
1569397986.65094
1569397986.66656
1569397986.68219
1569397986.69781
1569397986.71344
1569397986.72906
1569397986.74469
1569397986.76032
1569397986.77594
1569397986.79157
1569397986.80719
1569397986.82282
1569397986.83844
1569397986.85407
1569397986.8697
1569397986.88532
1569397986.90095
1569397986.91657
1569397986.9322
1569397986.94782
1569397986.96345
1569397986.97908
1569397986.9947
1569397987.01033
1569397987.02595
1569397987.04158
1569397987.0572
1569397987.07283
1569397987.08846
1569397987.10408
1569397987.11971
1569397987.13533
1569397987.15096
1569397987.16658
1569397987.18221
1569397987.19784
1569397987.21346
1569397987.22909
1569397987.24471
1569397987.26034
1569397987.27596
1569397987.29159
1569397987.30722
1569397987.32284
1569397987.33847
1569397987.35409
1569397987.36972
1569397987.38534
1569397987.40097
1569397987.4166
1569397987.43222
1569397987.44785
1569397987.46347
1569397987.4791
1569397987.49472
1569397987.51035
1569397987.52598
1569397987.5416
1569397987.55723
1569397987.57285
1569397987.58848
1569397987.6041
1569397987.61973
1569397987.63536
1569397987.65098
1569397987.66661
1569397987.68223
1569397987.69786
1569397987.71348
1569397987.72911
1569397987.74474
1569397987.76036
1569397987.77599
1569397987.79161
1569397987.80724
1569397987.82286
1569397987.83849
1569397987.85412
1569397987.86974
1569397987.88537
1569397987.90099
1569397987.91662
1569397987.93224
1569397987.94787
1569397987.9635
1569397987.97912
1569397987.99475
1569397988.01037
1569397988.026
1569397988.04162
1569397988.05725
1569397988.07288
1569397988.0885
1569397988.10413
1569397988.11975
1569397988.13538
1569397988.151
1569397988.16663
1569397988.18226
1569397988.19788
1569397988.21351
1569397988.22913
1569397988.24476
1569397988.26039
1569397988.27601
1569397988.29164
1569397988.30726
1569397988.32289
1569397988.33851
1569397988.35414
1569397988.36977
1569397988.38539
1569397988.40102
1569397988.41664
1569397988.43227
1569397988.44789
1569397988.46352
1569397988.47915
1569397988.49477
1569397988.5104
1569397988.52602
1569397988.54165
1569397988.55727
1569397988.5729
1569397988.58853
1569397988.60415
1569397988.61978
1569397988.6354
1569397988.65103
1569397988.66665
1569397988.68228
1569397988.69791
1569397988.71353
1569397988.72916
1569397988.74478
1569397988.76041
1569397988.77603
1569397988.79166
1569397988.80729
1569397988.82291
1569397988.83854
1569397988.85416
1569397988.86979
1569397988.88541
1569397988.90104
1569397988.91667
1569397988.93229
1569397988.94792
1569397988.96354
1569397988.97917
1569397988.99479
1569397989.01042
1569397989.02605
1569397989.04167
1569397989.0573
1569397989.07292
1569397989.08855
1569397989.10417
1569397989.1198
1569397989.13543
1569397989.15105
1569397989.16668
1569397989.1823
1569397989.19793
1569397989.21355
1569397989.22918
1569397989.24481
1569397989.26043
1569397989.27606
1569397989.29168
1569397989.30731
1569397989.32293
1569397989.33856
1569397989.35419
1569397989.36981
1569397989.38544
1569397989.40106
1569397989.41669
1569397989.43231
1569397989.44794
1569397989.46357
1569397989.47919
1569397989.49482
1569397989.51044
1569397989.52607
1569397989.54169
1569397989.55732
1569397989.57295
1569397989.58857
1569397989.6042
1569397989.61982
1569397989.63545
1569397989.65107
1569397989.6667
1569397989.68233
1569397989.69795
1569397989.71358
1569397989.7292
1569397989.74483
1569397989.76045
1569397989.77608
1569397989.79171
1569397989.80733
1569397989.82296
1569397989.83858
1569397989.85421
1569397989.86983
1569397989.88546
1569397989.90109
1569397989.91671
1569397989.93234
1569397989.94796
1569397989.96359
1569397989.97921
1569397989.99484
1569397990.01047
1569397990.02609
1569397990.04172
1569397990.05734
1569397990.07297
1569397990.08859
1569397990.10422
1569397990.11985
1569397990.13547
1569397990.1511
1569397990.16672
1569397990.18235
1569397990.19797
1569397990.2136
1569397990.22923
1569397990.24485
1569397990.26048
1569397990.2761
1569397990.29173
1569397990.30735
1569397990.32298
1569397990.33861
1569397990.35423
1569397990.36986
1569397990.38548
1569397990.40111
1569397990.41673
1569397990.43236
1569397990.44799
1569397990.46361
1569397990.47924
1569397990.49486
1569397990.51049
1569397990.52611
1569397990.54174
1569397990.55737
1569397990.57299
1569397990.58862
1569397990.60424
1569397990.61987
1569397990.63549
1569397990.65112
1569397990.66675
1569397990.68237
1569397990.698
1569397990.71362
1569397990.72925
1569397990.74487
1569397990.7605
1569397990.77613
1569397990.79175
1569397990.80738
1569397990.823
1569397990.83863
1569397990.85426
1569397990.86988
1569397990.88551
1569397990.90113
1569397990.91676
1569397990.93238
1569397990.94801
1569397990.96364
1569397990.97926
1569397990.99489
1569397991.01051
1569397991.02614
1569397991.04176
1569397991.05739
1569397991.07302
1569397991.08864
1569397991.10427
1569397991.11989
1569397991.13552
1569397991.15114
1569397991.16677
1569397991.1824
1569397991.19802
1569397991.21365
1569397991.22927
1569397991.2449
1569397991.26052
1569397991.27615
1569397991.29178
1569397991.3074
1569397991.32303
1569397991.33865
1569397991.35428
1569397991.3699
1569397991.38553
1569397991.40116
1569397991.41678
1569397991.43241
1569397991.44803
1569397991.46366
1569397991.47928
1569397991.49491
1569397991.51054
1569397991.52616
1569397991.54179
1569397991.55741
1569397991.57304
1569397991.58866
1569397991.60429
1569397991.61992
1569397991.63554
1569397991.65117
1569397991.66679
1569397991.68242
1569397991.69804
1569397991.71367
1569397991.7293
1569397991.74492
1569397991.76055
1569397991.77617
1569397991.7918
1569397991.80742
1569397991.82305
1569397991.83868
1569397991.8543
1569397991.86993
1569397991.88555
1569397991.90118
1569397991.9168
1569397991.93243
1569397991.94806
1569397991.96368
1569397991.97931
1569397991.99493
1569397992.01056
1569397992.02618
1569397992.04181
1569397992.05744
1569397992.07306
1569397992.08869
1569397992.10431
1569397992.11994
1569397992.13556
1569397992.15119
1569397992.16682
1569397992.18244
1569397992.19807
1569397992.21369
1569397992.22932
1569397992.24494
1569397992.26057
1569397992.2762
1569397992.29182
1569397992.30745
1569397992.32307
1569397992.3387
1569397992.35432
1569397992.36995
1569397992.38558
1569397992.4012
1569397992.41683
1569397992.43245
1569397992.44808
1569397992.4637
1569397992.47933
1569397992.49496
1569397992.51058
1569397992.52621
1569397992.54183
1569397992.55746
1569397992.57308
1569397992.58871
1569397992.60434
1569397992.61996
1569397992.63559
1569397992.65121
1569397992.66684
1569397992.68246
1569397992.69809
1569397992.71372
1569397992.72934
1569397992.74497
1569397992.76059
1569397992.77622
1569397992.79184
1569397992.80747
1569397992.8231
1569397992.83872
1569397992.85435
1569397992.86997
1569397992.8856
1569397992.90122
1569397992.91685
1569397992.93248
1569397992.9481
1569397992.96373
1569397992.97935
1569397992.99498
1569397993.0106
1569397993.02623
1569397993.04186
1569397993.05748
1569397993.07311
1569397993.08873
1569397993.10436
1569397993.11999
1569397993.13561
1569397993.15124
1569397993.16686
1569397993.18249
1569397993.19811
1569397993.21374
1569397993.22937
1569397993.24499
1569397993.26062
1569397993.27624
1569397993.29187
1569397993.30749
1569397993.32312
1569397993.33875
1569397993.35437
1569397993.37
1569397993.38562
1569397993.40125
1569397993.41687
1569397993.4325
1569397993.44813
1569397993.46375
1569397993.47938
1569397993.495
1569397993.51063
1569397993.52625
1569397993.54188
1569397993.55751
1569397993.57313
1569397993.58876
1569397993.60438
1569397993.62001
1569397993.63563
1569397993.65126
1569397993.66689
1569397993.68251
1569397993.69814
1569397993.71376
1569397993.72939
1569397993.74501
1569397993.76064
1569397993.77627
1569397993.79189
1569397993.80752
1569397993.82314
1569397993.83877
1569397993.85439
1569397993.87002
1569397993.88565
1569397993.90127
1569397993.9169
1569397993.93252
1569397993.94815
1569397993.96377
1569397993.9794
1569397993.99503
1569397994.01065
1569397994.02628
1569397994.0419
1569397994.05753
1569397994.07315
1569397994.08878
1569397994.10441
1569397994.12003
1569397994.13566
1569397994.15128
1569397994.16691
1569397994.18253
1569397994.19816
1569397994.21379
1569397994.22941
1569397994.24504
1569397994.26066
1569397994.27629
1569397994.29191
1569397994.30754
1569397994.32317
1569397994.33879
1569397994.35442
1569397994.37004
1569397994.38567
1569397994.40129
1569397994.41692
1569397994.43255
1569397994.44817
1569397994.4638
1569397994.47942
1569397994.49505
1569397994.51067
1569397994.5263
1569397994.54193
1569397994.55755
1569397994.57318
1569397994.5888
1569397994.60443
1569397994.62005
1569397994.63568
1569397994.65131
1569397994.66693
1569397994.68256
1569397994.69818
1569397994.71381
1569397994.72943
1569397994.74506
1569397994.76069
1569397994.77631
1569397994.79194
1569397994.80756
1569397994.82319
1569397994.83881
1569397994.85444
1569397994.87007
1569397994.88569
1569397994.90132
1569397994.91694
1569397994.93257
1569397994.94819
1569397994.96382
1569397994.97945
1569397994.99507
1569397995.0107
1569397995.02632
1569397995.04195
1569397995.05757
1569397995.0732
1569397995.08883
1569397995.10445
1569397995.12008
1569397995.1357
1569397995.15133
1569397995.16695
1569397995.18258
1569397995.19821
1569397995.21383
1569397995.22946
1569397995.24508
1569397995.26071
1569397995.27634
1569397995.29196
1569397995.30759
1569397995.32321
1569397995.33884
1569397995.35446
1569397995.37009
1569397995.38572
1569397995.40134
1569397995.41697
1569397995.43259
1569397995.44822
1569397995.46384
1569397995.47947
1569397995.4951
1569397995.51072
1569397995.52635
1569397995.54197
1569397995.5576
1569397995.57322
1569397995.58885
1569397995.60448
1569397995.6201
1569397995.63573
1569397995.65135
1569397995.66698
1569397995.6826
1569397995.69823
1569397995.71386
1569397995.72948
1569397995.74511
1569397995.76073
1569397995.77636
1569397995.79198
1569397995.80761
1569397995.82324
1569397995.83886
1569397995.85449
1569397995.87011
1569397995.88574
1569397995.90136
1569397995.91699
1569397995.93262
1569397995.94824
1569397995.96387
1569397995.97949
1569397995.99512
1569397996.01074
1569397996.02637
1569397996.042
1569397996.05762
1569397996.07325
1569397996.08887
1569397996.1045
1569397996.12012
1569397996.13575
1569397996.15138
1569397996.167
1569397996.18263
1569397996.19825
1569397996.21388
1569397996.2295
1569397996.24513
1569397996.26076
1569397996.27638
1569397996.29201
1569397996.30763
1569397996.32326
1569397996.33888
1569397996.35451
1569397996.37014
1569397996.38576
1569397996.40139
1569397996.41701
1569397996.43264
1569397996.44826
1569397996.46389
1569397996.47952
1569397996.49514
1569397996.51077
1569397996.52639
1569397996.54202
1569397996.55764
1569397996.57327
1569397996.5889
1569397996.60452
1569397996.62015
1569397996.63577
1569397996.6514
1569397996.66702
1569397996.68265
1569397996.69828
1569397996.7139
1569397996.72953
1569397996.74515
1569397996.76078
1569397996.7764
1569397996.79203
1569397996.80766
1569397996.82328
1569397996.83891
1569397996.85453
1569397996.87016
1569397996.88578
1569397996.90141
1569397996.91704
1569397996.93266
1569397996.94829
1569397996.96391
1569397996.97954
1569397996.99516
1569397997.01079
1569397997.02642
1569397997.04204
1569397997.05767
1569397997.07329
1569397997.08892
1569397997.10454
1569397997.12017
1569397997.1358
1569397997.15142
1569397997.16705
1569397997.18267
1569397997.1983
1569397997.21392
1569397997.22955
1569397997.24518
1569397997.2608
1569397997.27643
1569397997.29205
1569397997.30768
1569397997.3233
1569397997.33893
1569397997.35456
1569397997.37018
1569397997.38581
1569397997.40143
1569397997.41706
1569397997.43268
1569397997.44831
1569397997.46394
1569397997.47956
1569397997.49519
1569397997.51081
1569397997.52644
1569397997.54206
1569397997.55769
1569397997.57332
1569397997.58894
1569397997.60457
1569397997.62019
1569397997.63582
1569397997.65144
1569397997.66707
1569397997.6827
1569397997.69832
1569397997.71395
1569397997.72957
1569397997.7452
1569397997.76082
1569397997.77645
1569397997.79208
1569397997.8077
1569397997.82333
1569397997.83895
1569397997.85458
1569397997.8702
1569397997.88583
1569397997.90146
1569397997.91708
1569397997.93271
1569397997.94833
1569397997.96396
1569397997.97959
1569397997.99521
1569397998.01084
1569397998.02646
1569397998.04209
1569397998.05771
1569397998.07334
1569397998.08897
1569397998.10459
1569397998.12022
1569397998.13584
1569397998.15147
1569397998.16709
1569397998.18272
1569397998.19835
1569397998.21397
1569397998.2296
1569397998.24522
1569397998.26085
1569397998.27647
1569397998.2921
1569397998.30773
1569397998.32335
1569397998.33898
1569397998.3546
1569397998.37023
1569397998.38585
1569397998.40148
1569397998.41711
1569397998.43273
1569397998.44836
1569397998.46398
1569397998.47961
1569397998.49523
1569397998.51086
1569397998.52649
1569397998.54211
1569397998.55774
1569397998.57336
1569397998.58899
1569397998.60461
1569397998.62024
1569397998.63587
1569397998.65149
1569397998.66712
1569397998.68274
1569397998.69837
1569397998.71399
1569397998.72962
1569397998.74525
1569397998.76087
1569397998.7765
1569397998.79212
1569397998.80775
1569397998.82337
1569397998.839
1569397998.85463
1569397998.87025
1569397998.88588
1569397998.9015
1569397998.91713
1569397998.93275
1569397998.94838
1569397998.96401
1569397998.97963
1569397998.99526
1569397999.01088
1569397999.02651
1569397999.04213
1569397999.05776
1569397999.07339
1569397999.08901
1569397999.10464
1569397999.12026
1569397999.13589
1569397999.15151
1569397999.16714
1569397999.18277
1569397999.19839
1569397999.21402
1569397999.22964
1569397999.24527
1569397999.26089
1569397999.27652
1569397999.29215
1569397999.30777
1569397999.3234
1569397999.33902
1569397999.35465
1569397999.37027
1569397999.3859
1569397999.40153
1569397999.41715
1569397999.43278
1569397999.4484
1569397999.46403
1569397999.47965
1569397999.49528
1569397999.51091
1569397999.52653
1569397999.54216
1569397999.55778
1569397999.57341
1569397999.58903
1569397999.60466
1569397999.62029
1569397999.63591
1569397999.65154
1569397999.66716
1569397999.68279
1569397999.69841
1569397999.71404
1569397999.72967
1569397999.74529
1569397999.76092
1569397999.77654
1569397999.79217
1569397999.80779
1569397999.82342
1569397999.83905
1569397999.85467
1569397999.8703
1569397999.88592
1569397999.90155
1569397999.91717
1569397999.9328
1569397999.94843
1569397999.96405
1569397999.97968
1569397999.9953
1569398000.01093
1569398000.02655
1569398000.04218
1569398000.05781
1569398000.07343
1569398000.08906
1569398000.10468
1569398000.12031
1569398000.13594
1569398000.15156
1569398000.16719
1569398000.18281
1569398000.19844
1569398000.21406
1569398000.22969
1569398000.24532
1569398000.26094
1569398000.27657
1569398000.29219
1569398000.30782
1569398000.32344
1569398000.33907
1569398000.3547
1569398000.37032
1569398000.38595
1569398000.40157
1569398000.4172
1569398000.43282
1569398000.44845
1569398000.46408
1569398000.4797
1569398000.49533
1569398000.51095
1569398000.52658
1569398000.5422
1569398000.55783
1569398000.57346
1569398000.58908
1569398000.60471
1569398000.62033
1569398000.63596
1569398000.65158
1569398000.66721
1569398000.68284
1569398000.69846
1569398000.71409
1569398000.72971
1569398000.74534
1569398000.76096
1569398000.77659
1569398000.79222
1569398000.80784
1569398000.82347
1569398000.83909
1569398000.85472
1569398000.87034
1569398000.88597
1569398000.9016
1569398000.91722
1569398000.93285
1569398000.94847
1569398000.9641
1569398000.97972
1569398000.99535
1569398001.01098
1569398001.0266
1569398001.04223
1569398001.05785
1569398001.07348
1569398001.0891
1569398001.10473
1569398001.12036
1569398001.13598
1569398001.15161
1569398001.16723
1569398001.18286
1569398001.19848
1569398001.21411
1569398001.22974
1569398001.24536
1569398001.26099
1569398001.27661
1569398001.29224
1569398001.30786
1569398001.32349
1569398001.33912
1569398001.35474
1569398001.37037
1569398001.38599
1569398001.40162
1569398001.41724
1569398001.43287
1569398001.4485
1569398001.46412
1569398001.47975
1569398001.49537
1569398001.511
1569398001.52662
1569398001.54225
1569398001.55788
1569398001.5735
1569398001.58913
1569398001.60475
1569398001.62038
1569398001.636
1569398001.65163
1569398001.66726
1569398001.68288
1569398001.69851
1569398001.71413
1569398001.72976
1569398001.74538
1569398001.76101
1569398001.77664
1569398001.79226
1569398001.80789
1569398001.82351
1569398001.83914
1569398001.85476
1569398001.87039
1569398001.88602
1569398001.90164
1569398001.91727
1569398001.93289
1569398001.94852
1569398001.96414
1569398001.97977
1569398001.9954
1569398002.01102
1569398002.02665
1569398002.04227
1569398002.0579
1569398002.07352
1569398002.08915
1569398002.10478
1569398002.1204
1569398002.13603
1569398002.15165
1569398002.16728
1569398002.1829
1569398002.19853
1569398002.21416
1569398002.22978
1569398002.24541
1569398002.26103
1569398002.27666
1569398002.29228
1569398002.30791
1569398002.32354
1569398002.33916
1569398002.35479
1569398002.37041
1569398002.38604
1569398002.40166
1569398002.41729
1569398002.43292
1569398002.44854
1569398002.46417
1569398002.47979
1569398002.49542
1569398002.51104
1569398002.52667
1569398002.5423
1569398002.55792
1569398002.57355
1569398002.58917
1569398002.6048
1569398002.62042
1569398002.63605
1569398002.65168
1569398002.6673
1569398002.68293
1569398002.69855
1569398002.71418
1569398002.7298
1569398002.74543
1569398002.76106
1569398002.77668
1569398002.79231
1569398002.80793
1569398002.82356
1569398002.83919
1569398002.85481
1569398002.87044
1569398002.88606
1569398002.90169
1569398002.91731
1569398002.93294
1569398002.94857
1569398002.96419
1569398002.97982
1569398002.99544
1569398003.01107
1569398003.02669
1569398003.04232
1569398003.05795
1569398003.07357
1569398003.0892
1569398003.10482
1569398003.12045
1569398003.13607
1569398003.1517
1569398003.16733
1569398003.18295
1569398003.19858
1569398003.2142
1569398003.22983
1569398003.24545
1569398003.26108
1569398003.27671
1569398003.29233
1569398003.30796
1569398003.32358
1569398003.33921
1569398003.35483
1569398003.37046
1569398003.38609
1569398003.40171
1569398003.41734
1569398003.43296
1569398003.44859
1569398003.46421
1569398003.47984
1569398003.49547
1569398003.51109
1569398003.52672
1569398003.54234
1569398003.55797
1569398003.57359
1569398003.58922
1569398003.60485
1569398003.62047
1569398003.6361
1569398003.65172
1569398003.66735
1569398003.68297
1569398003.6986
1569398003.71423
1569398003.72985
1569398003.74548
1569398003.7611
1569398003.77673
1569398003.79235
1569398003.80798
1569398003.82361
1569398003.83923
1569398003.85486
1569398003.87048
1569398003.88611
1569398003.90173
1569398003.91736
1569398003.93299
1569398003.94861
1569398003.96424
1569398003.97986
1569398003.99549
1569398004.01111
1569398004.02674
1569398004.04237
1569398004.05799
1569398004.07362
1569398004.08924
1569398004.10487
1569398004.12049
1569398004.13612
1569398004.15175
1569398004.16737
1569398004.183
1569398004.19862
1569398004.21425
1569398004.22987
1569398004.2455
1569398004.26113
1569398004.27675
1569398004.29238
1569398004.308
1569398004.32363
1569398004.33925
1569398004.35488
1569398004.37051
1569398004.38613
1569398004.40176
1569398004.41738
1569398004.43301
1569398004.44863
1569398004.46426
1569398004.47989
1569398004.49551
1569398004.51114
1569398004.52676
1569398004.54239
1569398004.55801
1569398004.57364
1569398004.58927
1569398004.60489
1569398004.62052
1569398004.63614
1569398004.65177
1569398004.66739
1569398004.68302
1569398004.69865
1569398004.71427
1569398004.7299
1569398004.74552
1569398004.76115
1569398004.77677
1569398004.7924
1569398004.80803
1569398004.82365
1569398004.83928
1569398004.8549
1569398004.87053
1569398004.88615
1569398004.90178
1569398004.91741
1569398004.93303
1569398004.94866
1569398004.96428
1569398004.97991
1569398004.99553
1569398005.01116
1569398005.02679
1569398005.04241
1569398005.05804
1569398005.07366
1569398005.08929
1569398005.10492
1569398005.12054
1569398005.13617
1569398005.15179
1569398005.16742
1569398005.18304
1569398005.19867
1569398005.2143
1569398005.22992
1569398005.24555
1569398005.26117
1569398005.2768
1569398005.29242
1569398005.30805
1569398005.32368
1569398005.3393
1569398005.35493
1569398005.37055
1569398005.38618
1569398005.4018
1569398005.41743
1569398005.43306
1569398005.44868
1569398005.46431
1569398005.47993
1569398005.49556
1569398005.51118
1569398005.52681
1569398005.54244
1569398005.55806
1569398005.57369
1569398005.58931
1569398005.60494
1569398005.62056
1569398005.63619
1569398005.65182
1569398005.66744
1569398005.68307
1569398005.69869
1569398005.71432
1569398005.72994
1569398005.74557
1569398005.7612
1569398005.77682
1569398005.79245
1569398005.80807
1569398005.8237
1569398005.83932
1569398005.85495
1569398005.87058
1569398005.8862
1569398005.90183
1569398005.91745
1569398005.93308
1569398005.9487
1569398005.96433
1569398005.97996
1569398005.99558
1569398006.01121
1569398006.02683
1569398006.04246
1569398006.05808
1569398006.07371
1569398006.08934
1569398006.10496
1569398006.12059
1569398006.13621
1569398006.15184
1569398006.16746
1569398006.18309
1569398006.19872
1569398006.21434
1569398006.22997
1569398006.24559
1569398006.26122
1569398006.27684
1569398006.29247
1569398006.3081
1569398006.32372
1569398006.33935
1569398006.35497
1569398006.3706
1569398006.38622
1569398006.40185
1569398006.41748
1569398006.4331
1569398006.44873
1569398006.46435
1569398006.47998
1569398006.4956
1569398006.51123
1569398006.52686
1569398006.54248
1569398006.55811
1569398006.57373
1569398006.58936
1569398006.60498
1569398006.62061
1569398006.63624
1569398006.65186
1569398006.66749
1569398006.68311
1569398006.69874
1569398006.71436
1569398006.72999
1569398006.74562
1569398006.76124
1569398006.77687
1569398006.79249
1569398006.80812
1569398006.82374
1569398006.83937
1569398006.855
1569398006.87062
1569398006.88625
1569398006.90187
1569398006.9175
1569398006.93312
1569398006.94875
1569398006.96438
1569398006.98
1569398006.99563
1569398007.01125
1569398007.02688
1569398007.0425
1569398007.05813
1569398007.07376
1569398007.08938
1569398007.10501
1569398007.12063
1569398007.13626
1569398007.15188
1569398007.16751
1569398007.18314
1569398007.19876
1569398007.21439
1569398007.23001
1569398007.24564
1569398007.26127
1569398007.27689
1569398007.29252
1569398007.30814
1569398007.32377
1569398007.33939
1569398007.35502
1569398007.37065
1569398007.38627
1569398007.4019
1569398007.41752
1569398007.43315
1569398007.44877
1569398007.4644
1569398007.48003
1569398007.49565
1569398007.51128
1569398007.5269
1569398007.54253
1569398007.55815
1569398007.57378
1569398007.58941
1569398007.60503
1569398007.62066
1569398007.63628
1569398007.65191
1569398007.66753
1569398007.68316
1569398007.69879
1569398007.71441
1569398007.73004
1569398007.74566
1569398007.76129
1569398007.77691
1569398007.79254
1569398007.80817
1569398007.82379
1569398007.83942
1569398007.85504
1569398007.87067
1569398007.88629
1569398007.90192
1569398007.91755
1569398007.93317
1569398007.9488
1569398007.96442
1569398007.98005
1569398007.99567
1569398008.0113
1569398008.02693
1569398008.04255
1569398008.05818
1569398008.0738
1569398008.08943
1569398008.10505
1569398008.12068
1569398008.13631
1569398008.15193
1569398008.16756
1569398008.18318
1569398008.19881
1569398008.21443
1569398008.23006
1569398008.24569
1569398008.26131
1569398008.27694
1569398008.29256
1569398008.30819
1569398008.32381
1569398008.33944
1569398008.35507
1569398008.37069
1569398008.38632
1569398008.40194
1569398008.41757
1569398008.43319
1569398008.44882
1569398008.46445
1569398008.48007
1569398008.4957
1569398008.51132
1569398008.52695
1569398008.54257
1569398008.5582
1569398008.57383
1569398008.58945
1569398008.60508
1569398008.6207
1569398008.63633
1569398008.65195
1569398008.66758
1569398008.68321
1569398008.69883
1569398008.71446
1569398008.73008
1569398008.74571
1569398008.76133
1569398008.77696
1569398008.79259
1569398008.80821
1569398008.82384
1569398008.83946
1569398008.85509
1569398008.87071
1569398008.88634
1569398008.90197
1569398008.91759
1569398008.93322
1569398008.94884
1569398008.96447
1569398008.98009
1569398008.99572
1569398009.01135
1569398009.02697
1569398009.0426
1569398009.05822
1569398009.07385
1569398009.08947
1569398009.1051
1569398009.12073
1569398009.13635
1569398009.15198
1569398009.1676
1569398009.18323
1569398009.19885
1569398009.21448
1569398009.23011
1569398009.24573
1569398009.26136
1569398009.27698
1569398009.29261
1569398009.30823
1569398009.32386
1569398009.33949
1569398009.35511
1569398009.37074
1569398009.38636
1569398009.40199
1569398009.41761
1569398009.43324
1569398009.44887
1569398009.46449
1569398009.48012
1569398009.49574
1569398009.51137
1569398009.52699
1569398009.54262
1569398009.55825
1569398009.57387
1569398009.5895
1569398009.60512
1569398009.62075
1569398009.63637
1569398009.652
1569398009.66763
1569398009.68325
1569398009.69888
1569398009.7145
1569398009.73013
1569398009.74575
1569398009.76138
1569398009.77701
1569398009.79263
1569398009.80826
1569398009.82388
1569398009.83951
1569398009.85513
1569398009.87076
1569398009.88639
1569398009.90201
1569398009.91764
1569398009.93326
1569398009.94889
1569398009.96452
1569398009.98014
1569398009.99577
1569398010.01139
1569398010.02702
1569398010.04264
1569398010.05827
1569398010.0739
1569398010.08952
1569398010.10515
1569398010.12077
1569398010.1364
1569398010.15202
1569398010.16765
1569398010.18328
1569398010.1989
1569398010.21453
1569398010.23015
1569398010.24578
1569398010.2614
1569398010.27703
1569398010.29266
1569398010.30828
1569398010.32391
1569398010.33953
1569398010.35516
1569398010.37078
1569398010.38641
1569398010.40204
1569398010.41766
1569398010.43329
1569398010.44891
1569398010.46454
1569398010.48016
1569398010.49579
1569398010.51142
1569398010.52704
1569398010.54267
1569398010.55829
1569398010.57392
1569398010.58954
1569398010.60517
1569398010.6208
1569398010.63642
1569398010.65205
1569398010.66767
1569398010.6833
1569398010.69892
1569398010.71455
1569398010.73018
1569398010.7458
1569398010.76143
1569398010.77705
1569398010.79268
1569398010.8083
1569398010.82393
1569398010.83956
1569398010.85518
1569398010.87081
1569398010.88643
1569398010.90206
1569398010.91768
1569398010.93331
1569398010.94894
1569398010.96456
1569398010.98019
1569398010.99581
1569398011.01144
1569398011.02706
1569398011.04269
1569398011.05832
1569398011.07394
1569398011.08957
1569398011.10519
1569398011.12082
1569398011.13644
1569398011.15207
1569398011.1677
1569398011.18332
1569398011.19895
1569398011.21457
1569398011.2302
1569398011.24582
1569398011.26145
1569398011.27708
1569398011.2927
1569398011.30833
1569398011.32395
1569398011.33958
1569398011.3552
1569398011.37083
1569398011.38646
1569398011.40208
1569398011.41771
1569398011.43333
1569398011.44896
1569398011.46458
1569398011.48021
1569398011.49584
1569398011.51146
1569398011.52709
1569398011.54271
1569398011.55834
1569398011.57396
1569398011.58959
1569398011.60522
1569398011.62084
1569398011.63647
1569398011.65209
1569398011.66772
1569398011.68334
1569398011.69897
1569398011.7146
1569398011.73022
1569398011.74585
1569398011.76147
1569398011.7771
1569398011.79272
1569398011.80835
1569398011.82398
1569398011.8396
1569398011.85523
1569398011.87085
1569398011.88648
1569398011.9021
1569398011.91773
1569398011.93336
1569398011.94898
1569398011.96461
1569398011.98023
1569398011.99586
1569398012.01148
1569398012.02711
1569398012.04274
1569398012.05836
1569398012.07399
1569398012.08961
1569398012.10524
1569398012.12087
1569398012.13649
1569398012.15212
1569398012.16774
1569398012.18337
1569398012.19899
1569398012.21462
1569398012.23025
1569398012.24587
1569398012.2615
1569398012.27712
1569398012.29275
1569398012.30837
1569398012.324
1569398012.33963
1569398012.35525
1569398012.37088
1569398012.3865
1569398012.40213
1569398012.41775
1569398012.43338
1569398012.44901
1569398012.46463
1569398012.48026
1569398012.49588
1569398012.51151
1569398012.52713
1569398012.54276
1569398012.55839
1569398012.57401
1569398012.58964
1569398012.60526
1569398012.62089
1569398012.63651
1569398012.65214
1569398012.66777
1569398012.68339
1569398012.69902
1569398012.71464
1569398012.73027
1569398012.74589
1569398012.76152
1569398012.77715
1569398012.79277
1569398012.8084
1569398012.82402
1569398012.83965
1569398012.85527
1569398012.8709
1569398012.88653
1569398012.90215
1569398012.91778
1569398012.9334
1569398012.94903
1569398012.96465
1569398012.98028
1569398012.99591
1569398013.01153
1569398013.02716
1569398013.04278
1569398013.05841
1569398013.07403
1569398013.08966
1569398013.10529
1569398013.12091
1569398013.13654
1569398013.15216
1569398013.16779
1569398013.18341
1569398013.19904
1569398013.21467
1569398013.23029
1569398013.24592
1569398013.26154
1569398013.27717
1569398013.29279
1569398013.30842
1569398013.32405
1569398013.33967
1569398013.3553
1569398013.37092
1569398013.38655
1569398013.40217
1569398013.4178
1569398013.43343
1569398013.44905
1569398013.46468
1569398013.4803
1569398013.49593
1569398013.51155
1569398013.52718
1569398013.54281
1569398013.55843
1569398013.57406
1569398013.58968
1569398013.60531
1569398013.62093
1569398013.63656
1569398013.65219
1569398013.66781
1569398013.68344
1569398013.69906
1569398013.71469
1569398013.73031
1569398013.74594
1569398013.76157
1569398013.77719
1569398013.79282
1569398013.80844
1569398013.82407
1569398013.83969
1569398013.85532
1569398013.87095
1569398013.88657
1569398013.9022
1569398013.91782
1569398013.93345
1569398013.94907
1569398013.9647
1569398013.98033
1569398013.99595
1569398014.01158
1569398014.0272
1569398014.04283
1569398014.05845
1569398014.07408
1569398014.08971
1569398014.10533
1569398014.12096
1569398014.13658
1569398014.15221
1569398014.16783
1569398014.18346
1569398014.19909
1569398014.21471
1569398014.23034
1569398014.24596
1569398014.26159
1569398014.27721
1569398014.29284
1569398014.30847
1569398014.32409
1569398014.33972
1569398014.35534
1569398014.37097
1569398014.3866
1569398014.40222
1569398014.41785
1569398014.43347
1569398014.4491
1569398014.46472
1569398014.48035
1569398014.49598
1569398014.5116
1569398014.52723
1569398014.54285
1569398014.55848
1569398014.5741
1569398014.58973
1569398014.60536
1569398014.62098
1569398014.63661
1569398014.65223
1569398014.66786
1569398014.68348
1569398014.69911
1569398014.71474
1569398014.73036
1569398014.74599
1569398014.76161
1569398014.77724
1569398014.79286
1569398014.80849
1569398014.82412
1569398014.83974
1569398014.85537
1569398014.87099
1569398014.88662
1569398014.90224
1569398014.91787
1569398014.9335
1569398014.94912
1569398014.96475
1569398014.98037
1569398014.996
1569398015.01162
1569398015.02725
1569398015.04288
1569398015.0585
1569398015.07413
1569398015.08975
1569398015.10538
1569398015.121
1569398015.13663
1569398015.15226
1569398015.16788
1569398015.18351
1569398015.19913
1569398015.21476
1569398015.23038
1569398015.24601
1569398015.26164
1569398015.27726
1569398015.29289
1569398015.30851
1569398015.32414
1569398015.33976
1569398015.35539
1569398015.37102
1569398015.38664
1569398015.40227
1569398015.41789
1569398015.43352
1569398015.44914
1569398015.46477
1569398015.4804
1569398015.49602
1569398015.51165
1569398015.52727
1569398015.5429
1569398015.55852
1569398015.57415
1569398015.58978
1569398015.6054
1569398015.62103
1569398015.63665
1569398015.65228
1569398015.6679
1569398015.68353
1569398015.69916
1569398015.71478
1569398015.73041
1569398015.74603
1569398015.76166
1569398015.77728
1569398015.79291
1569398015.80854
1569398015.82416
1569398015.83979
1569398015.85541
1569398015.87104
1569398015.88666
1569398015.90229
1569398015.91792
1569398015.93354
1569398015.94917
1569398015.96479
1569398015.98042
1569398015.99604
1569398016.01167
1569398016.0273
1569398016.04292
1569398016.05855
1569398016.07417
1569398016.0898
1569398016.10542
1569398016.12105
1569398016.13668
1569398016.1523
1569398016.16793
1569398016.18355
1569398016.19918
1569398016.2148
1569398016.23043
1569398016.24606
1569398016.26168
1569398016.27731
1569398016.29293
1569398016.30856
1569398016.32418
1569398016.33981
1569398016.35544
1569398016.37106
1569398016.38669
1569398016.40231
1569398016.41794
1569398016.43356
1569398016.44919
1569398016.46482
1569398016.48044
1569398016.49607
1569398016.51169
1569398016.52732
1569398016.54294
1569398016.55857
1569398016.5742
1569398016.58982
1569398016.60545
1569398016.62107
1569398016.6367
1569398016.65232
1569398016.66795
1569398016.68358
1569398016.6992
1569398016.71483
1569398016.73045
1569398016.74608
1569398016.7617
1569398016.77733
1569398016.79296
1569398016.80858
1569398016.82421
1569398016.83983
1569398016.85546
1569398016.87108
1569398016.88671
1569398016.90234
1569398016.91796
1569398016.93359
1569398016.94921
1569398016.96484
1569398016.98047
1569398016.99609
1569398017.01172
1569398017.02734
1569398017.04297
1569398017.05859
1569398017.07422
1569398017.08985
1569398017.10547
1569398017.1211
1569398017.13672
1569398017.15235
1569398017.16797
1569398017.1836
1569398017.19923
1569398017.21485
1569398017.23048
1569398017.2461
1569398017.26173
1569398017.27735
1569398017.29298
1569398017.30861
1569398017.32423
1569398017.33986
1569398017.35548
1569398017.37111
1569398017.38673
1569398017.40236
1569398017.41799
1569398017.43361
1569398017.44924
1569398017.46486
1569398017.48049
1569398017.49611
1569398017.51174
1569398017.52737
1569398017.54299
1569398017.55862
1569398017.57424
1569398017.58987
1569398017.60549
1569398017.62112
1569398017.63675
1569398017.65237
1569398017.668
1569398017.68362
1569398017.69925
1569398017.71487
1569398017.7305
1569398017.74613
1569398017.76175
1569398017.77738
1569398017.793
1569398017.80863
1569398017.82425
1569398017.83988
1569398017.85551
1569398017.87113
1569398017.88676
1569398017.90238
1569398017.91801
1569398017.93363
1569398017.94926
1569398017.96489
1569398017.98051
1569398017.99614
1569398018.01176
1569398018.02739
1569398018.04301
1569398018.05864
1569398018.07427
1569398018.08989
1569398018.10552
1569398018.12114
1569398018.13677
1569398018.15239
1569398018.16802
1569398018.18365
1569398018.19927
1569398018.2149
1569398018.23052
1569398018.24615
1569398018.26177
1569398018.2774
1569398018.29303
1569398018.30865
1569398018.32428
1569398018.3399
1569398018.35553
1569398018.37115
1569398018.38678
1569398018.40241
1569398018.41803
1569398018.43366
1569398018.44928
1569398018.46491
1569398018.48053
1569398018.49616
1569398018.51179
1569398018.52741
1569398018.54304
1569398018.55866
1569398018.57429
1569398018.58991
1569398018.60554
1569398018.62117
1569398018.63679
1569398018.65242
1569398018.66804
1569398018.68367
1569398018.69929
1569398018.71492
1569398018.73055
1569398018.74617
1569398018.7618
1569398018.77742
1569398018.79305
1569398018.80867
1569398018.8243
1569398018.83993
1569398018.85555
1569398018.87118
1569398018.8868
1569398018.90243
1569398018.91805
1569398018.93368
1569398018.94931
1569398018.96493
1569398018.98056
1569398018.99618
1569398019.01181
1569398019.02743
1569398019.04306
1569398019.05869
1569398019.07431
1569398019.08994
1569398019.10556
1569398019.12119
1569398019.13681
1569398019.15244
1569398019.16807
1569398019.18369
1569398019.19932
1569398019.21494
1569398019.23057
1569398019.2462
1569398019.26182
1569398019.27745
1569398019.29307
1569398019.3087
1569398019.32432
1569398019.33995
1569398019.35558
1569398019.3712
1569398019.38683
1569398019.40245
1569398019.41808
1569398019.4337
1569398019.44933
1569398019.46496
1569398019.48058
1569398019.49621
1569398019.51183
1569398019.52746
1569398019.54308
1569398019.55871
1569398019.57434
1569398019.58996
1569398019.60559
1569398019.62121
1569398019.63684
1569398019.65246
1569398019.66809
1569398019.68372
1569398019.69934
1569398019.71497
1569398019.73059
1569398019.74622
1569398019.76184
1569398019.77747
1569398019.7931
1569398019.80872
1569398019.82435
1569398019.83997
1569398019.8556
1569398019.87122
1569398019.88685
1569398019.90248
1569398019.9181
1569398019.93373
1569398019.94935
1569398019.96498
1569398019.9806
1569398019.99623
1569398020.01186
1569398020.02748
1569398020.04311
1569398020.05873
1569398020.07436
1569398020.08998
1569398020.10561
1569398020.12124
1569398020.13686
1569398020.15249
1569398020.16811
1569398020.18374
1569398020.19936
1569398020.21499
1569398020.23062
1569398020.24624
1569398020.26187
1569398020.27749
1569398020.29312
1569398020.30874
1569398020.32437
1569398020.34
1569398020.35562
1569398020.37125
1569398020.38687
1569398020.4025
1569398020.41812
1569398020.43375
1569398020.44938
1569398020.465
1569398020.48063
1569398020.49625
1569398020.51188
1569398020.5275
1569398020.54313
1569398020.55876
1569398020.57438
1569398020.59001
1569398020.60563
1569398020.62126
1569398020.63688
1569398020.65251
1569398020.66814
1569398020.68376
1569398020.69939
1569398020.71501
1569398020.73064
1569398020.74626
1569398020.76189
1569398020.77752
1569398020.79314
1569398020.80877
1569398020.82439
1569398020.84002
1569398020.85564
1569398020.87127
1569398020.8869
1569398020.90252
1569398020.91815
1569398020.93377
1569398020.9494
1569398020.96502
1569398020.98065
1569398020.99628
1569398021.0119
1569398021.02753
1569398021.04315
1569398021.05878
1569398021.0744
1569398021.09003
1569398021.10566
1569398021.12128
1569398021.13691
1569398021.15253
1569398021.16816
1569398021.18378
1569398021.19941
1569398021.21504
1569398021.23066
1569398021.24629
1569398021.26191
1569398021.27754
1569398021.29316
1569398021.30879
1569398021.32442
1569398021.34004
1569398021.35567
1569398021.37129
1569398021.38692
1569398021.40254
1569398021.41817
1569398021.4338
1569398021.44942
1569398021.46505
1569398021.48067
1569398021.4963
1569398021.51192
1569398021.52755
1569398021.54318
1569398021.5588
1569398021.57443
1569398021.59005
1569398021.60568
1569398021.6213
1569398021.63693
1569398021.65256
1569398021.66818
1569398021.68381
1569398021.69943
1569398021.71506
1569398021.73069
1569398021.74631
1569398021.76194
1569398021.77756
1569398021.79319
1569398021.80881
1569398021.82444
1569398021.84007
1569398021.85569
1569398021.87132
1569398021.88694
1569398021.90257
1569398021.91819
1569398021.93382
1569398021.94945
1569398021.96507
1569398021.9807
1569398021.99632
1569398022.01195
1569398022.02757
1569398022.0432
1569398022.05883
1569398022.07445
1569398022.09008
1569398022.1057
1569398022.12133
1569398022.13695
1569398022.15258
1569398022.16821
1569398022.18383
1569398022.19946
1569398022.21508
1569398022.23071
1569398022.24633
1569398022.26196
1569398022.27759
1569398022.29321
1569398022.30884
1569398022.32446
1569398022.34009
1569398022.35571
1569398022.37134
1569398022.38697
1569398022.40259
1569398022.41822
1569398022.43384
1569398022.44947
1569398022.46509
1569398022.48072
1569398022.49635
1569398022.51197
1569398022.5276
1569398022.54322
1569398022.55885
1569398022.57447
1569398022.5901
1569398022.60573
1569398022.62135
1569398022.63698
1569398022.6526
1569398022.66823
1569398022.68385
1569398022.69948
1569398022.71511
1569398022.73073
1569398022.74636
1569398022.76198
1569398022.77761
1569398022.79323
1569398022.80886
1569398022.82449
1569398022.84011
1569398022.85574
1569398022.87136
1569398022.88699
1569398022.90261
1569398022.91824
1569398022.93387
1569398022.94949
1569398022.96512
1569398022.98074
1569398022.99637
1569398023.01199
1569398023.02762
1569398023.04325
1569398023.05887
1569398023.0745
1569398023.09012
1569398023.10575
1569398023.12137
1569398023.137
1569398023.15263
1569398023.16825
1569398023.18388
1569398023.1995
1569398023.21513
1569398023.23075
1569398023.24638
1569398023.26201
1569398023.27763
1569398023.29326
1569398023.30888
1569398023.32451
1569398023.34013
1569398023.35576
1569398023.37139
1569398023.38701
1569398023.40264
1569398023.41826
1569398023.43389
1569398023.44951
1569398023.46514
1569398023.48077
1569398023.49639
1569398023.51202
1569398023.52764
1569398023.54327
1569398023.55889
1569398023.57452
1569398023.59015
1569398023.60577
1569398023.6214
1569398023.63702
1569398023.65265
1569398023.66827
1569398023.6839
1569398023.69953
1569398023.71515
1569398023.73078
1569398023.7464
1569398023.76203
1569398023.77765
1569398023.79328
1569398023.80891
1569398023.82453
1569398023.84016
1569398023.85578
1569398023.87141
1569398023.88703
1569398023.90266
1569398023.91829
1569398023.93391
1569398023.94954
1569398023.96516
1569398023.98079
1569398023.99641
1569398024.01204
1569398024.02767
1569398024.04329
1569398024.05892
1569398024.07454
1569398024.09017
1569398024.1058
1569398024.12142
1569398024.13705
1569398024.15267
1569398024.1683
1569398024.18392
1569398024.19955
1569398024.21518
1569398024.2308
1569398024.24643
1569398024.26205
1569398024.27768
1569398024.2933
1569398024.30893
1569398024.32456
1569398024.34018
1569398024.35581
1569398024.37143
1569398024.38706
1569398024.40268
1569398024.41831
1569398024.43394
1569398024.44956
1569398024.46519
1569398024.48081
1569398024.49644
1569398024.51206
1569398024.52769
1569398024.54332
1569398024.55894
1569398024.57457
1569398024.59019
1569398024.60582
1569398024.62144
1569398024.63707
1569398024.6527
1569398024.66832
1569398024.68395
1569398024.69957
1569398024.7152
1569398024.73082
1569398024.74645
1569398024.76208
1569398024.7777
1569398024.79333
1569398024.80895
1569398024.82458
1569398024.8402
1569398024.85583
1569398024.87146
1569398024.88708
1569398024.90271
1569398024.91833
1569398024.93396
1569398024.94958
1569398024.96521
1569398024.98084
1569398024.99646
1569398025.01209
1569398025.02771
1569398025.04334
1569398025.05896
1569398025.07459
1569398025.09022
1569398025.10584
1569398025.12147
1569398025.13709
1569398025.15272
1569398025.16834
1569398025.18397
1569398025.1996
1569398025.21522
1569398025.23085
1569398025.24647
1569398025.2621
1569398025.27772
1569398025.29335
1569398025.30898
1569398025.3246
1569398025.34023
1569398025.35585
1569398025.37148
1569398025.3871
1569398025.40273
1569398025.41836
1569398025.43398
1569398025.44961
1569398025.46523
1569398025.48086
1569398025.49648
1569398025.51211
1569398025.52774
1569398025.54336
1569398025.55899
1569398025.57461
1569398025.59024
1569398025.60586
1569398025.62149
1569398025.63712
1569398025.65274
1569398025.66837
1569398025.68399
1569398025.69962
1569398025.71524
1569398025.73087
1569398025.7465
1569398025.76212
1569398025.77775
1569398025.79337
1569398025.809
1569398025.82462
1569398025.84025
1569398025.85588
1569398025.8715
1569398025.88713
1569398025.90275
1569398025.91838
1569398025.934
1569398025.94963
1569398025.96526
1569398025.98088
1569398025.99651
1569398026.01213
1569398026.02776
1569398026.04338
1569398026.05901
1569398026.07464
1569398026.09026
1569398026.10589
1569398026.12151
1569398026.13714
1569398026.15276
1569398026.16839
1569398026.18402
1569398026.19964
1569398026.21527
1569398026.23089
1569398026.24652
1569398026.26215
1569398026.27777
1569398026.2934
1569398026.30902
1569398026.32465
1569398026.34027
1569398026.3559
1569398026.37153
1569398026.38715
1569398026.40278
1569398026.4184
1569398026.43403
1569398026.44965
1569398026.46528
1569398026.48091
1569398026.49653
1569398026.51216
1569398026.52778
1569398026.54341
1569398026.55903
1569398026.57466
1569398026.59029
1569398026.60591
1569398026.62154
1569398026.63716
1569398026.65279
1569398026.66841
1569398026.68404
1569398026.69967
1569398026.71529
1569398026.73092
1569398026.74654
1569398026.76217
1569398026.77779
1569398026.79342
1569398026.80905
1569398026.82467
1569398026.8403
1569398026.85592
1569398026.87155
1569398026.88717
1569398026.9028
1569398026.91843
1569398026.93405
1569398026.94968
1569398026.9653
1569398026.98093
1569398026.99655
1569398027.01218
1569398027.02781
1569398027.04343
1569398027.05906
1569398027.07468
1569398027.09031
1569398027.10593
1569398027.12156
1569398027.13719
1569398027.15281
1569398027.16844
1569398027.18406
1569398027.19969
1569398027.21531
1569398027.23094
1569398027.24657
1569398027.26219
1569398027.27782
1569398027.29344
1569398027.30907
1569398027.32469
1569398027.34032
1569398027.35595
1569398027.37157
1569398027.3872
1569398027.40282
1569398027.41845
1569398027.43407
1569398027.4497
1569398027.46533
1569398027.48095
1569398027.49658
1569398027.5122
1569398027.52783
1569398027.54345
1569398027.55908
1569398027.57471
1569398027.59033
1569398027.60596
1569398027.62158
1569398027.63721
1569398027.65283
1569398027.66846
1569398027.68409
1569398027.69971
1569398027.71534
1569398027.73096
1569398027.74659
1569398027.76221
1569398027.77784
1569398027.79347
1569398027.80909
1569398027.82472
1569398027.84034
1569398027.85597
1569398027.87159
1569398027.88722
1569398027.90285
1569398027.91847
1569398027.9341
1569398027.94972
1569398027.96535
1569398027.98097
1569398027.9966
1569398028.01223
1569398028.02785
1569398028.04348
1569398028.0591
1569398028.07473
1569398028.09035
1569398028.10598
1569398028.12161
1569398028.13723
1569398028.15286
1569398028.16848
1569398028.18411
1569398028.19973
1569398028.21536
1569398028.23099
1569398028.24661
1569398028.26224
1569398028.27786
1569398028.29349
1569398028.30911
1569398028.32474
1569398028.34037
1569398028.35599
1569398028.37162
1569398028.38724
1569398028.40287
1569398028.41849
1569398028.43412
1569398028.44975
1569398028.46537
1569398028.481
1569398028.49662
1569398028.51225
1569398028.52787
1569398028.5435
1569398028.55913
1569398028.57475
1569398028.59038
1569398028.606
1569398028.62163
1569398028.63725
1569398028.65288
1569398028.66851
1569398028.68413
1569398028.69976
1569398028.71538
1569398028.73101
1569398028.74663
1569398028.76226
1569398028.77789
1569398028.79351
1569398028.80914
1569398028.82476
1569398028.84039
1569398028.85601
1569398028.87164
1569398028.88727
1569398028.90289
1569398028.91852
1569398028.93414
1569398028.94977
1569398028.9654
1569398028.98102
1569398028.99665
1569398029.01227
1569398029.0279
1569398029.04352
1569398029.05915
1569398029.07478
1569398029.0904
1569398029.10603
1569398029.12165
1569398029.13728
1569398029.1529
1569398029.16853
1569398029.18416
1569398029.19978
1569398029.21541
1569398029.23103
1569398029.24666
1569398029.26228
1569398029.27791
1569398029.29354
1569398029.30916
1569398029.32479
1569398029.34041
1569398029.35604
1569398029.37166
1569398029.38729
1569398029.40292
1569398029.41854
1569398029.43417
1569398029.44979
1569398029.46542
1569398029.48104
1569398029.49667
1569398029.5123
1569398029.52792
1569398029.54355
1569398029.55917
1569398029.5748
1569398029.59042
1569398029.60605
1569398029.62168
1569398029.6373
1569398029.65293
1569398029.66855
1569398029.68418
1569398029.6998
1569398029.71543
1569398029.73106
1569398029.74668
1569398029.76231
1569398029.77793
1569398029.79356
1569398029.80918
1569398029.82481
1569398029.84044
1569398029.85606
1569398029.87169
1569398029.88731
1569398029.90294
1569398029.91856
1569398029.93419
1569398029.94982
1569398029.96544
1569398029.98107
1569398029.99669
1569398030.01232
1569398030.02794
1569398030.04357
1569398030.0592
1569398030.07482
1569398030.09045
1569398030.10607
1569398030.1217
1569398030.13732
1569398030.15295
1569398030.16858
1569398030.1842
1569398030.19983
1569398030.21545
1569398030.23108
1569398030.2467
1569398030.26233
1569398030.27796
1569398030.29358
1569398030.30921
1569398030.32483
1569398030.34046
1569398030.35608
1569398030.37171
1569398030.38734
1569398030.40296
1569398030.41859
1569398030.43421
1569398030.44984
1569398030.46546
1569398030.48109
1569398030.49672
1569398030.51234
1569398030.52797
1569398030.54359
1569398030.55922
1569398030.57484
1569398030.59047
1569398030.6061
1569398030.62172
1569398030.63735
1569398030.65297
1569398030.6686
1569398030.68422
1569398030.69985
1569398030.71548
1569398030.7311
1569398030.74673
1569398030.76235
1569398030.77798
1569398030.7936
1569398030.80923
1569398030.82486
1569398030.84048
1569398030.85611
1569398030.87173
1569398030.88736
1569398030.90298
1569398030.91861
1569398030.93424
1569398030.94986
1569398030.96549
1569398030.98111
1569398030.99674
1569398031.01236
1569398031.02799
1569398031.04362
1569398031.05924
1569398031.07487
1569398031.09049
1569398031.10612
1569398031.12175
1569398031.13737
1569398031.153
1569398031.16862
1569398031.18425
1569398031.19987
1569398031.2155
1569398031.23113
1569398031.24675
1569398031.26238
1569398031.278
1569398031.29363
1569398031.30925
1569398031.32488
1569398031.34051
1569398031.35613
1569398031.37176
1569398031.38738
1569398031.40301
1569398031.41863
1569398031.43426
1569398031.44989
1569398031.46551
1569398031.48114
1569398031.49676
1569398031.51239
1569398031.52801
1569398031.54364
1569398031.55927
1569398031.57489
1569398031.59052
1569398031.60614
1569398031.62177
1569398031.63739
1569398031.65302
1569398031.66865
1569398031.68427
1569398031.6999
1569398031.71552
1569398031.73115
1569398031.74677
1569398031.7624
1569398031.77803
1569398031.79365
1569398031.80928
1569398031.8249
1569398031.84053
1569398031.85615
1569398031.87178
1569398031.88741
1569398031.90303
1569398031.91866
1569398031.93428
1569398031.94991
1569398031.96553
1569398031.98116
1569398031.99679
1569398032.01241
1569398032.02804
1569398032.04366
1569398032.05929
1569398032.07491
1569398032.09054
1569398032.10617
1569398032.12179
1569398032.13742
1569398032.15304
1569398032.16867
1569398032.18429
1569398032.19992
1569398032.21555
1569398032.23117
1569398032.2468
1569398032.26242
1569398032.27805
1569398032.29367
1569398032.3093
1569398032.32493
1569398032.34055
1569398032.35618
1569398032.3718
1569398032.38743
1569398032.40305
1569398032.41868
1569398032.43431
1569398032.44993
1569398032.46556
1569398032.48118
1569398032.49681
1569398032.51243
1569398032.52806
1569398032.54369
1569398032.55931
1569398032.57494
1569398032.59056
1569398032.60619
1569398032.62181
1569398032.63744
1569398032.65307
1569398032.66869
1569398032.68432
1569398032.69994
1569398032.71557
1569398032.73119
1569398032.74682
1569398032.76245
1569398032.77807
1569398032.7937
1569398032.80932
1569398032.82495
1569398032.84057
1569398032.8562
1569398032.87183
1569398032.88745
1569398032.90308
1569398032.9187
1569398032.93433
1569398032.94995
1569398032.96558
1569398032.98121
1569398032.99683
1569398033.01246
1569398033.02808
1569398033.04371
1569398033.05933
1569398033.07496
1569398033.09059
1569398033.10621
1569398033.12184
1569398033.13746
1569398033.15309
1569398033.16871
1569398033.18434
1569398033.19997
1569398033.21559
1569398033.23122
1569398033.24684
1569398033.26247
1569398033.27809
1569398033.29372
1569398033.30935
1569398033.32497
1569398033.3406
1569398033.35622
1569398033.37185
1569398033.38748
1569398033.4031
1569398033.41873
1569398033.43435
1569398033.44998
1569398033.4656
1569398033.48123
1569398033.49686
1569398033.51248
1569398033.52811
1569398033.54373
1569398033.55936
1569398033.57498
1569398033.59061
1569398033.60624
1569398033.62186
1569398033.63749
1569398033.65311
1569398033.66874
1569398033.68436
1569398033.69999
1569398033.71562
1569398033.73124
1569398033.74687
1569398033.76249
1569398033.77812
1569398033.79374
1569398033.80937
1569398033.825
1569398033.84062
1569398033.85625
1569398033.87187
1569398033.8875
1569398033.90312
1569398033.91875
1569398033.93438
1569398033.95
1569398033.96563
1569398033.98125
1569398033.99688
1569398034.0125
1569398034.02813
1569398034.04376
1569398034.05938
1569398034.07501
1569398034.09063
1569398034.10626
1569398034.12188
1569398034.13751
1569398034.15314
1569398034.16876
1569398034.18439
1569398034.20001
1569398034.21564
1569398034.23126
1569398034.24689
1569398034.26252
1569398034.27814
1569398034.29377
1569398034.30939
1569398034.32502
1569398034.34064
1569398034.35627
1569398034.3719
1569398034.38752
1569398034.40315
1569398034.41877
1569398034.4344
1569398034.45002
1569398034.46565
1569398034.48128
1569398034.4969
1569398034.51253
1569398034.52815
1569398034.54378
1569398034.5594
1569398034.57503
1569398034.59066
1569398034.60628
1569398034.62191
1569398034.63753
1569398034.65316
1569398034.66878
1569398034.68441
1569398034.70004
1569398034.71566
1569398034.73129
1569398034.74691
1569398034.76254
1569398034.77816
1569398034.79379
1569398034.80942
1569398034.82504
1569398034.84067
1569398034.85629
1569398034.87192
1569398034.88754
1569398034.90317
1569398034.9188
1569398034.93442
1569398034.95005
1569398034.96567
1569398034.9813
1569398034.99692
1569398035.01255
1569398035.02818
1569398035.0438
1569398035.05943
1569398035.07505
1569398035.09068
1569398035.1063
1569398035.12193
1569398035.13756
1569398035.15318
1569398035.16881
1569398035.18443
1569398035.20006
1569398035.21568
1569398035.23131
1569398035.24694
1569398035.26256
1569398035.27819
1569398035.29381
1569398035.30944
1569398035.32506
1569398035.34069
1569398035.35632
1569398035.37194
1569398035.38757
1569398035.40319
1569398035.41882
1569398035.43444
1569398035.45007
1569398035.4657
1569398035.48132
1569398035.49695
1569398035.51257
1569398035.5282
1569398035.54382
1569398035.55945
1569398035.57508
1569398035.5907
1569398035.60633
1569398035.62195
1569398035.63758
1569398035.6532
1569398035.66883
1569398035.68446
1569398035.70008
1569398035.71571
1569398035.73133
1569398035.74696
1569398035.76258
1569398035.77821
1569398035.79384
1569398035.80946
1569398035.82509
1569398035.84071
1569398035.85634
1569398035.87196
1569398035.88759
1569398035.90322
1569398035.91884
1569398035.93447
1569398035.95009
1569398035.96572
1569398035.98134
1569398035.99697
1569398036.0126
1569398036.02822
1569398036.04385
1569398036.05947
1569398036.0751
1569398036.09073
1569398036.10635
1569398036.12198
1569398036.1376
1569398036.15323
1569398036.16885
1569398036.18448
1569398036.20011
1569398036.21573
1569398036.23136
1569398036.24698
1569398036.26261
1569398036.27823
1569398036.29386
1569398036.30949
1569398036.32511
1569398036.34074
1569398036.35636
1569398036.37199
1569398036.38761
1569398036.40324
1569398036.41887
1569398036.43449
1569398036.45012
1569398036.46574
1569398036.48137
1569398036.49699
1569398036.51262
1569398036.52825
1569398036.54387
1569398036.5595
1569398036.57512
1569398036.59075
1569398036.60637
1569398036.622
1569398036.63763
1569398036.65325
1569398036.66888
1569398036.6845
1569398036.70013
1569398036.71575
1569398036.73138
1569398036.74701
1569398036.76263
1569398036.77826
1569398036.79388
1569398036.80951
1569398036.82513
1569398036.84076
1569398036.85639
1569398036.87201
1569398036.88764
1569398036.90326
1569398036.91889
1569398036.93451
1569398036.95014
1569398036.96577
1569398036.98139
1569398036.99702
1569398037.01264
1569398037.02827
1569398037.04389
1569398037.05952
1569398037.07515
1569398037.09077
1569398037.1064
1569398037.12202
1569398037.13765
1569398037.15327
1569398037.1689
1569398037.18453
1569398037.20015
1569398037.21578
1569398037.2314
1569398037.24703
1569398037.26265
1569398037.27828
1569398037.29391
1569398037.30953
1569398037.32516
1569398037.34078
1569398037.35641
1569398037.37203
1569398037.38766
1569398037.40329
1569398037.41891
1569398037.43454
1569398037.45016
1569398037.46579
1569398037.48141
1569398037.49704
1569398037.51267
1569398037.52829
1569398037.54392
1569398037.55954
1569398037.57517
1569398037.59079
1569398037.60642
1569398037.62205
1569398037.63767
1569398037.6533
1569398037.66892
1569398037.68455
1569398037.70017
1569398037.7158
1569398037.73143
1569398037.74705
1569398037.76268
1569398037.7783
1569398037.79393
1569398037.80955
1569398037.82518
1569398037.84081
1569398037.85643
1569398037.87206
1569398037.88768
1569398037.90331
1569398037.91893
1569398037.93456
1569398037.95019
1569398037.96581
1569398037.98144
1569398037.99706
1569398038.01269
1569398038.02831
1569398038.04394
1569398038.05957
1569398038.07519
1569398038.09082
1569398038.10644
1569398038.12207
1569398038.13769
1569398038.15332
1569398038.16895
1569398038.18457
1569398038.2002
1569398038.21582
1569398038.23145
1569398038.24708
1569398038.2627
1569398038.27833
1569398038.29395
1569398038.30958
1569398038.3252
1569398038.34083
1569398038.35646
1569398038.37208
1569398038.38771
1569398038.40333
1569398038.41896
1569398038.43458
1569398038.45021
1569398038.46584
1569398038.48146
1569398038.49709
1569398038.51271
1569398038.52834
1569398038.54396
1569398038.55959
1569398038.57522
1569398038.59084
1569398038.60647
1569398038.62209
1569398038.63772
1569398038.65334
1569398038.66897
1569398038.6846
1569398038.70022
1569398038.71585
1569398038.73147
1569398038.7471
1569398038.76272
1569398038.77835
1569398038.79398
1569398038.8096
1569398038.82523
1569398038.84085
1569398038.85648
1569398038.8721
1569398038.88773
1569398038.90336
1569398038.91898
1569398038.93461
1569398038.95023
1569398038.96586
1569398038.98148
1569398038.99711
1569398039.01274
1569398039.02836
1569398039.04399
1569398039.05961
1569398039.07524
1569398039.09086
1569398039.10649
1569398039.12212
1569398039.13774
1569398039.15337
1569398039.16899
1569398039.18462
1569398039.20024
1569398039.21587
1569398039.2315
1569398039.24712
1569398039.26275
1569398039.27837
1569398039.294
1569398039.30962
1569398039.32525
1569398039.34088
1569398039.3565
1569398039.37213
1569398039.38775
1569398039.40338
1569398039.419
1569398039.43463
1569398039.45026
1569398039.46588
1569398039.48151
1569398039.49713
1569398039.51276
1569398039.52838
1569398039.54401
1569398039.55964
1569398039.57526
1569398039.59089
1569398039.60651
1569398039.62214
1569398039.63776
1569398039.65339
1569398039.66902
1569398039.68464
1569398039.70027
1569398039.71589
1569398039.73152
1569398039.74714
1569398039.76277
1569398039.7784
1569398039.79402
1569398039.80965
1569398039.82527
1569398039.8409
1569398039.85652
1569398039.87215
1569398039.88778
1569398039.9034
1569398039.91903
1569398039.93465
1569398039.95028
1569398039.9659
1569398039.98153
1569398039.99716
1569398040.01278
1569398040.02841
1569398040.04403
1569398040.05966
1569398040.07528
1569398040.09091
1569398040.10654
1569398040.12216
1569398040.13779
1569398040.15341
1569398040.16904
1569398040.18466
1569398040.20029
1569398040.21592
1569398040.23154
1569398040.24717
1569398040.26279
1569398040.27842
1569398040.29404
1569398040.30967
1569398040.3253
1569398040.34092
1569398040.35655
1569398040.37217
1569398040.3878
1569398040.40342
1569398040.41905
1569398040.43468
1569398040.4503
1569398040.46593
1569398040.48155
1569398040.49718
1569398040.5128
1569398040.52843
1569398040.54406
1569398040.55968
1569398040.57531
1569398040.59093
1569398040.60656
1569398040.62218
1569398040.63781
1569398040.65344
1569398040.66906
1569398040.68469
1569398040.70031
1569398040.71594
1569398040.73157
1569398040.74719
1569398040.76282
1569398040.77844
1569398040.79407
1569398040.80969
1569398040.82532
1569398040.84095
1569398040.85657
1569398040.8722
1569398040.88782
1569398040.90345
1569398040.91907
1569398040.9347
1569398040.95033
1569398040.96595
1569398040.98158
1569398040.9972
1569398041.01283
1569398041.02845
1569398041.04408
1569398041.05971
1569398041.07533
1569398041.09096
1569398041.10658
1569398041.12221
1569398041.13783
1569398041.15346
1569398041.16909
1569398041.18471
1569398041.20034
1569398041.21596
1569398041.23159
1569398041.24721
1569398041.26284
1569398041.27847
1569398041.29409
1569398041.30972
1569398041.32534
1569398041.34097
1569398041.35659
1569398041.37222
1569398041.38785
1569398041.40347
1569398041.4191
1569398041.43472
1569398041.45035
1569398041.46597
1569398041.4816
1569398041.49723
1569398041.51285
1569398041.52848
1569398041.5441
1569398041.55973
1569398041.57535
1569398041.59098
1569398041.60661
1569398041.62223
1569398041.63786
1569398041.65348
1569398041.66911
1569398041.68473
1569398041.70036
1569398041.71599
1569398041.73161
1569398041.74724
1569398041.76286
1569398041.77849
1569398041.79411
1569398041.80974
1569398041.82537
1569398041.84099
1569398041.85662
1569398041.87224
1569398041.88787
1569398041.90349
1569398041.91912
1569398041.93475
1569398041.95037
1569398041.966
1569398041.98162
1569398041.99725
1569398042.01287
1569398042.0285
1569398042.04413
1569398042.05975
1569398042.07538
1569398042.091
1569398042.10663
1569398042.12225
1569398042.13788
1569398042.15351
1569398042.16913
1569398042.18476
1569398042.20038
1569398042.21601
1569398042.23163
1569398042.24726
1569398042.26289
1569398042.27851
1569398042.29414
1569398042.30976
1569398042.32539
1569398042.34101
1569398042.35664
1569398042.37227
1569398042.38789
1569398042.40352
1569398042.41914
1569398042.43477
1569398042.45039
1569398042.46602
1569398042.48165
1569398042.49727
1569398042.5129
1569398042.52852
1569398042.54415
1569398042.55977
1569398042.5754
1569398042.59103
1569398042.60665
1569398042.62228
1569398042.6379
1569398042.65353
1569398042.66915
1569398042.68478
1569398042.70041
1569398042.71603
1569398042.73166
1569398042.74728
1569398042.76291
1569398042.77853
1569398042.79416
1569398042.80979
1569398042.82541
1569398042.84104
1569398042.85666
1569398042.87229
1569398042.88791
1569398042.90354
1569398042.91917
1569398042.93479
1569398042.95042
1569398042.96604
1569398042.98167
1569398042.99729
1569398043.01292
1569398043.02855
1569398043.04417
1569398043.0598
1569398043.07542
1569398043.09105
1569398043.10668
1569398043.1223
1569398043.13793
1569398043.15355
1569398043.16918
1569398043.1848
1569398043.20043
1569398043.21606
1569398043.23168
1569398043.24731
1569398043.26293
1569398043.27856
1569398043.29418
1569398043.30981
1569398043.32544
1569398043.34106
1569398043.35669
1569398043.37231
1569398043.38794
1569398043.40356
1569398043.41919
1569398043.43482
1569398043.45044
1569398043.46607
1569398043.48169
1569398043.49732
1569398043.51294
1569398043.52857
1569398043.5442
1569398043.55982
1569398043.57545
1569398043.59107
1569398043.6067
1569398043.62232
1569398043.63795
1569398043.65358
1569398043.6692
1569398043.68483
1569398043.70045
1569398043.71608
1569398043.7317
1569398043.74733
1569398043.76296
1569398043.77858
1569398043.79421
1569398043.80983
1569398043.82546
1569398043.84108
1569398043.85671
1569398043.87234
1569398043.88796
1569398043.90359
1569398043.91921
1569398043.93484
1569398043.95046
1569398043.96609
1569398043.98172
1569398043.99734
1569398044.01297
1569398044.02859
1569398044.04422
1569398044.05984
1569398044.07547
1569398044.0911
1569398044.10672
1569398044.12235
1569398044.13797
1569398044.1536
1569398044.16922
1569398044.18485
1569398044.20048
1569398044.2161
1569398044.23173
1569398044.24735
1569398044.26298
1569398044.2786
1569398044.29423
1569398044.30986
1569398044.32548
1569398044.34111
1569398044.35673
1569398044.37236
1569398044.38798
1569398044.40361
1569398044.41924
1569398044.43486
1569398044.45049
1569398044.46611
1569398044.48174
1569398044.49736
1569398044.51299
1569398044.52862
1569398044.54424
1569398044.55987
1569398044.57549
1569398044.59112
1569398044.60674
1569398044.62237
1569398044.638
1569398044.65362
1569398044.66925
1569398044.68487
1569398044.7005
1569398044.71612
1569398044.73175
1569398044.74738
1569398044.763
1569398044.77863
1569398044.79425
1569398044.80988
1569398044.8255
1569398044.84113
1569398044.85676
1569398044.87238
1569398044.88801
1569398044.90363
1569398044.91926
1569398044.93488
1569398044.95051
1569398044.96614
1569398044.98176
1569398044.99739
1569398045.01301
1569398045.02864
1569398045.04426
1569398045.05989
1569398045.07552
1569398045.09114
1569398045.10677
1569398045.12239
1569398045.13802
1569398045.15364
1569398045.16927
1569398045.1849
1569398045.20052
1569398045.21615
1569398045.23177
1569398045.2474
1569398045.26302
1569398045.27865
1569398045.29428
1569398045.3099
1569398045.32553
1569398045.34115
1569398045.35678
1569398045.37241
1569398045.38803
1569398045.40366
1569398045.41928
1569398045.43491
1569398045.45053
1569398045.46616
1569398045.48179
1569398045.49741
1569398045.51304
1569398045.52866
1569398045.54429
1569398045.55991
1569398045.57554
1569398045.59117
1569398045.60679
1569398045.62242
1569398045.63804
1569398045.65367
1569398045.66929
1569398045.68492
1569398045.70055
1569398045.71617
1569398045.7318
1569398045.74742
1569398045.76305
1569398045.77867
1569398045.7943
1569398045.80993
1569398045.82555
1569398045.84118
1569398045.8568
1569398045.87243
1569398045.88805
1569398045.90368
1569398045.91931
1569398045.93493
1569398045.95056
1569398045.96618
1569398045.98181
1569398045.99743
1569398046.01306
1569398046.02869
1569398046.04431
1569398046.05994
1569398046.07556
1569398046.09119
1569398046.10681
1569398046.12244
1569398046.13807
1569398046.15369
1569398046.16932
1569398046.18494
1569398046.20057
1569398046.21619
1569398046.23182
1569398046.24745
1569398046.26307
1569398046.2787
1569398046.29432
1569398046.30995
1569398046.32557
1569398046.3412
1569398046.35683
1569398046.37245
1569398046.38808
1569398046.4037
1569398046.41933
1569398046.43495
1569398046.45058
1569398046.46621
1569398046.48183
1569398046.49746
1569398046.51308
1569398046.52871
1569398046.54433
1569398046.55996
1569398046.57559
1569398046.59121
1569398046.60684
1569398046.62246
1569398046.63809
1569398046.65371
1569398046.66934
1569398046.68497
1569398046.70059
1569398046.71622
1569398046.73184
1569398046.74747
1569398046.76309
1569398046.77872
1569398046.79435
1569398046.80997
1569398046.8256
1569398046.84122
1569398046.85685
1569398046.87247
1569398046.8881
1569398046.90373
1569398046.91935
1569398046.93498
1569398046.9506
1569398046.96623
1569398046.98185
1569398046.99748
1569398047.01311
1569398047.02873
1569398047.04436
1569398047.05998
1569398047.07561
1569398047.09123
1569398047.10686
1569398047.12249
1569398047.13811
1569398047.15374
1569398047.16936
1569398047.18499
1569398047.20061
1569398047.21624
1569398047.23187
1569398047.24749
1569398047.26312
1569398047.27874
1569398047.29437
1569398047.30999
1569398047.32562
1569398047.34125
1569398047.35687
1569398047.3725
1569398047.38812
1569398047.40375
1569398047.41937
1569398047.435
1569398047.45063
1569398047.46625
1569398047.48188
1569398047.4975
1569398047.51313
1569398047.52875
1569398047.54438
1569398047.56001
1569398047.57563
1569398047.59126
1569398047.60688
1569398047.62251
1569398047.63813
1569398047.65376
1569398047.66939
1569398047.68501
1569398047.70064
1569398047.71626
1569398047.73189
1569398047.74751
1569398047.76314
1569398047.77877
1569398047.79439
1569398047.81002
1569398047.82564
1569398047.84127
1569398047.85689
1569398047.87252
1569398047.88815
1569398047.90377
1569398047.9194
1569398047.93502
1569398047.95065
1569398047.96628
1569398047.9819
1569398047.99753
1569398048.01315
1569398048.02878
1569398048.0444
1569398048.06003
1569398048.07566
1569398048.09128
1569398048.10691
1569398048.12253
1569398048.13816
1569398048.15378
1569398048.16941
1569398048.18504
1569398048.20066
1569398048.21629
1569398048.23191
1569398048.24754
1569398048.26316
1569398048.27879
1569398048.29442
1569398048.31004
1569398048.32567
1569398048.34129
1569398048.35692
1569398048.37254
1569398048.38817
1569398048.4038
1569398048.41942
1569398048.43505
1569398048.45067
1569398048.4663
1569398048.48192
1569398048.49755
1569398048.51318
1569398048.5288
1569398048.54443
1569398048.56005
1569398048.57568
1569398048.5913
1569398048.60693
1569398048.62256
1569398048.63818
1569398048.65381
1569398048.66943
1569398048.68506
1569398048.70068
1569398048.71631
1569398048.73194
1569398048.74756
1569398048.76319
1569398048.77881
1569398048.79444
1569398048.81006
1569398048.82569
1569398048.84132
1569398048.85694
1569398048.87257
1569398048.88819
1569398048.90382
1569398048.91944
1569398048.93507
1569398048.9507
1569398048.96632
1569398048.98195
1569398048.99757
1569398049.0132
1569398049.02882
1569398049.04445
1569398049.06008
1569398049.0757
1569398049.09133
1569398049.10695
1569398049.12258
1569398049.1382
1569398049.15383
1569398049.16946
1569398049.18508
1569398049.20071
1569398049.21633
1569398049.23196
1569398049.24758
1569398049.26321
1569398049.27884
1569398049.29446
1569398049.31009
1569398049.32571
1569398049.34134
1569398049.35696
1569398049.37259
1569398049.38822
1569398049.40384
1569398049.41947
1569398049.43509
1569398049.45072
1569398049.46634
1569398049.48197
1569398049.4976
1569398049.51322
1569398049.52885
1569398049.54447
1569398049.5601
1569398049.57572
1569398049.59135
1569398049.60698
1569398049.6226
1569398049.63823
1569398049.65385
1569398049.66948
1569398049.6851
1569398049.70073
1569398049.71636
1569398049.73198
1569398049.74761
1569398049.76323
1569398049.77886
1569398049.79448
1569398049.81011
1569398049.82574
1569398049.84136
1569398049.85699
1569398049.87261
1569398049.88824
1569398049.90386
1569398049.91949
1569398049.93512
1569398049.95074
1569398049.96637
1569398049.98199
1569398049.99762
1569398050.01324
1569398050.02887
1569398050.0445
1569398050.06012
1569398050.07575
1569398050.09137
1569398050.107
1569398050.12262
1569398050.13825
1569398050.15388
1569398050.1695
1569398050.18513
1569398050.20075
1569398050.21638
1569398050.23201
1569398050.24763
1569398050.26326
1569398050.27888
1569398050.29451
1569398050.31013
1569398050.32576
1569398050.34139
1569398050.35701
1569398050.37264
1569398050.38826
1569398050.40389
1569398050.41951
1569398050.43514
1569398050.45077
1569398050.46639
1569398050.48202
1569398050.49764
1569398050.51327
1569398050.52889
1569398050.54452
1569398050.56015
1569398050.57577
1569398050.5914
1569398050.60702
1569398050.62265
1569398050.63827
1569398050.6539
1569398050.66953
1569398050.68515
1569398050.70078
1569398050.7164
1569398050.73203
1569398050.74765
1569398050.76328
1569398050.77891
1569398050.79453
1569398050.81016
1569398050.82578
1569398050.84141
1569398050.85703
1569398050.87266
1569398050.88829
1569398050.90391
1569398050.91954
1569398050.93516
1569398050.95079
1569398050.96641
1569398050.98204
1569398050.99767
1569398051.01329
1569398051.02892
1569398051.04454
1569398051.06017
1569398051.07579
1569398051.09142
1569398051.10705
1569398051.12267
1569398051.1383
1569398051.15392
1569398051.16955
1569398051.18517
1569398051.2008
1569398051.21643
1569398051.23205
1569398051.24768
1569398051.2633
1569398051.27893
1569398051.29455
1569398051.31018
1569398051.32581
1569398051.34143
1569398051.35706
1569398051.37268
1569398051.38831
1569398051.40393
1569398051.41956
1569398051.43519
1569398051.45081
1569398051.46644
1569398051.48206
1569398051.49769
1569398051.51331
1569398051.52894
1569398051.54457
1569398051.56019
1569398051.57582
1569398051.59144
1569398051.60707
1569398051.62269
1569398051.63832
1569398051.65395
1569398051.66957
1569398051.6852
1569398051.70082
1569398051.71645
1569398051.73207
1569398051.7477
1569398051.76333
1569398051.77895
1569398051.79458
1569398051.8102
1569398051.82583
1569398051.84145
1569398051.85708
1569398051.87271
1569398051.88833
1569398051.90396
1569398051.91958
1569398051.93521
1569398051.95083
1569398051.96646
1569398051.98209
1569398051.99771
1569398052.01334
1569398052.02896
1569398052.04459
1569398052.06021
1569398052.07584
1569398052.09147
1569398052.10709
1569398052.12272
1569398052.13834
1569398052.15397
1569398052.16959
1569398052.18522
1569398052.20085
1569398052.21647
1569398052.2321
1569398052.24772
1569398052.26335
1569398052.27897
1569398052.2946
1569398052.31023
1569398052.32585
1569398052.34148
1569398052.3571
1569398052.37273
1569398052.38836
1569398052.40398
1569398052.41961
1569398052.43523
1569398052.45086
1569398052.46648
1569398052.48211
1569398052.49774
1569398052.51336
1569398052.52899
1569398052.54461
1569398052.56024
1569398052.57586
1569398052.59149
1569398052.60712
1569398052.62274
1569398052.63837
1569398052.65399
1569398052.66962
1569398052.68524
1569398052.70087
1569398052.7165
1569398052.73212
1569398052.74775
1569398052.76337
1569398052.779
1569398052.79462
1569398052.81025
1569398052.82588
1569398052.8415
1569398052.85713
1569398052.87275
1569398052.88838
1569398052.904
1569398052.91963
1569398052.93526
1569398052.95088
1569398052.96651
1569398052.98213
1569398052.99776
1569398053.01338
1569398053.02901
1569398053.04464
1569398053.06026
1569398053.07589
1569398053.09151
1569398053.10714
1569398053.12276
1569398053.13839
1569398053.15402
1569398053.16964
1569398053.18527
1569398053.20089
1569398053.21652
1569398053.23214
1569398053.24777
1569398053.2634
1569398053.27902
1569398053.29465
1569398053.31027
1569398053.3259
1569398053.34152
1569398053.35715
1569398053.37278
1569398053.3884
1569398053.40403
1569398053.41965
1569398053.43528
1569398053.4509
1569398053.46653
1569398053.48216
1569398053.49778
1569398053.51341
1569398053.52903
1569398053.54466
1569398053.56028
1569398053.57591
1569398053.59154
1569398053.60716
1569398053.62279
1569398053.63841
1569398053.65404
1569398053.66966
1569398053.68529
1569398053.70092
1569398053.71654
1569398053.73217
1569398053.74779
1569398053.76342
1569398053.77904
1569398053.79467
1569398053.8103
1569398053.82592
1569398053.84155
1569398053.85717
1569398053.8728
1569398053.88842
1569398053.90405
1569398053.91968
1569398053.9353
1569398053.95093
1569398053.96655
1569398053.98218
1569398053.9978
1569398054.01343
1569398054.02906
1569398054.04468
1569398054.06031
1569398054.07593
1569398054.09156
1569398054.10718
1569398054.12281
1569398054.13844
1569398054.15406
1569398054.16969
1569398054.18531
1569398054.20094
1569398054.21656
1569398054.23219
1569398054.24782
1569398054.26344
1569398054.27907
1569398054.29469
1569398054.31032
1569398054.32594
1569398054.34157
1569398054.3572
1569398054.37282
1569398054.38845
1569398054.40407
1569398054.4197
1569398054.43532
1569398054.45095
1569398054.46658
1569398054.4822
1569398054.49783
1569398054.51345
1569398054.52908
1569398054.5447
1569398054.56033
1569398054.57596
1569398054.59158
1569398054.60721
1569398054.62283
1569398054.63846
1569398054.65408
1569398054.66971
1569398054.68534
1569398054.70096
1569398054.71659
1569398054.73221
1569398054.74784
1569398054.76346
1569398054.77909
1569398054.79472
1569398054.81034
1569398054.82597
1569398054.84159
1569398054.85722
1569398054.87284
1569398054.88847
1569398054.9041
1569398054.91972
1569398054.93535
1569398054.95097
1569398054.9666
1569398054.98222
1569398054.99785
1569398055.01348
1569398055.0291
1569398055.04473
1569398055.06035
1569398055.07598
1569398055.09161
1569398055.10723
1569398055.12286
1569398055.13848
1569398055.15411
1569398055.16973
1569398055.18536
1569398055.20099
1569398055.21661
1569398055.23224
1569398055.24786
1569398055.26349
1569398055.27911
1569398055.29474
1569398055.31037
1569398055.32599
1569398055.34162
1569398055.35724
1569398055.37287
1569398055.38849
1569398055.40412
1569398055.41975
1569398055.43537
1569398055.451
1569398055.46662
1569398055.48225
1569398055.49787
1569398055.5135
1569398055.52913
1569398055.54475
1569398055.56038
1569398055.576
1569398055.59163
1569398055.60725
1569398055.62288
1569398055.63851
1569398055.65413
1569398055.66976
1569398055.68538
1569398055.70101
1569398055.71663
1569398055.73226
1569398055.74789
1569398055.76351
1569398055.77914
1569398055.79476
1569398055.81039
1569398055.82601
1569398055.84164
1569398055.85727
1569398055.87289
1569398055.88852
1569398055.90414
1569398055.91977
1569398055.93539
1569398055.95102
1569398055.96665
1569398055.98227
1569398055.9979
1569398056.01352
1569398056.02915
1569398056.04477
1569398056.0604
1569398056.07603
1569398056.09165
1569398056.10728
1569398056.1229
1569398056.13853
1569398056.15415
1569398056.16978
1569398056.18541
1569398056.20103
1569398056.21666
1569398056.23228
1569398056.24791
1569398056.26353
1569398056.27916
1569398056.29479
1569398056.31041
1569398056.32604
1569398056.34166
1569398056.35729
1569398056.37291
1569398056.38854
1569398056.40417
1569398056.41979
1569398056.43542
1569398056.45104
1569398056.46667
1569398056.48229
1569398056.49792
1569398056.51355
1569398056.52917
1569398056.5448
1569398056.56042
1569398056.57605
1569398056.59167
1569398056.6073
1569398056.62293
1569398056.63855
1569398056.65418
1569398056.6698
1569398056.68543
1569398056.70105
1569398056.71668
1569398056.73231
1569398056.74793
1569398056.76356
1569398056.77918
1569398056.79481
1569398056.81043
1569398056.82606
1569398056.84169
1569398056.85731
1569398056.87294
1569398056.88856
1569398056.90419
1569398056.91981
1569398056.93544
1569398056.95107
1569398056.96669
1569398056.98232
1569398056.99794
1569398057.01357
1569398057.02919
1569398057.04482
1569398057.06045
1569398057.07607
1569398057.0917
1569398057.10732
1569398057.12295
1569398057.13857
1569398057.1542
1569398057.16983
1569398057.18545
1569398057.20108
1569398057.2167
1569398057.23233
1569398057.24796
1569398057.26358
1569398057.27921
1569398057.29483
1569398057.31046
1569398057.32608
1569398057.34171
1569398057.35734
1569398057.37296
1569398057.38859
1569398057.40421
1569398057.41984
1569398057.43546
1569398057.45109
1569398057.46672
1569398057.48234
1569398057.49797
1569398057.51359
1569398057.52922
1569398057.54484
1569398057.56047
1569398057.5761
1569398057.59172
1569398057.60735
1569398057.62297
1569398057.6386
1569398057.65422
1569398057.66985
1569398057.68548
1569398057.7011
1569398057.71673
1569398057.73235
1569398057.74798
1569398057.7636
1569398057.77923
1569398057.79486
1569398057.81048
1569398057.82611
1569398057.84173
1569398057.85736
1569398057.87298
1569398057.88861
1569398057.90424
1569398057.91986
1569398057.93549
1569398057.95111
1569398057.96674
1569398057.98236
1569398057.99799
1569398058.01362
1569398058.02924
1569398058.04487
1569398058.06049
1569398058.07612
1569398058.09174
1569398058.10737
1569398058.123
1569398058.13862
1569398058.15425
1569398058.16987
1569398058.1855
1569398058.20112
1569398058.21675
1569398058.23238
1569398058.248
1569398058.26363
1569398058.27925
1569398058.29488
1569398058.3105
1569398058.32613
1569398058.34176
1569398058.35738
1569398058.37301
1569398058.38863
1569398058.40426
1569398058.41988
1569398058.43551
1569398058.45114
1569398058.46676
1569398058.48239
1569398058.49801
1569398058.51364
1569398058.52926
1569398058.54489
1569398058.56052
1569398058.57614
1569398058.59177
1569398058.60739
1569398058.62302
1569398058.63864
1569398058.65427
1569398058.6699
1569398058.68552
1569398058.70115
1569398058.71677
1569398058.7324
1569398058.74802
1569398058.76365
1569398058.77928
1569398058.7949
1569398058.81053
1569398058.82615
1569398058.84178
1569398058.8574
1569398058.87303
1569398058.88866
1569398058.90428
1569398058.91991
1569398058.93553
1569398058.95116
1569398058.96678
1569398058.98241
1569398058.99804
1569398059.01366
1569398059.02929
1569398059.04491
1569398059.06054
1569398059.07616
1569398059.09179
1569398059.10742
1569398059.12304
1569398059.13867
1569398059.15429
1569398059.16992
1569398059.18554
1569398059.20117
1569398059.2168
1569398059.23242
1569398059.24805
1569398059.26367
1569398059.2793
1569398059.29492
1569398059.31055
1569398059.32618
1569398059.3418
1569398059.35743
1569398059.37305
1569398059.38868
1569398059.4043
1569398059.41993
1569398059.43556
1569398059.45118
1569398059.46681
1569398059.48243
1569398059.49806
1569398059.51368
1569398059.52931
1569398059.54494
1569398059.56056
1569398059.57619
1569398059.59181
1569398059.60744
1569398059.62306
1569398059.63869
1569398059.65432
1569398059.66994
1569398059.68557
1569398059.70119
1569398059.71682
1569398059.73245
1569398059.74807
1569398059.7637
1569398059.77932
1569398059.79495
1569398059.81057
1569398059.8262
1569398059.84183
1569398059.85745
1569398059.87308
1569398059.8887
1569398059.90433
1569398059.91995
1569398059.93558
1569398059.95121
1569398059.96683
1569398059.98246
1569398059.99808
1569398060.01371
1569398060.02933
1569398060.04496
1569398060.06059
1569398060.07621
1569398060.09184
1569398060.10746
1569398060.12309
1569398060.13871
1569398060.15434
1569398060.16997
1569398060.18559
1569398060.20122
1569398060.21684
1569398060.23247
1569398060.24809
1569398060.26372
1569398060.27935
1569398060.29497
1569398060.3106
1569398060.32622
1569398060.34185
1569398060.35747
1569398060.3731
1569398060.38873
1569398060.40435
1569398060.41998
1569398060.4356
1569398060.45123
1569398060.46685
1569398060.48248
1569398060.49811
1569398060.51373
1569398060.52936
1569398060.54498
1569398060.56061
1569398060.57623
1569398060.59186
1569398060.60749
1569398060.62311
1569398060.63874
1569398060.65436
1569398060.66999
1569398060.68561
1569398060.70124
1569398060.71687
1569398060.73249
1569398060.74812
1569398060.76374
1569398060.77937
1569398060.79499
1569398060.81062
1569398060.82625
1569398060.84187
1569398060.8575
1569398060.87312
1569398060.88875
1569398060.90437
1569398060.92
1569398060.93563
1569398060.95125
1569398060.96688
1569398060.9825
1569398060.99813
1569398061.01375
1569398061.02938
1569398061.04501
1569398061.06063
1569398061.07626
1569398061.09188
1569398061.10751
1569398061.12313
1569398061.13876
1569398061.15439
1569398061.17001
1569398061.18564
1569398061.20126
1569398061.21689
1569398061.23251
1569398061.24814
1569398061.26377
1569398061.27939
1569398061.29502
1569398061.31064
1569398061.32627
1569398061.34189
1569398061.35752
1569398061.37315
1569398061.38877
1569398061.4044
1569398061.42002
1569398061.43565
1569398061.45127
1569398061.4669
1569398061.48253
1569398061.49815
1569398061.51378
1569398061.5294
1569398061.54503
1569398061.56065
1569398061.57628
1569398061.59191
1569398061.60753
1569398061.62316
1569398061.63878
1569398061.65441
1569398061.67003
1569398061.68566
1569398061.70129
1569398061.71691
1569398061.73254
1569398061.74816
1569398061.76379
1569398061.77941
1569398061.79504
1569398061.81067
1569398061.82629
1569398061.84192
1569398061.85754
1569398061.87317
1569398061.88879
1569398061.90442
1569398061.92005
1569398061.93567
1569398061.9513
1569398061.96692
1569398061.98255
1569398061.99817
1569398062.0138
1569398062.02943
1569398062.04505
1569398062.06068
1569398062.0763
1569398062.09193
1569398062.10756
1569398062.12318
1569398062.13881
1569398062.15443
1569398062.17006
1569398062.18568
1569398062.20131
1569398062.21694
1569398062.23256
1569398062.24819
1569398062.26381
1569398062.27944
1569398062.29506
1569398062.31069
1569398062.32632
1569398062.34194
1569398062.35757
1569398062.37319
1569398062.38882
1569398062.40444
1569398062.42007
1569398062.4357
1569398062.45132
1569398062.46695
1569398062.48257
1569398062.4982
1569398062.51382
1569398062.52945
1569398062.54508
1569398062.5607
1569398062.57633
1569398062.59195
1569398062.60758
1569398062.6232
1569398062.63883
1569398062.65446
1569398062.67008
1569398062.68571
1569398062.70133
1569398062.71696
1569398062.73258
1569398062.74821
1569398062.76384
1569398062.77946
1569398062.79509
1569398062.81071
1569398062.82634
1569398062.84196
1569398062.85759
1569398062.87322
1569398062.88884
1569398062.90447
1569398062.92009
1569398062.93572
1569398062.95134
1569398062.96697
1569398062.9826
1569398062.99822
1569398063.01385
1569398063.02947
1569398063.0451
1569398063.06072
1569398063.07635
1569398063.09198
1569398063.1076
1569398063.12323
1569398063.13885
1569398063.15448
1569398063.1701
1569398063.18573
1569398063.20136
1569398063.21698
1569398063.23261
1569398063.24823
1569398063.26386
1569398063.27948
1569398063.29511
1569398063.31074
1569398063.32636
1569398063.34199
1569398063.35761
1569398063.37324
1569398063.38886
1569398063.40449
1569398063.42012
1569398063.43574
1569398063.45137
1569398063.46699
1569398063.48262
1569398063.49824
1569398063.51387
1569398063.5295
1569398063.54512
1569398063.56075
1569398063.57637
1569398063.592
1569398063.60762
1569398063.62325
1569398063.63888
1569398063.6545
1569398063.67013
1569398063.68575
1569398063.70138
1569398063.717
1569398063.73263
1569398063.74826
1569398063.76388
1569398063.77951
1569398063.79513
1569398063.81076
1569398063.82638
1569398063.84201
1569398063.85764
1569398063.87326
1569398063.88889
1569398063.90451
1569398063.92014
1569398063.93576
1569398063.95139
1569398063.96702
1569398063.98264
1569398063.99827
1569398064.01389
1569398064.02952
1569398064.04514
1569398064.06077
1569398064.0764
1569398064.09202
1569398064.10765
1569398064.12327
1569398064.1389
1569398064.15452
1569398064.17015
1569398064.18578
1569398064.2014
1569398064.21703
1569398064.23265
1569398064.24828
1569398064.2639
1569398064.27953
1569398064.29516
1569398064.31078
1569398064.32641
1569398064.34203
1569398064.35766
1569398064.37329
1569398064.38891
1569398064.40454
1569398064.42016
1569398064.43579
1569398064.45141
1569398064.46704
1569398064.48267
1569398064.49829
1569398064.51392
1569398064.52954
1569398064.54517
1569398064.56079
1569398064.57642
1569398064.59205
1569398064.60767
1569398064.6233
1569398064.63892
1569398064.65455
1569398064.67017
1569398064.6858
1569398064.70143
1569398064.71705
1569398064.73268
1569398064.7483
1569398064.76393
1569398064.77955
1569398064.79518
1569398064.81081
1569398064.82643
1569398064.84206
1569398064.85768
1569398064.87331
1569398064.88893
1569398064.90456
1569398064.92019
1569398064.93581
1569398064.95144
1569398064.96706
1569398064.98269
1569398064.99831
1569398065.01394
1569398065.02957
1569398065.04519
1569398065.06082
1569398065.07644
1569398065.09207
1569398065.10769
1569398065.12332
1569398065.13895
1569398065.15457
1569398065.1702
1569398065.18582
1569398065.20145
1569398065.21707
1569398065.2327
1569398065.24833
1569398065.26395
1569398065.27958
1569398065.2952
1569398065.31083
1569398065.32645
1569398065.34208
1569398065.35771
1569398065.37333
1569398065.38896
1569398065.40458
1569398065.42021
1569398065.43583
1569398065.45146
1569398065.46709
1569398065.48271
1569398065.49834
1569398065.51396
1569398065.52959
1569398065.54521
1569398065.56084
1569398065.57647
1569398065.59209
1569398065.60772
1569398065.62334
1569398065.63897
1569398065.65459
1569398065.67022
1569398065.68585
1569398065.70147
1569398065.7171
1569398065.73272
1569398065.74835
1569398065.76397
1569398065.7796
1569398065.79523
1569398065.81085
1569398065.82648
1569398065.8421
1569398065.85773
1569398065.87335
1569398065.88898
1569398065.90461
1569398065.92023
1569398065.93586
1569398065.95148
1569398065.96711
1569398065.98273
1569398065.99836
1569398066.01399
1569398066.02961
1569398066.04524
1569398066.06086
1569398066.07649
1569398066.09211
1569398066.10774
1569398066.12337
1569398066.13899
1569398066.15462
1569398066.17024
1569398066.18587
1569398066.20149
1569398066.21712
1569398066.23275
1569398066.24837
1569398066.264
1569398066.27962
1569398066.29525
1569398066.31087
1569398066.3265
1569398066.34213
1569398066.35775
1569398066.37338
1569398066.389
1569398066.40463
1569398066.42025
1569398066.43588
1569398066.45151
1569398066.46713
1569398066.48276
1569398066.49838
1569398066.51401
1569398066.52963
1569398066.54526
1569398066.56089
1569398066.57651
1569398066.59214
1569398066.60776
1569398066.62339
1569398066.63901
1569398066.65464
1569398066.67027
1569398066.68589
1569398066.70152
1569398066.71714
1569398066.73277
1569398066.74839
1569398066.76402
1569398066.77965
1569398066.79527
1569398066.8109
1569398066.82652
1569398066.84215
1569398066.85777
1569398066.8734
1569398066.88903
1569398066.90465
1569398066.92028
1569398066.9359
1569398066.95153
1569398066.96715
1569398066.98278
1569398066.99841
1569398067.01403
1569398067.02966
1569398067.04528
1569398067.06091
1569398067.07654
1569398067.09216
1569398067.10779
1569398067.12341
1569398067.13904
1569398067.15466
1569398067.17029
1569398067.18592
1569398067.20154
1569398067.21717
1569398067.23279
1569398067.24842
1569398067.26404
1569398067.27967
1569398067.2953
1569398067.31092
1569398067.32655
1569398067.34217
1569398067.3578
1569398067.37342
1569398067.38905
1569398067.40468
1569398067.4203
1569398067.43593
1569398067.45155
1569398067.46718
1569398067.4828
1569398067.49843
1569398067.51406
1569398067.52968
1569398067.54531
1569398067.56093
1569398067.57656
1569398067.59218
1569398067.60781
1569398067.62344
1569398067.63906
1569398067.65469
1569398067.67031
1569398067.68594
1569398067.70156
1569398067.71719
1569398067.73282
1569398067.74844
1569398067.76407
1569398067.77969
1569398067.79532
1569398067.81094
1569398067.82657
1569398067.8422
1569398067.85782
1569398067.87345
1569398067.88907
1569398067.9047
1569398067.92032
1569398067.93595
1569398067.95158
1569398067.9672
1569398067.98283
1569398067.99845
1569398068.01408
1569398068.0297
1569398068.04533
1569398068.06096
1569398068.07658
1569398068.09221
1569398068.10783
1569398068.12346
1569398068.13908
1569398068.15471
1569398068.17034
1569398068.18596
1569398068.20159
1569398068.21721
1569398068.23284
1569398068.24846
1569398068.26409
1569398068.27972
1569398068.29534
1569398068.31097
1569398068.32659
1569398068.34222
1569398068.35784
1569398068.37347
1569398068.3891
1569398068.40472
1569398068.42035
1569398068.43597
1569398068.4516
1569398068.46722
1569398068.48285
1569398068.49848
1569398068.5141
1569398068.52973
1569398068.54535
1569398068.56098
1569398068.5766
1569398068.59223
1569398068.60786
1569398068.62348
1569398068.63911
1569398068.65473
1569398068.67036
1569398068.68598
1569398068.70161
1569398068.71724
1569398068.73286
1569398068.74849
1569398068.76411
1569398068.77974
1569398068.79536
1569398068.81099
1569398068.82662
1569398068.84224
1569398068.85787
1569398068.87349
1569398068.88912
1569398068.90474
1569398068.92037
1569398068.936
1569398068.95162
1569398068.96725
1569398068.98287
1569398068.9985
1569398069.01412
1569398069.02975
1569398069.04538
1569398069.061
1569398069.07663
1569398069.09225
1569398069.10788
1569398069.1235
1569398069.13913
1569398069.15476
1569398069.17038
1569398069.18601
1569398069.20163
1569398069.21726
1569398069.23289
1569398069.24851
1569398069.26414
1569398069.27976
1569398069.29539
1569398069.31101
1569398069.32664
1569398069.34227
1569398069.35789
1569398069.37352
1569398069.38914
1569398069.40477
1569398069.42039
1569398069.43602
1569398069.45165
1569398069.46727
1569398069.4829
1569398069.49852
1569398069.51415
1569398069.52977
1569398069.5454
1569398069.56103
1569398069.57665
1569398069.59228
1569398069.6079
1569398069.62353
1569398069.63915
1569398069.65478
1569398069.67041
1569398069.68603
1569398069.70166
1569398069.71728
1569398069.73291
1569398069.74853
1569398069.76416
1569398069.77979
1569398069.79541
1569398069.81104
1569398069.82666
1569398069.84229
1569398069.85791
1569398069.87354
1569398069.88917
1569398069.90479
1569398069.92042
1569398069.93604
1569398069.95167
1569398069.96729
1569398069.98292
1569398069.99855
1569398070.01417
1569398070.0298
1569398070.04542
1569398070.06105
1569398070.07667
1569398070.0923
1569398070.10793
1569398070.12355
1569398070.13918
1569398070.1548
1569398070.17043
1569398070.18605
1569398070.20168
1569398070.21731
1569398070.23293
1569398070.24856
1569398070.26418
1569398070.27981
1569398070.29543
1569398070.31106
1569398070.32669
1569398070.34231
1569398070.35794
1569398070.37356
1569398070.38919
1569398070.40481
1569398070.42044
1569398070.43607
1569398070.45169
1569398070.46732
1569398070.48294
1569398070.49857
1569398070.51419
1569398070.52982
1569398070.54545
1569398070.56107
1569398070.5767
1569398070.59232
1569398070.60795
1569398070.62357
1569398070.6392
1569398070.65483
1569398070.67045
1569398070.68608
1569398070.7017
1569398070.71733
1569398070.73295
1569398070.74858
1569398070.76421
1569398070.77983
1569398070.79546
1569398070.81108
1569398070.82671
1569398070.84233
1569398070.85796
1569398070.87359
1569398070.88921
1569398070.90484
1569398070.92046
1569398070.93609
1569398070.95171
1569398070.96734
1569398070.98297
1569398070.99859
1569398071.01422
1569398071.02984
1569398071.04547
1569398071.06109
1569398071.07672
1569398071.09235
1569398071.10797
1569398071.1236
1569398071.13922
1569398071.15485
1569398071.17047
1569398071.1861
1569398071.20173
1569398071.21735
1569398071.23298
1569398071.2486
1569398071.26423
1569398071.27985
1569398071.29548
1569398071.31111
1569398071.32673
1569398071.34236
1569398071.35798
1569398071.37361
1569398071.38923
1569398071.40486
1569398071.42049
1569398071.43611
1569398071.45174
1569398071.46736
1569398071.48299
1569398071.49862
1569398071.51424
1569398071.52987
1569398071.54549
1569398071.56112
1569398071.57674
1569398071.59237
1569398071.608
1569398071.62362
1569398071.63925
1569398071.65487
1569398071.6705
1569398071.68612
1569398071.70175
1569398071.71738
1569398071.733
1569398071.74863
1569398071.76425
1569398071.77988
1569398071.7955
1569398071.81113
1569398071.82676
1569398071.84238
1569398071.85801
1569398071.87363
1569398071.88926
1569398071.90488
1569398071.92051
1569398071.93614
1569398071.95176
1569398071.96739
1569398071.98301
1569398071.99864
1569398072.01426
1569398072.02989
1569398072.04552
1569398072.06114
1569398072.07677
1569398072.09239
1569398072.10802
1569398072.12364
1569398072.13927
1569398072.1549
1569398072.17052
1569398072.18615
1569398072.20177
1569398072.2174
1569398072.23302
1569398072.24865
1569398072.26428
1569398072.2799
1569398072.29553
1569398072.31115
1569398072.32678
1569398072.3424
1569398072.35803
1569398072.37366
1569398072.38928
1569398072.40491
1569398072.42053
1569398072.43616
1569398072.45178
1569398072.46741
1569398072.48304
1569398072.49866
1569398072.51429
1569398072.52991
1569398072.54554
1569398072.56116
1569398072.57679
1569398072.59242
1569398072.60804
1569398072.62367
1569398072.63929
1569398072.65492
1569398072.67054
1569398072.68617
1569398072.7018
1569398072.71742
1569398072.73305
1569398072.74867
1569398072.7643
1569398072.77992
1569398072.79555
1569398072.81118
1569398072.8268
1569398072.84243
1569398072.85805
1569398072.87368
1569398072.8893
1569398072.90493
1569398072.92056
1569398072.93618
1569398072.95181
1569398072.96743
1569398072.98306
1569398072.99868
1569398073.01431
1569398073.02994
1569398073.04556
1569398073.06119
1569398073.07681
1569398073.09244
1569398073.10806
1569398073.12369
1569398073.13932
1569398073.15494
1569398073.17057
1569398073.18619
1569398073.20182
1569398073.21744
1569398073.23307
1569398073.2487
1569398073.26432
1569398073.27995
1569398073.29557
1569398073.3112
1569398073.32682
1569398073.34245
1569398073.35808
1569398073.3737
1569398073.38933
1569398073.40495
1569398073.42058
1569398073.4362
1569398073.45183
1569398073.46746
1569398073.48308
1569398073.49871
1569398073.51433
1569398073.52996
1569398073.54558
1569398073.56121
1569398073.57684
1569398073.59246
1569398073.60809
1569398073.62371
1569398073.63934
1569398073.65496
1569398073.67059
1569398073.68622
1569398073.70184
1569398073.71747
1569398073.73309
1569398073.74872
1569398073.76434
1569398073.77997
1569398073.7956
1569398073.81122
1569398073.82685
1569398073.84247
1569398073.8581
1569398073.87372
1569398073.88935
1569398073.90498
1569398073.9206
1569398073.93623
1569398073.95185
1569398073.96748
1569398073.9831
1569398073.99873
1569398074.01436
1569398074.02998
1569398074.04561
1569398074.06123
1569398074.07686
1569398074.09249
1569398074.10811
1569398074.12374
1569398074.13936
1569398074.15499
1569398074.17061
1569398074.18624
1569398074.20187
1569398074.21749
1569398074.23312
1569398074.24874
1569398074.26437
1569398074.27999
1569398074.29562
1569398074.31125
1569398074.32687
1569398074.3425
1569398074.35812
1569398074.37375
1569398074.38937
1569398074.405
1569398074.42063
1569398074.43625
1569398074.45188
1569398074.4675
1569398074.48313
1569398074.49875
1569398074.51438
1569398074.53001
1569398074.54563
1569398074.56126
1569398074.57688
1569398074.59251
1569398074.60813
1569398074.62376
1569398074.63939
1569398074.65501
1569398074.67064
1569398074.68626
1569398074.70189
1569398074.71751
1569398074.73314
1569398074.74877
1569398074.76439
1569398074.78002
1569398074.79564
1569398074.81127
1569398074.82689
1569398074.84252
1569398074.85815
1569398074.87377
1569398074.8894
1569398074.90502
1569398074.92065
1569398074.93627
1569398074.9519
1569398074.96753
1569398074.98315
1569398074.99878
1569398075.0144
1569398075.03003
1569398075.04565
1569398075.06128
1569398075.07691
1569398075.09253
1569398075.10816
1569398075.12378
1569398075.13941
1569398075.15503
1569398075.17066
1569398075.18629
1569398075.20191
1569398075.21754
1569398075.23316
1569398075.24879
1569398075.26441
1569398075.28004
1569398075.29567
1569398075.31129
1569398075.32692
1569398075.34254
1569398075.35817
1569398075.37379
1569398075.38942
1569398075.40505
1569398075.42067
1569398075.4363
1569398075.45192
1569398075.46755
1569398075.48317
1569398075.4988
1569398075.51443
1569398075.53005
1569398075.54568
1569398075.5613
1569398075.57693
1569398075.59255
1569398075.60818
1569398075.62381
1569398075.63943
1569398075.65506
1569398075.67068
1569398075.68631
1569398075.70193
1569398075.71756
1569398075.73319
1569398075.74881
1569398075.76444
1569398075.78006
1569398075.79569
1569398075.81131
1569398075.82694
1569398075.84257
1569398075.85819
1569398075.87382
1569398075.88944
1569398075.90507
1569398075.92069
1569398075.93632
1569398075.95195
1569398075.96757
1569398075.9832
1569398075.99882
1569398076.01445
1569398076.03007
1569398076.0457
1569398076.06133
1569398076.07695
1569398076.09258
1569398076.1082
1569398076.12383
1569398076.13945
1569398076.15508
1569398076.17071
1569398076.18633
1569398076.20196
1569398076.21758
1569398076.23321
1569398076.24883
1569398076.26446
1569398076.28009
1569398076.29571
1569398076.31134
1569398076.32696
1569398076.34259
1569398076.35822
1569398076.37384
1569398076.38947
1569398076.40509
1569398076.42072
1569398076.43634
1569398076.45197
1569398076.4676
1569398076.48322
1569398076.49885
1569398076.51447
1569398076.5301
1569398076.54572
1569398076.56135
1569398076.57698
1569398076.5926
1569398076.60823
1569398076.62385
1569398076.63948
1569398076.6551
1569398076.67073
1569398076.68636
1569398076.70198
1569398076.71761
1569398076.73323
1569398076.74886
1569398076.76448
1569398076.78011
1569398076.79574
1569398076.81136
1569398076.82699
1569398076.84261
1569398076.85824
1569398076.87386
1569398076.88949
1569398076.90512
1569398076.92074
1569398076.93637
1569398076.95199
1569398076.96762
1569398076.98324
1569398076.99887
1569398077.0145
1569398077.03012
1569398077.04575
1569398077.06137
1569398077.077
1569398077.09262
1569398077.10825
1569398077.12388
1569398077.1395
1569398077.15513
1569398077.17075
1569398077.18638
1569398077.202
1569398077.21763
1569398077.23326
1569398077.24888
1569398077.26451
1569398077.28013
1569398077.29576
1569398077.31138
1569398077.32701
1569398077.34264
1569398077.35826
1569398077.37389
1569398077.38951
1569398077.40514
1569398077.42076
1569398077.43639
1569398077.45202
1569398077.46764
1569398077.48327
1569398077.49889
1569398077.51452
1569398077.53014
1569398077.54577
1569398077.5614
1569398077.57702
1569398077.59265
1569398077.60827
1569398077.6239
1569398077.63952
1569398077.65515
1569398077.67078
1569398077.6864
1569398077.70203
1569398077.71765
1569398077.73328
1569398077.7489
1569398077.76453
1569398077.78016
1569398077.79578
1569398077.81141
1569398077.82703
1569398077.84266
1569398077.85828
1569398077.87391
1569398077.88954
1569398077.90516
1569398077.92079
1569398077.93641
1569398077.95204
1569398077.96766
1569398077.98329
1569398077.99892
1569398078.01454
1569398078.03017
1569398078.04579
1569398078.06142
1569398078.07704
1569398078.09267
1569398078.1083
1569398078.12392
1569398078.13955
1569398078.15517
1569398078.1708
1569398078.18642
1569398078.20205
1569398078.21768
1569398078.2333
1569398078.24893
1569398078.26455
1569398078.28018
1569398078.2958
1569398078.31143
1569398078.32706
1569398078.34268
1569398078.35831
1569398078.37393
1569398078.38956
1569398078.40518
1569398078.42081
1569398078.43644
1569398078.45206
1569398078.46769
1569398078.48331
1569398078.49894
1569398078.51456
1569398078.53019
1569398078.54582
1569398078.56144
1569398078.57707
1569398078.59269
1569398078.60832
1569398078.62395
1569398078.63957
1569398078.6552
1569398078.67082
1569398078.68645
1569398078.70207
1569398078.7177
1569398078.73333
1569398078.74895
1569398078.76458
1569398078.7802
1569398078.79583
1569398078.81145
1569398078.82708
1569398078.84271
1569398078.85833
1569398078.87396
1569398078.88958
1569398078.90521
1569398078.92083
1569398078.93646
1569398078.95209
1569398078.96771
1569398078.98334
1569398078.99896
1569398079.01459
1569398079.03021
1569398079.04584
1569398079.06147
1569398079.07709
1569398079.09272
1569398079.10834
1569398079.12397
1569398079.13959
1569398079.15522
1569398079.17085
1569398079.18647
1569398079.2021
1569398079.21772
1569398079.23335
1569398079.24897
1569398079.2646
1569398079.28023
1569398079.29585
1569398079.31148
1569398079.3271
1569398079.34273
1569398079.35835
1569398079.37398
1569398079.38961
1569398079.40523
1569398079.42086
1569398079.43648
1569398079.45211
1569398079.46773
1569398079.48336
1569398079.49899
1569398079.51461
1569398079.53024
1569398079.54586
1569398079.56149
1569398079.57711
1569398079.59274
1569398079.60837
1569398079.62399
1569398079.63962
1569398079.65524
1569398079.67087
1569398079.68649
1569398079.70212
1569398079.71775
1569398079.73337
1569398079.749
1569398079.76462
1569398079.78025
1569398079.79587
1569398079.8115
1569398079.82713
1569398079.84275
1569398079.85838
1569398079.874
1569398079.88963
1569398079.90525
1569398079.92088
1569398079.93651
1569398079.95213
1569398079.96776
1569398079.98338
1569398079.99901
1569398080.01463
1569398080.03026
1569398080.04589
1569398080.06151
1569398080.07714
1569398080.09276
1569398080.10839
1569398080.12401
1569398080.13964
1569398080.15527
1569398080.17089
1569398080.18652
1569398080.20214
1569398080.21777
1569398080.23339
1569398080.24902
1569398080.26465
1569398080.28027
1569398080.2959
1569398080.31152
1569398080.32715
1569398080.34277
1569398080.3584
1569398080.37403
1569398080.38965
1569398080.40528
1569398080.4209
1569398080.43653
1569398080.45215
1569398080.46778
1569398080.48341
1569398080.49903
1569398080.51466
1569398080.53028
1569398080.54591
1569398080.56153
1569398080.57716
1569398080.59279
1569398080.60841
1569398080.62404
1569398080.63966
1569398080.65529
1569398080.67091
1569398080.68654
1569398080.70217
1569398080.71779
1569398080.73342
1569398080.74904
1569398080.76467
1569398080.78029
1569398080.79592
1569398080.81155
1569398080.82717
1569398080.8428
1569398080.85842
1569398080.87405
1569398080.88967
1569398080.9053
1569398080.92093
1569398080.93655
1569398080.95218
1569398080.9678
1569398080.98343
1569398080.99905
1569398081.01468
1569398081.03031
1569398081.04593
1569398081.06156
1569398081.07718
1569398081.09281
1569398081.10843
1569398081.12406
1569398081.13969
1569398081.15531
1569398081.17094
1569398081.18656
1569398081.20219
1569398081.21782
1569398081.23344
1569398081.24907
1569398081.26469
1569398081.28032
1569398081.29594
1569398081.31157
1569398081.3272
1569398081.34282
1569398081.35845
1569398081.37407
1569398081.3897
1569398081.40532
1569398081.42095
1569398081.43658
1569398081.4522
1569398081.46783
1569398081.48345
1569398081.49908
1569398081.5147
1569398081.53033
1569398081.54596
1569398081.56158
1569398081.57721
1569398081.59283
1569398081.60846
1569398081.62408
1569398081.63971
1569398081.65534
1569398081.67096
1569398081.68659
1569398081.70221
1569398081.71784
1569398081.73346
1569398081.74909
1569398081.76472
1569398081.78034
1569398081.79597
1569398081.81159
1569398081.82722
1569398081.84284
1569398081.85847
1569398081.8741
1569398081.88972
1569398081.90535
1569398081.92097
1569398081.9366
1569398081.95222
1569398081.96785
1569398081.98348
1569398081.9991
1569398082.01473
1569398082.03035
1569398082.04598
1569398082.0616
1569398082.07723
1569398082.09286
1569398082.10848
1569398082.12411
1569398082.13973
1569398082.15536
1569398082.17098
1569398082.18661
1569398082.20224
1569398082.21786
1569398082.23349
1569398082.24911
1569398082.26474
1569398082.28036
1569398082.29599
1569398082.31162
1569398082.32724
1569398082.34287
1569398082.35849
1569398082.37412
1569398082.38974
1569398082.40537
1569398082.421
1569398082.43662
1569398082.45225
1569398082.46787
1569398082.4835
1569398082.49912
1569398082.51475
1569398082.53038
1569398082.546
1569398082.56163
1569398082.57725
1569398082.59288
1569398082.6085
1569398082.62413
1569398082.63976
1569398082.65538
1569398082.67101
1569398082.68663
1569398082.70226
1569398082.71788
1569398082.73351
1569398082.74914
1569398082.76476
1569398082.78039
1569398082.79601
1569398082.81164
1569398082.82726
1569398082.84289
1569398082.85852
1569398082.87414
1569398082.88977
1569398082.90539
1569398082.92102
1569398082.93664
1569398082.95227
1569398082.9679
1569398082.98352
1569398082.99915
1569398083.01477
1569398083.0304
1569398083.04602
1569398083.06165
1569398083.07728
1569398083.0929
1569398083.10853
1569398083.12415
1569398083.13978
1569398083.1554
1569398083.17103
1569398083.18666
1569398083.20228
1569398083.21791
1569398083.23353
1569398083.24916
1569398083.26478
1569398083.28041
1569398083.29604
1569398083.31166
1569398083.32729
1569398083.34291
1569398083.35854
1569398083.37417
1569398083.38979
1569398083.40542
1569398083.42104
1569398083.43667
1569398083.45229
1569398083.46792
1569398083.48355
1569398083.49917
1569398083.5148
1569398083.53042
1569398083.54605
1569398083.56167
1569398083.5773
1569398083.59293
1569398083.60855
1569398083.62418
1569398083.6398
1569398083.65543
1569398083.67105
1569398083.68668
1569398083.70231
1569398083.71793
1569398083.73356
1569398083.74918
1569398083.76481
1569398083.78043
1569398083.79606
1569398083.81169
1569398083.82731
1569398083.84294
1569398083.85856
1569398083.87419
1569398083.88981
1569398083.90544
1569398083.92107
1569398083.93669
1569398083.95232
1569398083.96794
1569398083.98357
1569398083.99919
1569398084.01482
1569398084.03045
1569398084.04607
1569398084.0617
1569398084.07732
1569398084.09295
1569398084.10857
1569398084.1242
1569398084.13983
1569398084.15545
1569398084.17108
1569398084.1867
1569398084.20233
1569398084.21795
1569398084.23358
1569398084.24921
1569398084.26483
1569398084.28046
1569398084.29608
1569398084.31171
1569398084.32733
1569398084.34296
1569398084.35859
1569398084.37421
1569398084.38984
1569398084.40546
1569398084.42109
1569398084.43671
1569398084.45234
1569398084.46797
1569398084.48359
1569398084.49922
1569398084.51484
1569398084.53047
1569398084.54609
1569398084.56172
1569398084.57735
1569398084.59297
1569398084.6086
1569398084.62422
1569398084.63985
1569398084.65547
1569398084.6711
1569398084.68673
1569398084.70235
1569398084.71798
1569398084.7336
1569398084.74923
1569398084.76485
1569398084.78048
1569398084.79611
1569398084.81173
1569398084.82736
1569398084.84298
1569398084.85861
1569398084.87423
1569398084.88986
1569398084.90549
1569398084.92111
1569398084.93674
1569398084.95236
1569398084.96799
1569398084.98361
1569398084.99924
1569398085.01487
1569398085.03049
1569398085.04612
1569398085.06174
1569398085.07737
1569398085.09299
1569398085.10862
1569398085.12425
1569398085.13987
1569398085.1555
1569398085.17112
1569398085.18675
1569398085.20237
1569398085.218
1569398085.23363
1569398085.24925
1569398085.26488
1569398085.2805
1569398085.29613
1569398085.31175
1569398085.32738
1569398085.34301
1569398085.35863
1569398085.37426
1569398085.38988
1569398085.40551
1569398085.42113
1569398085.43676
1569398085.45239
1569398085.46801
1569398085.48364
1569398085.49926
1569398085.51489
1569398085.53051
1569398085.54614
1569398085.56177
1569398085.57739
1569398085.59302
1569398085.60864
1569398085.62427
1569398085.63989
1569398085.65552
1569398085.67115
1569398085.68677
1569398085.7024
1569398085.71802
1569398085.73365
1569398085.74927
1569398085.7649
1569398085.78053
1569398085.79615
1569398085.81178
1569398085.8274
1569398085.84303
1569398085.85865
1569398085.87428
1569398085.88991
1569398085.90553
1569398085.92116
1569398085.93678
