1569400874.06591
1569400874.08154
1569400874.09716
1569400874.11279
1569400874.12841
1569400874.14404
1569400874.15966
1569400874.17529
1569400874.19092
1569400874.20654
1569400874.22217
1569400874.23779
1569400874.25342
1569400874.26904
1569400874.28467
1569400874.3003
1569400874.31592
1569400874.33155
1569400874.34717
1569400874.3628
1569400874.37842
1569400874.39405
1569400874.40968
1569400874.4253
1569400874.44093
1569400874.45655
1569400874.47218
1569400874.4878
1569400874.50343
1569400874.51906
1569400874.53468
1569400874.55031
1569400874.56593
1569400874.58156
1569400874.59718
1569400874.61281
1569400874.62844
1569400874.64406
1569400874.65969
1569400874.67531
1569400874.69094
1569400874.70656
1569400874.72219
1569400874.73782
1569400874.75344
1569400874.76907
1569400874.78469
1569400874.80032
1569400874.81594
1569400874.83157
1569400874.8472
1569400874.86282
1569400874.87845
1569400874.89407
1569400874.9097
1569400874.92532
1569400874.94095
1569400874.95658
1569400874.9722
1569400874.98783
1569400875.00345
1569400875.01908
1569400875.0347
1569400875.05033
1569400875.06596
1569400875.08158
1569400875.09721
1569400875.11283
1569400875.12846
1569400875.14408
1569400875.15971
1569400875.17534
1569400875.19096
1569400875.20659
1569400875.22221
1569400875.23784
1569400875.25346
1569400875.26909
1569400875.28472
1569400875.30034
1569400875.31597
1569400875.33159
1569400875.34722
1569400875.36284
1569400875.37847
1569400875.3941
1569400875.40972
1569400875.42535
1569400875.44097
1569400875.4566
1569400875.47222
1569400875.48785
1569400875.50348
1569400875.5191
1569400875.53473
1569400875.55035
1569400875.56598
1569400875.5816
1569400875.59723
1569400875.61286
1569400875.62848
1569400875.64411
1569400875.65973
1569400875.67536
1569400875.69098
1569400875.70661
1569400875.72224
1569400875.73786
1569400875.75349
1569400875.76911
1569400875.78474
1569400875.80036
1569400875.81599
1569400875.83162
1569400875.84724
1569400875.86287
1569400875.87849
1569400875.89412
1569400875.90975
1569400875.92537
1569400875.941
1569400875.95662
1569400875.97225
1569400875.98787
1569400876.0035
1569400876.01913
1569400876.03475
1569400876.05038
1569400876.066
1569400876.08163
1569400876.09725
1569400876.11288
1569400876.12851
1569400876.14413
1569400876.15976
1569400876.17538
1569400876.19101
1569400876.20663
1569400876.22226
1569400876.23789
1569400876.25351
1569400876.26914
1569400876.28476
1569400876.30039
1569400876.31601
1569400876.33164
1569400876.34727
1569400876.36289
1569400876.37852
1569400876.39414
1569400876.40977
1569400876.42539
1569400876.44102
1569400876.45665
1569400876.47227
1569400876.4879
1569400876.50352
1569400876.51915
1569400876.53477
1569400876.5504
1569400876.56603
1569400876.58165
1569400876.59728
1569400876.6129
1569400876.62853
1569400876.64415
1569400876.65978
1569400876.67541
1569400876.69103
1569400876.70666
1569400876.72228
1569400876.73791
1569400876.75353
1569400876.76916
1569400876.78479
1569400876.80041
1569400876.81604
1569400876.83166
1569400876.84729
1569400876.86291
1569400876.87854
1569400876.89417
1569400876.90979
1569400876.92542
1569400876.94104
1569400876.95667
1569400876.97229
1569400876.98792
1569400877.00355
1569400877.01917
1569400877.0348
1569400877.05042
1569400877.06605
1569400877.08167
1569400877.0973
1569400877.11293
1569400877.12855
1569400877.14418
1569400877.1598
1569400877.17543
1569400877.19105
1569400877.20668
1569400877.22231
1569400877.23793
1569400877.25356
1569400877.26918
1569400877.28481
1569400877.30043
1569400877.31606
1569400877.33169
1569400877.34731
1569400877.36294
1569400877.37856
1569400877.39419
1569400877.40981
1569400877.42544
1569400877.44107
1569400877.45669
1569400877.47232
1569400877.48794
1569400877.50357
1569400877.51919
1569400877.53482
1569400877.55045
1569400877.56607
1569400877.5817
1569400877.59732
1569400877.61295
1569400877.62857
1569400877.6442
1569400877.65983
1569400877.67545
1569400877.69108
1569400877.7067
1569400877.72233
1569400877.73795
1569400877.75358
1569400877.76921
1569400877.78483
1569400877.80046
1569400877.81608
1569400877.83171
1569400877.84733
1569400877.86296
1569400877.87859
1569400877.89421
1569400877.90984
1569400877.92546
1569400877.94109
1569400877.95671
1569400877.97234
1569400877.98797
1569400878.00359
1569400878.01922
1569400878.03484
1569400878.05047
1569400878.06609
1569400878.08172
1569400878.09735
1569400878.11297
1569400878.1286
1569400878.14422
1569400878.15985
1569400878.17548
1569400878.1911
1569400878.20673
1569400878.22235
1569400878.23798
1569400878.2536
1569400878.26923
1569400878.28486
1569400878.30048
1569400878.31611
1569400878.33173
1569400878.34736
1569400878.36298
1569400878.37861
1569400878.39424
1569400878.40986
1569400878.42549
1569400878.44111
1569400878.45674
1569400878.47236
1569400878.48799
1569400878.50362
1569400878.51924
1569400878.53487
1569400878.55049
1569400878.56612
1569400878.58174
1569400878.59737
1569400878.613
1569400878.62862
1569400878.64425
1569400878.65987
1569400878.6755
1569400878.69112
1569400878.70675
1569400878.72238
1569400878.738
1569400878.75363
1569400878.76925
1569400878.78488
1569400878.8005
1569400878.81613
1569400878.83176
1569400878.84738
1569400878.86301
1569400878.87863
1569400878.89426
1569400878.90988
1569400878.92551
1569400878.94114
1569400878.95676
1569400878.97239
1569400878.98801
1569400879.00364
1569400879.01926
1569400879.03489
1569400879.05052
1569400879.06614
1569400879.08177
1569400879.09739
1569400879.11302
1569400879.12864
1569400879.14427
1569400879.1599
1569400879.17552
1569400879.19115
1569400879.20677
1569400879.2224
1569400879.23802
1569400879.25365
1569400879.26928
1569400879.2849
1569400879.30053
1569400879.31615
1569400879.33178
1569400879.3474
1569400879.36303
1569400879.37866
1569400879.39428
1569400879.40991
1569400879.42553
1569400879.44116
1569400879.45678
1569400879.47241
1569400879.48804
1569400879.50366
1569400879.51929
1569400879.53491
1569400879.55054
1569400879.56616
1569400879.58179
1569400879.59742
1569400879.61304
1569400879.62867
1569400879.64429
1569400879.65992
1569400879.67554
1569400879.69117
1569400879.7068
1569400879.72242
1569400879.73805
1569400879.75367
1569400879.7693
1569400879.78492
1569400879.80055
1569400879.81618
1569400879.8318
1569400879.84743
1569400879.86305
1569400879.87868
1569400879.8943
1569400879.90993
1569400879.92556
1569400879.94118
1569400879.95681
1569400879.97243
1569400879.98806
1569400880.00368
1569400880.01931
1569400880.03494
1569400880.05056
1569400880.06619
1569400880.08181
1569400880.09744
1569400880.11306
1569400880.12869
1569400880.14432
1569400880.15994
1569400880.17557
1569400880.19119
1569400880.20682
1569400880.22244
1569400880.23807
1569400880.2537
1569400880.26932
1569400880.28495
1569400880.30057
1569400880.3162
1569400880.33183
1569400880.34745
1569400880.36308
1569400880.3787
1569400880.39433
1569400880.40995
1569400880.42558
1569400880.44121
1569400880.45683
1569400880.47246
1569400880.48808
1569400880.50371
1569400880.51933
1569400880.53496
1569400880.55059
1569400880.56621
1569400880.58184
1569400880.59746
1569400880.61309
1569400880.62871
1569400880.64434
1569400880.65997
1569400880.67559
1569400880.69122
1569400880.70684
1569400880.72247
1569400880.73809
1569400880.75372
1569400880.76935
1569400880.78497
1569400880.8006
1569400880.81622
1569400880.83185
1569400880.84747
1569400880.8631
1569400880.87873
1569400880.89435
1569400880.90998
1569400880.9256
1569400880.94123
1569400880.95685
1569400880.97248
1569400880.98811
1569400881.00373
1569400881.01936
1569400881.03498
1569400881.05061
1569400881.06623
1569400881.08186
1569400881.09749
1569400881.11311
1569400881.12874
1569400881.14436
1569400881.15999
1569400881.17561
1569400881.19124
1569400881.20687
1569400881.22249
1569400881.23812
1569400881.25374
1569400881.26937
1569400881.28499
1569400881.30062
1569400881.31625
1569400881.33187
1569400881.3475
1569400881.36312
1569400881.37875
1569400881.39437
1569400881.41
1569400881.42563
1569400881.44125
1569400881.45688
1569400881.4725
1569400881.48813
1569400881.50375
1569400881.51938
1569400881.53501
1569400881.55063
1569400881.56626
1569400881.58188
1569400881.59751
1569400881.61313
1569400881.62876
1569400881.64439
1569400881.66001
1569400881.67564
1569400881.69126
1569400881.70689
1569400881.72251
1569400881.73814
1569400881.75377
1569400881.76939
1569400881.78502
1569400881.80064
1569400881.81627
1569400881.83189
1569400881.84752
1569400881.86315
1569400881.87877
1569400881.8944
1569400881.91002
1569400881.92565
1569400881.94127
1569400881.9569
1569400881.97253
1569400881.98815
1569400882.00378
1569400882.0194
1569400882.03503
1569400882.05065
1569400882.06628
1569400882.08191
1569400882.09753
1569400882.11316
1569400882.12878
1569400882.14441
1569400882.16003
1569400882.17566
1569400882.19129
1569400882.20691
1569400882.22254
1569400882.23816
1569400882.25379
1569400882.26941
1569400882.28504
1569400882.30067
1569400882.31629
1569400882.33192
1569400882.34754
1569400882.36317
1569400882.37879
1569400882.39442
1569400882.41005
1569400882.42567
1569400882.4413
1569400882.45692
1569400882.47255
1569400882.48817
1569400882.5038
1569400882.51943
1569400882.53505
1569400882.55068
1569400882.5663
1569400882.58193
1569400882.59755
1569400882.61318
1569400882.62881
1569400882.64443
1569400882.66006
1569400882.67568
1569400882.69131
1569400882.70693
1569400882.72256
1569400882.73819
1569400882.75381
1569400882.76944
1569400882.78506
1569400882.80069
1569400882.81631
1569400882.83194
1569400882.84757
1569400882.86319
1569400882.87882
1569400882.89444
1569400882.91007
1569400882.92569
1569400882.94132
1569400882.95695
1569400882.97257
1569400882.9882
1569400883.00382
1569400883.01945
1569400883.03508
1569400883.0507
1569400883.06633
1569400883.08195
1569400883.09758
1569400883.1132
1569400883.12883
1569400883.14446
1569400883.16008
1569400883.17571
1569400883.19133
1569400883.20696
1569400883.22258
1569400883.23821
1569400883.25384
1569400883.26946
1569400883.28509
1569400883.30071
1569400883.31634
1569400883.33196
1569400883.34759
1569400883.36322
1569400883.37884
1569400883.39447
1569400883.41009
1569400883.42572
1569400883.44134
1569400883.45697
1569400883.4726
1569400883.48822
1569400883.50385
1569400883.51947
1569400883.5351
1569400883.55072
1569400883.56635
1569400883.58198
1569400883.5976
1569400883.61323
1569400883.62885
1569400883.64448
1569400883.6601
1569400883.67573
1569400883.69136
1569400883.70698
1569400883.72261
1569400883.73823
1569400883.75386
1569400883.76948
1569400883.78511
1569400883.80074
1569400883.81636
1569400883.83199
1569400883.84761
1569400883.86324
1569400883.87886
1569400883.89449
1569400883.91012
1569400883.92574
1569400883.94137
1569400883.95699
1569400883.97262
1569400883.98824
1569400884.00387
1569400884.0195
1569400884.03512
1569400884.05075
1569400884.06637
1569400884.082
1569400884.09762
1569400884.11325
1569400884.12888
1569400884.1445
1569400884.16013
1569400884.17575
1569400884.19138
1569400884.207
1569400884.22263
1569400884.23826
1569400884.25388
1569400884.26951
1569400884.28513
1569400884.30076
1569400884.31638
1569400884.33201
1569400884.34764
1569400884.36326
1569400884.37889
1569400884.39451
1569400884.41014
1569400884.42576
1569400884.44139
1569400884.45702
1569400884.47264
1569400884.48827
1569400884.50389
1569400884.51952
1569400884.53514
1569400884.55077
1569400884.5664
1569400884.58202
1569400884.59765
1569400884.61327
1569400884.6289
1569400884.64452
1569400884.66015
1569400884.67578
1569400884.6914
1569400884.70703
1569400884.72265
1569400884.73828
1569400884.7539
1569400884.76953
1569400884.78516
1569400884.80078
1569400884.81641
1569400884.83203
1569400884.84766
1569400884.86328
1569400884.87891
1569400884.89454
1569400884.91016
1569400884.92579
1569400884.94141
1569400884.95704
1569400884.97266
1569400884.98829
1569400885.00392
1569400885.01954
1569400885.03517
1569400885.05079
1569400885.06642
1569400885.08204
1569400885.09767
1569400885.1133
1569400885.12892
1569400885.14455
1569400885.16017
1569400885.1758
1569400885.19143
1569400885.20705
1569400885.22268
1569400885.2383
1569400885.25393
1569400885.26955
1569400885.28518
1569400885.30081
1569400885.31643
1569400885.33206
1569400885.34768
1569400885.36331
1569400885.37893
1569400885.39456
1569400885.41019
1569400885.42581
1569400885.44144
1569400885.45706
1569400885.47269
1569400885.48831
1569400885.50394
1569400885.51957
1569400885.53519
1569400885.55082
1569400885.56644
1569400885.58207
1569400885.59769
1569400885.61332
1569400885.62895
1569400885.64457
1569400885.6602
1569400885.67582
1569400885.69145
1569400885.70707
1569400885.7227
1569400885.73833
1569400885.75395
1569400885.76958
1569400885.7852
1569400885.80083
1569400885.81645
1569400885.83208
1569400885.84771
1569400885.86333
1569400885.87896
1569400885.89458
1569400885.91021
1569400885.92583
1569400885.94146
1569400885.95709
1569400885.97271
1569400885.98834
1569400886.00396
1569400886.01959
1569400886.03521
1569400886.05084
1569400886.06647
1569400886.08209
1569400886.09772
1569400886.11334
1569400886.12897
1569400886.14459
1569400886.16022
1569400886.17585
1569400886.19147
1569400886.2071
1569400886.22272
1569400886.23835
1569400886.25397
1569400886.2696
1569400886.28523
1569400886.30085
1569400886.31648
1569400886.3321
1569400886.34773
1569400886.36335
1569400886.37898
1569400886.39461
1569400886.41023
1569400886.42586
1569400886.44148
1569400886.45711
1569400886.47273
1569400886.48836
1569400886.50399
1569400886.51961
1569400886.53524
1569400886.55086
1569400886.56649
1569400886.58211
1569400886.59774
1569400886.61337
1569400886.62899
1569400886.64462
1569400886.66024
1569400886.67587
1569400886.69149
1569400886.70712
1569400886.72275
1569400886.73837
1569400886.754
1569400886.76962
1569400886.78525
1569400886.80087
1569400886.8165
1569400886.83213
1569400886.84775
1569400886.86338
1569400886.879
1569400886.89463
1569400886.91025
1569400886.92588
1569400886.94151
1569400886.95713
1569400886.97276
1569400886.98838
1569400887.00401
1569400887.01963
1569400887.03526
1569400887.05089
1569400887.06651
1569400887.08214
1569400887.09776
1569400887.11339
1569400887.12901
1569400887.14464
1569400887.16027
1569400887.17589
1569400887.19152
1569400887.20714
1569400887.22277
1569400887.23839
1569400887.25402
1569400887.26965
1569400887.28527
1569400887.3009
1569400887.31652
1569400887.33215
1569400887.34777
1569400887.3634
1569400887.37903
1569400887.39465
1569400887.41028
1569400887.4259
1569400887.44153
1569400887.45715
1569400887.47278
1569400887.48841
1569400887.50403
1569400887.51966
1569400887.53528
1569400887.55091
1569400887.56654
1569400887.58216
1569400887.59779
1569400887.61341
1569400887.62904
1569400887.64466
1569400887.66029
1569400887.67592
1569400887.69154
1569400887.70717
1569400887.72279
1569400887.73842
1569400887.75404
1569400887.76967
1569400887.7853
1569400887.80092
1569400887.81655
1569400887.83217
1569400887.8478
1569400887.86342
1569400887.87905
1569400887.89468
1569400887.9103
1569400887.92593
1569400887.94155
1569400887.95718
1569400887.9728
1569400887.98843
1569400888.00406
1569400888.01968
1569400888.03531
1569400888.05093
1569400888.06656
1569400888.08218
1569400888.09781
1569400888.11344
1569400888.12906
1569400888.14469
1569400888.16031
1569400888.17594
1569400888.19156
1569400888.20719
1569400888.22282
1569400888.23844
1569400888.25407
1569400888.26969
1569400888.28532
1569400888.30094
1569400888.31657
1569400888.3322
1569400888.34782
1569400888.36345
1569400888.37907
1569400888.3947
1569400888.41032
1569400888.42595
1569400888.44158
1569400888.4572
1569400888.47283
1569400888.48845
1569400888.50408
1569400888.5197
1569400888.53533
1569400888.55096
1569400888.56658
1569400888.58221
1569400888.59783
1569400888.61346
1569400888.62908
1569400888.64471
1569400888.66034
1569400888.67596
1569400888.69159
1569400888.70721
1569400888.72284
1569400888.73846
1569400888.75409
1569400888.76972
1569400888.78534
1569400888.80097
1569400888.81659
1569400888.83222
1569400888.84784
1569400888.86347
1569400888.8791
1569400888.89472
1569400888.91035
1569400888.92597
1569400888.9416
1569400888.95722
1569400888.97285
1569400888.98848
1569400889.0041
1569400889.01973
1569400889.03535
1569400889.05098
1569400889.0666
1569400889.08223
1569400889.09786
1569400889.11348
1569400889.12911
1569400889.14473
1569400889.16036
1569400889.17598
1569400889.19161
1569400889.20724
1569400889.22286
1569400889.23849
1569400889.25411
1569400889.26974
1569400889.28536
1569400889.30099
1569400889.31662
1569400889.33224
1569400889.34787
1569400889.36349
1569400889.37912
1569400889.39474
1569400889.41037
1569400889.426
1569400889.44162
1569400889.45725
1569400889.47287
1569400889.4885
1569400889.50412
1569400889.51975
1569400889.53538
1569400889.551
1569400889.56663
1569400889.58225
1569400889.59788
1569400889.6135
1569400889.62913
1569400889.64476
1569400889.66038
1569400889.67601
1569400889.69163
1569400889.70726
1569400889.72288
1569400889.73851
1569400889.75414
1569400889.76976
1569400889.78539
1569400889.80101
1569400889.81664
1569400889.83226
1569400889.84789
1569400889.86352
1569400889.87914
1569400889.89477
1569400889.91039
1569400889.92602
1569400889.94164
1569400889.95727
1569400889.9729
1569400889.98852
1569400890.00415
1569400890.01977
1569400890.0354
1569400890.05103
1569400890.06665
1569400890.08228
1569400890.0979
1569400890.11353
1569400890.12915
1569400890.14478
1569400890.16041
1569400890.17603
1569400890.19166
1569400890.20728
1569400890.22291
1569400890.23853
1569400890.25416
1569400890.26979
1569400890.28541
1569400890.30104
1569400890.31666
1569400890.33229
1569400890.34791
1569400890.36354
1569400890.37917
1569400890.39479
1569400890.41042
1569400890.42604
1569400890.44167
1569400890.45729
1569400890.47292
1569400890.48855
1569400890.50417
1569400890.5198
1569400890.53542
1569400890.55105
1569400890.56667
1569400890.5823
1569400890.59793
1569400890.61355
1569400890.62918
1569400890.6448
1569400890.66043
1569400890.67605
1569400890.69168
1569400890.70731
1569400890.72293
1569400890.73856
1569400890.75418
1569400890.76981
1569400890.78543
1569400890.80106
1569400890.81669
1569400890.83231
1569400890.84794
1569400890.86356
1569400890.87919
1569400890.89481
1569400890.91044
1569400890.92607
1569400890.94169
1569400890.95732
1569400890.97294
1569400890.98857
1569400891.00419
1569400891.01982
1569400891.03545
1569400891.05107
1569400891.0667
1569400891.08232
1569400891.09795
1569400891.11357
1569400891.1292
1569400891.14483
1569400891.16045
1569400891.17608
1569400891.1917
1569400891.20733
1569400891.22295
1569400891.23858
1569400891.25421
1569400891.26983
1569400891.28546
1569400891.30108
1569400891.31671
1569400891.33233
1569400891.34796
1569400891.36359
1569400891.37921
1569400891.39484
1569400891.41046
1569400891.42609
1569400891.44171
1569400891.45734
1569400891.47297
1569400891.48859
1569400891.50422
1569400891.51984
1569400891.53547
1569400891.55109
1569400891.56672
1569400891.58235
1569400891.59797
1569400891.6136
1569400891.62922
1569400891.64485
1569400891.66047
1569400891.6761
1569400891.69173
1569400891.70735
1569400891.72298
1569400891.7386
1569400891.75423
1569400891.76985
1569400891.78548
1569400891.80111
1569400891.81673
1569400891.83236
1569400891.84798
1569400891.86361
1569400891.87923
1569400891.89486
1569400891.91049
1569400891.92611
1569400891.94174
1569400891.95736
1569400891.97299
1569400891.98861
1569400892.00424
1569400892.01987
1569400892.03549
1569400892.05112
1569400892.06674
1569400892.08237
1569400892.09799
1569400892.11362
1569400892.12925
1569400892.14487
1569400892.1605
1569400892.17612
1569400892.19175
1569400892.20737
1569400892.223
1569400892.23863
1569400892.25425
1569400892.26988
1569400892.2855
1569400892.30113
1569400892.31676
1569400892.33238
1569400892.34801
1569400892.36363
1569400892.37926
1569400892.39488
1569400892.41051
1569400892.42614
1569400892.44176
1569400892.45739
1569400892.47301
1569400892.48864
1569400892.50426
1569400892.51989
1569400892.53552
1569400892.55114
1569400892.56677
1569400892.58239
1569400892.59802
1569400892.61364
1569400892.62927
1569400892.6449
1569400892.66052
1569400892.67615
1569400892.69177
1569400892.7074
1569400892.72302
1569400892.73865
1569400892.75428
1569400892.7699
1569400892.78553
1569400892.80115
1569400892.81678
1569400892.8324
1569400892.84803
1569400892.86366
1569400892.87928
1569400892.89491
1569400892.91053
1569400892.92616
1569400892.94178
1569400892.95741
1569400892.97304
1569400892.98866
1569400893.00429
1569400893.01991
1569400893.03554
1569400893.05116
1569400893.06679
1569400893.08242
1569400893.09804
1569400893.11367
1569400893.12929
1569400893.14492
1569400893.16054
1569400893.17617
1569400893.1918
1569400893.20742
1569400893.22305
1569400893.23867
1569400893.2543
1569400893.26992
1569400893.28555
1569400893.30118
1569400893.3168
1569400893.33243
1569400893.34805
1569400893.36368
1569400893.3793
1569400893.39493
1569400893.41056
1569400893.42618
1569400893.44181
1569400893.45743
1569400893.47306
1569400893.48868
1569400893.50431
1569400893.51994
1569400893.53556
1569400893.55119
1569400893.56681
1569400893.58244
1569400893.59806
1569400893.61369
1569400893.62932
1569400893.64494
1569400893.66057
1569400893.67619
1569400893.69182
1569400893.70744
1569400893.72307
1569400893.7387
1569400893.75432
1569400893.76995
1569400893.78557
1569400893.8012
1569400893.81682
1569400893.83245
1569400893.84808
1569400893.8637
1569400893.87933
1569400893.89495
1569400893.91058
1569400893.9262
1569400893.94183
1569400893.95746
1569400893.97308
1569400893.98871
1569400894.00433
1569400894.01996
1569400894.03558
1569400894.05121
1569400894.06684
1569400894.08246
1569400894.09809
1569400894.11371
1569400894.12934
1569400894.14496
1569400894.16059
1569400894.17622
1569400894.19184
1569400894.20747
1569400894.22309
1569400894.23872
1569400894.25434
1569400894.26997
1569400894.2856
1569400894.30122
1569400894.31685
1569400894.33247
1569400894.3481
1569400894.36372
1569400894.37935
1569400894.39498
1569400894.4106
1569400894.42623
1569400894.44185
1569400894.45748
1569400894.4731
1569400894.48873
1569400894.50436
1569400894.51998
1569400894.53561
1569400894.55123
1569400894.56686
1569400894.58248
1569400894.59811
1569400894.61374
1569400894.62936
1569400894.64499
1569400894.66061
1569400894.67624
1569400894.69186
1569400894.70749
1569400894.72312
1569400894.73874
1569400894.75437
1569400894.76999
1569400894.78562
1569400894.80124
1569400894.81687
1569400894.8325
1569400894.84812
1569400894.86375
1569400894.87937
1569400894.895
1569400894.91063
1569400894.92625
1569400894.94188
1569400894.9575
1569400894.97313
1569400894.98875
1569400895.00438
1569400895.02001
1569400895.03563
1569400895.05126
1569400895.06688
1569400895.08251
1569400895.09813
1569400895.11376
1569400895.12939
1569400895.14501
1569400895.16064
1569400895.17626
1569400895.19189
1569400895.20751
1569400895.22314
1569400895.23877
1569400895.25439
1569400895.27002
1569400895.28564
1569400895.30127
1569400895.31689
1569400895.33252
1569400895.34815
1569400895.36377
1569400895.3794
1569400895.39502
1569400895.41065
1569400895.42627
1569400895.4419
1569400895.45753
1569400895.47315
1569400895.48878
1569400895.5044
1569400895.52003
1569400895.53565
1569400895.55128
1569400895.56691
1569400895.58253
1569400895.59816
1569400895.61378
1569400895.62941
1569400895.64503
1569400895.66066
1569400895.67629
1569400895.69191
1569400895.70754
1569400895.72316
1569400895.73879
1569400895.75441
1569400895.77004
1569400895.78567
1569400895.80129
1569400895.81692
1569400895.83254
1569400895.84817
1569400895.86379
1569400895.87942
1569400895.89505
1569400895.91067
1569400895.9263
1569400895.94192
1569400895.95755
1569400895.97317
1569400895.9888
1569400896.00443
1569400896.02005
1569400896.03568
1569400896.0513
1569400896.06693
1569400896.08255
1569400896.09818
1569400896.11381
1569400896.12943
1569400896.14506
1569400896.16068
1569400896.17631
1569400896.19193
1569400896.20756
1569400896.22319
1569400896.23881
1569400896.25444
1569400896.27006
1569400896.28569
1569400896.30131
1569400896.31694
1569400896.33257
1569400896.34819
1569400896.36382
1569400896.37944
1569400896.39507
1569400896.41069
1569400896.42632
1569400896.44195
1569400896.45757
1569400896.4732
1569400896.48882
1569400896.50445
1569400896.52007
1569400896.5357
1569400896.55133
1569400896.56695
1569400896.58258
1569400896.5982
1569400896.61383
1569400896.62945
1569400896.64508
1569400896.66071
1569400896.67633
1569400896.69196
1569400896.70758
1569400896.72321
1569400896.73883
1569400896.75446
1569400896.77009
1569400896.78571
1569400896.80134
1569400896.81696
1569400896.83259
1569400896.84821
1569400896.86384
1569400896.87947
1569400896.89509
1569400896.91072
1569400896.92634
1569400896.94197
1569400896.95759
1569400896.97322
1569400896.98885
1569400897.00447
1569400897.0201
1569400897.03572
1569400897.05135
1569400897.06697
1569400897.0826
1569400897.09823
1569400897.11385
1569400897.12948
1569400897.1451
1569400897.16073
1569400897.17636
1569400897.19198
1569400897.20761
1569400897.22323
1569400897.23886
1569400897.25448
1569400897.27011
1569400897.28574
1569400897.30136
1569400897.31699
1569400897.33261
1569400897.34824
1569400897.36386
1569400897.37949
1569400897.39512
1569400897.41074
1569400897.42637
1569400897.44199
1569400897.45762
1569400897.47324
1569400897.48887
1569400897.5045
1569400897.52012
1569400897.53575
1569400897.55137
1569400897.567
1569400897.58262
1569400897.59825
1569400897.61388
1569400897.6295
1569400897.64513
1569400897.66075
1569400897.67638
1569400897.692
1569400897.70763
1569400897.72326
1569400897.73888
1569400897.75451
1569400897.77013
1569400897.78576
1569400897.80138
1569400897.81701
1569400897.83264
1569400897.84826
1569400897.86389
1569400897.87951
1569400897.89514
1569400897.91076
1569400897.92639
1569400897.94202
1569400897.95764
1569400897.97327
1569400897.98889
1569400898.00452
1569400898.02014
1569400898.03577
1569400898.0514
1569400898.06702
1569400898.08265
1569400898.09827
1569400898.1139
1569400898.12952
1569400898.14515
1569400898.16078
1569400898.1764
1569400898.19203
1569400898.20765
1569400898.22328
1569400898.2389
1569400898.25453
1569400898.27016
1569400898.28578
1569400898.30141
1569400898.31703
1569400898.33266
1569400898.34828
1569400898.36391
1569400898.37954
1569400898.39516
1569400898.41079
1569400898.42641
1569400898.44204
1569400898.45766
1569400898.47329
1569400898.48892
1569400898.50454
1569400898.52017
1569400898.53579
1569400898.55142
1569400898.56704
1569400898.58267
1569400898.5983
1569400898.61392
1569400898.62955
1569400898.64517
1569400898.6608
1569400898.67642
1569400898.69205
1569400898.70768
1569400898.7233
1569400898.73893
1569400898.75455
1569400898.77018
1569400898.7858
1569400898.80143
1569400898.81706
1569400898.83268
1569400898.84831
1569400898.86393
1569400898.87956
1569400898.89518
1569400898.91081
1569400898.92644
1569400898.94206
1569400898.95769
1569400898.97331
1569400898.98894
1569400899.00456
1569400899.02019
1569400899.03582
1569400899.05144
1569400899.06707
1569400899.08269
1569400899.09832
1569400899.11394
1569400899.12957
1569400899.1452
1569400899.16082
1569400899.17645
1569400899.19207
1569400899.2077
1569400899.22332
1569400899.23895
1569400899.25458
1569400899.2702
1569400899.28583
1569400899.30145
1569400899.31708
1569400899.3327
1569400899.34833
1569400899.36396
1569400899.37958
1569400899.39521
1569400899.41083
1569400899.42646
1569400899.44209
1569400899.45771
1569400899.47334
1569400899.48896
1569400899.50459
1569400899.52021
1569400899.53584
1569400899.55147
1569400899.56709
1569400899.58272
1569400899.59834
1569400899.61397
1569400899.62959
1569400899.64522
1569400899.66085
1569400899.67647
1569400899.6921
1569400899.70772
1569400899.72335
1569400899.73897
1569400899.7546
1569400899.77023
1569400899.78585
1569400899.80148
1569400899.8171
1569400899.83273
1569400899.84835
1569400899.86398
1569400899.87961
1569400899.89523
1569400899.91086
1569400899.92648
1569400899.94211
1569400899.95773
1569400899.97336
1569400899.98899
1569400900.00461
1569400900.02024
1569400900.03586
1569400900.05149
1569400900.06711
1569400900.08274
1569400900.09837
1569400900.11399
1569400900.12962
1569400900.14524
1569400900.16087
1569400900.17649
1569400900.19212
1569400900.20775
1569400900.22337
1569400900.239
1569400900.25462
1569400900.27025
1569400900.28587
1569400900.3015
1569400900.31713
1569400900.33275
1569400900.34838
1569400900.364
1569400900.37963
1569400900.39525
1569400900.41088
1569400900.42651
1569400900.44213
1569400900.45776
1569400900.47338
1569400900.48901
1569400900.50463
1569400900.52026
1569400900.53589
1569400900.55151
1569400900.56714
1569400900.58276
1569400900.59839
1569400900.61401
1569400900.62964
1569400900.64527
1569400900.66089
1569400900.67652
1569400900.69214
1569400900.70777
1569400900.72339
1569400900.73902
1569400900.75465
1569400900.77027
1569400900.7859
1569400900.80152
1569400900.81715
1569400900.83277
1569400900.8484
1569400900.86403
1569400900.87965
1569400900.89528
1569400900.9109
1569400900.92653
1569400900.94215
1569400900.95778
1569400900.97341
1569400900.98903
1569400901.00466
1569400901.02028
1569400901.03591
1569400901.05153
1569400901.06716
1569400901.08279
1569400901.09841
1569400901.11404
1569400901.12966
1569400901.14529
1569400901.16091
1569400901.17654
1569400901.19217
1569400901.20779
1569400901.22342
1569400901.23904
1569400901.25467
1569400901.27029
1569400901.28592
1569400901.30155
1569400901.31717
1569400901.3328
1569400901.34842
1569400901.36405
1569400901.37967
1569400901.3953
1569400901.41093
1569400901.42655
1569400901.44218
1569400901.4578
1569400901.47343
1569400901.48905
1569400901.50468
1569400901.52031
1569400901.53593
1569400901.55156
1569400901.56718
1569400901.58281
1569400901.59843
1569400901.61406
1569400901.62969
1569400901.64531
1569400901.66094
1569400901.67656
1569400901.69219
1569400901.70781
1569400901.72344
1569400901.73907
1569400901.75469
1569400901.77032
1569400901.78594
1569400901.80157
1569400901.81719
1569400901.83282
1569400901.84845
1569400901.86407
1569400901.8797
1569400901.89532
1569400901.91095
1569400901.92657
1569400901.9422
1569400901.95783
1569400901.97345
1569400901.98908
1569400902.0047
1569400902.02033
1569400902.03596
1569400902.05158
1569400902.06721
1569400902.08283
1569400902.09846
1569400902.11408
1569400902.12971
1569400902.14534
1569400902.16096
1569400902.17659
1569400902.19221
1569400902.20784
1569400902.22346
1569400902.23909
1569400902.25472
1569400902.27034
1569400902.28597
1569400902.30159
1569400902.31722
1569400902.33284
1569400902.34847
1569400902.3641
1569400902.37972
1569400902.39535
1569400902.41097
1569400902.4266
1569400902.44222
1569400902.45785
1569400902.47348
1569400902.4891
1569400902.50473
1569400902.52035
1569400902.53598
1569400902.5516
1569400902.56723
1569400902.58286
1569400902.59848
1569400902.61411
1569400902.62973
1569400902.64536
1569400902.66098
1569400902.67661
1569400902.69224
1569400902.70786
1569400902.72349
1569400902.73911
1569400902.75474
1569400902.77036
1569400902.78599
1569400902.80162
1569400902.81724
1569400902.83287
1569400902.84849
1569400902.86412
1569400902.87974
1569400902.89537
1569400902.911
1569400902.92662
1569400902.94225
1569400902.95787
1569400902.9735
1569400902.98912
1569400903.00475
1569400903.02038
1569400903.036
1569400903.05163
1569400903.06725
1569400903.08288
1569400903.0985
1569400903.11413
1569400903.12976
1569400903.14538
1569400903.16101
1569400903.17663
1569400903.19226
1569400903.20788
1569400903.22351
1569400903.23914
1569400903.25476
1569400903.27039
1569400903.28601
1569400903.30164
1569400903.31726
1569400903.33289
1569400903.34852
1569400903.36414
1569400903.37977
1569400903.39539
1569400903.41102
1569400903.42664
1569400903.44227
1569400903.4579
1569400903.47352
1569400903.48915
1569400903.50477
1569400903.5204
1569400903.53602
1569400903.55165
1569400903.56728
1569400903.5829
1569400903.59853
1569400903.61415
1569400903.62978
1569400903.6454
1569400903.66103
1569400903.67666
1569400903.69228
1569400903.70791
1569400903.72353
1569400903.73916
1569400903.75478
1569400903.77041
1569400903.78604
1569400903.80166
1569400903.81729
1569400903.83291
1569400903.84854
1569400903.86416
1569400903.87979
1569400903.89542
1569400903.91104
1569400903.92667
1569400903.94229
1569400903.95792
1569400903.97354
1569400903.98917
1569400904.0048
1569400904.02042
1569400904.03605
1569400904.05167
1569400904.0673
1569400904.08292
1569400904.09855
1569400904.11418
1569400904.1298
1569400904.14543
1569400904.16105
1569400904.17668
1569400904.1923
1569400904.20793
1569400904.22356
1569400904.23918
1569400904.25481
1569400904.27043
1569400904.28606
1569400904.30169
1569400904.31731
1569400904.33294
1569400904.34856
1569400904.36419
1569400904.37981
1569400904.39544
1569400904.41107
1569400904.42669
1569400904.44232
1569400904.45794
1569400904.47357
1569400904.48919
1569400904.50482
1569400904.52045
1569400904.53607
1569400904.5517
1569400904.56732
1569400904.58295
1569400904.59857
1569400904.6142
1569400904.62983
1569400904.64545
1569400904.66108
1569400904.6767
1569400904.69233
1569400904.70795
1569400904.72358
1569400904.73921
1569400904.75483
1569400904.77046
1569400904.78608
1569400904.80171
1569400904.81733
1569400904.83296
1569400904.84859
1569400904.86421
1569400904.87984
1569400904.89546
1569400904.91109
1569400904.92671
1569400904.94234
1569400904.95797
1569400904.97359
1569400904.98922
1569400905.00484
1569400905.02047
1569400905.03609
1569400905.05172
1569400905.06735
1569400905.08297
1569400905.0986
1569400905.11422
1569400905.12985
1569400905.14547
1569400905.1611
1569400905.17673
1569400905.19235
1569400905.20798
1569400905.2236
1569400905.23923
1569400905.25485
1569400905.27048
1569400905.28611
1569400905.30173
1569400905.31736
1569400905.33298
1569400905.34861
1569400905.36423
1569400905.37986
1569400905.39549
1569400905.41111
1569400905.42674
1569400905.44236
1569400905.45799
1569400905.47361
1569400905.48924
1569400905.50487
1569400905.52049
1569400905.53612
1569400905.55174
1569400905.56737
1569400905.58299
1569400905.59862
1569400905.61425
1569400905.62987
1569400905.6455
1569400905.66112
1569400905.67675
1569400905.69237
1569400905.708
1569400905.72363
1569400905.73925
1569400905.75488
1569400905.7705
1569400905.78613
1569400905.80175
1569400905.81738
1569400905.83301
1569400905.84863
1569400905.86426
1569400905.87988
1569400905.89551
1569400905.91113
1569400905.92676
1569400905.94239
1569400905.95801
1569400905.97364
1569400905.98926
1569400906.00489
1569400906.02051
1569400906.03614
1569400906.05177
1569400906.06739
1569400906.08302
1569400906.09864
1569400906.11427
1569400906.12989
1569400906.14552
1569400906.16115
1569400906.17677
1569400906.1924
1569400906.20802
1569400906.22365
1569400906.23927
1569400906.2549
1569400906.27053
1569400906.28615
1569400906.30178
1569400906.3174
1569400906.33303
1569400906.34865
1569400906.36428
1569400906.37991
1569400906.39553
1569400906.41116
1569400906.42678
1569400906.44241
1569400906.45803
1569400906.47366
1569400906.48929
1569400906.50491
1569400906.52054
1569400906.53616
1569400906.55179
1569400906.56742
1569400906.58304
1569400906.59867
1569400906.61429
1569400906.62992
1569400906.64554
1569400906.66117
1569400906.6768
1569400906.69242
1569400906.70805
1569400906.72367
1569400906.7393
1569400906.75492
1569400906.77055
1569400906.78618
1569400906.8018
1569400906.81743
1569400906.83305
1569400906.84868
1569400906.8643
1569400906.87993
1569400906.89556
1569400906.91118
1569400906.92681
1569400906.94243
1569400906.95806
1569400906.97368
1569400906.98931
1569400907.00494
1569400907.02056
1569400907.03619
1569400907.05181
1569400907.06744
1569400907.08306
1569400907.09869
1569400907.11432
1569400907.12994
1569400907.14557
1569400907.16119
1569400907.17682
1569400907.19244
1569400907.20807
1569400907.2237
1569400907.23932
1569400907.25495
1569400907.27057
1569400907.2862
1569400907.30182
1569400907.31745
1569400907.33308
1569400907.3487
1569400907.36433
1569400907.37995
1569400907.39558
1569400907.4112
1569400907.42683
1569400907.44246
1569400907.45808
1569400907.47371
1569400907.48933
1569400907.50496
1569400907.52058
1569400907.53621
1569400907.55184
1569400907.56746
1569400907.58309
1569400907.59871
1569400907.61434
1569400907.62996
1569400907.64559
1569400907.66122
1569400907.67684
1569400907.69247
1569400907.70809
1569400907.72372
1569400907.73934
1569400907.75497
1569400907.7706
1569400907.78622
1569400907.80185
1569400907.81747
1569400907.8331
1569400907.84872
1569400907.86435
1569400907.87998
1569400907.8956
1569400907.91123
1569400907.92685
1569400907.94248
1569400907.9581
1569400907.97373
1569400907.98936
1569400908.00498
1569400908.02061
1569400908.03623
1569400908.05186
1569400908.06748
1569400908.08311
1569400908.09874
1569400908.11436
1569400908.12999
1569400908.14561
1569400908.16124
1569400908.17686
1569400908.19249
1569400908.20812
1569400908.22374
1569400908.23937
1569400908.25499
1569400908.27062
1569400908.28624
1569400908.30187
1569400908.3175
1569400908.33312
1569400908.34875
1569400908.36437
1569400908.38
1569400908.39562
1569400908.41125
1569400908.42688
1569400908.4425
1569400908.45813
1569400908.47375
1569400908.48938
1569400908.505
1569400908.52063
1569400908.53626
1569400908.55188
1569400908.56751
1569400908.58313
1569400908.59876
1569400908.61438
1569400908.63001
1569400908.64564
1569400908.66126
1569400908.67689
1569400908.69251
1569400908.70814
1569400908.72376
1569400908.73939
1569400908.75502
1569400908.77064
1569400908.78627
1569400908.80189
1569400908.81752
1569400908.83314
1569400908.84877
1569400908.8644
1569400908.88002
1569400908.89565
1569400908.91127
1569400908.9269
1569400908.94252
1569400908.95815
1569400908.97378
1569400908.9894
1569400909.00503
1569400909.02065
1569400909.03628
1569400909.0519
1569400909.06753
1569400909.08316
1569400909.09878
1569400909.11441
1569400909.13003
1569400909.14566
1569400909.16129
1569400909.17691
1569400909.19254
1569400909.20816
1569400909.22379
1569400909.23941
1569400909.25504
1569400909.27067
1569400909.28629
1569400909.30192
1569400909.31754
1569400909.33317
1569400909.34879
1569400909.36442
1569400909.38005
1569400909.39567
1569400909.4113
1569400909.42692
1569400909.44255
1569400909.45817
1569400909.4738
1569400909.48943
1569400909.50505
1569400909.52068
1569400909.5363
1569400909.55193
1569400909.56755
1569400909.58318
1569400909.59881
1569400909.61443
1569400909.63006
1569400909.64568
1569400909.66131
1569400909.67693
1569400909.69256
1569400909.70819
1569400909.72381
1569400909.73944
1569400909.75506
1569400909.77069
1569400909.78631
1569400909.80194
1569400909.81757
1569400909.83319
1569400909.84882
1569400909.86444
1569400909.88007
1569400909.89569
1569400909.91132
1569400909.92695
1569400909.94257
1569400909.9582
1569400909.97382
1569400909.98945
1569400910.00507
1569400910.0207
1569400910.03633
1569400910.05195
1569400910.06758
1569400910.0832
1569400910.09883
1569400910.11445
1569400910.13008
1569400910.14571
1569400910.16133
1569400910.17696
1569400910.19258
1569400910.20821
1569400910.22383
1569400910.23946
1569400910.25509
1569400910.27071
1569400910.28634
1569400910.30196
1569400910.31759
1569400910.33321
1569400910.34884
1569400910.36447
1569400910.38009
1569400910.39572
1569400910.41134
1569400910.42697
1569400910.44259
1569400910.45822
1569400910.47385
1569400910.48947
1569400910.5051
1569400910.52072
1569400910.53635
1569400910.55197
1569400910.5676
1569400910.58323
1569400910.59885
1569400910.61448
1569400910.6301
1569400910.64573
1569400910.66135
1569400910.67698
1569400910.69261
1569400910.70823
1569400910.72386
1569400910.73948
1569400910.75511
1569400910.77073
1569400910.78636
1569400910.80199
1569400910.81761
1569400910.83324
1569400910.84886
1569400910.86449
1569400910.88011
1569400910.89574
1569400910.91137
1569400910.92699
1569400910.94262
1569400910.95824
1569400910.97387
1569400910.98949
1569400911.00512
1569400911.02075
1569400911.03637
1569400911.052
1569400911.06762
1569400911.08325
1569400911.09887
1569400911.1145
1569400911.13013
1569400911.14575
1569400911.16138
1569400911.177
1569400911.19263
1569400911.20825
1569400911.22388
1569400911.23951
1569400911.25513
1569400911.27076
1569400911.28638
1569400911.30201
1569400911.31764
1569400911.33326
1569400911.34889
1569400911.36451
1569400911.38014
1569400911.39576
1569400911.41139
1569400911.42702
1569400911.44264
1569400911.45827
1569400911.47389
1569400911.48952
1569400911.50514
1569400911.52077
1569400911.5364
1569400911.55202
1569400911.56765
1569400911.58327
1569400911.5989
1569400911.61452
1569400911.63015
1569400911.64578
1569400911.6614
1569400911.67703
1569400911.69265
1569400911.70828
1569400911.7239
1569400911.73953
1569400911.75516
1569400911.77078
1569400911.78641
1569400911.80203
1569400911.81766
1569400911.83328
1569400911.84891
1569400911.86454
1569400911.88016
1569400911.89579
1569400911.91141
1569400911.92704
1569400911.94266
1569400911.95829
1569400911.97392
1569400911.98954
1569400912.00517
1569400912.02079
1569400912.03642
1569400912.05204
1569400912.06767
1569400912.0833
1569400912.09892
1569400912.11455
1569400912.13017
1569400912.1458
1569400912.16142
1569400912.17705
1569400912.19268
1569400912.2083
1569400912.22393
1569400912.23955
1569400912.25518
1569400912.2708
1569400912.28643
1569400912.30206
1569400912.31768
1569400912.33331
1569400912.34893
1569400912.36456
1569400912.38018
1569400912.39581
1569400912.41144
1569400912.42706
1569400912.44269
1569400912.45831
1569400912.47394
1569400912.48956
1569400912.50519
1569400912.52082
1569400912.53644
1569400912.55207
1569400912.56769
1569400912.58332
1569400912.59894
1569400912.61457
1569400912.6302
1569400912.64582
1569400912.66145
1569400912.67707
1569400912.6927
1569400912.70832
1569400912.72395
1569400912.73958
1569400912.7552
1569400912.77083
1569400912.78645
1569400912.80208
1569400912.8177
1569400912.83333
1569400912.84896
1569400912.86458
1569400912.88021
1569400912.89583
1569400912.91146
1569400912.92708
1569400912.94271
1569400912.95834
1569400912.97396
1569400912.98959
1569400913.00521
1569400913.02084
1569400913.03646
1569400913.05209
1569400913.06772
1569400913.08334
1569400913.09897
1569400913.11459
1569400913.13022
1569400913.14584
1569400913.16147
1569400913.1771
1569400913.19272
1569400913.20835
1569400913.22397
1569400913.2396
1569400913.25522
1569400913.27085
1569400913.28648
1569400913.3021
1569400913.31773
1569400913.33335
1569400913.34898
1569400913.3646
1569400913.38023
1569400913.39586
1569400913.41148
1569400913.42711
1569400913.44273
1569400913.45836
1569400913.47398
1569400913.48961
1569400913.50524
1569400913.52086
1569400913.53649
1569400913.55211
1569400913.56774
1569400913.58336
1569400913.59899
1569400913.61462
1569400913.63024
1569400913.64587
1569400913.66149
1569400913.67712
1569400913.69274
1569400913.70837
1569400913.724
1569400913.73962
1569400913.75525
1569400913.77087
1569400913.7865
1569400913.80212
1569400913.81775
1569400913.83338
1569400913.849
1569400913.86463
1569400913.88025
1569400913.89588
1569400913.9115
1569400913.92713
1569400913.94276
1569400913.95838
1569400913.97401
1569400913.98963
1569400914.00526
1569400914.02089
1569400914.03651
1569400914.05214
1569400914.06776
1569400914.08339
1569400914.09901
1569400914.11464
1569400914.13027
1569400914.14589
1569400914.16152
1569400914.17714
1569400914.19277
1569400914.20839
1569400914.22402
1569400914.23965
1569400914.25527
1569400914.2709
1569400914.28652
1569400914.30215
1569400914.31777
1569400914.3334
1569400914.34903
1569400914.36465
1569400914.38028
1569400914.3959
1569400914.41153
1569400914.42715
1569400914.44278
1569400914.45841
1569400914.47403
1569400914.48966
1569400914.50528
1569400914.52091
1569400914.53653
1569400914.55216
1569400914.56779
1569400914.58341
1569400914.59904
1569400914.61466
1569400914.63029
1569400914.64591
1569400914.66154
1569400914.67717
1569400914.69279
1569400914.70842
1569400914.72404
1569400914.73967
1569400914.75529
1569400914.77092
1569400914.78655
1569400914.80217
1569400914.8178
1569400914.83342
1569400914.84905
1569400914.86467
1569400914.8803
1569400914.89593
1569400914.91155
1569400914.92718
1569400914.9428
1569400914.95843
1569400914.97405
1569400914.98968
1569400915.00531
1569400915.02093
1569400915.03656
1569400915.05218
1569400915.06781
1569400915.08343
1569400915.09906
1569400915.11469
1569400915.13031
1569400915.14594
1569400915.16156
1569400915.17719
1569400915.19281
1569400915.20844
1569400915.22407
1569400915.23969
1569400915.25532
1569400915.27094
1569400915.28657
1569400915.30219
1569400915.31782
1569400915.33345
1569400915.34907
1569400915.3647
1569400915.38032
1569400915.39595
1569400915.41157
1569400915.4272
1569400915.44283
1569400915.45845
1569400915.47408
1569400915.4897
1569400915.50533
1569400915.52095
1569400915.53658
1569400915.55221
1569400915.56783
1569400915.58346
1569400915.59908
1569400915.61471
1569400915.63033
1569400915.64596
1569400915.66159
1569400915.67721
1569400915.69284
1569400915.70846
1569400915.72409
1569400915.73971
1569400915.75534
1569400915.77097
1569400915.78659
1569400915.80222
1569400915.81784
1569400915.83347
1569400915.84909
1569400915.86472
1569400915.88035
1569400915.89597
1569400915.9116
1569400915.92722
1569400915.94285
1569400915.95847
1569400915.9741
1569400915.98973
1569400916.00535
1569400916.02098
1569400916.0366
1569400916.05223
1569400916.06785
1569400916.08348
1569400916.09911
1569400916.11473
1569400916.13036
1569400916.14598
1569400916.16161
1569400916.17724
1569400916.19286
1569400916.20849
1569400916.22411
1569400916.23974
1569400916.25536
1569400916.27099
1569400916.28662
1569400916.30224
1569400916.31787
1569400916.33349
1569400916.34912
1569400916.36474
1569400916.38037
1569400916.396
1569400916.41162
1569400916.42725
1569400916.44287
1569400916.4585
1569400916.47412
1569400916.48975
1569400916.50538
1569400916.521
1569400916.53663
1569400916.55225
1569400916.56788
1569400916.5835
1569400916.59913
1569400916.61476
1569400916.63038
1569400916.64601
1569400916.66163
1569400916.67726
1569400916.69288
1569400916.70851
1569400916.72414
1569400916.73976
1569400916.75539
1569400916.77101
1569400916.78664
1569400916.80226
1569400916.81789
1569400916.83352
1569400916.84914
1569400916.86477
1569400916.88039
1569400916.89602
1569400916.91164
1569400916.92727
1569400916.9429
1569400916.95852
1569400916.97415
1569400916.98977
1569400917.0054
1569400917.02102
1569400917.03665
1569400917.05228
1569400917.0679
1569400917.08353
1569400917.09915
1569400917.11478
1569400917.1304
1569400917.14603
1569400917.16166
1569400917.17728
1569400917.19291
1569400917.20853
1569400917.22416
1569400917.23978
1569400917.25541
1569400917.27104
1569400917.28666
1569400917.30229
1569400917.31791
1569400917.33354
1569400917.34916
1569400917.36479
1569400917.38042
1569400917.39604
1569400917.41167
1569400917.42729
1569400917.44292
1569400917.45854
1569400917.47417
1569400917.4898
1569400917.50542
1569400917.52105
1569400917.53667
1569400917.5523
1569400917.56792
1569400917.58355
1569400917.59918
1569400917.6148
1569400917.63043
1569400917.64605
1569400917.66168
1569400917.6773
1569400917.69293
1569400917.70856
1569400917.72418
1569400917.73981
1569400917.75543
1569400917.77106
1569400917.78668
1569400917.80231
1569400917.81794
1569400917.83356
1569400917.84919
1569400917.86481
1569400917.88044
1569400917.89606
1569400917.91169
1569400917.92732
1569400917.94294
1569400917.95857
1569400917.97419
1569400917.98982
1569400918.00544
1569400918.02107
1569400918.0367
1569400918.05232
1569400918.06795
1569400918.08357
1569400918.0992
1569400918.11482
1569400918.13045
1569400918.14608
1569400918.1617
1569400918.17733
1569400918.19295
1569400918.20858
1569400918.2242
1569400918.23983
1569400918.25546
1569400918.27108
1569400918.28671
1569400918.30233
1569400918.31796
1569400918.33358
1569400918.34921
1569400918.36484
1569400918.38046
1569400918.39609
1569400918.41171
1569400918.42734
1569400918.44297
1569400918.45859
1569400918.47422
1569400918.48984
1569400918.50547
1569400918.52109
1569400918.53672
1569400918.55235
1569400918.56797
1569400918.5836
1569400918.59922
1569400918.61485
1569400918.63047
1569400918.6461
1569400918.66173
1569400918.67735
1569400918.69298
1569400918.7086
1569400918.72423
1569400918.73985
1569400918.75548
1569400918.77111
1569400918.78673
1569400918.80236
1569400918.81798
1569400918.83361
1569400918.84923
1569400918.86486
1569400918.88049
1569400918.89611
1569400918.91174
1569400918.92736
1569400918.94299
1569400918.95861
1569400918.97424
1569400918.98987
1569400919.00549
1569400919.02112
1569400919.03674
1569400919.05237
1569400919.06799
1569400919.08362
1569400919.09925
1569400919.11487
1569400919.1305
1569400919.14612
1569400919.16175
1569400919.17737
1569400919.193
1569400919.20863
1569400919.22425
1569400919.23988
1569400919.2555
1569400919.27113
1569400919.28675
1569400919.30238
1569400919.31801
1569400919.33363
1569400919.34926
1569400919.36488
1569400919.38051
1569400919.39613
1569400919.41176
1569400919.42739
1569400919.44301
1569400919.45864
1569400919.47426
1569400919.48989
1569400919.50551
1569400919.52114
1569400919.53677
1569400919.55239
1569400919.56802
1569400919.58364
1569400919.59927
1569400919.61489
1569400919.63052
1569400919.64615
1569400919.66177
1569400919.6774
1569400919.69302
1569400919.70865
1569400919.72427
1569400919.7399
1569400919.75553
1569400919.77115
1569400919.78678
1569400919.8024
1569400919.81803
1569400919.83365
1569400919.84928
1569400919.86491
1569400919.88053
1569400919.89616
1569400919.91178
1569400919.92741
1569400919.94303
1569400919.95866
1569400919.97429
1569400919.98991
1569400920.00554
1569400920.02116
1569400920.03679
1569400920.05241
1569400920.06804
1569400920.08367
1569400920.09929
1569400920.11492
1569400920.13054
1569400920.14617
1569400920.16179
1569400920.17742
1569400920.19305
1569400920.20867
1569400920.2243
1569400920.23992
1569400920.25555
1569400920.27117
1569400920.2868
1569400920.30243
1569400920.31805
1569400920.33368
1569400920.3493
1569400920.36493
1569400920.38055
1569400920.39618
1569400920.41181
1569400920.42743
1569400920.44306
1569400920.45868
1569400920.47431
1569400920.48993
1569400920.50556
1569400920.52119
1569400920.53681
1569400920.55244
1569400920.56806
1569400920.58369
1569400920.59931
1569400920.61494
1569400920.63057
1569400920.64619
1569400920.66182
1569400920.67744
1569400920.69307
1569400920.70869
1569400920.72432
1569400920.73995
1569400920.75557
1569400920.7712
1569400920.78682
1569400920.80245
1569400920.81807
1569400920.8337
1569400920.84933
1569400920.86495
1569400920.88058
1569400920.8962
1569400920.91183
1569400920.92745
1569400920.94308
1569400920.95871
1569400920.97433
1569400920.98996
1569400921.00558
1569400921.02121
1569400921.03684
1569400921.05246
1569400921.06809
1569400921.08371
1569400921.09934
1569400921.11496
1569400921.13059
1569400921.14622
1569400921.16184
1569400921.17747
1569400921.19309
1569400921.20872
1569400921.22434
1569400921.23997
1569400921.2556
1569400921.27122
1569400921.28685
1569400921.30247
1569400921.3181
1569400921.33372
1569400921.34935
1569400921.36498
1569400921.3806
1569400921.39623
1569400921.41185
1569400921.42748
1569400921.4431
1569400921.45873
1569400921.47436
1569400921.48998
1569400921.50561
1569400921.52123
1569400921.53686
1569400921.55248
1569400921.56811
1569400921.58374
1569400921.59936
1569400921.61499
1569400921.63061
1569400921.64624
1569400921.66186
1569400921.67749
1569400921.69312
1569400921.70874
1569400921.72437
1569400921.73999
1569400921.75562
1569400921.77124
1569400921.78687
1569400921.8025
1569400921.81812
1569400921.83375
1569400921.84937
1569400921.865
1569400921.88062
1569400921.89625
1569400921.91188
1569400921.9275
1569400921.94313
1569400921.95875
1569400921.97438
1569400921.99
1569400922.00563
1569400922.02126
1569400922.03688
1569400922.05251
1569400922.06813
1569400922.08376
1569400922.09938
1569400922.11501
1569400922.13064
1569400922.14626
1569400922.16189
1569400922.17751
1569400922.19314
1569400922.20876
1569400922.22439
1569400922.24002
1569400922.25564
1569400922.27127
1569400922.28689
1569400922.30252
1569400922.31814
1569400922.33377
1569400922.3494
1569400922.36502
1569400922.38065
1569400922.39627
1569400922.4119
1569400922.42752
1569400922.44315
1569400922.45878
1569400922.4744
1569400922.49003
1569400922.50565
1569400922.52128
1569400922.5369
1569400922.55253
1569400922.56816
1569400922.58378
1569400922.59941
1569400922.61503
1569400922.63066
1569400922.64628
1569400922.66191
1569400922.67754
1569400922.69316
1569400922.70879
1569400922.72441
1569400922.74004
1569400922.75566
1569400922.77129
1569400922.78692
1569400922.80254
1569400922.81817
1569400922.83379
1569400922.84942
1569400922.86504
1569400922.88067
1569400922.8963
1569400922.91192
1569400922.92755
1569400922.94317
1569400922.9588
1569400922.97442
1569400922.99005
1569400923.00568
1569400923.0213
1569400923.03693
1569400923.05255
1569400923.06818
1569400923.0838
1569400923.09943
1569400923.11506
1569400923.13068
1569400923.14631
1569400923.16193
1569400923.17756
1569400923.19318
1569400923.20881
1569400923.22444
1569400923.24006
1569400923.25569
1569400923.27131
1569400923.28694
1569400923.30257
1569400923.31819
1569400923.33382
1569400923.34944
1569400923.36507
1569400923.38069
1569400923.39632
1569400923.41195
1569400923.42757
1569400923.4432
1569400923.45882
1569400923.47445
1569400923.49007
1569400923.5057
1569400923.52133
1569400923.53695
1569400923.55258
1569400923.5682
1569400923.58383
1569400923.59945
1569400923.61508
1569400923.63071
1569400923.64633
1569400923.66196
1569400923.67758
1569400923.69321
1569400923.70883
1569400923.72446
1569400923.74009
1569400923.75571
1569400923.77134
1569400923.78696
1569400923.80259
1569400923.81821
1569400923.83384
1569400923.84947
1569400923.86509
1569400923.88072
1569400923.89634
1569400923.91197
1569400923.92759
1569400923.94322
1569400923.95885
1569400923.97447
1569400923.9901
1569400924.00572
1569400924.02135
1569400924.03697
1569400924.0526
1569400924.06823
1569400924.08385
1569400924.09948
1569400924.1151
1569400924.13073
1569400924.14635
1569400924.16198
1569400924.17761
1569400924.19323
1569400924.20886
1569400924.22448
1569400924.24011
1569400924.25573
1569400924.27136
1569400924.28699
1569400924.30261
1569400924.31824
1569400924.33386
1569400924.34949
1569400924.36511
1569400924.38074
1569400924.39637
1569400924.41199
1569400924.42762
1569400924.44324
1569400924.45887
1569400924.47449
1569400924.49012
1569400924.50575
1569400924.52137
1569400924.537
1569400924.55262
1569400924.56825
1569400924.58387
1569400924.5995
1569400924.61513
1569400924.63075
1569400924.64638
1569400924.662
1569400924.67763
1569400924.69325
1569400924.70888
1569400924.72451
1569400924.74013
1569400924.75576
1569400924.77138
1569400924.78701
1569400924.80263
1569400924.81826
1569400924.83389
1569400924.84951
1569400924.86514
1569400924.88076
1569400924.89639
1569400924.91201
1569400924.92764
1569400924.94327
1569400924.95889
1569400924.97452
1569400924.99014
1569400925.00577
1569400925.02139
1569400925.03702
1569400925.05265
1569400925.06827
1569400925.0839
1569400925.09952
1569400925.11515
1569400925.13077
1569400925.1464
1569400925.16203
1569400925.17765
1569400925.19328
1569400925.2089
1569400925.22453
1569400925.24015
1569400925.25578
1569400925.27141
1569400925.28703
1569400925.30266
1569400925.31828
1569400925.33391
1569400925.34953
1569400925.36516
1569400925.38079
1569400925.39641
1569400925.41204
1569400925.42766
1569400925.44329
1569400925.45892
1569400925.47454
1569400925.49017
1569400925.50579
1569400925.52142
1569400925.53704
1569400925.55267
1569400925.5683
1569400925.58392
1569400925.59955
1569400925.61517
1569400925.6308
1569400925.64642
1569400925.66205
1569400925.67768
1569400925.6933
1569400925.70893
1569400925.72455
1569400925.74018
1569400925.7558
1569400925.77143
1569400925.78706
1569400925.80268
1569400925.81831
1569400925.83393
1569400925.84956
1569400925.86518
1569400925.88081
1569400925.89644
1569400925.91206
1569400925.92769
1569400925.94331
1569400925.95894
1569400925.97456
1569400925.99019
1569400926.00582
1569400926.02144
1569400926.03707
1569400926.05269
1569400926.06832
1569400926.08394
1569400926.09957
1569400926.1152
1569400926.13082
1569400926.14645
1569400926.16207
1569400926.1777
1569400926.19332
1569400926.20895
1569400926.22458
1569400926.2402
1569400926.25583
1569400926.27145
1569400926.28708
1569400926.3027
1569400926.31833
1569400926.33396
1569400926.34958
1569400926.36521
1569400926.38083
1569400926.39646
1569400926.41208
1569400926.42771
1569400926.44334
1569400926.45896
1569400926.47459
1569400926.49021
1569400926.50584
1569400926.52146
1569400926.53709
1569400926.55272
1569400926.56834
1569400926.58397
1569400926.59959
1569400926.61522
1569400926.63084
1569400926.64647
1569400926.6621
1569400926.67772
1569400926.69335
1569400926.70897
1569400926.7246
1569400926.74022
1569400926.75585
1569400926.77148
1569400926.7871
1569400926.80273
1569400926.81835
1569400926.83398
1569400926.8496
1569400926.86523
1569400926.88086
1569400926.89648
1569400926.91211
1569400926.92773
1569400926.94336
1569400926.95898
1569400926.97461
1569400926.99024
1569400927.00586
1569400927.02149
1569400927.03711
1569400927.05274
1569400927.06836
1569400927.08399
1569400927.09962
1569400927.11524
1569400927.13087
1569400927.14649
1569400927.16212
1569400927.17774
1569400927.19337
1569400927.209
1569400927.22462
1569400927.24025
1569400927.25587
1569400927.2715
1569400927.28712
1569400927.30275
1569400927.31838
1569400927.334
1569400927.34963
1569400927.36525
1569400927.38088
1569400927.3965
1569400927.41213
1569400927.42776
1569400927.44338
1569400927.45901
1569400927.47463
1569400927.49026
1569400927.50588
1569400927.52151
1569400927.53714
1569400927.55276
1569400927.56839
1569400927.58401
1569400927.59964
1569400927.61526
1569400927.63089
1569400927.64652
1569400927.66214
1569400927.67777
1569400927.69339
1569400927.70902
1569400927.72464
1569400927.74027
1569400927.7559
1569400927.77152
1569400927.78715
1569400927.80277
1569400927.8184
1569400927.83402
1569400927.84965
1569400927.86528
1569400927.8809
1569400927.89653
1569400927.91215
1569400927.92778
1569400927.9434
1569400927.95903
1569400927.97466
1569400927.99028
1569400928.00591
1569400928.02153
1569400928.03716
1569400928.05278
1569400928.06841
1569400928.08404
1569400928.09966
1569400928.11529
1569400928.13091
1569400928.14654
1569400928.16217
1569400928.17779
1569400928.19342
1569400928.20904
1569400928.22467
1569400928.24029
1569400928.25592
1569400928.27155
1569400928.28717
1569400928.3028
1569400928.31842
1569400928.33405
1569400928.34967
1569400928.3653
1569400928.38093
1569400928.39655
1569400928.41218
1569400928.4278
1569400928.44343
1569400928.45905
1569400928.47468
1569400928.49031
1569400928.50593
1569400928.52156
1569400928.53718
1569400928.55281
1569400928.56843
1569400928.58406
1569400928.59969
1569400928.61531
1569400928.63094
1569400928.64656
1569400928.66219
1569400928.67781
1569400928.69344
1569400928.70907
1569400928.72469
1569400928.74032
1569400928.75594
1569400928.77157
1569400928.78719
1569400928.80282
1569400928.81845
1569400928.83407
1569400928.8497
1569400928.86532
1569400928.88095
1569400928.89657
1569400928.9122
1569400928.92783
1569400928.94345
1569400928.95908
1569400928.9747
1569400928.99033
1569400929.00595
1569400929.02158
1569400929.03721
1569400929.05283
1569400929.06846
1569400929.08408
1569400929.09971
1569400929.11533
1569400929.13096
1569400929.14659
1569400929.16221
1569400929.17784
1569400929.19346
1569400929.20909
1569400929.22471
1569400929.24034
1569400929.25597
1569400929.27159
1569400929.28722
1569400929.30284
1569400929.31847
1569400929.33409
1569400929.34972
1569400929.36535
1569400929.38097
1569400929.3966
1569400929.41222
1569400929.42785
1569400929.44347
1569400929.4591
1569400929.47473
1569400929.49035
1569400929.50598
1569400929.5216
1569400929.53723
1569400929.55285
1569400929.56848
1569400929.58411
1569400929.59973
1569400929.61536
1569400929.63098
1569400929.64661
1569400929.66223
1569400929.67786
1569400929.69349
1569400929.70911
1569400929.72474
1569400929.74036
1569400929.75599
1569400929.77161
1569400929.78724
1569400929.80287
1569400929.81849
1569400929.83412
1569400929.84974
1569400929.86537
1569400929.88099
1569400929.89662
1569400929.91225
1569400929.92787
1569400929.9435
1569400929.95912
1569400929.97475
1569400929.99037
1569400930.006
1569400930.02163
1569400930.03725
1569400930.05288
1569400930.0685
1569400930.08413
1569400930.09975
1569400930.11538
1569400930.13101
1569400930.14663
1569400930.16226
1569400930.17788
1569400930.19351
1569400930.20913
1569400930.22476
1569400930.24039
1569400930.25601
1569400930.27164
1569400930.28726
1569400930.30289
1569400930.31851
1569400930.33414
1569400930.34977
1569400930.36539
1569400930.38102
1569400930.39664
1569400930.41227
1569400930.4279
1569400930.44352
1569400930.45915
1569400930.47477
1569400930.4904
1569400930.50602
1569400930.52165
1569400930.53728
1569400930.5529
1569400930.56853
1569400930.58415
1569400930.59978
1569400930.6154
1569400930.63103
1569400930.64666
1569400930.66228
1569400930.67791
1569400930.69353
1569400930.70916
1569400930.72478
1569400930.74041
1569400930.75604
1569400930.77166
1569400930.78729
1569400930.80291
1569400930.81854
1569400930.83416
1569400930.84979
1569400930.86542
1569400930.88104
1569400930.89667
1569400930.91229
1569400930.92792
1569400930.94354
1569400930.95917
1569400930.9748
1569400930.99042
1569400931.00605
1569400931.02167
1569400931.0373
1569400931.05292
1569400931.06855
1569400931.08418
1569400931.0998
1569400931.11543
1569400931.13105
1569400931.14668
1569400931.1623
1569400931.17793
1569400931.19356
1569400931.20918
1569400931.22481
1569400931.24043
1569400931.25606
1569400931.27168
1569400931.28731
1569400931.30294
1569400931.31856
1569400931.33419
1569400931.34981
1569400931.36544
1569400931.38106
1569400931.39669
1569400931.41232
1569400931.42794
1569400931.44357
1569400931.45919
1569400931.47482
1569400931.49044
1569400931.50607
1569400931.5217
1569400931.53732
1569400931.55295
1569400931.56857
1569400931.5842
1569400931.59982
1569400931.61545
1569400931.63108
1569400931.6467
1569400931.66233
1569400931.67795
1569400931.69358
1569400931.7092
1569400931.72483
1569400931.74046
1569400931.75608
1569400931.77171
1569400931.78733
1569400931.80296
1569400931.81858
1569400931.83421
1569400931.84984
1569400931.86546
1569400931.88109
1569400931.89671
1569400931.91234
1569400931.92796
1569400931.94359
1569400931.95922
1569400931.97484
1569400931.99047
1569400932.00609
1569400932.02172
1569400932.03734
1569400932.05297
1569400932.0686
1569400932.08422
1569400932.09985
1569400932.11547
1569400932.1311
1569400932.14672
1569400932.16235
1569400932.17798
1569400932.1936
1569400932.20923
1569400932.22485
1569400932.24048
1569400932.2561
1569400932.27173
1569400932.28736
1569400932.30298
1569400932.31861
1569400932.33423
1569400932.34986
1569400932.36548
1569400932.38111
1569400932.39674
1569400932.41236
1569400932.42799
1569400932.44361
1569400932.45924
1569400932.47486
1569400932.49049
1569400932.50612
1569400932.52174
1569400932.53737
1569400932.55299
1569400932.56862
1569400932.58424
1569400932.59987
1569400932.6155
1569400932.63112
1569400932.64675
1569400932.66237
1569400932.678
1569400932.69362
1569400932.70925
1569400932.72488
1569400932.7405
1569400932.75613
1569400932.77175
1569400932.78738
1569400932.803
1569400932.81863
1569400932.83426
1569400932.84988
1569400932.86551
1569400932.88113
1569400932.89676
1569400932.91238
1569400932.92801
1569400932.94364
1569400932.95926
1569400932.97489
1569400932.99051
1569400933.00614
1569400933.02177
1569400933.03739
1569400933.05302
1569400933.06864
1569400933.08427
1569400933.09989
1569400933.11552
1569400933.13115
1569400933.14677
1569400933.1624
1569400933.17802
1569400933.19365
1569400933.20927
1569400933.2249
1569400933.24053
1569400933.25615
1569400933.27178
1569400933.2874
1569400933.30303
1569400933.31865
1569400933.33428
1569400933.34991
1569400933.36553
1569400933.38116
1569400933.39678
1569400933.41241
1569400933.42803
1569400933.44366
1569400933.45929
1569400933.47491
1569400933.49054
1569400933.50616
1569400933.52179
1569400933.53741
1569400933.55304
1569400933.56867
1569400933.58429
1569400933.59992
1569400933.61554
1569400933.63117
1569400933.64679
1569400933.66242
1569400933.67805
1569400933.69367
1569400933.7093
1569400933.72492
1569400933.74055
1569400933.75617
1569400933.7718
1569400933.78743
1569400933.80305
1569400933.81868
1569400933.8343
1569400933.84993
1569400933.86555
1569400933.88118
1569400933.89681
1569400933.91243
1569400933.92806
1569400933.94368
1569400933.95931
1569400933.97493
1569400933.99056
1569400934.00619
1569400934.02181
1569400934.03744
1569400934.05306
1569400934.06869
1569400934.08431
1569400934.09994
1569400934.11557
1569400934.13119
1569400934.14682
1569400934.16244
1569400934.17807
1569400934.19369
1569400934.20932
1569400934.22495
1569400934.24057
1569400934.2562
1569400934.27182
1569400934.28745
1569400934.30307
1569400934.3187
1569400934.33433
1569400934.34995
1569400934.36558
1569400934.3812
1569400934.39683
1569400934.41245
1569400934.42808
1569400934.44371
1569400934.45933
1569400934.47496
1569400934.49058
1569400934.50621
1569400934.52183
1569400934.53746
1569400934.55309
1569400934.56871
1569400934.58434
1569400934.59996
1569400934.61559
1569400934.63121
1569400934.64684
1569400934.66247
1569400934.67809
1569400934.69372
1569400934.70934
1569400934.72497
1569400934.74059
1569400934.75622
1569400934.77185
1569400934.78747
1569400934.8031
1569400934.81872
1569400934.83435
1569400934.84997
1569400934.8656
1569400934.88123
1569400934.89685
1569400934.91248
1569400934.9281
1569400934.94373
1569400934.95935
1569400934.97498
1569400934.99061
1569400935.00623
1569400935.02186
1569400935.03748
1569400935.05311
1569400935.06873
1569400935.08436
1569400935.09999
1569400935.11561
1569400935.13124
1569400935.14686
1569400935.16249
1569400935.17811
1569400935.19374
1569400935.20937
1569400935.22499
1569400935.24062
1569400935.25624
1569400935.27187
1569400935.2875
1569400935.30312
1569400935.31875
1569400935.33437
1569400935.35
1569400935.36562
1569400935.38125
1569400935.39688
1569400935.4125
1569400935.42813
1569400935.44375
1569400935.45938
1569400935.475
1569400935.49063
1569400935.50626
1569400935.52188
1569400935.53751
1569400935.55313
1569400935.56876
1569400935.58438
1569400935.60001
1569400935.61564
1569400935.63126
1569400935.64689
1569400935.66251
1569400935.67814
1569400935.69376
1569400935.70939
1569400935.72502
1569400935.74064
1569400935.75627
1569400935.77189
1569400935.78752
1569400935.80314
1569400935.81877
1569400935.8344
1569400935.85002
1569400935.86565
1569400935.88127
1569400935.8969
1569400935.91252
1569400935.92815
1569400935.94378
1569400935.9594
1569400935.97503
1569400935.99065
1569400936.00628
1569400936.0219
1569400936.03753
1569400936.05316
1569400936.06878
1569400936.08441
1569400936.10003
1569400936.11566
1569400936.13128
1569400936.14691
1569400936.16254
1569400936.17816
1569400936.19379
1569400936.20941
1569400936.22504
1569400936.24066
1569400936.25629
1569400936.27192
1569400936.28754
1569400936.30317
1569400936.31879
1569400936.33442
1569400936.35004
1569400936.36567
1569400936.3813
1569400936.39692
1569400936.41255
1569400936.42817
1569400936.4438
1569400936.45942
1569400936.47505
1569400936.49068
1569400936.5063
1569400936.52193
1569400936.53755
1569400936.55318
1569400936.5688
1569400936.58443
1569400936.60006
1569400936.61568
1569400936.63131
1569400936.64693
1569400936.66256
1569400936.67818
1569400936.69381
1569400936.70944
1569400936.72506
1569400936.74069
1569400936.75631
1569400936.77194
1569400936.78756
1569400936.80319
1569400936.81882
1569400936.83444
1569400936.85007
1569400936.86569
1569400936.88132
1569400936.89694
1569400936.91257
1569400936.9282
1569400936.94382
1569400936.95945
1569400936.97507
1569400936.9907
1569400937.00632
1569400937.02195
1569400937.03758
1569400937.0532
1569400937.06883
1569400937.08445
1569400937.10008
1569400937.1157
1569400937.13133
1569400937.14696
1569400937.16258
1569400937.17821
1569400937.19383
1569400937.20946
1569400937.22508
1569400937.24071
1569400937.25634
1569400937.27196
1569400937.28759
1569400937.30321
1569400937.31884
1569400937.33446
1569400937.35009
1569400937.36572
1569400937.38134
1569400937.39697
1569400937.41259
1569400937.42822
1569400937.44385
1569400937.45947
1569400937.4751
1569400937.49072
1569400937.50635
1569400937.52197
1569400937.5376
1569400937.55323
1569400937.56885
1569400937.58448
1569400937.6001
1569400937.61573
1569400937.63135
1569400937.64698
1569400937.66261
1569400937.67823
1569400937.69386
1569400937.70948
1569400937.72511
1569400937.74073
1569400937.75636
1569400937.77199
1569400937.78761
1569400937.80324
1569400937.81886
1569400937.83449
1569400937.85011
1569400937.86574
1569400937.88137
1569400937.89699
1569400937.91262
1569400937.92824
1569400937.94387
1569400937.95949
1569400937.97512
1569400937.99075
1569400938.00637
1569400938.022
1569400938.03762
1569400938.05325
1569400938.06887
1569400938.0845
1569400938.10013
1569400938.11575
1569400938.13138
1569400938.147
1569400938.16263
1569400938.17825
1569400938.19388
1569400938.20951
1569400938.22513
1569400938.24076
1569400938.25638
1569400938.27201
1569400938.28763
1569400938.30326
1569400938.31889
1569400938.33451
1569400938.35014
1569400938.36576
1569400938.38139
1569400938.39701
1569400938.41264
1569400938.42827
1569400938.44389
1569400938.45952
1569400938.47514
1569400938.49077
1569400938.50639
1569400938.52202
1569400938.53765
1569400938.55327
1569400938.5689
1569400938.58452
1569400938.60015
1569400938.61577
1569400938.6314
1569400938.64703
1569400938.66265
1569400938.67828
1569400938.6939
1569400938.70953
1569400938.72515
1569400938.74078
1569400938.75641
1569400938.77203
1569400938.78766
1569400938.80328
1569400938.81891
1569400938.83453
1569400938.85016
1569400938.86579
1569400938.88141
1569400938.89704
1569400938.91266
1569400938.92829
1569400938.94391
1569400938.95954
1569400938.97517
1569400938.99079
1569400939.00642
1569400939.02204
1569400939.03767
1569400939.05329
1569400939.06892
1569400939.08455
1569400939.10017
1569400939.1158
1569400939.13142
1569400939.14705
1569400939.16267
1569400939.1783
1569400939.19393
1569400939.20955
1569400939.22518
1569400939.2408
1569400939.25643
1569400939.27205
1569400939.28768
1569400939.30331
1569400939.31893
1569400939.33456
1569400939.35018
1569400939.36581
1569400939.38143
1569400939.39706
1569400939.41269
1569400939.42831
1569400939.44394
1569400939.45956
1569400939.47519
1569400939.49081
1569400939.50644
1569400939.52207
1569400939.53769
1569400939.55332
1569400939.56894
1569400939.58457
1569400939.60019
1569400939.61582
1569400939.63145
1569400939.64707
1569400939.6627
1569400939.67832
1569400939.69395
1569400939.70957
1569400939.7252
1569400939.74083
1569400939.75645
1569400939.77208
1569400939.7877
1569400939.80333
1569400939.81895
1569400939.83458
1569400939.85021
1569400939.86583
1569400939.88146
1569400939.89708
1569400939.91271
1569400939.92833
1569400939.94396
1569400939.95959
1569400939.97521
1569400939.99084
1569400940.00646
1569400940.02209
1569400940.03771
1569400940.05334
1569400940.06897
1569400940.08459
1569400940.10022
1569400940.11584
1569400940.13147
1569400940.1471
1569400940.16272
1569400940.17835
1569400940.19397
1569400940.2096
1569400940.22522
1569400940.24085
1569400940.25648
1569400940.2721
1569400940.28773
1569400940.30335
1569400940.31898
1569400940.3346
1569400940.35023
1569400940.36586
1569400940.38148
1569400940.39711
1569400940.41273
1569400940.42836
1569400940.44398
1569400940.45961
1569400940.47524
1569400940.49086
1569400940.50649
1569400940.52211
1569400940.53774
1569400940.55336
1569400940.56899
1569400940.58462
1569400940.60024
1569400940.61587
1569400940.63149
1569400940.64712
1569400940.66274
1569400940.67837
1569400940.694
1569400940.70962
1569400940.72525
1569400940.74087
1569400940.7565
1569400940.77212
1569400940.78775
1569400940.80338
1569400940.819
1569400940.83463
1569400940.85025
1569400940.86588
1569400940.8815
1569400940.89713
1569400940.91276
1569400940.92838
1569400940.94401
1569400940.95963
1569400940.97526
1569400940.99088
1569400941.00651
1569400941.02214
1569400941.03776
1569400941.05339
1569400941.06901
1569400941.08464
1569400941.10026
1569400941.11589
1569400941.13152
1569400941.14714
1569400941.16277
1569400941.17839
1569400941.19402
1569400941.20964
1569400941.22527
1569400941.2409
1569400941.25652
1569400941.27215
1569400941.28777
1569400941.3034
1569400941.31902
1569400941.33465
1569400941.35028
1569400941.3659
1569400941.38153
1569400941.39715
1569400941.41278
1569400941.4284
1569400941.44403
1569400941.45966
1569400941.47528
1569400941.49091
1569400941.50653
1569400941.52216
1569400941.53778
1569400941.55341
1569400941.56904
1569400941.58466
1569400941.60029
1569400941.61591
1569400941.63154
1569400941.64716
1569400941.66279
1569400941.67842
1569400941.69404
1569400941.70967
1569400941.72529
1569400941.74092
1569400941.75654
1569400941.77217
1569400941.7878
1569400941.80342
1569400941.81905
1569400941.83467
1569400941.8503
1569400941.86592
1569400941.88155
1569400941.89718
1569400941.9128
1569400941.92843
1569400941.94405
1569400941.95968
1569400941.9753
1569400941.99093
1569400942.00656
1569400942.02218
1569400942.03781
1569400942.05343
1569400942.06906
1569400942.08468
1569400942.10031
1569400942.11594
1569400942.13156
1569400942.14719
1569400942.16281
1569400942.17844
1569400942.19406
1569400942.20969
1569400942.22532
1569400942.24094
1569400942.25657
1569400942.27219
1569400942.28782
1569400942.30345
1569400942.31907
1569400942.3347
1569400942.35032
1569400942.36595
1569400942.38157
1569400942.3972
1569400942.41283
1569400942.42845
1569400942.44408
1569400942.4597
1569400942.47533
1569400942.49095
1569400942.50658
1569400942.52221
1569400942.53783
1569400942.55346
1569400942.56908
1569400942.58471
1569400942.60033
1569400942.61596
1569400942.63159
1569400942.64721
1569400942.66284
1569400942.67846
1569400942.69409
1569400942.70971
1569400942.72534
1569400942.74097
1569400942.75659
1569400942.77222
1569400942.78784
1569400942.80347
1569400942.81909
1569400942.83472
1569400942.85035
1569400942.86597
1569400942.8816
1569400942.89722
1569400942.91285
1569400942.92847
1569400942.9441
1569400942.95973
1569400942.97535
1569400942.99098
1569400943.0066
1569400943.02223
1569400943.03785
1569400943.05348
1569400943.06911
1569400943.08473
1569400943.10036
1569400943.11598
1569400943.13161
1569400943.14723
1569400943.16286
1569400943.17849
1569400943.19411
1569400943.20974
1569400943.22536
1569400943.24099
1569400943.25661
1569400943.27224
1569400943.28787
1569400943.30349
1569400943.31912
1569400943.33474
1569400943.35037
1569400943.36599
1569400943.38162
1569400943.39725
1569400943.41287
1569400943.4285
1569400943.44412
1569400943.45975
1569400943.47537
1569400943.491
1569400943.50663
1569400943.52225
1569400943.53788
1569400943.5535
1569400943.56913
1569400943.58475
1569400943.60038
1569400943.61601
1569400943.63163
1569400943.64726
1569400943.66288
1569400943.67851
1569400943.69413
1569400943.70976
1569400943.72539
1569400943.74101
1569400943.75664
1569400943.77226
1569400943.78789
1569400943.80351
1569400943.81914
1569400943.83477
1569400943.85039
1569400943.86602
1569400943.88164
1569400943.89727
1569400943.91289
1569400943.92852
1569400943.94415
1569400943.95977
1569400943.9754
1569400943.99102
1569400944.00665
1569400944.02227
1569400944.0379
1569400944.05353
1569400944.06915
1569400944.08478
1569400944.1004
1569400944.11603
1569400944.13165
1569400944.14728
1569400944.16291
1569400944.17853
1569400944.19416
1569400944.20978
1569400944.22541
1569400944.24103
1569400944.25666
1569400944.27229
1569400944.28791
1569400944.30354
1569400944.31916
1569400944.33479
1569400944.35041
1569400944.36604
1569400944.38167
1569400944.39729
1569400944.41292
1569400944.42854
1569400944.44417
1569400944.45979
1569400944.47542
1569400944.49105
1569400944.50667
1569400944.5223
1569400944.53792
1569400944.55355
1569400944.56918
1569400944.5848
1569400944.60043
1569400944.61605
1569400944.63168
1569400944.6473
1569400944.66293
1569400944.67856
1569400944.69418
1569400944.70981
1569400944.72543
1569400944.74106
1569400944.75668
1569400944.77231
1569400944.78794
1569400944.80356
1569400944.81919
1569400944.83481
1569400944.85044
1569400944.86606
1569400944.88169
1569400944.89732
1569400944.91294
1569400944.92857
1569400944.94419
1569400944.95982
1569400944.97544
1569400944.99107
1569400945.0067
1569400945.02232
1569400945.03795
1569400945.05357
1569400945.0692
1569400945.08482
1569400945.10045
1569400945.11608
1569400945.1317
1569400945.14733
1569400945.16295
1569400945.17858
1569400945.1942
1569400945.20983
1569400945.22546
1569400945.24108
1569400945.25671
1569400945.27233
1569400945.28796
1569400945.30358
1569400945.31921
1569400945.33484
1569400945.35046
1569400945.36609
1569400945.38171
1569400945.39734
1569400945.41296
1569400945.42859
1569400945.44422
1569400945.45984
1569400945.47547
1569400945.49109
1569400945.50672
1569400945.52234
1569400945.53797
1569400945.5536
1569400945.56922
1569400945.58485
1569400945.60047
1569400945.6161
1569400945.63172
1569400945.64735
1569400945.66298
1569400945.6786
1569400945.69423
1569400945.70985
1569400945.72548
1569400945.7411
1569400945.75673
1569400945.77236
1569400945.78798
1569400945.80361
1569400945.81923
1569400945.83486
1569400945.85048
1569400945.86611
1569400945.88174
1569400945.89736
1569400945.91299
1569400945.92861
1569400945.94424
1569400945.95986
1569400945.97549
1569400945.99112
1569400946.00674
1569400946.02237
1569400946.03799
1569400946.05362
1569400946.06924
1569400946.08487
1569400946.1005
1569400946.11612
1569400946.13175
1569400946.14737
1569400946.163
1569400946.17862
1569400946.19425
1569400946.20988
1569400946.2255
1569400946.24113
1569400946.25675
1569400946.27238
1569400946.288
1569400946.30363
1569400946.31926
1569400946.33488
1569400946.35051
1569400946.36613
1569400946.38176
1569400946.39738
1569400946.41301
1569400946.42864
1569400946.44426
1569400946.45989
1569400946.47551
1569400946.49114
1569400946.50676
1569400946.52239
1569400946.53802
1569400946.55364
1569400946.56927
1569400946.58489
1569400946.60052
1569400946.61614
1569400946.63177
1569400946.6474
1569400946.66302
1569400946.67865
1569400946.69427
1569400946.7099
1569400946.72552
1569400946.74115
1569400946.75678
1569400946.7724
1569400946.78803
1569400946.80365
1569400946.81928
1569400946.8349
1569400946.85053
1569400946.86616
1569400946.88178
1569400946.89741
1569400946.91303
1569400946.92866
1569400946.94428
1569400946.95991
1569400946.97554
1569400946.99116
1569400947.00679
1569400947.02241
1569400947.03804
1569400947.05366
1569400947.06929
1569400947.08492
1569400947.10054
1569400947.11617
1569400947.13179
1569400947.14742
1569400947.16305
1569400947.17867
1569400947.1943
1569400947.20992
1569400947.22555
1569400947.24117
1569400947.2568
1569400947.27243
1569400947.28805
1569400947.30368
1569400947.3193
1569400947.33493
1569400947.35055
1569400947.36618
1569400947.38181
1569400947.39743
1569400947.41306
1569400947.42868
1569400947.44431
1569400947.45993
1569400947.47556
1569400947.49119
1569400947.50681
1569400947.52244
1569400947.53806
1569400947.55369
1569400947.56931
1569400947.58494
1569400947.60057
1569400947.61619
1569400947.63182
1569400947.64744
1569400947.66307
1569400947.67869
1569400947.69432
1569400947.70995
1569400947.72557
1569400947.7412
1569400947.75682
1569400947.77245
1569400947.78807
1569400947.8037
1569400947.81933
1569400947.83495
1569400947.85058
1569400947.8662
1569400947.88183
1569400947.89745
1569400947.91308
1569400947.92871
1569400947.94433
1569400947.95996
1569400947.97558
1569400947.99121
1569400948.00683
1569400948.02246
1569400948.03809
1569400948.05371
1569400948.06934
1569400948.08496
1569400948.10059
1569400948.11621
1569400948.13184
1569400948.14747
1569400948.16309
1569400948.17872
1569400948.19434
1569400948.20997
1569400948.22559
1569400948.24122
1569400948.25685
1569400948.27247
1569400948.2881
1569400948.30372
1569400948.31935
1569400948.33497
1569400948.3506
1569400948.36623
1569400948.38185
1569400948.39748
1569400948.4131
1569400948.42873
1569400948.44435
1569400948.45998
1569400948.47561
1569400948.49123
1569400948.50686
1569400948.52248
1569400948.53811
1569400948.55373
1569400948.56936
1569400948.58499
1569400948.60061
1569400948.61624
1569400948.63186
1569400948.64749
1569400948.66311
1569400948.67874
1569400948.69437
1569400948.70999
1569400948.72562
1569400948.74124
1569400948.75687
1569400948.77249
1569400948.78812
1569400948.80375
1569400948.81937
1569400948.835
1569400948.85062
1569400948.86625
1569400948.88187
1569400948.8975
1569400948.91313
1569400948.92875
1569400948.94438
1569400948.96
1569400948.97563
1569400948.99125
1569400949.00688
1569400949.02251
1569400949.03813
1569400949.05376
1569400949.06938
1569400949.08501
1569400949.10063
1569400949.11626
1569400949.13189
1569400949.14751
1569400949.16314
1569400949.17876
1569400949.19439
1569400949.21001
1569400949.22564
1569400949.24127
1569400949.25689
1569400949.27252
1569400949.28814
1569400949.30377
1569400949.31939
1569400949.33502
1569400949.35065
1569400949.36627
1569400949.3819
1569400949.39752
1569400949.41315
1569400949.42878
1569400949.4444
1569400949.46003
1569400949.47565
1569400949.49128
1569400949.5069
1569400949.52253
1569400949.53816
1569400949.55378
1569400949.56941
1569400949.58503
1569400949.60066
1569400949.61628
1569400949.63191
1569400949.64754
1569400949.66316
1569400949.67879
1569400949.69441
1569400949.71004
1569400949.72566
1569400949.74129
1569400949.75692
1569400949.77254
1569400949.78817
1569400949.80379
1569400949.81942
1569400949.83504
1569400949.85067
1569400949.8663
1569400949.88192
1569400949.89755
1569400949.91317
1569400949.9288
1569400949.94442
1569400949.96005
1569400949.97568
1569400949.9913
1569400950.00693
1569400950.02255
1569400950.03818
1569400950.0538
1569400950.06943
1569400950.08506
1569400950.10068
1569400950.11631
1569400950.13193
1569400950.14756
1569400950.16318
1569400950.17881
1569400950.19444
1569400950.21006
1569400950.22569
1569400950.24131
1569400950.25694
1569400950.27256
1569400950.28819
1569400950.30382
1569400950.31944
1569400950.33507
1569400950.35069
1569400950.36632
1569400950.38194
1569400950.39757
1569400950.4132
1569400950.42882
1569400950.44445
1569400950.46007
1569400950.4757
1569400950.49132
1569400950.50695
1569400950.52258
1569400950.5382
1569400950.55383
1569400950.56945
1569400950.58508
1569400950.6007
1569400950.61633
1569400950.63196
1569400950.64758
1569400950.66321
1569400950.67883
1569400950.69446
1569400950.71008
1569400950.72571
1569400950.74134
1569400950.75696
1569400950.77259
1569400950.78821
1569400950.80384
1569400950.81946
1569400950.83509
1569400950.85072
1569400950.86634
1569400950.88197
1569400950.89759
1569400950.91322
1569400950.92884
1569400950.94447
1569400950.9601
1569400950.97572
1569400950.99135
1569400951.00697
1569400951.0226
1569400951.03822
1569400951.05385
1569400951.06948
1569400951.0851
1569400951.10073
1569400951.11635
1569400951.13198
1569400951.1476
1569400951.16323
1569400951.17886
1569400951.19448
1569400951.21011
1569400951.22573
1569400951.24136
1569400951.25698
1569400951.27261
1569400951.28824
1569400951.30386
1569400951.31949
1569400951.33511
1569400951.35074
1569400951.36636
1569400951.38199
1569400951.39762
1569400951.41324
1569400951.42887
1569400951.44449
1569400951.46012
1569400951.47574
1569400951.49137
1569400951.507
1569400951.52262
1569400951.53825
1569400951.55387
1569400951.5695
1569400951.58512
1569400951.60075
1569400951.61638
1569400951.632
1569400951.64763
1569400951.66325
1569400951.67888
1569400951.6945
1569400951.71013
1569400951.72576
1569400951.74138
1569400951.75701
1569400951.77263
1569400951.78826
1569400951.80388
1569400951.81951
1569400951.83514
1569400951.85076
1569400951.86639
1569400951.88201
1569400951.89764
1569400951.91326
1569400951.92889
1569400951.94452
1569400951.96014
1569400951.97577
1569400951.99139
1569400952.00702
1569400952.02265
1569400952.03827
1569400952.0539
1569400952.06952
1569400952.08515
1569400952.10077
1569400952.1164
1569400952.13203
1569400952.14765
1569400952.16328
1569400952.1789
1569400952.19453
1569400952.21015
1569400952.22578
1569400952.24141
1569400952.25703
1569400952.27266
1569400952.28828
1569400952.30391
1569400952.31953
1569400952.33516
1569400952.35079
1569400952.36641
1569400952.38204
1569400952.39766
1569400952.41329
1569400952.42891
1569400952.44454
1569400952.46017
1569400952.47579
1569400952.49142
1569400952.50704
1569400952.52267
1569400952.53829
1569400952.55392
1569400952.56955
1569400952.58517
1569400952.6008
1569400952.61642
1569400952.63205
1569400952.64767
1569400952.6633
1569400952.67893
1569400952.69455
1569400952.71018
1569400952.7258
1569400952.74143
1569400952.75705
1569400952.77268
1569400952.78831
1569400952.80393
1569400952.81956
1569400952.83518
1569400952.85081
1569400952.86643
1569400952.88206
1569400952.89769
1569400952.91331
1569400952.92894
1569400952.94456
1569400952.96019
1569400952.97581
1569400952.99144
1569400953.00707
1569400953.02269
1569400953.03832
1569400953.05394
1569400953.06957
1569400953.08519
1569400953.10082
1569400953.11645
1569400953.13207
1569400953.1477
1569400953.16332
1569400953.17895
1569400953.19457
1569400953.2102
1569400953.22583
1569400953.24145
1569400953.25708
1569400953.2727
1569400953.28833
1569400953.30395
1569400953.31958
1569400953.33521
1569400953.35083
1569400953.36646
1569400953.38208
1569400953.39771
1569400953.41333
1569400953.42896
1569400953.44459
1569400953.46021
1569400953.47584
1569400953.49146
1569400953.50709
1569400953.52271
1569400953.53834
1569400953.55397
1569400953.56959
1569400953.58522
1569400953.60084
1569400953.61647
1569400953.63209
1569400953.64772
1569400953.66335
1569400953.67897
1569400953.6946
1569400953.71022
1569400953.72585
1569400953.74147
1569400953.7571
1569400953.77273
1569400953.78835
1569400953.80398
1569400953.8196
1569400953.83523
1569400953.85085
1569400953.86648
1569400953.88211
1569400953.89773
1569400953.91336
1569400953.92898
1569400953.94461
1569400953.96023
1569400953.97586
1569400953.99149
1569400954.00711
1569400954.02274
1569400954.03836
1569400954.05399
1569400954.06961
1569400954.08524
1569400954.10087
1569400954.11649
1569400954.13212
1569400954.14774
1569400954.16337
1569400954.17899
1569400954.19462
1569400954.21025
1569400954.22587
1569400954.2415
1569400954.25712
1569400954.27275
1569400954.28838
1569400954.304
1569400954.31963
1569400954.33525
1569400954.35088
1569400954.3665
1569400954.38213
1569400954.39776
1569400954.41338
1569400954.42901
1569400954.44463
1569400954.46026
1569400954.47588
1569400954.49151
1569400954.50714
1569400954.52276
1569400954.53839
1569400954.55401
1569400954.56964
1569400954.58526
1569400954.60089
1569400954.61652
1569400954.63214
1569400954.64777
1569400954.66339
1569400954.67902
1569400954.69464
1569400954.71027
1569400954.7259
1569400954.74152
1569400954.75715
1569400954.77277
1569400954.7884
1569400954.80402
1569400954.81965
1569400954.83528
1569400954.8509
1569400954.86653
1569400954.88215
1569400954.89778
1569400954.9134
1569400954.92903
1569400954.94466
1569400954.96028
1569400954.97591
1569400954.99153
1569400955.00716
1569400955.02278
1569400955.03841
1569400955.05404
1569400955.06966
1569400955.08529
1569400955.10091
1569400955.11654
1569400955.13216
1569400955.14779
1569400955.16342
1569400955.17904
1569400955.19467
1569400955.21029
1569400955.22592
1569400955.24154
1569400955.25717
1569400955.2728
1569400955.28842
1569400955.30405
1569400955.31967
1569400955.3353
1569400955.35092
1569400955.36655
1569400955.38218
1569400955.3978
1569400955.41343
1569400955.42905
1569400955.44468
1569400955.4603
1569400955.47593
1569400955.49156
1569400955.50718
1569400955.52281
1569400955.53843
1569400955.55406
1569400955.56968
1569400955.58531
1569400955.60094
1569400955.61656
1569400955.63219
1569400955.64781
1569400955.66344
1569400955.67906
1569400955.69469
1569400955.71032
1569400955.72594
1569400955.74157
1569400955.75719
1569400955.77282
1569400955.78844
1569400955.80407
1569400955.8197
1569400955.83532
1569400955.85095
1569400955.86657
1569400955.8822
1569400955.89782
1569400955.91345
1569400955.92908
1569400955.9447
1569400955.96033
1569400955.97595
1569400955.99158
1569400956.0072
1569400956.02283
1569400956.03846
1569400956.05408
1569400956.06971
1569400956.08533
1569400956.10096
1569400956.11658
1569400956.13221
1569400956.14784
1569400956.16346
1569400956.17909
1569400956.19471
1569400956.21034
1569400956.22596
1569400956.24159
1569400956.25722
1569400956.27284
1569400956.28847
1569400956.30409
1569400956.31972
1569400956.33534
1569400956.35097
1569400956.3666
1569400956.38222
1569400956.39785
1569400956.41347
1569400956.4291
1569400956.44473
1569400956.46035
1569400956.47598
1569400956.4916
1569400956.50723
1569400956.52285
1569400956.53848
1569400956.55411
1569400956.56973
1569400956.58536
1569400956.60098
1569400956.61661
1569400956.63223
1569400956.64786
1569400956.66349
1569400956.67911
1569400956.69474
1569400956.71036
1569400956.72599
1569400956.74161
1569400956.75724
1569400956.77287
1569400956.78849
1569400956.80412
1569400956.81974
1569400956.83537
1569400956.85099
1569400956.86662
1569400956.88225
1569400956.89787
1569400956.9135
1569400956.92912
1569400956.94475
1569400956.96037
1569400956.976
1569400956.99163
1569400957.00725
1569400957.02288
1569400957.0385
1569400957.05413
1569400957.06975
1569400957.08538
1569400957.10101
1569400957.11663
1569400957.13226
1569400957.14788
1569400957.16351
1569400957.17913
1569400957.19476
1569400957.21039
1569400957.22601
1569400957.24164
1569400957.25726
1569400957.27289
1569400957.28851
1569400957.30414
1569400957.31977
1569400957.33539
1569400957.35102
1569400957.36664
1569400957.38227
1569400957.39789
1569400957.41352
1569400957.42915
1569400957.44477
1569400957.4604
1569400957.47602
1569400957.49165
1569400957.50727
1569400957.5229
1569400957.53853
1569400957.55415
1569400957.56978
1569400957.5854
1569400957.60103
1569400957.61665
1569400957.63228
1569400957.64791
1569400957.66353
1569400957.67916
1569400957.69478
1569400957.71041
1569400957.72603
1569400957.74166
1569400957.75729
1569400957.77291
1569400957.78854
1569400957.80416
1569400957.81979
1569400957.83541
1569400957.85104
1569400957.86667
1569400957.88229
1569400957.89792
1569400957.91354
1569400957.92917
1569400957.94479
1569400957.96042
1569400957.97605
1569400957.99167
1569400958.0073
1569400958.02292
1569400958.03855
1569400958.05417
1569400958.0698
1569400958.08543
1569400958.10105
1569400958.11668
1569400958.1323
1569400958.14793
1569400958.16355
1569400958.17918
1569400958.19481
1569400958.21043
1569400958.22606
1569400958.24168
1569400958.25731
1569400958.27293
1569400958.28856
1569400958.30419
1569400958.31981
1569400958.33544
1569400958.35106
1569400958.36669
1569400958.38231
1569400958.39794
1569400958.41357
1569400958.42919
1569400958.44482
1569400958.46044
1569400958.47607
1569400958.49169
1569400958.50732
1569400958.52295
1569400958.53857
1569400958.5542
1569400958.56982
1569400958.58545
1569400958.60107
1569400958.6167
1569400958.63233
1569400958.64795
1569400958.66358
1569400958.6792
1569400958.69483
1569400958.71045
1569400958.72608
1569400958.74171
1569400958.75733
1569400958.77296
1569400958.78858
1569400958.80421
1569400958.81983
1569400958.83546
1569400958.85109
1569400958.86671
1569400958.88234
1569400958.89796
1569400958.91359
1569400958.92921
1569400958.94484
1569400958.96047
1569400958.97609
1569400958.99172
1569400959.00734
1569400959.02297
1569400959.03859
1569400959.05422
1569400959.06985
1569400959.08547
1569400959.1011
1569400959.11672
1569400959.13235
1569400959.14798
1569400959.1636
1569400959.17923
1569400959.19485
1569400959.21048
1569400959.2261
1569400959.24173
1569400959.25736
1569400959.27298
1569400959.28861
1569400959.30423
1569400959.31986
1569400959.33548
1569400959.35111
1569400959.36674
1569400959.38236
1569400959.39799
1569400959.41361
1569400959.42924
1569400959.44486
1569400959.46049
1569400959.47612
1569400959.49174
1569400959.50737
1569400959.52299
1569400959.53862
1569400959.55424
1569400959.56987
1569400959.5855
1569400959.60112
1569400959.61675
1569400959.63237
1569400959.648
1569400959.66362
1569400959.67925
1569400959.69488
1569400959.7105
1569400959.72613
1569400959.74175
1569400959.75738
1569400959.773
1569400959.78863
1569400959.80426
1569400959.81988
1569400959.83551
1569400959.85113
1569400959.86676
1569400959.88238
1569400959.89801
1569400959.91364
1569400959.92926
1569400959.94489
1569400959.96051
1569400959.97614
1569400959.99176
1569400960.00739
1569400960.02302
1569400960.03864
1569400960.05427
1569400960.06989
1569400960.08552
1569400960.10114
1569400960.11677
1569400960.1324
1569400960.14802
1569400960.16365
1569400960.17927
1569400960.1949
1569400960.21052
1569400960.22615
1569400960.24178
1569400960.2574
1569400960.27303
1569400960.28865
1569400960.30428
1569400960.3199
1569400960.33553
1569400960.35116
1569400960.36678
1569400960.38241
1569400960.39803
1569400960.41366
1569400960.42928
1569400960.44491
1569400960.46054
1569400960.47616
1569400960.49179
1569400960.50741
1569400960.52304
1569400960.53866
1569400960.55429
1569400960.56992
1569400960.58554
1569400960.60117
1569400960.61679
1569400960.63242
1569400960.64804
1569400960.66367
1569400960.6793
1569400960.69492
1569400960.71055
1569400960.72617
1569400960.7418
1569400960.75742
1569400960.77305
1569400960.78868
1569400960.8043
1569400960.81993
1569400960.83555
1569400960.85118
1569400960.8668
1569400960.88243
1569400960.89806
1569400960.91368
1569400960.92931
1569400960.94493
1569400960.96056
1569400960.97618
1569400960.99181
1569400961.00744
1569400961.02306
1569400961.03869
1569400961.05431
1569400961.06994
1569400961.08556
1569400961.10119
1569400961.11682
1569400961.13244
1569400961.14807
1569400961.16369
1569400961.17932
1569400961.19494
1569400961.21057
1569400961.2262
1569400961.24182
1569400961.25745
1569400961.27307
1569400961.2887
1569400961.30432
1569400961.31995
1569400961.33558
1569400961.3512
1569400961.36683
1569400961.38245
1569400961.39808
1569400961.41371
1569400961.42933
1569400961.44496
1569400961.46058
1569400961.47621
1569400961.49183
1569400961.50746
1569400961.52309
1569400961.53871
1569400961.55434
1569400961.56996
1569400961.58559
1569400961.60121
1569400961.61684
1569400961.63247
1569400961.64809
1569400961.66372
1569400961.67934
1569400961.69497
1569400961.71059
1569400961.72622
1569400961.74185
1569400961.75747
1569400961.7731
1569400961.78872
1569400961.80435
1569400961.81997
1569400961.8356
1569400961.85123
1569400961.86685
1569400961.88248
1569400961.8981
1569400961.91373
1569400961.92935
1569400961.94498
1569400961.96061
1569400961.97623
1569400961.99186
1569400962.00748
1569400962.02311
1569400962.03873
1569400962.05436
1569400962.06999
1569400962.08561
1569400962.10124
1569400962.11686
1569400962.13249
1569400962.14811
1569400962.16374
1569400962.17937
1569400962.19499
1569400962.21062
1569400962.22624
1569400962.24187
1569400962.25749
1569400962.27312
1569400962.28875
1569400962.30437
1569400962.32
1569400962.33562
1569400962.35125
1569400962.36687
1569400962.3825
1569400962.39813
1569400962.41375
1569400962.42938
1569400962.445
1569400962.46063
1569400962.47625
1569400962.49188
1569400962.50751
1569400962.52313
1569400962.53876
1569400962.55438
1569400962.57001
1569400962.58563
1569400962.60126
1569400962.61689
1569400962.63251
1569400962.64814
1569400962.66376
1569400962.67939
1569400962.69501
1569400962.71064
1569400962.72627
1569400962.74189
1569400962.75752
1569400962.77314
1569400962.78877
1569400962.80439
1569400962.82002
1569400962.83565
1569400962.85127
1569400962.8669
1569400962.88252
1569400962.89815
1569400962.91377
1569400962.9294
1569400962.94503
1569400962.96065
1569400962.97628
1569400962.9919
1569400963.00753
1569400963.02315
1569400963.03878
1569400963.05441
1569400963.07003
1569400963.08566
1569400963.10128
1569400963.11691
1569400963.13253
1569400963.14816
1569400963.16379
1569400963.17941
1569400963.19504
1569400963.21066
1569400963.22629
1569400963.24191
1569400963.25754
1569400963.27317
1569400963.28879
1569400963.30442
1569400963.32004
1569400963.33567
1569400963.35129
1569400963.36692
1569400963.38255
1569400963.39817
1569400963.4138
1569400963.42942
1569400963.44505
1569400963.46067
1569400963.4763
1569400963.49193
1569400963.50755
1569400963.52318
1569400963.5388
1569400963.55443
1569400963.57006
1569400963.58568
1569400963.60131
1569400963.61693
1569400963.63256
1569400963.64818
1569400963.66381
1569400963.67944
1569400963.69506
1569400963.71069
1569400963.72631
1569400963.74194
1569400963.75756
1569400963.77319
1569400963.78882
1569400963.80444
1569400963.82007
1569400963.83569
1569400963.85132
1569400963.86694
1569400963.88257
1569400963.8982
1569400963.91382
1569400963.92945
1569400963.94507
1569400963.9607
1569400963.97632
1569400963.99195
1569400964.00758
1569400964.0232
1569400964.03883
1569400964.05445
1569400964.07008
1569400964.0857
1569400964.10133
1569400964.11696
1569400964.13258
1569400964.14821
1569400964.16383
1569400964.17946
1569400964.19508
1569400964.21071
1569400964.22634
1569400964.24196
1569400964.25759
1569400964.27321
1569400964.28884
1569400964.30446
1569400964.32009
1569400964.33572
1569400964.35134
1569400964.36697
1569400964.38259
1569400964.39822
1569400964.41384
1569400964.42947
1569400964.4451
1569400964.46072
1569400964.47635
1569400964.49197
1569400964.5076
1569400964.52322
1569400964.53885
1569400964.55448
1569400964.5701
1569400964.58573
1569400964.60135
1569400964.61698
1569400964.6326
1569400964.64823
1569400964.66386
1569400964.67948
1569400964.69511
1569400964.71073
1569400964.72636
1569400964.74198
1569400964.75761
1569400964.77324
1569400964.78886
1569400964.80449
1569400964.82011
1569400964.83574
1569400964.85136
1569400964.86699
1569400964.88262
1569400964.89824
1569400964.91387
1569400964.92949
1569400964.94512
1569400964.96074
1569400964.97637
1569400964.992
1569400965.00762
1569400965.02325
1569400965.03887
1569400965.0545
1569400965.07012
1569400965.08575
1569400965.10138
1569400965.117
1569400965.13263
1569400965.14825
1569400965.16388
1569400965.1795
1569400965.19513
1569400965.21076
1569400965.22638
1569400965.24201
1569400965.25763
1569400965.27326
1569400965.28888
1569400965.30451
1569400965.32014
1569400965.33576
1569400965.35139
1569400965.36701
1569400965.38264
1569400965.39826
1569400965.41389
1569400965.42952
1569400965.44514
1569400965.46077
1569400965.47639
1569400965.49202
1569400965.50764
1569400965.52327
1569400965.5389
1569400965.55452
1569400965.57015
1569400965.58577
1569400965.6014
1569400965.61702
1569400965.63265
1569400965.64828
1569400965.6639
1569400965.67953
1569400965.69515
1569400965.71078
1569400965.7264
1569400965.74203
1569400965.75766
1569400965.77328
1569400965.78891
1569400965.80453
1569400965.82016
1569400965.83578
1569400965.85141
1569400965.86704
1569400965.88266
1569400965.89829
1569400965.91391
1569400965.92954
1569400965.94516
1569400965.96079
1569400965.97642
1569400965.99204
1569400966.00767
1569400966.02329
1569400966.03892
1569400966.05454
1569400966.07017
1569400966.0858
1569400966.10142
1569400966.11705
1569400966.13267
1569400966.1483
1569400966.16392
1569400966.17955
1569400966.19518
1569400966.2108
1569400966.22643
1569400966.24205
1569400966.25768
1569400966.27331
1569400966.28893
1569400966.30456
1569400966.32018
1569400966.33581
1569400966.35143
1569400966.36706
1569400966.38269
1569400966.39831
1569400966.41394
1569400966.42956
1569400966.44519
1569400966.46081
1569400966.47644
1569400966.49207
1569400966.50769
1569400966.52332
1569400966.53894
1569400966.55457
1569400966.57019
1569400966.58582
1569400966.60145
1569400966.61707
1569400966.6327
1569400966.64832
1569400966.66395
1569400966.67957
1569400966.6952
1569400966.71083
1569400966.72645
1569400966.74208
1569400966.7577
1569400966.77333
1569400966.78895
1569400966.80458
1569400966.82021
1569400966.83583
1569400966.85146
1569400966.86708
1569400966.88271
1569400966.89833
1569400966.91396
1569400966.92959
1569400966.94521
1569400966.96084
1569400966.97646
1569400966.99209
1569400967.00771
1569400967.02334
1569400967.03897
1569400967.05459
1569400967.07022
1569400967.08584
1569400967.10147
1569400967.11709
1569400967.13272
1569400967.14835
1569400967.16397
1569400967.1796
1569400967.19522
1569400967.21085
1569400967.22647
1569400967.2421
1569400967.25773
1569400967.27335
1569400967.28898
1569400967.3046
1569400967.32023
1569400967.33585
1569400967.35148
1569400967.36711
1569400967.38273
1569400967.39836
1569400967.41398
1569400967.42961
1569400967.44523
1569400967.46086
1569400967.47649
1569400967.49211
1569400967.50774
1569400967.52336
1569400967.53899
1569400967.55461
1569400967.57024
1569400967.58587
1569400967.60149
1569400967.61712
1569400967.63274
1569400967.64837
1569400967.66399
1569400967.67962
1569400967.69525
1569400967.71087
1569400967.7265
1569400967.74212
1569400967.75775
1569400967.77337
1569400967.789
1569400967.80463
1569400967.82025
1569400967.83588
1569400967.8515
1569400967.86713
1569400967.88275
1569400967.89838
1569400967.91401
1569400967.92963
1569400967.94526
1569400967.96088
1569400967.97651
1569400967.99213
1569400968.00776
1569400968.02339
1569400968.03901
1569400968.05464
1569400968.07026
1569400968.08589
1569400968.10151
1569400968.11714
1569400968.13277
1569400968.14839
1569400968.16402
1569400968.17964
1569400968.19527
1569400968.21089
1569400968.22652
1569400968.24215
1569400968.25777
1569400968.2734
1569400968.28902
1569400968.30465
1569400968.32027
1569400968.3359
1569400968.35153
1569400968.36715
1569400968.38278
1569400968.3984
1569400968.41403
1569400968.42966
1569400968.44528
1569400968.46091
1569400968.47653
1569400968.49216
1569400968.50778
1569400968.52341
1569400968.53904
1569400968.55466
1569400968.57029
1569400968.58591
1569400968.60154
1569400968.61716
1569400968.63279
1569400968.64842
1569400968.66404
1569400968.67967
1569400968.69529
1569400968.71092
1569400968.72654
1569400968.74217
1569400968.7578
1569400968.77342
1569400968.78905
1569400968.80467
1569400968.8203
1569400968.83592
1569400968.85155
1569400968.86718
1569400968.8828
1569400968.89843
1569400968.91405
1569400968.92968
1569400968.9453
1569400968.96093
1569400968.97656
1569400968.99218
1569400969.00781
1569400969.02343
1569400969.03906
1569400969.05468
1569400969.07031
1569400969.08594
1569400969.10156
1569400969.11719
1569400969.13281
1569400969.14844
1569400969.16406
1569400969.17969
1569400969.19532
1569400969.21094
1569400969.22657
1569400969.24219
1569400969.25782
1569400969.27344
1569400969.28907
1569400969.3047
1569400969.32032
1569400969.33595
1569400969.35157
1569400969.3672
1569400969.38282
1569400969.39845
1569400969.41408
1569400969.4297
1569400969.44533
1569400969.46095
1569400969.47658
1569400969.4922
1569400969.50783
1569400969.52346
1569400969.53908
1569400969.55471
1569400969.57033
1569400969.58596
1569400969.60158
1569400969.61721
1569400969.63284
1569400969.64846
1569400969.66409
1569400969.67971
1569400969.69534
1569400969.71096
1569400969.72659
1569400969.74222
1569400969.75784
1569400969.77347
1569400969.78909
1569400969.80472
1569400969.82034
1569400969.83597
1569400969.8516
1569400969.86722
1569400969.88285
1569400969.89847
1569400969.9141
1569400969.92972
1569400969.94535
1569400969.96098
1569400969.9766
1569400969.99223
1569400970.00785
1569400970.02348
1569400970.0391
1569400970.05473
1569400970.07036
1569400970.08598
1569400970.10161
1569400970.11723
1569400970.13286
1569400970.14848
1569400970.16411
1569400970.17974
1569400970.19536
1569400970.21099
1569400970.22661
1569400970.24224
1569400970.25786
1569400970.27349
1569400970.28912
1569400970.30474
1569400970.32037
1569400970.33599
1569400970.35162
1569400970.36724
1569400970.38287
1569400970.3985
1569400970.41412
1569400970.42975
1569400970.44537
1569400970.461
1569400970.47662
1569400970.49225
1569400970.50788
1569400970.5235
1569400970.53913
1569400970.55475
1569400970.57038
1569400970.586
1569400970.60163
1569400970.61726
1569400970.63288
1569400970.64851
1569400970.66413
1569400970.67976
1569400970.69538
1569400970.71101
1569400970.72664
1569400970.74226
1569400970.75789
1569400970.77351
1569400970.78914
1569400970.80476
1569400970.82039
1569400970.83602
1569400970.85164
1569400970.86727
1569400970.88289
1569400970.89852
1569400970.91414
1569400970.92977
1569400970.9454
1569400970.96102
1569400970.97665
1569400970.99227
1569400971.0079
1569400971.02353
1569400971.03915
1569400971.05478
1569400971.0704
1569400971.08603
1569400971.10165
1569400971.11728
1569400971.13291
1569400971.14853
1569400971.16416
1569400971.17978
1569400971.19541
1569400971.21103
1569400971.22666
1569400971.24229
1569400971.25791
1569400971.27354
1569400971.28916
1569400971.30479
1569400971.32041
1569400971.33604
1569400971.35167
1569400971.36729
1569400971.38292
1569400971.39854
1569400971.41417
1569400971.42979
1569400971.44542
1569400971.46105
1569400971.47667
1569400971.4923
1569400971.50792
1569400971.52355
1569400971.53917
1569400971.5548
1569400971.57043
1569400971.58605
1569400971.60168
1569400971.6173
1569400971.63293
1569400971.64855
1569400971.66418
1569400971.67981
1569400971.69543
1569400971.71106
1569400971.72668
1569400971.74231
1569400971.75793
1569400971.77356
1569400971.78919
1569400971.80481
1569400971.82044
1569400971.83606
1569400971.85169
1569400971.86731
1569400971.88294
1569400971.89857
1569400971.91419
1569400971.92982
1569400971.94544
1569400971.96107
1569400971.97669
1569400971.99232
1569400972.00795
1569400972.02357
1569400972.0392
1569400972.05482
1569400972.07045
1569400972.08607
1569400972.1017
1569400972.11733
1569400972.13295
1569400972.14858
1569400972.1642
1569400972.17983
1569400972.19545
1569400972.21108
1569400972.22671
1569400972.24233
1569400972.25796
1569400972.27358
1569400972.28921
1569400972.30483
1569400972.32046
1569400972.33609
1569400972.35171
1569400972.36734
1569400972.38296
1569400972.39859
1569400972.41421
1569400972.42984
1569400972.44547
1569400972.46109
1569400972.47672
1569400972.49234
1569400972.50797
1569400972.52359
1569400972.53922
1569400972.55485
1569400972.57047
1569400972.5861
1569400972.60172
1569400972.61735
1569400972.63297
1569400972.6486
1569400972.66423
1569400972.67985
1569400972.69548
1569400972.7111
1569400972.72673
1569400972.74235
1569400972.75798
1569400972.77361
1569400972.78923
1569400972.80486
1569400972.82048
1569400972.83611
1569400972.85173
1569400972.86736
1569400972.88299
1569400972.89861
1569400972.91424
1569400972.92986
1569400972.94549
1569400972.96111
1569400972.97674
1569400972.99237
1569400973.00799
1569400973.02362
1569400973.03924
1569400973.05487
1569400973.07049
1569400973.08612
1569400973.10175
1569400973.11737
1569400973.133
1569400973.14862
1569400973.16425
1569400973.17987
1569400973.1955
1569400973.21113
1569400973.22675
1569400973.24238
1569400973.258
1569400973.27363
1569400973.28926
1569400973.30488
1569400973.32051
1569400973.33613
1569400973.35176
1569400973.36738
1569400973.38301
1569400973.39864
1569400973.41426
1569400973.42989
1569400973.44551
1569400973.46114
1569400973.47676
1569400973.49239
1569400973.50802
1569400973.52364
1569400973.53927
1569400973.55489
1569400973.57052
1569400973.58614
1569400973.60177
1569400973.6174
1569400973.63302
1569400973.64865
1569400973.66427
1569400973.6799
1569400973.69552
1569400973.71115
1569400973.72678
1569400973.7424
1569400973.75803
1569400973.77365
1569400973.78928
1569400973.8049
1569400973.82053
1569400973.83616
1569400973.85178
1569400973.86741
1569400973.88303
1569400973.89866
1569400973.91428
1569400973.92991
1569400973.94554
1569400973.96116
1569400973.97679
1569400973.99241
1569400974.00804
1569400974.02366
1569400974.03929
1569400974.05492
1569400974.07054
1569400974.08617
1569400974.10179
1569400974.11742
1569400974.13304
1569400974.14867
1569400974.1643
1569400974.17992
1569400974.19555
1569400974.21117
1569400974.2268
1569400974.24242
1569400974.25805
1569400974.27368
1569400974.2893
1569400974.30493
1569400974.32055
1569400974.33618
1569400974.3518
1569400974.36743
1569400974.38306
1569400974.39868
1569400974.41431
1569400974.42993
1569400974.44556
1569400974.46118
1569400974.47681
1569400974.49244
1569400974.50806
1569400974.52369
1569400974.53931
1569400974.55494
1569400974.57056
1569400974.58619
1569400974.60182
1569400974.61744
1569400974.63307
1569400974.64869
1569400974.66432
1569400974.67994
1569400974.69557
1569400974.7112
1569400974.72682
1569400974.74245
1569400974.75807
1569400974.7737
1569400974.78932
1569400974.80495
1569400974.82058
1569400974.8362
1569400974.85183
1569400974.86745
1569400974.88308
1569400974.8987
1569400974.91433
1569400974.92996
1569400974.94558
1569400974.96121
1569400974.97683
1569400974.99246
1569400975.00808
1569400975.02371
1569400975.03934
1569400975.05496
1569400975.07059
1569400975.08621
1569400975.10184
1569400975.11746
1569400975.13309
1569400975.14872
1569400975.16434
1569400975.17997
1569400975.19559
1569400975.21122
1569400975.22684
1569400975.24247
1569400975.2581
1569400975.27372
1569400975.28935
1569400975.30497
1569400975.3206
1569400975.33622
1569400975.35185
1569400975.36748
1569400975.3831
1569400975.39873
1569400975.41435
1569400975.42998
1569400975.4456
1569400975.46123
1569400975.47686
1569400975.49248
1569400975.50811
1569400975.52373
1569400975.53936
1569400975.55499
1569400975.57061
1569400975.58624
1569400975.60186
1569400975.61749
1569400975.63311
1569400975.64874
1569400975.66437
1569400975.67999
1569400975.69562
1569400975.71124
1569400975.72687
1569400975.74249
1569400975.75812
1569400975.77375
1569400975.78937
1569400975.805
1569400975.82062
1569400975.83625
1569400975.85187
1569400975.8675
1569400975.88313
1569400975.89875
1569400975.91438
1569400975.93
1569400975.94563
1569400975.96125
1569400975.97688
1569400975.99251
1569400976.00813
1569400976.02376
1569400976.03938
1569400976.05501
1569400976.07063
1569400976.08626
1569400976.10189
1569400976.11751
1569400976.13314
1569400976.14876
1569400976.16439
1569400976.18001
1569400976.19564
1569400976.21127
1569400976.22689
1569400976.24252
1569400976.25814
1569400976.27377
1569400976.28939
1569400976.30502
1569400976.32065
1569400976.33627
1569400976.3519
1569400976.36752
1569400976.38315
1569400976.39877
1569400976.4144
1569400976.43003
1569400976.44565
1569400976.46128
1569400976.4769
1569400976.49253
1569400976.50815
1569400976.52378
1569400976.53941
1569400976.55503
1569400976.57066
1569400976.58628
1569400976.60191
1569400976.61753
1569400976.63316
1569400976.64879
1569400976.66441
1569400976.68004
1569400976.69566
1569400976.71129
1569400976.72691
1569400976.74254
1569400976.75817
1569400976.77379
1569400976.78942
1569400976.80504
1569400976.82067
1569400976.83629
1569400976.85192
1569400976.86755
1569400976.88317
1569400976.8988
1569400976.91442
1569400976.93005
1569400976.94567
1569400976.9613
1569400976.97693
1569400976.99255
1569400977.00818
1569400977.0238
1569400977.03943
1569400977.05505
1569400977.07068
1569400977.08631
1569400977.10193
1569400977.11756
1569400977.13318
1569400977.14881
1569400977.16443
1569400977.18006
1569400977.19569
1569400977.21131
1569400977.22694
1569400977.24256
1569400977.25819
1569400977.27381
1569400977.28944
1569400977.30507
1569400977.32069
1569400977.33632
1569400977.35194
1569400977.36757
1569400977.38319
1569400977.39882
1569400977.41445
1569400977.43007
1569400977.4457
1569400977.46132
1569400977.47695
1569400977.49257
1569400977.5082
1569400977.52383
1569400977.53945
1569400977.55508
1569400977.5707
1569400977.58633
1569400977.60195
1569400977.61758
1569400977.63321
1569400977.64883
1569400977.66446
1569400977.68008
1569400977.69571
1569400977.71133
1569400977.72696
1569400977.74259
1569400977.75821
1569400977.77384
1569400977.78946
1569400977.80509
1569400977.82071
1569400977.83634
1569400977.85197
1569400977.86759
1569400977.88322
1569400977.89884
1569400977.91447
1569400977.93009
1569400977.94572
1569400977.96135
1569400977.97697
1569400977.9926
1569400978.00822
1569400978.02385
1569400978.03947
1569400978.0551
1569400978.07073
1569400978.08635
1569400978.10198
1569400978.1176
1569400978.13323
1569400978.14886
1569400978.16448
1569400978.18011
1569400978.19573
1569400978.21136
1569400978.22698
1569400978.24261
1569400978.25824
1569400978.27386
1569400978.28949
1569400978.30511
1569400978.32074
1569400978.33636
1569400978.35199
1569400978.36762
1569400978.38324
1569400978.39887
1569400978.41449
1569400978.43012
1569400978.44574
1569400978.46137
1569400978.477
1569400978.49262
1569400978.50825
1569400978.52387
1569400978.5395
1569400978.55512
1569400978.57075
1569400978.58638
1569400978.602
1569400978.61763
1569400978.63325
1569400978.64888
1569400978.6645
1569400978.68013
1569400978.69576
1569400978.71138
1569400978.72701
1569400978.74263
1569400978.75826
1569400978.77388
1569400978.78951
1569400978.80514
1569400978.82076
1569400978.83639
1569400978.85201
1569400978.86764
1569400978.88326
1569400978.89889
1569400978.91452
1569400978.93014
1569400978.94577
1569400978.96139
1569400978.97702
1569400978.99264
1569400979.00827
1569400979.0239
1569400979.03952
1569400979.05515
1569400979.07077
1569400979.0864
1569400979.10202
1569400979.11765
1569400979.13328
1569400979.1489
1569400979.16453
1569400979.18015
1569400979.19578
1569400979.2114
1569400979.22703
1569400979.24266
1569400979.25828
1569400979.27391
1569400979.28953
1569400979.30516
1569400979.32078
1569400979.33641
1569400979.35204
1569400979.36766
1569400979.38329
1569400979.39891
1569400979.41454
1569400979.43016
1569400979.44579
1569400979.46142
1569400979.47704
1569400979.49267
1569400979.50829
1569400979.52392
1569400979.53954
1569400979.55517
1569400979.5708
1569400979.58642
1569400979.60205
1569400979.61767
1569400979.6333
1569400979.64892
1569400979.66455
1569400979.68018
1569400979.6958
1569400979.71143
1569400979.72705
1569400979.74268
1569400979.7583
1569400979.77393
1569400979.78956
1569400979.80518
1569400979.82081
1569400979.83643
1569400979.85206
1569400979.86768
1569400979.88331
1569400979.89894
1569400979.91456
1569400979.93019
1569400979.94581
1569400979.96144
1569400979.97706
1569400979.99269
1569400980.00832
1569400980.02394
1569400980.03957
1569400980.05519
1569400980.07082
1569400980.08644
1569400980.10207
1569400980.1177
1569400980.13332
1569400980.14895
1569400980.16457
1569400980.1802
1569400980.19582
1569400980.21145
1569400980.22708
1569400980.2427
1569400980.25833
1569400980.27395
1569400980.28958
1569400980.3052
1569400980.32083
1569400980.33646
1569400980.35208
1569400980.36771
1569400980.38333
1569400980.39896
1569400980.41459
1569400980.43021
1569400980.44584
1569400980.46146
1569400980.47709
1569400980.49271
1569400980.50834
1569400980.52397
1569400980.53959
1569400980.55522
1569400980.57084
1569400980.58647
1569400980.60209
1569400980.61772
1569400980.63335
1569400980.64897
1569400980.6646
1569400980.68022
1569400980.69585
1569400980.71147
1569400980.7271
1569400980.74273
1569400980.75835
1569400980.77398
1569400980.7896
1569400980.80523
1569400980.82085
1569400980.83648
1569400980.85211
1569400980.86773
1569400980.88336
1569400980.89898
1569400980.91461
1569400980.93023
1569400980.94586
1569400980.96149
1569400980.97711
1569400980.99274
1569400981.00836
1569400981.02399
1569400981.03961
1569400981.05524
1569400981.07087
1569400981.08649
1569400981.10212
1569400981.11774
1569400981.13337
1569400981.14899
1569400981.16462
1569400981.18025
1569400981.19587
1569400981.2115
1569400981.22712
1569400981.24275
1569400981.25837
1569400981.274
1569400981.28963
1569400981.30525
1569400981.32088
1569400981.3365
1569400981.35213
1569400981.36775
1569400981.38338
1569400981.39901
1569400981.41463
1569400981.43026
1569400981.44588
1569400981.46151
1569400981.47713
1569400981.49276
1569400981.50839
1569400981.52401
1569400981.53964
1569400981.55526
1569400981.57089
1569400981.58651
1569400981.60214
1569400981.61777
1569400981.63339
1569400981.64902
1569400981.66464
1569400981.68027
1569400981.69589
1569400981.71152
1569400981.72715
1569400981.74277
1569400981.7584
1569400981.77402
1569400981.78965
1569400981.80527
1569400981.8209
1569400981.83653
1569400981.85215
1569400981.86778
1569400981.8834
1569400981.89903
1569400981.91465
1569400981.93028
1569400981.94591
1569400981.96153
1569400981.97716
1569400981.99278
1569400982.00841
1569400982.02403
1569400982.03966
1569400982.05529
1569400982.07091
1569400982.08654
1569400982.10216
1569400982.11779
1569400982.13341
1569400982.14904
1569400982.16467
1569400982.18029
1569400982.19592
1569400982.21154
1569400982.22717
1569400982.24279
1569400982.25842
1569400982.27405
1569400982.28967
1569400982.3053
1569400982.32092
1569400982.33655
1569400982.35217
1569400982.3678
1569400982.38343
1569400982.39905
1569400982.41468
1569400982.4303
1569400982.44593
1569400982.46155
1569400982.47718
1569400982.49281
1569400982.50843
1569400982.52406
1569400982.53968
1569400982.55531
1569400982.57094
1569400982.58656
1569400982.60219
1569400982.61781
1569400982.63344
1569400982.64906
1569400982.66469
1569400982.68032
1569400982.69594
1569400982.71157
1569400982.72719
1569400982.74282
1569400982.75844
1569400982.77407
1569400982.7897
1569400982.80532
1569400982.82095
1569400982.83657
1569400982.8522
1569400982.86782
1569400982.88345
1569400982.89908
1569400982.9147
1569400982.93033
1569400982.94595
1569400982.96158
1569400982.9772
1569400982.99283
1569400983.00846
1569400983.02408
1569400983.03971
1569400983.05533
1569400983.07096
1569400983.08658
1569400983.10221
1569400983.11784
1569400983.13346
1569400983.14909
1569400983.16471
1569400983.18034
1569400983.19596
1569400983.21159
1569400983.22722
1569400983.24284
1569400983.25847
1569400983.27409
1569400983.28972
1569400983.30534
1569400983.32097
1569400983.3366
1569400983.35222
1569400983.36785
1569400983.38347
1569400983.3991
1569400983.41472
1569400983.43035
1569400983.44598
1569400983.4616
1569400983.47723
1569400983.49285
1569400983.50848
1569400983.5241
1569400983.53973
1569400983.55536
1569400983.57098
1569400983.58661
1569400983.60223
1569400983.61786
1569400983.63348
1569400983.64911
1569400983.66474
1569400983.68036
1569400983.69599
1569400983.71161
1569400983.72724
1569400983.74286
1569400983.75849
1569400983.77412
1569400983.78974
1569400983.80537
1569400983.82099
1569400983.83662
1569400983.85224
1569400983.86787
1569400983.8835
1569400983.89912
1569400983.91475
1569400983.93037
1569400983.946
1569400983.96162
1569400983.97725
1569400983.99288
1569400984.0085
1569400984.02413
1569400984.03975
1569400984.05538
1569400984.071
1569400984.08663
1569400984.10226
1569400984.11788
1569400984.13351
1569400984.14913
1569400984.16476
1569400984.18038
1569400984.19601
1569400984.21164
1569400984.22726
1569400984.24289
1569400984.25851
1569400984.27414
1569400984.28976
1569400984.30539
1569400984.32102
1569400984.33664
1569400984.35227
1569400984.36789
1569400984.38352
1569400984.39914
1569400984.41477
1569400984.4304
1569400984.44602
1569400984.46165
1569400984.47727
1569400984.4929
1569400984.50852
1569400984.52415
1569400984.53978
1569400984.5554
1569400984.57103
1569400984.58665
1569400984.60228
1569400984.6179
1569400984.63353
1569400984.64916
1569400984.66478
1569400984.68041
1569400984.69603
1569400984.71166
1569400984.72728
1569400984.74291
1569400984.75854
1569400984.77416
1569400984.78979
1569400984.80541
1569400984.82104
1569400984.83666
1569400984.85229
1569400984.86792
1569400984.88354
1569400984.89917
1569400984.91479
1569400984.93042
1569400984.94604
1569400984.96167
1569400984.9773
1569400984.99292
1569400985.00855
1569400985.02417
1569400985.0398
1569400985.05542
1569400985.07105
