21.0869
21.28184
21.34586
21.50156
21.90417
22.5892
23.36874
24.05994
24.52731
24.75824
24.85063
24.86942
24.78435
24.43881
23.6793
22.31859
20.3675
17.96844
15.37321
12.84315
10.555
8.535583
6.726128
5.054771
3.328896
1.420341
-0.7945709
-3.420616
-6.400833
-9.621872
-12.89971
-16.0603
-18.94523
-21.56315
-23.98383
-26.33852
-28.82064
-31.52053
-34.4276
-37.33415
-39.74643
-40.97905
-40.31122
-37.21598
-31.55915
-23.81551
-14.83102
-5.664642
2.660912
9.480415
14.47999
17.68479
19.37775
19.92849
19.67119
18.96705
18.1006
17.31321
16.7931
16.59599
16.68406
16.96218
17.32442
17.64528
17.97219
18.3895
19.00967
19.89542
20.92222
21.82245
22.25483
21.8803
20.55028
18.34299
15.51579
12.35241
9.128185
5.956299
2.824585
-0.2872543
-3.410625
-6.466377
-9.329094
-11.84451
-13.96342
-15.73235
-17.33749
-19.03529
-21.02977
-23.52986
-26.65044
-30.42101
-34.6814
-39.0184
-42.63718
-44.60194
-44.01546
-40.33451
-33.70355
-24.8688
-15.06273
-5.554333
2.673054
9.11692
13.76091
16.86283
18.82113
19.95165
20.52748
20.73771
20.71828
20.57339
20.29988
19.88619
19.28772
18.57646
17.84443
17.25427
16.95222
16.96428
17.17965
17.39616
17.3794
16.89492
15.86281
14.28513
12.29191
10.10761
7.953365
6.000866
4.324188
2.854763
1.401402
-0.296154
-2.487423
-5.255043
-8.534962
-12.07207
-15.49757
-18.49108
-20.9059
-22.8159
-24.53499
-26.50304
-29.0705
-32.3183
-35.90268
-39.05088
-40.81995
-40.36142
-37.26503
-31.61134
-24.09152
-15.67408
-7.379423
-0.04343605
5.878832
10.22015
13.11792
14.87068
15.86697
16.49508
17.09364
17.89413
19.00764
20.3809
21.80533
23.01776
23.81131
24.08411
23.9296
23.53913
23.12021
22.80855
22.59006
22.34531
21.88484
21.02345
19.60576
17.65869
15.26357
12.61218
9.929062
7.433304
5.191232
3.0947
0.9703283
-1.409036
-4.114614
-7.07933
-10.11336
-12.94414
-15.32012
-17.14312
-18.49645
-19.67497
-21.21209
-23.56527
-27.0004
-31.33181
-35.84148
-39.47582
-41.10504
-39.97432
-35.91216
-29.42071
-21.39073
-12.89458
-4.817441
2.251955
7.988208
12.34634
15.42628
17.38319
18.42235
18.78915
18.70655
18.35207
17.88458
17.40121
16.97759
16.69922
16.59999
16.64357
16.83409
17.11867
17.49726
18.00038
18.61635
19.22395
19.62159
19.5573
18.78216
17.26588
15.09689
12.57411
10.01795
7.699908
5.750832
4.065769
2.394495
0.469244
-1.880075
-4.650276
-7.570871
-10.339
-12.65723
-14.43504
-15.8553
-17.32392
-19.30941
-22.15556
-25.99705
-30.53121
-35.12817
-38.83139
-40.60461
-39.63977
-35.51716
-28.47863
-19.31561
-9.276924
0.3857727
8.607292
14.83535
19.03753
21.48426
22.62373
22.77717
22.12404
20.76565
18.92522
16.87791
15.05591
13.79327
13.21907
13.26636
13.67287
14.168
14.57907
14.90239
15.16374
15.38497
15.42361
15.0311
14.00764
12.23994
9.83717
7.100723
4.370632
1.946877
-0.04719162
-1.684727
-3.202404
-4.819901
-6.696697
-8.901669
-11.32002
-13.81979
-16.23938
-18.53166
-20.74356
-23.04122
-25.6525
-28.73302
-32.2691
-35.93837
-39.1272
-40.95702
-40.56012
-37.29678
-31.08245
-22.51778
-12.72313
-3.012512
5.486244
12.10564
16.70115
19.48101
20.79964
20.96689
20.18866
18.64553
16.59648
14.33865
12.21454
10.52604
9.475983
9.081718
9.2799
9.910637
10.84537
11.95338
13.11417
14.20158
15.00695
15.33406
14.96566
13.88097
12.14863
10.03127
7.779121
5.576134
3.518028
1.547249
-0.4492111
-2.584869
-4.905418
-7.431923
-10.09303
-12.77612
-15.33653
-17.66544
-19.74239
-21.65911
-23.6344
-25.86449
-28.55782
-31.73019
-35.10298
-38.125
-39.99345
-39.84485
-37.04035
-31.47691
-23.56812
-14.33318
-4.977295
3.433907
10.14137
14.91824
17.87754
19.32584
19.58011
18.99218
17.844
16.4621
15.20149
14.30591
13.93325
14.07576
14.57825
15.23572
15.89116
16.44167
16.90913
17.37582
17.86396
18.37749
18.79058
18.87229
18.37904
17.10896
15.02278
12.30776
9.356064
6.540802
4.163208
2.25663
0.6025925
-1.119034
-3.200821
-5.783134
-8.724068
-11.7179
-14.48241
-16.80881
-18.73402
-20.49438
-22.41911
-24.79577
-27.84866
-31.48692
-35.40377
-38.99041
-41.44179
-41.95284
-39.93951
-35.22495
-28.1583
-19.56303
-10.51617
-2.07872
5.036201
10.4679
14.22882
16.52632
17.68128
17.98808
17.70688
17.09306
16.35734
15.74656
15.4524
15.57236
16.08543
16.82918
17.53836
18.02108
18.19741
18.13277
17.94113
17.69694
17.31938
16.6479
15.48421
13.74628
11.56554
9.258186
7.188805
5.577797
4.399406
3.372032
2.104027
0.3054047
-2.097244
-4.952911
-7.935867
-10.77864
-13.34702
-15.74143
-18.19165
-20.95473
-24.23901
-28.04919
-32.21961
-36.30268
-39.62112
-41.33038
-40.68172
-37.25542
-31.19987
-23.26641
-14.50366
-6.044212
1.318748
7.223263
11.71586
15.01818
17.35671
18.84913
19.51093
19.42544
18.72307
17.71269
16.66743
15.85376
15.44654
15.44178
15.73637
16.16116
16.57435
16.84966
17.01711
17.15407
17.30206
17.42681
17.30962
16.68422
15.31257
13.23228
10.67243
8.037392
5.718693
3.85577
2.291649
0.6737251
-1.317562
-3.820011
-6.720539
-9.769783
-12.69152
-15.36448
-17.82026
-20.20215
-22.66542
-25.3856
-28.51721
-32.19505
-36.40943
-40.80522
-44.61774
-46.82368
-46.41629
-42.81609
-36.14421
-27.23669
-17.35105
-7.778412
0.5231857
7.14175
12.10125
15.67974
18.20254
19.87703
20.74517
20.93073
20.57888
19.98816
19.47987
19.34546
19.71706
20.51719
21.54881
22.56165
23.37408
23.87452
24.03601
23.83244
23.27859
22.44305
21.41959
20.27167
19.06112
17.79524
16.40628
14.83588
13.04212
10.99751
8.749773
6.400148
4.063145
1.891392
0.002336502
-1.602407
-3.031512
-4.510494
-6.27527
-8.461489
-11.07767
-13.95088
-16.89237
-19.77248
-22.59788
-25.554
-28.94514
-32.96206
-37.56597
-42.36156
-46.54939
-49.11365
-49.13324
-46.03379
-39.86388
-31.30851
-21.3779
-11.14472
-1.555792
6.795899
13.6068
18.77129
22.33962
24.44169
25.28533
25.19654
24.56709
23.73762
23.01402
22.53507
22.32318
22.3909
22.64154
22.99578
23.39721
23.84688
24.34688
24.88741
25.35088
25.53939
25.2868
24.46262
23.05259
21.15936
18.96985
16.69142
14.49261
12.45149
10.57671
8.883514
7.350623
5.97418
4.706877
3.474474
2.214315
0.8512592
-0.7102871
-2.535335
-4.680053
-7.100363
-9.700617
-12.33752
-14.8944
-17.30543
-19.57589
-21.79905
-24.10764
-26.66036
-29.52551
-32.66095
-35.75697
-38.26493
-39.44461
-38.57974
-35.20988
-29.3818
-21.69522
-13.08294
-4.637022
2.747127
8.532031
12.60832
15.14347
16.5012
17.05061
17.12377
16.94305
16.60584
16.13684
15.58895
15.09307
14.83516
14.98972
15.59258
16.55763
17.69171
18.79098
19.72709
20.45352
21.00236
21.37312
21.4944
21.29375
20.71335
19.78664
18.57069
17.12142
15.42762
13.47754
11.29391
8.93799
6.547843
4.188198
1.898695
-0.4454117
-2.958018
-5.760931
-8.812718
-11.99303
-15.17494
-18.25928
-21.27469
-24.23257
-27.12305
-29.85386
-32.43588
-34.97462
-37.66977
-40.66703
-43.77382
-46.38654
-47.51806
-46.21159
-41.91986
-34.8537
-25.9545
-16.47987
-7.657062
-0.1940794
5.674602
10.1137
13.42846
15.8483
17.5754
18.73137
19.57381
20.29102
21.05214
21.86685
22.60702
23.17339
23.48833
23.65434
23.75944
23.97251
24.31852
24.79338
25.31463
25.68276
25.71947
25.23991
24.19134
22.61082
20.67108
18.58964
16.55038
14.65813
12.85008
11.08294
9.296736
7.5187
5.758352
3.970239
2.081281
-0.04925442
-2.46921
-5.208895
-8.195077
-11.2951
-14.36976
-17.2522
-19.84108
-22.09903
-24.17781
-26.31301
-28.81374
-31.92965
-35.67037
-39.63544
-43.03831
-44.86679
-44.15813
-40.47018
-33.94994
-25.33702
-15.76698
-6.368971
1.999121
8.907809
14.25451
18.12049
20.58065
21.71164
21.72092
20.91078
19.71532
18.57414
17.7634
17.39306
17.42076
17.70424
18.17646
18.81814
19.57073
20.39642
21.20994
21.8065
22.04778
21.85035
21.1176
19.87243
18.19424
16.13066
13.83996
11.46899
9.107806
6.824948
4.681027
2.729646
1.028913
-0.3125653
-1.378876
-2.341187
-3.489829
-5.151982
-7.516992
-10.52634
-13.94503
-17.41401
-20.60733
-23.37288
-25.70008
-27.73806
-29.72351
-31.89887
-34.45163
-37.39967
-40.43438
-42.9481
-44.15041
-43.23193
-39.6749
-33.48947
-25.19983
-15.76464
-6.28046
2.292028
9.2838
14.33055
17.39625
18.72604
18.65721
17.65857
16.20912
14.66712
13.30844
12.31818
11.75319
11.67395
12.12122
13.06923
14.37975
15.88128
17.31953
18.52444
19.42264
20.03452
20.35734
20.30635
19.69968
18.38519
16.33356
13.6846
10.80123
8.006254
5.552509
3.395273
1.337481
-0.9172611
-3.556213
-6.568727
-9.74637
-12.73043
-15.25998
-17.22186
-18.76569
-20.191
-21.92332
-24.3313
-27.5802
-31.60666
-36.01464
-40.14952
-43.1588
-44.14232
-42.39251
-37.63651
-30.2252
-21.00787
-11.20842
-1.972446
5.832447
11.82598
16.07325
18.8089
20.34615
20.8795
20.59022
19.67225
18.4935
17.46986
16.9693
17.17846
18.02934
19.23163
20.40237
21.22757
21.53999
21.41777
21.06355
20.634
20.19466
19.65547
18.80896
17.49242
15.66979
13.47884
11.17087
9.020229
7.116581
5.364933
3.517719
1.225845
-1.703991
-5.363976
-9.592533
-14.0914
-18.49159
-22.45828
-25.79404
-28.47133
-30.69365
-32.72312
-34.95073
-37.64945
-40.84053
-44.23334
-47.15999
-48.77435
-48.24418
-45.0786
-39.25481
-31.31837
-22.17799
-12.80213
-4.046021
3.568802
9.845123
14.79503
18.49216
21.0604
22.61453
23.25018
23.14448
22.49306
21.51914
20.46767
19.57248
19.00566
18.92684
19.35091
20.18527
21.3036
22.52795
23.69281
24.61381
25.09919
24.96009
24.12495
22.59346
20.48328
17.98049
15.28088
12.55726
9.921707
7.447845
5.177681
3.130905
1.237587
-0.6325302
-2.663269
-4.998871
-7.663528
-10.55638
-13.45229
-16.19955
-18.7219
-21.15208
-23.74509
-26.80853
-30.60185
-35.14647
-40.16112
-45.01866
-48.84253
-50.66682
-49.7735
-45.88353
-39.27351
-30.71442
-21.19763
-11.69992
-2.939117
4.641159
10.87904
15.69565
19.08389
21.15979
22.10576
22.26485
21.94495
21.48766
21.14328
21.11777
21.52646
22.39803
23.6982
25.22816
26.76175
27.99367
28.79265
29.05315
28.81638
28.14456
27.09233
25.69608
23.96381
22.01678
19.9653
18.04512
16.27849
14.64395
12.9659
11.15544
9.189972
7.167633
5.290054
3.628662
2.151932
0.602478
-1.265289
-3.575256
-6.248795
-9.055542
-11.77344
-14.36363
-16.95224
-19.77013
-23.02245
-26.75705
-30.83647
-35.09222
-39.22165
-42.75365
-45.05035
-45.34869
-43.02103
-37.85846
-30.22902
-21.05064
-11.59225
-2.944717
4.193024
9.635513
13.54005
16.28702
18.17798
19.46257
20.30782
20.75883
20.9409
20.93974
20.8714
20.87083
21.1163
21.71153
22.72711
24.09575
25.56438
26.87836
27.75447
28.0076
27.63684
26.85732
25.89229
24.97716
24.20267
23.47977
22.67883
21.62204
20.15602
18.2121
15.84166
13.12544
10.25377
7.404694
4.695328
2.134003
-0.3860016
-3.051117
-5.987823
-9.230453
-12.66708
-16.07742
-19.28192
-22.21696
-25.00046
-27.85141
-31.05876
-34.74533
-38.892
-43.17883
-47.00009
-49.53935
-49.99193
-47.73372
-42.57413
-34.89735
-25.49292
-15.50648
-6.063751
2.020721
8.378738
13.0098
16.27051
18.55124
20.17766
21.38443
22.27319
22.85512
23.18375
23.31703
23.33023
23.29218
23.23138
23.18889
23.20322
23.37234
23.74223
24.35643
25.13202
25.96893
26.74243
27.30658
27.52708
27.31984
26.62495
25.46561
24.01007
22.41124
20.86928
19.47498
18.14694
16.70139
14.97166
12.8736
10.49873
8.04808
5.734238
3.718704
2.05603
0.6507721
-0.6735382
-2.128952
-3.940109
-6.253586
-9.151276
-12.52917
-16.16451
-19.74242
-23.00548
-25.82336
-28.32303
-30.82864
-33.73416
-37.40736
-41.96411
-47.14249
-52.24092
-56.25243
-58.04645
-56.76012
-52.0932
-44.37323
-34.53154
-23.80222
-13.40475
-4.206589
3.364838
9.262131
13.66519
16.8271
18.96899
20.31216
21.07193
21.48459
21.80496
22.28409
23.04094
24.08521
25.34459
26.69269
28.00958
29.26709
30.42012
31.44135
32.25107
32.70001
32.66019
32.05666
30.89922
29.27884
27.38034
25.39655
23.5067
21.83246
20.38991
19.13669
17.97948
16.77393
15.38324
13.76015
11.9353
10.05708
8.245483
6.560638
4.984787
3.428268
1.794144
0.05528259
-1.710403
-3.46962
-5.160233
-6.895981
-8.780045
-10.91768
-13.36696
-16.04881
-18.82422
-21.48041
-23.90245
-26.01317
-27.93613
-29.90779
-32.25354
-35.27089
-39.03728
-43.22275
-47.08113
-49.62469
-49.85208
-47.1671
-41.53519
-33.55579
-24.24016
-14.73732
-5.994812
1.352554
7.105988
11.44087
14.64485
17.092
19.04752
20.58702
21.65564
22.17764
22.09004
21.5132
20.72728
19.97729
19.49457
19.34328
19.47835
19.8488
20.44533
21.25587
22.25485
23.37692
24.39897
25.10545
25.24637
24.68597
23.45813
21.75809
19.9128
18.16525
16.74974
15.62729
14.68198
13.61539
12.16874
10.20524
7.749763
4.980698
2.129364
-0.5417862
-2.993828
-5.228279
-7.424278
-9.806252
-12.49771
-15.49079
-18.57528
-21.44366
-23.74447
-25.3642
-26.39655
-27.19901
-28.28121
-30.07133
-32.69902
-35.79993
-38.61853
-40.10407
-39.3513
-35.87681
-29.78859
-21.81479
-13.05545
-4.638809
2.595947
8.233398
12.29916
15.03856
16.78666
17.79041
18.18918
18.11655
17.7214
17.22246
16.85091
16.70595
16.68924
16.6368
16.37014
15.81186
15.13517
14.59719
14.37692
14.51256
14.80443
14.93591
14.68279
14.05766
13.22795
12.42718
11.79852
11.26371
10.59126
9.529434
7.906136
5.727829
3.209454
0.6749992
-1.553028
-3.276009
-4.565132
-5.683731
-6.965561
-8.700676
-10.97932
-13.69646
-16.57391
-19.33433
-21.81963
-24.0551
-26.15199
-28.33995
-30.79859
-33.66589
-36.98381
-40.54428
-43.8955
-46.32154
-47.06867
-45.42294
-41.10312
-34.29964
-25.76942
-16.56291
-7.777542
-0.2498188
5.589834
9.733774
12.48468
14.2152
15.29947
16.01382
16.55213
17.05148
17.63143
18.34742
19.21451
20.17226
21.0854
21.87951
22.5005
22.98213
23.33633
23.54378
23.54317
23.21504
22.50461
21.40104
20.0209
18.51947
17.03597
15.65172
14.30833
12.90785
11.27867
9.335947
7.072746
4.628077
2.157652
-0.1623793
-2.253739
-4.170241
-6.040297
-8.036569
-10.23517
-12.62938
-15.1117
-17.58315
-19.94717
-22.19287
-24.37816
-26.59566
-28.98592
-31.67584
-34.74052
-38.14466
-41.60811
-44.63438
-46.42735
-46.23898
-43.5021
-38.17182
-30.7269
-22.13811
-13.53003
-5.839235
0.3790925
5.092997
8.553205
11.20619
13.37473
15.29689
17.01628
18.53003
19.7841
20.73065
21.38782
21.734
21.87782
21.88319
21.92371
22.17746
22.76948
23.68511
24.70531
25.49528
25.66935
25.05991
23.70677
21.90824
20.0528
18.37625
16.9504
15.62074
14.21426
12.57092
10.6733
8.577112
6.364562
4.130711
1.922409
-0.2280164
-2.378456
-4.573347
-6.936089
-9.493797
-12.14906
-14.71801
-16.90734
-18.57435
-19.72996
-20.66437
-21.73966
-23.3356
-25.62559
-28.55757
-31.8868
-35.06414
-37.4129
-38.07796
-36.42492
-32.17298
-25.60304
-17.54553
-9.148351
-1.516699
4.657219
9.144443
12.1738
14.13012
15.35812
16.02569
16.1772
15.84205
15.09618
14.19551
13.34985
12.79788
12.6673
12.94865
13.54958
14.34179
15.2374
16.14974
17.08627
17.93428
18.5801
18.90766
18.79954
18.1868
17.05994
15.51422
13.73005
11.94504
10.34271
8.979268
7.693636
6.147438
3.984415
0.9629784
-2.8613
-7.18926
-11.55398
-15.5829
-19.05387
-22.03246
-24.72792
-27.37163
-30.1519
-33.18473
-36.51892
-40.05767
-43.55351
-46.47865
-48.10306
-47.64761
-44.53476
-38.67838
-30.5765
-21.124
-11.45182
-2.482256
5.178931
11.27089
15.82021
18.99235
21.01004
22.14197
22.68674
22.90234
22.99103
22.9911
22.81694
22.34959
21.55707
20.52189
19.47793
18.70839
18.40532
18.56748
19.0038
19.4182
19.5507
19.28279
18.6087
17.5719
16.23628
14.64913
12.87076
11.03083
9.279053
7.767005
6.557352
5.610607
4.819343
4.011878
3.052383
1.821478
0.2167244
-1.836665
-4.327895
-7.140409
-10.01674
-12.69472
-15.09421
-17.35833
-19.84769
-22.93849
-26.87909
-31.62994
-36.88742
-42.13844
-46.74983
-50.08857
-51.47926
-50.3959
-46.58812
-40.22186
-31.96574
-22.89078
-14.09317
-6.435313
-0.2872663
4.470384
8.18337
11.26967
13.97424
16.39284
18.47175
20.18794
21.55293
22.68842
23.71223
24.67848
25.57166
26.30962
26.85926
27.23085
27.46696
27.66321
27.82767
27.85628
27.58727
26.88366
25.66723
24.00367
22.08934
20.1542
18.34872
16.71394
15.19148
13.62787
11.89684
9.938509
7.798465
5.638098
3.617615
1.838178
0.2702851
-1.287445
-3.064437
-5.263321
-7.973679
-11.08262
-14.37953
-17.61452
-20.59343
-23.23004
-25.57821
-27.74667
-29.96333
-32.45189
-35.33304
-38.59312
-41.85268
-44.43483
-45.45274
-44.08206
-39.84401
-32.83706
-23.77257
-13.75052
-3.997152
4.501958
11.12599
15.70423
18.42142
19.65296
19.84721
19.35183
18.50708
17.53564
16.67414
16.09732
15.91512
16.21791
17.02184
18.30791
19.98803
21.97247
24.04045
25.96142
27.40205
28.08643
27.90789
26.91165
25.34367
23.48918
21.50451
19.38293
17.05043
14.41977
11.56057
8.655756
5.913275
3.517333
1.534729
-0.0810883
-1.455303
-2.722649
-3.965432
-5.232606
-6.535279
-7.962529
-9.590055
-11.4611
-13.60045
-15.97665
-18.60649
-21.53662
-24.90444
-28.84364
-33.33227
-37.9852
-42.02957
-44.45863
-44.2858
-40.97212
-34.64583
-26.08882
-16.52312
-7.251086
0.781714
7.090633
11.65771
14.73783
16.6814
17.79682
18.30931
18.42714
18.34906
18.28012
18.40165
18.78985
19.45114
20.29891
21.18633
22.02648
22.74702
23.42653
24.08924
24.7174
25.17873
25.28296
24.80461
23.58569
21.65921
19.13582
16.2628
13.23623
10.20361
7.234251
4.410109
1.78304
-0.5934944
-2.689034
-4.529184
-6.220123
-7.904495
-9.73311
-11.83082
-14.21239
-16.78585
-19.39741
-21.8369
-23.97994
-25.80713
-27.4535
-29.20215
-31.34816
-34.11297
-37.47282
-41.06207
-44.14989
-45.8575
-45.34636
-42.07954
-36.10163
-27.99995
-18.78163
-9.601952
-1.407602
5.278486
10.34074
13.98426
16.53175
18.28565
19.45669
20.19767
20.61305
20.78814
20.84286
20.85213
20.86447
20.90635
20.92984
20.91289
20.89473
20.91282
21.04745
21.38634
21.90761
22.5272
23.10832
23.42145
23.28878
22.62092
21.39601
19.69735
17.61759
15.26667
12.74192
10.08791
7.384979
4.689003
2.13081
-0.2342415
-2.420115
-4.515753
-6.654663
-8.950306
-11.37568
-13.77151
-15.94897
-17.80716
-19.45065
-21.16053
-23.33045
-26.29203
-30.11336
-34.52924
-38.92104
-42.38564
-44.02642
-43.09915
-39.31432
-32.93228
-24.69078
-15.63313
-6.824738
0.9060879
7.056187
11.48217
14.38446
16.10162
17.0241
17.46907
17.64309
17.64891
17.54629
17.37885
17.21429
17.19263
17.36747
17.70511
18.09541
18.35331
18.39784
18.23744
18.02401
17.89825
17.90102
17.8736
17.53008
16.59344
14.91087
12.62119
10.06437
7.665207
5.720982
4.297623
3.198296
2.105122
0.6993752
-1.196262
-3.51598
-6.06065
-8.548771
-10.77432
-12.67556
-14.38691
-16.09451
-18.01296
-20.28334
-22.92923
-25.97572
-29.31539
-32.68984
-35.59645
-37.27126
-36.91313
-33.92116
-28.25268
-20.51998
-11.85962
-3.515343
3.583
9.047443
12.93773
15.56638
17.23647
18.09679
18.19126
17.61915
16.62171
15.56086
14.81709
14.57973
14.85649
15.51261
16.34609
17.19412
18.00215
18.75833
19.41957
19.90356
20.08726
19.82211
18.95378
17.40162
15.13824
12.27514
9.014011
5.650993
2.520821
-0.1305122
-2.201881
-3.858692
-5.405983
-7.120636
-9.156353
-11.46673
-13.86959
-16.09105
-18.01586
-19.67561
-21.32165
-23.29136
-25.86353
-29.1598
-33.1204
-37.45222
-41.59558
-44.84973
-46.378
-45.46343
-41.72926
-35.25177
-26.71762
-17.20682
-7.908066
0.1774483
6.532776
11.10715
14.22806
16.30625
17.72578
18.67176
19.26149
19.54889
19.63271
19.65825
19.70568
19.84036
19.96868
19.9994
19.81094
19.47477
19.14106
18.99508
19.13643
19.48297
19.80188
19.7991
19.22968
17.96141
16.07883
13.79758
11.34233
8.958565
6.749249
4.715641
2.747196
0.5894432
-1.979538
-5.115467
-8.726288
-12.53446
-16.13466
-19.14881
-21.40239
-22.98022
-24.21548
-25.49181
-27.23022
-29.71244
-32.99509
-36.83466
-40.65284
-43.53694
-44.50738
-42.75905
-38.00913
-30.67004
-21.75136
-12.49987
-4.049763
2.919617
8.262684
12.18329
15.12417
17.47886
19.45526
21.15237
22.56286
23.6029
24.29597
24.69767
24.89174
24.99897
25.06762
25.08282
25.004
24.85812
24.63331
24.43116
24.2942
24.16663
23.93633
23.42327
22.43368
20.92503
18.96968
16.70189
14.35209
12.06028
9.809269
7.58207
5.20881
2.540928
-0.4577742
-3.750916
-7.183488
-10.46094
-13.31077
-15.581
-17.22915
-18.46471
-19.64438
-21.14182
-23.28845
-26.20724
-29.78326
-33.60958
-37.08936
-39.39423
-39.77836
-37.64803
-32.82686
-25.69662
-17.06023
-7.989205
0.4846802
7.626633
13.10332
16.89365
19.20324
20.30204
20.43998
19.8529
18.80837
17.58814
16.47495
15.69175
15.29866
15.25799
15.46303
15.76194
16.09405
16.46156
16.87357
17.36052
17.84931
18.22861
18.34569
18.04246
17.22853
15.92759
14.27009
12.43524
10.61113
8.838739
7.074403
5.189466
2.997788
0.3931103
-2.640378
-5.977612
-9.431339
-12.81462
-16.00684
-19.04021
-22.04816
-25.26572
-28.87173
-32.95762
-37.32669
-41.52555
-44.78787
-46.28956
-45.29931
-41.47936
-35.02905
-26.64118
-17.38166
-8.312406
-0.3234129
6.137144
10.98032
14.43183
16.77979
18.29121
19.21437
19.72415
19.96712
20.09712
20.30541
20.68943
21.25589
21.9446
22.62058
23.16491
23.53199
23.7488
23.86857
23.9283
23.87008
23.48188
22.59405
21.10047
19.05638
16.65478
14.20796
11.97151
10.07797
8.521311
7.122723
5.786435
4.44616
3.127733
1.785718
0.3128967
-1.46614
-3.741241
-6.573739
-9.88883
-13.41968
-16.91354
-20.13008
-23.04835
-25.82095
-28.66927
-31.79709
-35.32162
-39.25051
-43.32191
-47.0686
-49.72484
-50.38546
-48.30421
-43.14209
-35.19659
-25.37329
-14.97746
-5.26539
2.871062
9.051554
13.44326
16.46898
18.65323
20.38779
21.88052
23.18498
24.2894
25.18638
25.8861
26.48013
27.02504
27.53726
27.97632
28.31841
28.59682
28.88466
29.24051
29.6357
29.95698
30.05549
29.83371
29.25985
28.44164
27.49373
26.4695
25.38578
24.21822
22.96187
21.62796
20.24594
18.79567
17.22463
15.49853
13.59837
11.61847
9.71282
8.056719
6.709696
5.599684
4.506998
3.19062
1.514408
-0.4590397
-2.512075
-4.375526
-5.891861
-7.110985
-8.307899
-9.841686
-11.94506
-14.67922
-17.84917
-21.15376
-24.27135
-26.96077
-29.08568
-30.62728
-31.76787
-32.81099
-34.2233
-36.42818
-39.607
-43.43821
-47.10487
-49.41927
-49.24132
-45.94786
-39.6256
-31.1369
-21.7422
-12.68148
-4.843552
1.375755
6.054092
9.516968
12.12576
14.18983
15.87151
17.25906
18.41133
19.37634
20.22536
21.0078
21.73403
22.36271
22.81461
23.03162
22.98887
22.83588
22.75748
22.93626
23.42317
24.09942
24.70643
24.9266
24.51705
23.37083
21.65789
19.64545
17.64739
15.8877
14.47724
13.39219
12.48728
11.56183
10.46343
9.092201
7.440659
5.555473
3.524345
1.45929
-0.5212555
-2.313766
-3.862503
-5.137123
-6.205391
-7.214447
-8.395462
-9.886169
-11.8334
-14.14941
-16.65133
-19.08077
-21.19901
-22.94781
-24.43235
-25.95948
-27.8226
-30.20387
-32.9798
-35.6352
-37.35956
-37.30858
-34.87846
-29.89803
-22.77583
-14.41449
-5.85688
1.863327
8.099098
12.61028
15.51346
17.1158
17.78224
17.81346
17.33798
16.45889
15.20203
13.69354
12.08554
10.67322
9.692307
9.303421
9.470917
10.01743
10.71306
11.37384
12.00647
12.64734
13.34731
14.02205
14.51979
14.67833
14.44589
13.94102
13.27612
12.52766
11.62349
10.29419
8.320801
5.682419
2.578964
-0.570343
-3.275574
-5.297989
-6.644516
-7.598862
-8.546692
-9.795959
-11.43799
-13.38547
-15.43021
-17.39194
-19.27306
-21.15593
-23.26697
-25.79416
-28.85249
-32.33806
-35.98122
-39.2263
-41.36159
-41.71454
-39.7623
-35.37495
-28.9214
-21.15944
-13.04483
-5.506851
0.8444061
5.773651
9.323593
11.73103
13.25784
14.10394
14.46188
14.55081
14.53975
14.58327
14.75594
15.01642
15.35684
15.75401
16.26793
16.97591
17.92358
19.00357
19.97472
20.55788
20.48621
19.75038
18.4263
16.71605
14.87167
13.06273
11.32327
9.572418
7.719879
5.616226
3.220413
0.5949554
-2.117447
-4.720276
-7.036896
-9.014923
-10.72278
-12.22142
-13.5979
-14.84097
-15.91594
-16.78453
-17.51947
-18.28847
-19.30064
-20.73396
-22.62636
-25.01384
-27.82365
-30.92929
-34.04329
-36.58699
-37.86107
-37.08493
-33.79874
-28.05522
-20.50482
-12.18301
-4.187347
2.652115
8.029053
11.98051
14.81158
16.7543
17.97908
18.49304
18.31961
17.58592
16.51985
15.44373
14.63922
14.28905
14.39169
14.83546
15.42479
15.97119
16.37152
16.62109
16.72244
16.70181
16.54536
16.24042
15.70557
14.8839
13.72978
12.28278
10.61871
8.87915
7.162659
5.524414
3.895874
2.08551
-0.09686279
-2.806717
-5.947418
-9.258438
-12.33755
-14.86952
-16.7495
-18.13924
-19.34613
-20.72458
-22.53307
-24.8631
-27.62253
-30.56763
-33.28525
-35.20148
-35.67549
-34.08597
-30.11604
-23.9113
-16.1675
-7.922073
-0.3154297
5.763168
9.912811
12.20485
13.05138
13.03151
12.63228
12.13385
11.62856
11.11063
10.59303
10.18706
10.05406
10.31339
11.04272
12.14473
13.48373
14.87767
16.1886
17.37634
18.42439
19.25638
19.67294
19.4483
18.32602
16.2739
13.47295
10.27504
7.126053
4.382095
2.145248
0.2706604
-1.543335
-3.644913
-6.225159
-9.231064
-12.44377
-15.49731
-18.07811
-20.01826
-21.41158
-22.56651
-23.966
-26.02318
-28.96199
-32.66914
-36.54323
-39.74336
-41.3111
-40.5063
-37.0453
-31.2265
-23.7287
-15.48981
-7.482239
-0.388092
5.382233
9.736511
12.88089
15.05672
16.56357
17.58719
18.25084
18.53885
18.46199
18.03772
17.38029
16.74886
16.2896
16.1503
16.27928
16.59377
16.90071
17.10747
17.1227
16.90961
16.47148
15.7253
14.63391
13.16074
11.3698
9.388565
7.487991
5.863373
4.633316
3.758377
3.03392
2.159195
0.8555145
-1.015121
-3.461807
-6.295517
-9.255539
-12.07626
-14.54509
-16.58075
-18.29016
-19.94685
-21.9205
-24.57683
-28.08734
-32.23778
-36.41536
-39.63462
-40.85942
-39.34138
-34.93682
-28.15415
-19.95797
-11.44954
-3.562515
3.140144
8.506187
12.59714
15.60905
17.71532
19.08775
19.88486
20.31431
20.57636
20.76202
20.95753
21.11163
21.20406
21.21929
21.20608
21.20863
21.31753
21.5951
21.96022
22.29842
22.40199
22.105
21.32998
20.1162
18.57124
16.88675
15.21976
13.64138
12.20865
10.8812
9.586716
8.261803
6.769379
4.951752
2.63662
-0.2391434
-3.615868
-7.187897
-10.5509
-13.30819
-15.21141
-16.32288
-16.96046
-17.66272
-18.94741
-21.15511
-24.37742
-28.29691
-32.26039
-35.39489
-36.79068
-35.81073
-32.27972
-26.5448
-19.34554
-11.58798
-4.163536
2.30619
7.508591
11.39493
14.09895
15.87855
16.98232
17.58884
17.80677
17.67429
17.2495
16.69841
16.2396
16.11547
16.41121
17.08842
17.97491
18.85262
19.57713
20.1095
20.4124
20.38668
19.84079
18.50342
16.23286
13.12507
9.545181
6.00576
3.002411
0.7654648
-0.7883453
-1.959236
-3.165756
-4.723366
-6.743546
-9.131142
-11.66004
-14.14268
-16.4686
-18.67545
-20.92786
-23.49538
-26.66473
-30.52571
-34.8984
-39.18526
-42.51484
-43.9256
-42.68233
-38.53178
-31.87826
-23.61447
-14.81644
-6.46328
0.8165169
6.764114
11.36411
14.77903
17.18386
18.71928
19.5576
19.86103
19.75884
19.37471
18.85031
18.3155
17.92099
17.77165
17.88894
18.23765
18.73196
19.29315
19.87646
20.47615
21.05599
21.4711
21.49757
20.8519
19.38213
17.07568
14.13514
10.92222
7.81576
5.151972
3.066168
1.471195
0.0815239
-1.44569
-3.434763
-6.059584
-9.220428
-12.61997
-15.85939
-18.62046
-20.80432
-22.57908
-24.28922
-26.35623
-29.12658
-32.6861
-36.83777
-41.11027
-44.75333
-46.93012
-46.88824
-44.20615
-38.9175
-31.60092
-23.19227
-14.70561
-7.003119
-0.5153239
4.75804
9.095642
12.87157
16.32688
19.52549
22.34798
24.55665
25.96058
26.48521
26.24766
25.47907
24.5069
23.62627
23.08371
23.01175
23.37046
24.02192
24.74052
25.23455
25.25767
24.66571
23.46605
21.77471
19.80742
17.72145
15.59697
13.5303
11.53516
9.676987
8.010712
6.54187
5.190805
3.852474
2.301373
0.3655872
-2.003946
-4.774763
-7.806366
-10.94583
-14.05783
-17.05249
-19.87622
-22.51801
-25.01561
-27.43484
-29.90193
-32.57861
-35.57616
-38.83878
-41.9599
-44.25978
-44.83257
-42.94444
-38.276
-31.13737
-22.36949
-13.06572
-4.253258
3.397282
9.595055
14.43622
18.1235
20.86592
22.7725
23.8563
24.13262
23.62989
22.55217
21.22972
20.07365
19.45427
19.51437
20.18105
21.17143
22.1821
22.99497
23.50513
23.73743
23.74447
23.55933
23.16354
22.56274
21.73743
20.74053
19.65889
18.54117
17.41999
16.26598
15.03546
13.64867
12.06132
10.25275
8.247055
6.029182
3.607506
0.9716949
-1.910248
-4.978333
-8.142708
-11.27074
-14.2304
-17.03439
-19.82667
-22.82792
-26.26711
-30.23595
-34.59106
-38.88021
-42.40689
-44.32108
-43.94141
-40.88425
-35.25439
-27.68321
-19.09388
-10.45401
-2.508293
4.344666
10.02554
14.58286
18.13658
20.77444
22.48598
23.37037
23.59984
23.40498
23.06037
22.78966
22.66756
22.74228
23.00792
23.39234
23.9156
24.561
25.30225
26.00324
26.50796
26.61053
26.20216
25.28353
23.93262
22.34914
20.70136
19.10285
17.54704
15.94296
14.14991
12.08913
9.785851
7.358528
4.97567
2.737427
0.6667862
-1.36982
-3.585167
-6.117577
-8.981186
-12.04511
-15.07684
-17.83466
-20.23942
-22.33916
-24.3231
-26.42967
-28.9351
-32.04445
-35.82586
-40.14268
-44.55357
-48.38105
-50.75524
-50.82658
-47.98749
-42.21827
-34.06835
-24.54697
-14.79739
-5.828415
1.740364
7.71685
12.25
15.65816
18.19329
19.98611
21.04583
21.43185
21.2541
20.78572
20.38976
20.39204
20.97202
22.11299
23.63673
25.27085
26.79265
28.07001
29.03431
29.67068
29.90512
29.64864
28.85076
27.54964
25.83425
23.87945
21.84076
19.87823
18.0827
16.45316
14.99036
13.62725
12.33797
11.02987
9.676476
8.215782
6.69606
5.210556
3.834023
2.649422
1.594177
0.5735779
-0.6444168
-2.266853
-4.483791
-7.323479
-10.65858
-14.23511
-17.74952
-21.0035
-23.90758
-26.56845
-29.14705
-31.90156
-34.96941
-38.31956
-41.66546
-44.41047
-45.846
-45.19508
-42.00552
-36.30496
-28.64283
-20.00814
-11.47151
-3.989849
1.996395
6.409775
9.571697
11.91848
13.76979
15.35696
16.7058
17.81527
18.6679
19.36655
20.03138
20.76971
21.6154
22.47148
23.29515
24.02834
24.67374
25.26361
25.79296
26.15879
26.17316
25.63996
24.43046
22.60111
20.32349
17.88732
15.57889
13.62621
12.10767
10.9223
9.936203
8.910706
7.718933
6.323048
4.803499
3.364767
2.234174
1.5251
1.247201
1.221649
1.074964
0.4249167
-1.004965
-3.297273
-6.214461
-9.362841
-12.34782
-14.9232
-17.1212
-19.23407
-21.65856
-24.62731
-28.13124
-31.7808
-34.90386
-36.74947
-36.61806
-34.13497
-29.32887
-22.641
-14.82768
-6.865456
0.3592205
6.223589
10.46392
13.21312
14.7884
15.54656
15.80347
15.75358
15.49794
15.1036
14.64533
14.19939
13.89789
13.83018
14.008
14.3621
14.73642
14.95845
14.90585
14.58448
14.07424
13.5161
12.99305
12.437
11.71818
10.66131
9.251354
7.548733
5.751976
4.035091
2.530376
1.252281
0.07691956
-1.162483
-2.632759
-4.450043
-6.645126
-9.120354
-11.68831
-14.13779
-16.26421
-17.96304
-19.29494
-20.39462
-21.56857
-23.12527
-25.39103
-28.52551
-32.48319
-36.79138
-40.60927
-42.88418
-42.69881
-39.62965
-33.86466
-26.23984
-17.83263
-9.682816
-2.479446
3.522324
8.373589
12.2119
15.12788
17.19753
18.48999
19.12415
19.29725
19.16462
18.80421
18.21799
17.43283
16.52242
15.65449
15.08882
14.92946
15.23508
15.84917
16.53146
17.01839
17.21069
17.08926
16.72272
16.15697
15.32668
14.16081
12.58259
10.64512
8.469162
6.30365
4.350243
2.731453
1.42234
0.2725906
-0.8712997
-2.155334
-3.662582
-5.433533
-7.4935
-9.865234
-12.52632
-15.37885
-18.29597
-21.12749
-23.832
-26.52191
-29.4075
-32.69135
-36.38261
-40.15004
-43.26622
-44.8522
-44.14326
-40.75117
-34.88968
-27.22441
-18.68842
-10.18011
-2.377167
4.392471
10.00375
14.47502
17.79974
20.00307
21.15268
21.37553
20.88998
19.93922
18.79419
17.65767
16.6857
15.93669
15.4359
15.17456
15.13329
15.29492
15.61137
16.01653
16.37627
16.56586
16.47725
15.99498
15.04201
13.60677
11.68236
9.352234
6.752747
4.078949
1.564545
-0.6142578
-2.438339
-4.097382
-5.838989
-7.886673
-10.30844
-12.92822
-15.44234
-17.5762
-19.15337
-20.23654
-21.08063
-21.94418
-23.08374
-24.66563
-26.70166
-29.02946
-31.30826
-32.96164
-33.35641
-31.94873
-28.51233
-23.24883
-16.75914
-9.890839
-3.432343
2.108032
6.585541
10.13124
12.94301
15.13963
16.69312
17.50746
17.50977
16.74303
15.40494
13.78487
12.14299
10.65234
9.438522
8.58519
8.221375
8.455704
9.283127
10.5289
11.85838
12.8587
13.23401
12.87515
11.85272
10.31644
8.463715
6.385284
4.110535
1.660355
-0.9044189
-3.523331
-6.080215
-8.518326
-10.76549
-12.73285
-14.3643
-15.64331
-16.66006
-17.64453
-19.02534
-21.18283
-24.36719
-28.41333
-32.69893
-36.24936
-37.99179
-37.15073
-33.53813
-27.64046
-20.40831
-12.90619
-5.965103
-0.05032349
4.719406
8.460953
11.33934
13.47179
14.89076
15.6758
15.90317
15.74719
15.4021
15.03076
14.75227
14.65109
14.7511
15.02576
15.49893
16.11493
16.77573
17.3826
17.73155
17.60994
16.82257
15.29774
13.13091
10.55251
7.856552
5.305801
3.029205
1.037201
-0.7827759
-2.617645
-4.621872
-6.863373
-9.392654
-12.15993
-15.05852
-17.93062
-20.63721
-23.11119
-25.46005
-27.92223
-30.77412
-34.18008
-38.01244
-41.74739
-44.54881
-45.55293
-44.0658
-39.87939
-33.36774
-25.30082
-16.67229
-8.385048
-1.039055
5.064621
9.937317
13.76917
16.7524
19.04465
20.70474
21.77095
22.23943
22.20559
21.81265
21.27921
20.87145
20.78984
21.12045
21.84278
22.80151
23.78197
24.64689
25.30777
25.70134
25.76152
25.38789
24.48527
22.99439
20.94183
18.47411
15.83517
13.27918
10.95672
8.938591
7.101456
5.234756
3.164803
0.7224426
-2.134392
-5.298294
-8.565048
-11.7076
-14.49221
-16.84123
-18.82789
-20.62336
-22.52324
-24.8444
-27.82255
-31.59972
-36.03988
-40.66969
-44.69882
-47.20382
-47.29308
-44.44678
-38.65958
-30.48922
-20.9531
-11.26918
-2.514339
4.61882
9.886978
13.56258
16.1017
17.9688
19.47521
20.66135
21.4595
21.82423
21.80898
21.64536
21.60524
21.89683
22.53241
23.43862
24.45474
25.51004
26.55288
27.49209
28.25001
28.682
28.63633
27.95299
26.63078
24.76093
22.50065
20.02015
17.4565
14.9196
12.48347
10.18208
8.002353
5.965877
4.064512
2.275163
0.5054798
-1.366235
-3.468346
-5.941169
-8.773123
-11.80554
-14.83153
-17.63225
-20.11491
-22.36449
-24.60273
-27.10161
-30.08592
-33.50835
-36.9923
-39.9201
-41.495
-40.96754
-37.81562
-31.99789
-24.03399
-14.8783
-5.665703
2.597708
9.260059
14.13666
17.37908
19.37753
20.41178
20.60938
20.00582
18.69628
16.97308
15.30989
14.25552
14.19136
15.1794
16.91599
18.92362
20.78227
22.26092
23.34337
24.16529
24.79602
25.16175
25.09613
24.37613
22.89765
20.65632
17.77589
14.43967
10.88576
7.351225
3.969056
0.8108397
-2.186064
-5.117296
-8.040838
-10.95847
-13.73898
-16.21742
-18.23936
-19.7539
-20.79887
-21.56092
-22.33468
-23.53863
-25.56363
-28.62855
-32.61981
-36.96432
-40.72366
-42.80896
-42.41331
-39.16934
-33.35011
-25.65214
-16.9769
-8.263758
-0.2742882
6.456009
11.69606
15.44765
17.94441
19.53775
20.54844
21.21682
21.6362
21.81683
21.78696
21.62559
21.48907
21.51119
21.77443
22.24109
22.79866
23.34316
23.82337
24.16359
24.3228
24.22463
23.80417
23.00479
21.77598
20.11409
18.06742
15.79863
13.46544
11.25151
9.319427
7.771156
6.558983
5.477337
4.199696
2.382549
-0.1639328
-3.401184
-7.063316
-10.80127
-14.23232
-17.14772
-19.56053
-21.70264
-23.95025
-26.69744
-30.24897
-34.63432
-39.64073
-44.68879
-48.84435
-51.07147
-50.48425
-46.63862
-39.67547
-30.38512
-19.85769
-9.401932
-0.107357
7.403603
13.01887
17.041
19.97805
22.30898
24.25289
25.82646
26.88989
27.30078
27.14064
26.64988
26.13686
25.80767
25.68381
25.62423
25.49928
25.26791
25.03792
24.95511
25.07372
25.24588
25.16428
24.54669
23.22464
21.33924
19.2037
17.1966
15.57723
14.32098
13.21236
11.956
10.37771
8.438541
6.330544
4.269005
2.411018
0.7693405
-0.838028
-2.687191
-4.9748
-7.757523
-10.97382
-14.42403
-17.90456
-21.25333
-24.3675
-27.24064
-29.99465
-32.83241
-35.99268
-39.59937
-43.41879
-46.84945
-48.9576
-48.75415
-45.51855
-39.14165
-30.22346
-19.86847
-9.384888
0.1025658
7.859867
13.60418
17.45082
19.76554
20.99425
21.54425
21.77771
21.91845
22.09907
22.34555
22.62908
22.87969
23.09662
23.29207
23.51048
23.83775
24.31026
24.91957
25.60884
26.30069
26.85093
27.0933
26.91682
26.16974
24.90814
23.22221
21.34871
19.48826
17.7919
16.25444
14.69292
12.92919
10.77258
8.271961
5.614889
3.050858
0.744297
-1.312822
-3.301062
-5.428781
-7.862018
-10.64984
-13.64672
-16.61682
-19.31821
-21.51985
-23.20335
-24.49376
-25.68142
-27.10596
-29.12496
-31.86094
-35.13603
-38.49163
-41.13224
-42.19299
-40.94534
-37.04194
-30.59389
-22.29746
-13.16891
-4.291164
3.426577
9.561272
14.08477
17.19925
19.2247
20.43347
20.93381
20.80565
20.13659
19.05717
17.78018
16.53274
15.4778
14.76586
14.46418
14.57363
15.07447
15.88011
16.86378
17.86801
18.71586
19.17765
19.13341
18.54951
17.47775
16.10642
14.68105
13.40518
12.40439
11.60652
10.82525
9.826908
8.431713
6.578297
4.389027
2.090412
-0.1338081
-2.177338
-4.145313
-6.268631
-8.765488
-11.74888
-15.12275
-18.63869
-21.99496
-25.03434
-27.70658
-30.15993
-32.5986
-35.22698
-38.19654
-41.53942
-45.02393
-48.14835
-50.13918
-50.06915
-47.19636
-41.26252
-32.67831
-22.51014
-12.14481
-2.837257
4.617218
9.997063
13.55352
15.75961
17.03085
17.71338
18.00883
18.12951
18.27359
18.62462
19.25513
20.11748
21.0592
21.84047
22.36547
22.66129
22.91936
23.33265
23.95399
24.67241
25.23702
25.3679
24.86642
23.7208
22.06025
20.07764
17.96851
15.88364
13.99704
12.43021
11.24246
10.35564
9.553543
8.604225
7.337662
5.763046
4.00425
2.236435
0.4870377
-1.380798
-3.62188
-6.431664
-9.840019
-13.66684
-17.59496
-21.28044
-24.4272
-26.93307
-28.94169
-30.73776
-32.73305
-35.32059
-38.68311
-42.72463
-46.95486
-50.57131
-52.6034
-52.22541
-48.93044
-42.73382
-34.14865
-24.13742
-13.81048
-4.185341
3.955536
10.23478
14.63889
17.39057
18.8624
19.48398
19.61961
19.58253
19.57012
19.65859
19.8531
20.16782
20.61145
21.17195
21.83868
22.56145
23.27343
23.88123
24.32626
24.58038
24.58593
24.28557
23.54716
22.31506
20.63103
18.72998
16.87919
15.35317
14.28932
13.52839
12.72972
11.50407
9.629692
7.12011
4.287766
1.451317
-1.128967
-3.363525
-5.362778
-7.346992
-9.460701
-11.74255
-14.12738
-16.42649
-18.47203
-20.1419
-21.39286
-22.32426
-23.11873
-24.07961
-25.5284
-27.70216
-30.63458
-34.05815
-37.3577
-39.70866
-40.295
-38.46049
-34.03732
-27.44543
-19.52421
-11.32198
-3.847443
2.269196
6.762665
9.703667
11.38235
12.16573
12.33125
12.14108
11.84055
11.60844
11.62452
11.98961
12.76022
13.8925
15.29408
16.78538
18.18206
19.31456
20.04799
20.32243
20.17186
19.65748
18.85713
17.78096
16.34651
14.49829
12.1775
9.444298
6.533958
3.700226
1.187531
-0.8594666
-2.509865
-3.966972
-5.455757
-7.177406
-9.211884
-11.50401
-13.91361
-16.25684
-18.31195
-19.98734
-21.33409
-22.56806
-24.05577
-26.2084
-29.23274
-33.08414
-37.32745
-41.21172
-43.80902
-44.23913
-41.89516
-36.63964
-28.90412
-19.5464
-9.751183
-0.6432419
6.947159
12.58498
16.31152
18.44353
19.44119
19.6582
19.34416
18.62832
17.59073
16.33253
15.01292
13.83181
12.97948
12.56268
12.58391
12.99195
13.65349
14.50387
15.45791
16.45671
17.38888
18.06863
18.2453
17.71313
16.39658
14.35205
11.75792
8.862091
5.811081
2.707268
-0.4502258
-3.713509
-7.057793
-10.39941
-13.60133
-16.50858
-18.95823
-20.86977
-22.28622
-23.37165
-24.44092
-25.87144
-28.08025
-31.37366
-35.71664
-40.69588
-45.48718
-48.98088
-50.1343
-48.23993
-43.22355
-35.69212
-26.70859
-17.37494
-8.657173
-1.177387
4.782677
9.23546
12.32449
14.27148
15.32174
15.72201
15.76932
15.71167
15.73181
15.88099
16.17943
16.57699
17.08153
17.73841
18.56619
19.59856
20.72547
21.8154
22.72412
23.23704
23.16634
22.38792
20.88573
18.70251
15.96737
12.85785
9.616329
6.515232
3.667028
1.064043
-1.442322
-4.007189
-6.809196
-9.873627
-13.10032
-16.26001
-19.09871
-21.52668
-23.61906
-25.72231
-28.2335
-31.50769
-35.61203
-40.23757
-44.69318
-48.04438
-49.40617
-48.12032
-43.98467
-37.37691
-29.04447
-19.95431
-10.98842
-2.821022
4.212502
9.991241
14.58048
18.136
20.71437
22.39962
23.2702
23.46176
23.14994
22.60173
22.05005
21.74799
21.88378
22.50491
23.53015
24.69828
25.73509
26.36798
26.48892
26.0914
25.31921
24.30193
23.0731
21.6441
19.9305
17.91249
15.69983
13.51727
11.62238
10.17578
9.106857
8.132919
6.89415
5.084396
2.587097
-0.4199066
-3.588074
-6.55687
-9.177414
-11.54649
-13.96327
-16.75603
-20.15298
-24.2189
-28.83958
-33.71817
-38.35152
-42.07297
-44.04448
-43.54091
-40.17302
-34.10931
-26.07103
-17.11595
-8.289551
-0.3295593
6.393021
11.87303
16.22263
19.56339
21.96985
23.55077
24.45236
24.91595
25.21695
25.53615
25.9726
26.52792
27.13336
27.74902
28.38437
29.04123
29.74512
30.47745
31.19365
31.77223
32.10577
32.02457
31.44031
30.29324
28.60617
26.48621
24.12097
21.72931
19.46527
17.38159
15.40564
13.44281
11.38281
9.247375
7.144073
5.199738
3.448578
1.819214
0.06329346
-2.155273
-5.087372
-8.813202
-13.16153
-17.81412
-22.37521
-26.58023
-30.27405
-33.50137
-36.48538
-39.54736
-42.95361
-46.88739
-51.22675
-55.50244
-58.93973
-60.50623
-59.26318
-54.673
-46.84891
-36.54861
-25.02811
-13.59485
-3.277191
5.358551
12.23572
17.55704
21.63858
24.74078
27.05038
28.72931
29.89883
30.70825
31.28467
31.70935
32.02057
32.23309
32.39307
32.53555
32.75006
33.08548
33.59631
34.28043
35.05536
35.7319
36.04211
35.78491
34.84421
33.27283
31.29892
29.20477
27.2569
25.58356
24.17157
22.94196
21.83612
20.83578
19.93042
19.08691
18.18967
17.12286
15.72699
13.98767
11.88318
9.454041
6.812683
4.077423
1.411438
-1.102844
-3.43866
-5.725708
-8.126831
-10.83783
-13.94977
-17.36493
-20.87704
-24.23727
-27.35165
-30.20184
-32.88562
-35.58459
-38.48929
-41.87848
-45.93915
-50.6611
-55.57092
-59.74799
-61.9332
-60.93817
-56.12219
-47.67209
-36.61603
-24.47766
-12.82031
-2.730804
5.312775
11.34329
15.76218
19.01321
21.47931
23.40134
24.92038
26.0592
26.88766
27.46454
27.86487
28.15201
28.38614
28.62875
28.92493
29.36771
30.02597
30.965
32.19336
33.56216
34.78943
35.55182
35.5882
34.77722
33.21912
31.19388
29.00278
26.89935
25.02026
23.38947
21.93854
20.58478
19.21646
17.80276
16.3407
14.82904
13.28766
11.67661
9.993011
8.152557
6.119263
3.89917
1.613434
-0.6143188
-2.637848
-4.428528
-6.120636
-7.895599
-9.975494
-12.40506
-15.06427
-17.66431
-19.99362
-21.99207
-23.8053
-25.81171
-28.39661
-31.81061
-36.03381
-40.70471
-45.13571
-48.45279
-49.69852
-48.12448
-43.45175
-35.96173
-26.51093
-16.29001
-6.537842
1.79715
8.184265
12.64655
15.52542
17.29749
18.41843
19.14133
19.57718
19.70963
19.58865
19.26117
18.89639
18.67947
18.77429
19.29446
20.28973
21.73206
23.54865
25.62827
27.63736
29.19302
29.82709
29.21851
27.30969
24.36914
20.90808
17.49133
14.60803
12.42078
10.901
9.841461
8.976974
8.150345
7.284195
6.367783
5.358078
4.243835
2.965729
1.513641
-0.08744812
-1.89444
-3.952545
-6.378555
-9.252701
-12.56026
-16.11797
-19.65091
-22.83223
-25.465
-27.61295
-29.47496
-31.4091
-33.7541
-36.74709
-40.41124
-44.58916
-48.81052
-52.32166
-54.2254
-53.59175
-49.83015
-42.91151
-33.44751
-22.60896
-11.80241
-2.209259
5.476929
11.10802
14.99966
17.66956
19.58154
21.00639
22.0118
22.53378
22.57657
22.25624
21.76436
21.34921
21.18942
21.33853
21.79744
22.49994
23.41095
24.58302
26.00932
27.60458
29.16161
30.3145
30.70671
30.0968
28.44426
25.93124
22.91588
19.76904
16.7959
14.15576
11.84323
9.734726
7.683762
5.563614
3.297699
0.9546356
-1.313614
-3.284485
-4.785507
-5.854706
-6.701599
-7.669113
-9.106873
-11.23019
-13.93385
-16.95976
-19.91341
-22.44997
-24.48825
-26.12692
-27.66634
-29.51483
-32.0751
-35.58905
-40.06592
-45.05446
-49.6994
-52.86015
-53.41805
-50.67244
-44.56436
-35.77847
-25.45705
-14.93147
-5.310944
2.692688
8.87999
13.37921
16.53152
18.7383
20.3
21.4865
22.40469
23.10971
23.60896
23.88469
23.93741
23.78568
23.47435
23.04204
22.59393
22.16835
21.90424
21.85463
22.02658
22.33288
22.6045
22.66875
22.36124
21.64401
20.56375
19.29242
17.96431
16.69513
15.4709
14.23833
12.9241
11.36378
9.516869
7.36795
4.98494
2.506813
0.09079742
-2.190094
-4.315498
-6.342361
-8.446213
-10.76299
-13.41636
-16.41489
-19.60325
-22.72874
-25.51312
-27.80322
-29.57434
-31.03235
-32.50325
-34.33468
-36.68913
-39.30979
-41.54791
-42.50563
-41.29018
-37.38617
-30.90336
-22.52124
-13.38529
-4.669609
2.796066
8.631973
12.86072
15.73484
17.52103
18.3928
18.5495
18.16042
17.45496
16.7555
16.30719
16.26197
16.63219
17.29403
18.05085
18.74784
19.28623
19.6263
19.8353
19.93654
19.97042
19.87731
19.58501
19.00955
18.14856
17.00993
15.65574
14.12983
12.40821
10.49144
8.340721
5.983162
3.490219
0.9595299
-1.471184
-3.751148
-5.917305
-8.130636
-10.52329
-13.15593
-16.00843
-18.89707
-21.66267
-24.17653
-26.45839
-28.6464
-30.97675
-33.67083
-36.86757
-40.58463
-44.60444
-48.50171
-51.54514
-52.8513
-51.57735
-47.26865
-40.09354
-30.87775
-20.85397
-11.31975
-3.268888
2.897015
7.234985
10.14879
12.13857
13.60126
14.74713
15.66899
16.39003
16.91273
17.30814
17.67777
18.13953
18.78387
19.685
20.79794
22.04742
23.3541
24.6222
25.73576
26.53403
26.84937
26.58841
25.71091
24.3311
22.57961
20.60205
18.43959
16.08511
13.46374
10.5577
7.454442
4.312761
1.364097
-1.261664
-3.511419
-5.484571
-7.308967
-9.142145
-11.11136
-13.27253
-15.60375
-18.01864
-20.44344
-22.80982
-25.16183
-27.62645
-30.45235
-33.91369
-38.11337
-42.79948
-47.24064
-50.33649
-50.91631
-48.1206
-41.8544
-32.81308
-22.33612
-11.89917
-2.705018
4.650517
10.13532
14.06487
16.83106
18.69121
19.76419
20.14096
19.97548
19.48783
18.96762
18.6194
18.53237
18.70373
19.02924
19.43552
19.89221
20.39484
20.93322
21.49341
21.98257
22.27024
22.25948
21.86738
21.05514
19.87562
18.39878
16.66741
14.72196
12.5988
10.38273
8.193508
6.138788
4.242414
2.454624
0.5581932
-1.751122
-4.702374
-8.356441
-12.5113
-16.81178
-20.90294
-24.53699
-27.59923
-30.17567
-32.43907
-34.62318
-37.02006
-39.81417
-42.96313
-46.10667
-48.47945
-49.05855
-46.93148
-41.71252
-33.69447
-23.95833
-13.90581
-4.807995
2.568825
8.035091
11.81639
14.33706
15.96336
16.97798
17.53872
17.82455
18.04448
18.38866
18.92187
19.54111
20.07095
20.29832
20.16899
19.69555
19.0676
18.50298
18.17211
18.15593
18.38855
18.66609
18.68298
18.18207
16.97902
15.07856
12.67751
10.04219
7.468441
5.134556
3.096073
1.280155
-0.4106331
-2.109219
-3.916851
-5.889561
-8.022896
-10.21746
-12.37767
-14.41222
-16.35225
-18.32032
-20.54754
-23.26561
-26.62974
-30.63824
-34.99089
-39.11613
-42.15294
-43.16827
-41.43691
-36.73078
-29.45866
-20.57203
-11.24522
-2.583389
4.681969
10.31618
14.41199
17.25363
19.0795
20.11503
20.46845
20.30182
19.79234
19.14525
18.6296
18.40726
18.58285
19.11669
19.87241
20.62992
21.16496
21.39589
21.37905
21.25751
21.12691
20.97466
20.62172
19.81496
18.38251
16.2888
13.73441
10.98898
8.330292
5.877609
3.669113
1.59182
-0.539978
-2.877884
-5.576447
-8.665741
-12.12057
-15.74426
-19.31683
-22.56079
-25.32141
-27.62531
-29.63402
-31.6546
-34.00392
-36.92012
-40.41078
-44.14614
-47.46052
-49.44339
-49.22724
-46.21671
-40.44517
-32.48592
-23.35424
-14.18449
-5.84478
1.151276
6.747467
11.13474
14.67439
17.5966
20.11244
22.28806
24.11674
25.57805
26.64011
27.33157
27.7498
28.09341
28.51376
29.15691
29.99808
30.97536
32.00012
33.01181
33.94414
34.73181
35.22884
35.23494
34.59901
33.2652
31.34244
29.13928
26.95261
24.99402
23.32478
21.84915
20.40038
18.868
17.25728
15.58986
13.92052
12.24763
10.53581
8.72406
6.777802
4.636444
2.250793
-0.4987335
-3.727753
-7.517212
-11.81209
-16.33965
-20.80209
-24.86916
-28.36292
-31.28423
-33.82013
-36.24263
-38.83279
-41.84993
-45.40857
-49.51915
-53.87851
-57.83595
-60.38777
-60.44179
-57.18727
-50.41304
-40.7222
-29.35469
-17.82671
-7.393005
1.185272
7.734161
12.52699
15.99644
18.52617
20.39658
21.79288
22.85442
23.77896
24.68306
25.60875
26.53246
27.34927
27.95253
28.3241
28.55583
28.81049
29.30943
30.14685
31.2765
32.49147
33.50244
34.04272
33.91904
33.12538
31.73424
29.99652
28.2142
26.66721
25.52954
24.77911
24.24034
23.60886
22.61021
21.07587
19.00354
16.56924
13.95442
11.29944
8.689178
6.133881
3.601608
1.047394
-1.576645
-4.371811
-7.437271
-10.77408
-14.31917
-17.92163
-21.3783
-24.55997
-27.39069
-29.93895
-32.36902
-34.96001
-37.95702
-41.5244
-45.58099
-49.72833
-53.1937
-54.94545
-54.02159
-49.88432
-42.63657
-33.10156
-22.54289
-12.18324
-3.004929
4.545547
10.47574
14.97343
18.29189
20.61942
22.1132
22.95659
23.425
23.76256
24.10153
24.49741
24.89175
25.20638
25.49429
25.84431
26.37785
27.10611
27.9315
28.55272
28.69859
28.19997
27.00471
25.29231
23.26744
21.15492
19.0731
17.09464
15.18501
13.30347
11.37065
9.35321
7.245911
5.099823
3.051071
1.141586
-0.6302643
-2.438843
-4.519165
-7.074951
-10.16504
-13.61655
-17.13966
-20.43411
-23.38808
-26.10683
-28.88252
-32.03734
-35.79015
-40.1537
-44.80113
-49.16629
-52.42502
-53.6804
-52.1705
-47.51565
-39.89871
-30.12445
-19.45472
-9.186691
-0.3703918
6.481071
11.43156
14.9165
17.4334
19.36672
20.89494
22.03315
22.78088
23.19881
23.43935
23.65272
23.88988
24.14595
24.3121
24.39901
24.50125
24.80627
25.46722
26.51612
27.79301
28.94079
29.56278
29.32243
28.12387
26.06922
23.51269
20.78177
18.17686
15.85475
13.77737
11.80943
9.788284
7.675117
5.509529
3.492439
1.782486
0.4343567
-0.6706696
-1.802559
-3.321884
-5.506538
-8.419594
-11.92572
-15.74303
-19.53887
-23.09265
-26.29816
-29.2123
-32.03396
-35.05792
-38.58814
-42.78377
-47.4838
-52.09914
-55.65136
-56.99094
-55.23616
-50.05494
-41.89821
-31.8228
-21.16537
-11.11365
-2.469177
4.358322
9.403496
12.91671
15.317
17.08111
18.65453
20.32948
22.18829
24.09319
25.7345
26.83791
27.30595
27.21624
26.83336
26.49414
26.45872
26.85005
27.63385
28.64463
29.66415
30.49894
31.01316
31.11872
30.76765
29.86753
28.38727
26.31933
23.77833
21.01114
18.27171
15.82093
13.72733
11.90226
10.0709
7.971428
5.453022
2.549114
-0.4989738
-3.362122
-5.771294
-7.6562
-9.125233
-10.48615
-12.02465
-13.9236
-16.24395
-18.8968
-21.72267
-24.59048
-27.48368
-30.42237
-33.52616
-36.8856
-40.5341
-44.44254
-48.38919
-51.97749
-54.53796
-55.28846
-53.48949
-48.70148
-41.04261
-31.19216
-20.32903
-9.693022
-0.3720188
6.995245
12.22768
15.57223
17.43542
18.28893
18.58006
18.61972
18.72141
19.00924
19.5401
20.23033
21.02811
21.81784
22.54588
23.24938
23.94999
24.7138
25.53789
26.40621
27.22513
27.85019
28.09982
27.79245
26.86733
25.34982
23.40996
21.30367
19.27358
17.45061
15.75474
14.021
12.03618
9.739378
7.176099
4.547848
2.097068
-0.03558087
-1.825954
-3.492524
-5.260532
-7.326641
-9.720579
-12.35402
-15.04644
-17.63454
-20.07644
-22.41254
-24.87186
-27.68163
-31.04147
-34.9883
-39.26516
-43.30878
-46.27778
-47.22693
-45.39419
-40.49035
-32.86939
-23.44994
-13.48584
-4.179266
3.607273
9.519958
13.62878
16.3339
18.06749
19.13071
19.72824
19.91478
19.78537
19.40998
18.92705
18.49392
18.30364
18.50541
19.12916
20.13183
21.32083
22.50743
23.50943
24.16687
24.42456
24.23304
23.5848
22.46527
20.91557
19.0088
16.89306
14.74191
12.65094
10.66054
8.666851
6.510216
4.09726
1.46257
-1.324234
-4.136559
-6.928284
-9.793907
-12.85486
-16.22763
-19.86966
-23.57454
-26.94866
-29.73654
-31.78493
-33.19928
-34.30698
-35.53334
-37.30577
-39.93027
-43.45973
-47.55809
-51.57713
-54.52974
-55.4184
-53.47918
-48.38681
-40.45146
-30.49873
-19.68745
-9.20063
0.03095245
7.480461
13.01562
16.80681
19.25191
20.77219
21.73294
22.37559
22.83746
23.22571
23.59951
23.99435
24.36217
24.67186
24.82755
24.84155
24.75639
24.6802
24.69031
24.83162
25.05554
25.24408
25.257
24.97031
24.32972
23.29648
21.89864
20.2336
18.43892
16.63883
14.8938
13.09734
11.07502
8.679276
5.938728
3.059685
0.3614578
-1.876518
-3.605713
-5.073967
-6.670189
-8.740623
-11.37006
-14.33871
-17.37723
-20.19392
-22.76308
-25.20581
-27.78833
-30.71735
-34.20525
-38.37172
-43.20243
-48.45512
-53.48028
-57.29298
-58.74834
-56.95551
-51.62314
-43.23605
-32.90405
-21.97645
-11.63126
-2.543854
5.01519
11.06274
15.71045
19.07357
21.22905
22.33032
22.67062
22.56877
22.38734
22.32955
22.44653
22.72254
23.10775
23.59736
24.23298
25.07896
26.09592
27.18381
28.13855
28.71516
28.76201
28.19818
27.04978
25.48533
23.66916
21.76324
19.80523
17.77
15.56308
13.13348
10.46468
7.624466
4.754456
1.986694
-0.5855484
-2.94648
-5.119148
-7.143265
-9.081985
-11.04587
-13.14712
-15.45622
-17.93938
-20.44395
-22.75932
-24.72807
-26.3676
-27.98851
-30.09367
-33.16811
-37.44522
-42.76398
-48.44403
-53.42867
-56.52858
-56.66432
-53.23634
-46.28604
-36.52888
-25.19901
-13.75121
-3.43132
5.030449
11.42598
16.00366
19.17947
21.27068
22.48667
22.88065
22.55125
21.7045
20.68981
19.88059
19.52589
19.77549
20.58217
21.8079
23.19346
24.5156
25.60546
26.33421
26.61601
26.37961
25.57347
24.17139
22.25538
19.93818
17.42573
14.92805
12.58694
10.43698
8.505753
6.75647
5.153534
3.688408
2.253815
0.6372452
-1.393158
-4.065712
-7.397774
-11.1563
-14.99399
-18.5491
-21.61346
-24.12345
-26.18764
-28.00514
-29.84014
-31.91842
-34.411
-37.38737
-40.6451
-43.62476
-45.43661
-45.08351
-41.81123
-35.44637
-26.48116
-16.00056
-5.373878
4.184341
11.87174
17.45592
21.13277
23.27267
24.23893
24.22643
23.381
21.85904
19.94592
17.99443
16.40753
15.47743
15.3448
15.98929
17.20004
18.69365
20.21091
21.57275
22.65627
23.46194
24.00526
24.24193
24.08079
23.34297
21.88876
19.71473
16.94429
13.78469
10.45018
7.09034
3.807991
0.6981125
-2.235924
-4.953445
-7.462624
-9.810387
-12.0238
-14.15623
-16.24901
-18.32253
-20.41683
-22.67072
-25.21473
-28.17171
-31.61678
-35.54819
-39.90784
-44.51067
-48.96827
-52.63565
-54.6843
-54.25629
-50.7592
-44.18787
-35.15234
-24.77107
-14.34615
-4.954323
2.762711
8.591255
12.70951
15.41372
16.99803
17.77614
18.02443
18.00545
17.94742
18.00581
18.22403
18.67126
19.37545
20.33924
21.58208
23.07131
24.71277
26.32864
27.75447
28.81886
29.42594
29.55974
29.22071
28.42705
27.20132
25.58831
23.61502
21.36513
18.9278
16.37865
13.75272
11.04435
8.247992
5.318031
2.266801
-0.8918943
-4.118847
-7.437513
-10.90138
-14.51835
-18.24601
-21.93308
-25.36032
-28.33792
-30.76052
-32.69332
-34.47308
-36.61693
-39.58321
-43.58382
-48.2694
-52.68957
-55.54665
-55.53525
-51.89544
-44.73273
-34.96996
-24.02123
-13.30799
-3.814772
4.04496
10.29196
15.17257
18.91101
21.67447
23.60952
24.89361
25.77735
26.5133
27.29424
28.1385
28.94429
29.60836
30.05179
30.34382
30.63568
31.04845
31.61843
32.19185
32.52646
32.3306
31.43953
29.83891
27.69275
25.24934
22.75364
20.39249
18.2097
16.17809
14.2207
12.31924
10.427
8.552761
6.636692
4.590717
2.329971
-0.2380142
-3.171986
-6.496429
-10.10757
-13.89296
-17.638
-21.13606
-24.21934
-26.79929
-28.97211
-30.92493
-32.95618
-35.31882
-38.215
-41.5632
-44.99767
-47.81416
-49.08636
-47.92498
-43.74241
-36.56512
-27.08353
-16.52827
-6.27961
2.552666
9.327019
14.03431
17.0751
19.02598
20.35453
21.31113
21.93931
22.27808
22.3997
22.44606
22.64899
23.1459
23.95229
24.91576
25.8176
26.48642
26.8968
27.13419
27.29685
27.44847
27.52116
27.35162
26.7596
25.63466
23.95952
21.83123
19.38368
16.72861
13.98885
11.24283
8.562378
6.019806
3.715233
1.668282
-0.1402283
-1.864349
-3.733528
-5.967606
-8.679344
-11.83222
-15.21719
-18.57664
-21.70978
-24.61423
-27.49126
-30.71583
-34.6142
-39.33478
-44.68343
-49.991
-54.29117
-56.45488
-55.53768
-51.10988
-43.42297
-33.32288
-22.11327
-11.15111
-1.467361
6.326691
12.15471
16.26602
19.05441
20.90509
22.17264
23.0835
23.81879
24.54323
25.33543
26.21484
27.17126
28.0946
28.94652
29.66798
30.28
30.82471
31.38614
31.94347
32.42136
32.66774
32.47266
31.72763
30.3558
28.40958
26.04233
23.42172
20.66075
17.82323
14.95767
12.11775
9.419693
6.969116
4.8125
2.88327
0.9336243
-1.39418
-4.387177
-8.137756
-12.43338
-16.82854
-20.90454
-24.38614
-27.23466
-29.67946
-32.05956
-34.72467
-37.9386
-41.86099
-46.39961
-51.20497
-55.54114
-58.33237
-58.47121
-55.18341
-48.3614
-38.68127
-27.43939
-16.06664
-5.758286
2.80191
9.478989
14.49933
18.22217
20.9695
22.98062
24.39087
25.39166
26.15051
26.84749
27.57793
28.38478
29.23907
30.08556
30.82455
31.37909
31.78946
32.10101
32.42293
32.79277
33.10506
33.17209
32.78868
31.80318
30.1604
28.03528
25.64815
23.24548
20.98331
18.87332
16.84717
14.77588
12.59799
10.31252
7.991669
5.734589
3.562271
1.415817
-0.8558655
-3.451569
-6.502426
-10.05727
-14.02299
-18.20215
-22.32442
-26.15715
-29.51216
-32.37283
-34.89751
-37.38803
-40.23241
-43.64563
-47.54744
-51.42964
-54.36182
-55.22548
-53.13074
-47.71968
-39.3571
-29.0858
-18.25342
-8.181564
0.2977142
6.925934
11.93896
15.77847
18.83249
21.32306
23.24876
24.59076
25.35062
25.66162
25.78696
25.98549
26.43501
27.13362
27.96996
28.76634
29.41216
29.84622
30.11278
30.20761
30.06549
29.54416
28.50519
26.90633
24.80167
22.36983
19.74719
17.00722
14.15331
11.15186
8.062241
5.040741
2.276947
-0.1112366
-2.146042
-4.0009
-5.914917
-8.043533
-10.45564
-13.04643
-15.65211
-18.11316
-20.3634
-22.49532
-24.70438
-27.27979
-30.43826
-34.32382
-38.84044
-43.66405
-48.14679
-51.37856
-52.37071
-50.36531
-45.07353
-36.82671
-26.58611
-15.56424
-5.0009
4.181473
11.52727
17.01367
20.84297
23.32291
24.78793
25.49049
25.70366
25.61467
25.3716
25.07118
24.78633
24.58798
24.48463
24.50189
24.59875
24.75333
24.99652
25.36316
25.96016
26.77266
27.66339
28.32542
28.43584
27.78857
26.37737
24.42188
22.18938
19.90173
17.51999
14.87955
11.8121
8.319489
4.578918
0.9222565
-2.370972
-5.212189
-7.67337
-10.05211
-12.59363
-15.35229
-18.23596
-21.03432
-23.58403
-25.82246
-27.88025
-29.98953
-32.4705
-35.63672
-39.68932
-44.66373
-50.21297
-55.55907
-59.51312
-60.79861
-58.42937
-52.08699
-42.32028
-30.34283
-17.72495
-5.857452
4.294006
12.30977
18.19305
22.14871
24.54456
25.73499
26.09462
25.92375
25.51933
25.10316
24.8154
24.80151
25.12019
25.81978
26.81776
27.98376
29.12946
30.17798
31.10985
31.93585
32.59099
32.89949
32.64949
31.61783
29.78923
27.28467
24.42017
21.49759
18.70369
16.11699
13.66077
11.24725
8.827087
6.414352
4.07077
1.859131
-0.2316437
-2.228378
-4.155518
-6.103882
-8.139877
-10.37759
-12.87
-15.62064
-18.59073
-21.71703
-24.92841
-28.19556
-31.58446
-35.24243
-39.3994
-44.19704
-49.60101
-55.14766
-59.96777
-62.87151
-62.68491
-58.68855
-50.87006
-40.06644
-27.65561
-15.21616
-4.073471
4.949768
11.65561
16.28938
19.30351
21.25577
22.56682
23.49747
24.14207
24.47163
24.4917
24.26697
23.96936
23.72652
23.62634
23.68294
23.85329
24.13747
24.52707
25.06493
25.72821
26.39522
26.84502
26.87685
26.43581
25.61668
24.62881
23.62245
22.62285
21.52769
20.21082
18.58319
16.67548
14.53954
12.25314
9.852585
7.256638
4.374878
1.135376
-2.393143
-6.091507
-9.787582
-13.36444
-16.74297
-19.87834
-22.81141
-25.64259
-28.4755
-31.4679
-34.81143
-38.58529
-42.68711
-46.60664
-49.47153
-50.19662
-47.87099
-42.15404
-33.43836
-22.81091
-11.65694
-1.258064
7.571754
14.55304
19.75464
23.43352
25.75405
26.82582
26.76093
25.78935
24.23289
22.4581
20.79383
19.46175
18.54556
18.04059
17.92253
18.16848
18.7546
19.63529
20.66203
21.66207
22.42814
22.77048
22.55583
21.72895
20.28881
18.27442
15.84989
13.18317
10.50185
7.984787
5.706581
3.575783
1.427719
-0.8902893
-3.505081
-6.412971
-9.601791
-13.02174
-16.63091
-20.39165
-24.18853
-27.88057
-31.28661
-34.33011
-37.12679
-39.95696
-43.16795
-46.89417
-50.91401
-54.48599
-56.54939
-55.995
-52.12684
-44.88938
-34.98962
-23.67677
-12.29617
-2.011841
6.448166
12.83001
17.25378
20.05086
21.67925
22.53849
22.91335
23.00546
22.89316
22.60799
22.20712
21.78316
21.43444
21.26816
21.33106
21.58991
22.03671
22.64703
23.35468
24.06956
24.56679
24.58157
23.9165
22.47292
20.3231
17.69344
14.86118
12.09964
9.578835
7.328201
5.302734
3.447205
1.676262
-0.104126
-1.979126
-4.058807
-6.395721
-9.029015
-11.94157
-15.07182
-18.24639
-21.26787
-23.96078
-26.29782
-28.54252
-31.10648
-34.4483
-38.84846
-44.17356
-49.67754
-54.23267
-56.45751
-55.27239
-50.27782
-41.85333
-31.13057
-19.60562
-8.706589
0.6047745
7.93869
13.46207
17.57851
20.67498
23.01848
24.69997
25.75689
26.27292
26.35754
26.16806
25.83336
25.48456
25.23747
25.20169
25.42524
25.94
26.73803
27.67369
28.55132
29.14436
29.26423
28.79087
27.70464
25.99001
23.73769
21.10933
18.26725
15.37678
12.58968
10.02478
7.742691
5.709778
3.8078
1.840309
-0.3649979
-2.895592
-5.722275
-8.653114
-11.44236
-13.90161
-15.96877
-17.7281
-19.33772
-20.99435
-22.86176
-25.11481
-27.96472
-31.53783
-35.79232
-40.29829
-44.25482
-46.58247
-46.33735
-42.95998
-36.53929
-27.84119
-17.98356
-8.177711
0.7025604
8.154678
14.05067
18.40135
21.33114
22.98263
23.51019
23.13953
22.13232
20.78182
19.34109
18.01122
16.96392
16.33826
16.25829
16.76453
17.78806
19.13218
20.55514
21.80735
22.63951
22.93046
22.59315
21.63518
20.13371
18.2365
16.09007
13.86639
11.7043
9.636459
7.706627
5.879791
4.079819
2.199997
0.1292572
-2.284607
-5.128593
-8.390953
-11.97301
-15.65273
-19.18878
-22.3905
-25.16162
-27.5192
-29.65264
-31.88818
-34.60702
-38.14534
-42.54309
-47.43658
-52.04981
-55.25964
-55.98215
-53.48831
-47.67929
-39.15595
-29.02833
-18.58759
-8.975471
-0.9139099
5.371017
10.06184
13.52299
16.12951
18.13764
19.63318
20.69013
21.32922
21.63708
21.76244
21.83379
22.00494
22.38028
23.03175
24.0154
25.34203
26.95451
28.68468
30.33662
31.66554
32.49599
32.71153
32.3083
31.30683
29.79813
27.90522
25.77448
23.50258
21.16531
18.78181
16.29323
13.6368
10.79377
7.790359
4.782501
1.926071
-0.6089783
-2.707039
-4.33844
-5.58503
-6.672256
-7.855797
-9.447495
-11.59248
-14.25869
-17.23698
-20.2161
-22.95995
-25.3816
-27.6454
-30.08173
-33.13236
-37.08088
-41.89735
-47.18687
-52.1259
-55.63767
-56.64278
-54.40292
-48.75932
-40.3471
-30.34705
-20.12215
-10.83331
-3.101997
3.047577
7.973976
12.12651
15.82434
19.11266
21.86851
23.99284
25.47874
26.44926
27.05994
27.36498
27.37978
27.13402
26.69404
26.2791
26.15675
26.57207
27.60316
29.01815
30.38149
31.23542
31.28029
30.45667
28.99046
27.24318
25.50509
23.9762
22.64327
21.35001
19.94276
18.36803
16.63181
14.88749
13.29971
11.89771
10.6405
9.410667
8.093552
6.695045
5.335472
4.150902
3.222351
2.472206
1.623062
0.3635406
-1.551437
-4.174294
-7.386475
-10.914
-14.49558
-17.94673
-21.23387
-24.37081
-27.43574
-30.58041
-33.9503
-37.6706
-41.68865
-45.6797
-48.99089
-50.75242
-50.10788
-46.50533
-40.0083
-31.3703
-21.78159
-12.50261
-4.497696
1.822029
6.533222
10.02076
12.68107
14.78377
16.35987
17.36262
17.82167
17.89006
17.87045
18.08808
18.73368
19.81121
21.21035
22.75561
24.32442
25.82546
27.21007
28.37409
29.16771
29.42855
28.9659
27.74116
25.80144
23.32249
20.53696
17.7237
15.19799
13.21154
11.87317
11.0841
10.61384
10.11221
9.310707
8.117577
6.576601
4.846758
3.076483
1.338289
-0.4596024
-2.475916
-4.911444
-7.810787
-11.10824
-14.60972
-18.06987
-21.28191
-24.10811
-26.53373
-28.60964
-30.44876
-32.16661
-33.91431
-35.95101
-38.5285
-41.85281
-45.79136
-49.74293
-52.7124
-53.48737
-51.15519
-45.42981
-36.8324
-26.54789
-16.03901
-6.573239
1.100664
6.759881
10.6496
13.15024
14.71566
15.73044
16.47996
17.15191
17.81831
18.49234
19.0805
19.56671
19.96001
20.37086
20.98187
21.93052
23.25382
24.8633
26.66789
28.44208
30.0384
31.26718
31.9717
32.04402
31.42097
30.18156
28.42015
26.33725
24.05877
21.72811
19.38519
17.06093
14.78161
12.56169
10.44308
8.454879
6.641126
5.018927
3.593927
2.35501
1.208796
0.11236
-1.001293
-2.156767
-3.354622
-4.661377
-6.188412
-8.108152
-10.53469
-13.51767
-16.90574
-20.44469
-23.85228
-26.88376
-29.4816
-31.75719
-34.04477
-36.68548
-39.95064
-43.78773
-47.75306
-50.94605
-52.31974
-50.97461
-46.56652
-39.4519
-30.619
-21.32701
-12.677
-5.376423
0.3995781
4.816269
8.180092
10.73023
12.66564
14.13989
15.33738
16.44972
17.61578
18.88073
20.16352
21.34349
22.31151
23.04105
23.58603
24.01411
24.38727
24.72913
25.09696
25.43546
25.70205
25.76885
25.47044
24.71683
23.43714
21.69486
19.63006
17.48496
15.47231
13.80084
12.55927
11.70038
11.04086
10.27845
9.207458
7.709641
5.830154
3.725731
1.615128
-0.3827209
-2.268028
-4.149269
-6.209175
-8.557274
-11.22749
-14.1733
-17.2581
-20.28539
-23.04523
-25.43013
-27.38976
-29.05998
-30.63405
-32.41432
-34.60846
-37.2142
-39.90883
-42.04638
-42.81467
-41.42493
-37.50338
-31.17893
-23.19184
-14.55756
-6.286179
0.8904648
6.652145
10.98302
14.0881
16.18227
17.4499
17.99312
17.92966
17.40335
16.60585
15.77892
15.16218
14.97456
15.32517
16.18094
17.34672
18.58874
19.70605
20.56678
21.16181
21.45706
21.40682
20.89951
19.82987
18.15322
15.90606
13.23869
10.30459
7.285385
4.31501
1.464111
-1.232994
-3.716728
-5.876846
-7.617432
-8.913162
-9.847
-10.62187
-11.49648
-12.70994
-14.40642
-16.59834
-19.15289
-21.92185
-24.78092
-27.67072
-30.62592
-33.76597
-37.17866
-40.9297
-44.89616
-48.66402
-51.56491
-52.72433
-51.36372
-47.06738
-40.04907
-31.04632
-21.18478
-11.64697
-3.326408
3.252205
8.052055
11.356
13.63368
15.33648
16.87928
18.46912
20.14349
21.79202
23.18628
24.17829
24.724
24.90482
24.85533
24.71995
24.62185
24.57822
24.6125
24.6394
24.57662
24.30482
23.71329
22.76231
21.49527
20.05229
18.50663
16.92512
15.22263
13.28156
11.02785
8.447479
5.691742
2.968452
0.4423904
-1.856094
-3.997482
-6.170837
-8.533531
-11.15475
-13.99467
-16.89752
-19.68801
-22.23153
-24.50253
-26.56192
-28.58974
-30.87952
-33.68722
-37.19151
-41.30501
-45.57274
-49.16761
-51.09089
-50.4291
-46.70227
-40.082
-31.30764
-21.49382
-11.79639
-3.133007
3.948093
9.294308
13.05211
15.55403
17.19495
18.35215
19.29441
20.15305
20.93587
21.57183
22.01476
22.2602
22.34786
22.40411
22.53872
22.85769
23.39382
24.17119
25.12757
26.13276
27.01287
27.51883
27.5034
26.86646
25.6483
23.92572
21.85919
19.56592
17.14743
14.67142
12.19265
9.790657
7.519472
5.32917
3.096449
0.624836
-2.227375
-5.451143
-8.843418
-12.08021
-14.83069
-16.9033
-18.33676
-19.33801
-20.31171
-21.62214
-23.60443
-26.45241
-30.21334
-34.60881
-38.99181
-42.43404
-43.87601
-42.52872
-38.08426
-30.92539
-21.96405
-12.42883
-3.438469
4.283996
10.42924
15.05604
18.36137
20.5652
21.83822
22.25683
21.97349
21.14937
20.11982
19.20886
18.70189
18.74204
19.28083
20.15351
21.10799
22.00447
22.71474
23.22701
23.51675
23.56729
23.30931
22.62573
21.43416
19.68902
17.48535
14.98678
12.42328
10.04312
8.014754
6.35676
4.913063
3.417093
1.589256
-0.7571163
-3.672269
-7.080832
-10.73758
-14.40175
-17.85293
-20.99858
-23.85274
-26.54215
-29.22411
-32.12973
-35.51204
-39.46207
-43.83836
-48.10558
-51.35448
-52.51456
-50.72739
-45.63927
-37.6826
-27.93576
-17.77503
-8.452635
-0.7228889
5.271065
9.807182
13.32479
16.20083
18.61457
20.57327
22.04448
23.06133
23.70649
24.15728
24.53513
24.88412
25.24314
25.64776
26.16518
26.895
27.84286
28.91657
29.95211
30.74232
31.05972
30.83349
30.02766
28.70676
26.97418
24.8894
22.46102
19.71175
16.71534
13.55851
10.46629
7.606697
5.121895
3.037945
1.198952
-0.6674995
-2.808952
-5.37738
-8.380661
-11.68969
-15.18695
-18.69409
-22.07771
-25.25233
-28.20692
-31.05338
-34.06257
-37.60178
-41.94074
-47.07001
-52.45508
-57.09298
-59.73728
-59.2903
-55.24171
-47.86211
-38.15049
-27.3778
-16.75232
-7.086967
1.253906
8.20253
13.86618
18.34859
21.75462
24.21228
25.97298
27.33356
28.55799
29.73215
30.7999
31.63473
32.07191
32.10096
31.81036
31.39352
31.07072
31.00595
31.23762
31.67533
32.14606
32.37658
32.15303
31.31464
29.87211
27.98507
25.91733
23.96806
22.23347
20.65316
18.95778
16.89716
14.34656
11.42444
8.4114
5.620743
3.225784
1.139671
-0.8653717
-3.069511
-5.627441
-8.543724
-11.67877
-14.84638
-17.93156
-20.8645
-23.66189
-26.32166
-28.89108
-31.47813
-34.28872
-37.62708
-41.6348
-46.13853
-50.43134
-53.4409
-53.99889
-51.33165
-45.38598
-36.85975
-27.01693
-17.19131
-8.358597
-0.9754791
4.966866
9.720116
13.51263
16.48267
18.68971
20.15471
21.04865
21.6036
22.1213
22.80077
23.70152
24.77589
25.88806
26.95242
27.91747
28.82771
29.6902
30.4429
30.93925
30.93786
30.25568
28.86108
26.89891
24.60396
22.26458
20.02846
17.94163
15.96189
14.0382
12.07666
10.06206
7.982086
5.826683
3.570358
1.191879
-1.363373
-4.095345
-7.012627
-10.04758
-13.09309
-16.03957
-18.75542
-21.24377
-23.58112
-25.96986
-28.65323
-31.93965
-35.97953
-40.70584
-45.74849
-50.28471
-53.26902
-53.63065
-50.64634
-44.24773
-35.10938
-24.47414
-13.71478
-4.063858
3.842903
9.818863
14.10805
17.10079
19.19672
20.76845
22.0069
23.0605
23.90243
24.54581
24.9475
25.18629
25.42066
25.82849
26.59828
27.71673
29.11873
30.5982
31.98638
33.09277
33.74065
33.80272
33.12814
31.71974
29.66368
27.20429
24.63336
22.21715
20.0912
18.2157
16.47168
14.61903
12.51195
10.02549
7.163704
4.048836
0.87117
-2.091278
-4.654694
-6.808563
-8.78083
-10.88284
-13.44592
-16.59214
-20.19594
-23.92581
-27.42513
-30.49284
-33.14012
-35.61825
-38.29095
-41.53503
-45.59477
-50.41199
-55.53675
-60.09304
-62.95173
-62.98046
-59.45589
-52.31179
-42.23143
-30.41298
-18.24399
-6.978352
2.568142
10.0469
15.53234
19.39347
22.12144
24.16079
25.91534
27.57951
29.22437
30.77412
32.10547
33.14198
33.86959
34.3551
34.62178
34.67608
34.50657
34.16107
33.72032
33.28424
32.89449
32.474
31.85769
30.81293
29.19159
27.03201
24.5205
21.99706
19.75661
18.00472
16.7959
16.03897
15.5087
14.89858
13.85185
12.07872
9.523945
6.381348
3.020554
-0.1723595
-3.011276
-5.535805
-8.043087
-10.86047
-14.13363
-17.75202
-21.36646
-24.59741
-27.24344
-29.35692
-31.17681
-33.14095
-35.60778
-38.85783
-42.97049
-47.75491
-52.72062
-57.00316
-59.53582
-59.24405
-55.47023
-48.17272
-38.06568
-26.40933
-14.63259
-3.990946
4.757723
11.36873
16.04243
19.19342
21.26788
22.63107
23.45145
23.89058
24.05757
24.08174
24.1461
24.40511
24.88626
25.53397
26.20845
26.77617
27.2816
27.85422
28.64222
29.69996
30.86559
31.81397
32.19551
31.81057
30.60586
28.80093
26.69929
24.56488
22.55601
20.62612
18.60148
16.28884
13.57067
10.42923
6.96873
3.428741
0.04891205
-2.900506
-5.299001
-7.178377
-8.708273
-10.16006
-11.83435
-13.94521
-16.50533
-19.3734
-22.27837
-24.97101
-27.3632
-29.52039
-31.66138
-34.04936
-36.86852
-40.08273
-43.44702
-46.39648
-48.19678
-48.05855
-45.32988
-39.79305
-31.76888
-22.11977
-11.99068
-2.570911
5.301624
11.24298
15.32133
17.86635
19.23782
19.68756
19.36457
18.43306
17.13912
15.84164
14.96068
14.75378
15.28062
16.3728
17.71698
19.04943
20.23113
21.20003
21.92409
22.34618
22.32978
21.76212
20.62835
19.05101
17.14733
15.05312
12.81227
10.44112
7.991943
5.572655
3.311501
1.268654
-0.6303406
-2.64431
-4.998581
-7.836044
-11.09293
-14.5153
-17.76833
-20.61877
-22.95424
-24.8661
-26.65744
-28.68415
-31.3149
-34.71651
-38.78264
-43.05591
-46.8065
-49.09772
-49.04702
-46.08474
-40.13567
-31.70203
-21.72069
-11.39375
-1.859505
6.066971
12.0698
16.27663
19.10568
20.97139
22.14519
22.76566
22.85884
22.42985
21.60153
20.60542
19.70007
19.10222
18.89698
19.04788
19.46041
20.07629
20.79994
21.58835
22.35172
22.97521
23.24771
22.98273
21.99272
20.18871
17.61811
14.48199
11.0999
7.810555
4.947632
2.605675
0.6830139
-1.11924
-3.169685
-5.754295
-8.929108
-12.54279
-16.32843
-20.0115
-23.42211
-26.51974
-29.35436
-32.07704
-34.8684
-37.9212
-41.37941
-45.16626
-48.87289
-51.69479
-52.59427
-50.6567
-45.52765
-37.51812
-27.63245
-17.18113
-7.391533
0.9326401
7.486107
12.36907
15.87188
18.25374
19.79851
20.77309
21.44162
22.03629
22.67936
23.33029
23.89522
24.31514
24.59734
24.86818
25.23425
25.72359
26.306
26.86501
27.26167
27.36764
27.08537
26.29504
24.93764
22.99493
20.60529
18.00088
15.41177
12.98771
10.69093
8.424805
6.090492
3.727341
1.477287
-0.5283432
-2.255775
-3.875916
-5.606514
-7.672882
-10.15804
-13.0196
-16.06933
-19.09689
-21.98331
-24.69372
-27.31066
-29.96436
-32.86205
-36.21603
-40.14119
-44.49988
-48.75774
-52.05889
-53.41177
-51.931
-47.21637
-39.56326
-29.85211
-19.30173
-9.158295
-0.3205872
6.744011
11.9806
15.68266
18.26536
20.13761
21.58955
22.7854
23.71474
24.3422
24.67018
24.78724
24.83531
24.90907
25.02318
25.14368
25.23376
25.32777
25.5587
26.01895
26.72061
27.48709
27.97655
27.88096
27.0551
25.5132
23.47926
21.26048
19.06431
17.01163
15.04837
13.02492
10.7877
8.318085
5.690544
3.148277
0.9299774
-0.8775253
-2.338776
-3.730179
-5.345741
-7.403885
-9.936111
-12.80894
-15.78283
-18.64288
-21.3261
-23.90005
-26.54241
-29.49039
-32.89975
-36.81249
-41.00893
-44.95781
-47.80798
-48.64027
-46.71173
-41.72298
-33.98371
-24.33569
-13.92728
-3.922333
4.747932
11.59618
16.47482
19.55136
21.11813
21.54185
21.15455
20.26653
19.17001
18.07459
17.21606
16.74504
16.74009
17.22745
18.1386
19.41634
20.95765
22.6081
24.15637
25.33871
25.93601
25.78697
24.89047
23.32841
21.32921
19.09675
16.78672
14.46944
12.17879
9.882156
7.557068
5.227028
2.89566
0.6087341
-1.612846
-3.834351
-6.154228
-8.659515
-11.40462
-14.30881
-17.22208
-20.01758
-22.66578
-25.24091
-27.90495
-30.77931
-33.89636
-37.243
-40.75897
-44.36017
-47.80373
-50.59659
-51.89208
-50.79327
-46.57582
-39.15752
-29.23418
-18.06609
-7.116974
2.413696
9.881516
15.27708
18.94878
21.4421
23.15387
24.31534
25.04099
25.34651
25.2876
24.98429
24.64498
24.42933
24.45618
24.72771
25.16154
25.70949
26.29872
26.91469
27.49216
27.90179
27.90573
27.30779
25.98799
23.97186
21.48719
18.76762
16.07883
13.55623
11.19454
8.882065
6.536942
4.127205
1.7174
-0.5284576
-2.508293
-4.176895
-5.686295
-7.29113
-9.278282
-11.77062
-14.70913
-17.86531
-20.92979
-23.70422
-26.08008
-28.14274
-30.10812
-32.29438
-35.01174
-38.45824
-42.49984
-46.58443
-49.87151
-51.24811
-49.79585
-45.09311
-37.37848
-27.55126
-16.92548
-6.80098
1.828247
8.397392
12.90761
15.66521
17.17815
17.96954
18.45956
18.94867
19.63061
20.55035
21.66071
22.84233
23.89905
24.66647
25.15126
25.46525
25.82011
26.37338
27.17862
28.09014
28.87271
29.24715
29.00439
28.11629
26.60234
24.54552
22.08688
19.42556
16.75477
14.24863
11.95726
9.819214
7.718201
5.587677
3.430367
1.392151
-0.4583664
-2.187393
-4.043571
-6.304161
-9.096581
-12.28332
-15.49394
-18.32323
-20.45293
-21.9418
-23.11178
-24.45618
-26.42133
-29.29276
-33.08471
-37.48972
-41.88641
-45.31505
-46.72181
-45.16714
-40.17693
-31.99448
-21.5888
-10.41759
-0.007446289
8.464226
14.49474
18.16955
20.01884
20.70201
20.67661
20.21664
19.41768
18.35938
17.19247
16.13051
15.41673
15.21241
15.57533
16.4224
17.58776
18.83664
19.99826
20.94394
21.61086
22.00333
22.10007
21.8327
21.02457
19.51552
17.19229
14.15686
10.76206
7.449425
4.656738
2.587738
1.135735
-0.05535889
-1.422791
-3.318039
-5.941277
-9.191841
-12.8336
-16.4865
-19.78165
-22.48665
-24.59637
-26.32747
-27.99297
-29.9987
-32.62016
-35.93915
-39.73076
-43.47189
-46.35784
-47.52826
-46.21223
-42.01428
-35.08549
-26.15195
-16.3427
-6.812462
1.548882
8.299156
13.47434
17.3479
20.21306
22.27332
23.5982
24.20416
24.18867
23.77863
23.23385
22.81683
22.64952
22.71056
22.86938
23.01371
23.05598
22.96552
22.80444
22.58929
22.30271
21.89389
21.28744
20.46287
19.50574
18.52342
17.58106
16.66135
15.63971
14.36318
12.74495
10.78164
8.564072
6.190247
3.727623
1.140671
-1.609848
-4.614914
-7.896202
-11.4222
-15.11831
-18.85675
-22.46871
-25.79311
-28.70794
-31.16277
-33.29114
-35.34261
-37.67883
-40.57585
-44.04898
-47.68973
-50.75449
-52.18879
-51.01021
-46.57538
-38.91416
-28.73181
-17.29228
-6.025612
3.894005
11.71088
17.30736
21.0209
23.40927
24.96857
26.02426
26.65773
26.84768
26.5717
25.85262
24.85242
23.79391
22.83014
22.07201
21.54688
21.27927
21.34512
21.80086
22.62058
23.67502
24.66258
25.17034
24.96033
23.96286
22.36678
20.49422
18.64695
16.90305
15.2124
13.38896
11.28241
8.924049
6.506447
4.286865
2.486778
1.181778
0.2480621
-0.6810455
-2.022255
-4.145409
-7.171852
-10.8744
-14.77631
-18.3287
-21.14676
-23.17742
-24.69295
-26.16444
-28.04851
-30.67328
-34.15903
-38.34939
-42.79811
-46.71375
-49.09108
-48.87794
-45.36105
-38.44453
-28.81824
-17.72962
-6.677216
3.06385
10.75851
16.17753
19.5521
21.32166
21.97072
21.88792
21.4479
20.86407
20.26904
19.71969
19.21774
18.76074
18.41164
18.24725
18.34556
18.7767
19.48484
20.32935
21.15881
21.78579
22.07636
21.9546
21.3266
20.2071
18.64428
16.71542
14.5424
12.30334
10.06283
7.949135
6.01902
4.225311
2.57914
1.016716
-0.5301743
-2.112267
-3.755852
-5.549637
-7.503296
-9.620331
-11.88309
-14.22298
-16.59597
-19.09437
-21.81613
-24.92937
-28.65527
-33.00648
-37.75465
-42.31702
-45.79613
-47.19489
-45.69492
-40.93955
-33.24139
-23.59102
-13.32729
-3.774895
4.141945
10.06794
14.11916
16.70338
18.28307
19.18266
19.57886
19.58671
19.29854
18.86028
18.44238
18.16187
18.07937
18.24935
18.64577
19.25253
20.0835
21.0566
22.03475
22.86836
23.39289
23.47732
23.06822
22.13535
20.66209
18.6519
16.11157
13.09096
9.818359
6.602043
3.657845
1.11705
-1.089325
-3.166565
-5.320564
-7.716026
-10.39958
-13.25813
-16.08234
-18.67771
-20.86555
-22.58797
-23.93983
-25.10633
-26.42201
-28.27029
-30.9882
-34.73671
-39.37244
-44.27583
-48.4489
-50.66171
-49.80273
-45.24921
-37.23447
-26.7607
-15.32349
-4.43132
4.842842
11.97246
16.97822
20.21248
22.11994
23.06588
23.36175
23.2259
22.83624
22.34743
21.82018
21.317
20.8642
20.56657
20.46379
20.60453
20.99432
21.59967
22.43301
23.4423
24.52021
25.44012
26.01205
26.04241
25.46975
24.40582
22.93215
21.21102
19.29066
17.12206
14.63708
11.82037
8.774345
5.673729
2.782936
0.2176361
-1.973068
-3.90448
-5.828964
-8.03215
-10.69518
-13.7998
-17.17887
-20.43106
-23.29382
-25.62697
-27.52133
-29.31015
-31.42926
-34.24633
-37.90377
-42.21236
-46.57462
-50.13194
-51.87191
-50.85817
-46.62936
-39.32382
-29.74828
-19.10422
-8.677498
0.5430298
8.012489
13.61652
17.56839
20.14215
21.66258
22.41158
22.65491
22.61798
22.47857
22.30224
22.11383
21.98339
21.97601
22.24301
22.92286
24.05914
25.56852
27.30901
29.0703
30.67722
31.96198
32.73422
32.78967
32.01538
30.34813
27.92419
25.07883
22.24011
19.76042
17.82866
16.35745
15.02344
13.53977
11.62545
9.232109
6.51313
3.734505
1.098434
-1.281288
-3.513184
-5.819069
-8.338753
-11.18594
-14.24347
-17.3465
-20.30795
-23.05364
-25.55756
-27.9421
-30.39013
-33.07707
-36.14396
-39.49768
-42.84634
-45.56087
-46.82138
-45.76942
-41.84229
-35.06593
-26.06937
-15.99409
-6.077194
2.660118
9.629288
14.74193
18.22957
20.48565
21.84167
22.53294
22.68586
22.40764
21.82542
21.10934
20.48611
20.09222
20.00507
20.12426
20.3541
20.58346
20.83534
21.19803
21.76656
22.5455
23.30156
23.74382
23.50611
22.39948
20.44781
17.88417
15.04301
12.2421
9.719757
7.455261
5.450317
3.563293
1.72287
-0.04893494
-1.681641
-3.089264
-4.292633
-5.446457
-6.816391
-8.605301
-10.90265
-13.60036
-16.4178
-19.08456
-21.41776
-23.42665
-25.30077
-27.31776
-29.76785
-32.85994
-36.76405
-41.37587
-46.30145
-50.75011
-53.58244
-53.63177
-50.05508
-42.75629
-32.48541
-20.7097
-9.059799
1.045441
8.859131
14.32649
17.80798
19.83844
20.87645
21.21365
21.03809
20.57469
20.03783
19.63112
19.5181
19.66763
19.9782
20.37021
20.78883
21.26523
21.84775
22.54582
23.29611
23.98866
24.46265
24.58646
24.29291
23.56992
22.47403
21.08943
19.49872
17.77298
15.9034
13.80663
11.4727
8.915863
6.218262
3.541428
1.012512
-1.316254
-3.481812
-5.626968
-7.959839
-10.62082
-13.63577
-16.89459
-20.12431
-23.02245
-25.34753
-27.06685
-28.37463
-29.68094
-31.45631
-34.10384
-37.76736
-42.25352
-46.99606
-51.05045
-53.33199
-52.83757
-48.94249
-41.69749
-31.87717
-20.73111
-9.656647
0.1292877
7.92395
13.53941
17.14424
19.20865
20.19553
20.54909
20.65176
20.76457
20.97078
21.25038
21.50961
21.64513
21.67426
21.6519
21.69148
21.91939
22.43314
23.23589
24.25917
25.31354
26.13036
26.40427
25.92558
24.61002
22.59404
20.14542
17.54288
15.00284
12.60046
10.24409
7.828979
5.306717
2.707214
0.2048798
-2.037613
-3.898468
-5.398987
-6.706284
-8.087341
-9.777069
-11.87308
-14.31781
-16.88457
-19.3385
-21.55775
-23.54808
-25.50752
-27.7356
-30.50034
-33.91557
-37.8434
-41.77525
-44.89064
-46.23393
-44.92786
-40.54288
-33.23355
-23.82181
-13.51541
-3.584167
5.010956
11.7724
16.57663
19.61406
21.1669
21.59079
21.14453
20.11157
18.71471
17.17111
15.73199
14.59734
13.96091
13.931
14.55559
15.69176
17.10626
18.50999
19.67116
20.49826
20.98537
21.14738
20.92242
20.17441
18.65779
16.28033
13.13567
9.551147
6.056091
3.09996
0.8991852
-0.7184906
-2.185318
-4.016647
-6.492401
-9.583893
-12.98972
-16.32053
-19.33186
-21.97694
-24.39903
-26.81172
-29.40204
-32.24051
-35.41
-38.95581
-42.83139
-46.79034
-50.26851
-52.37427
-52.17169
-48.9326
-42.47237
-33.35783
-22.69249
-11.81354
-1.920822
6.224457
12.35622
16.65248
19.47766
21.24821
22.25749
22.70586
22.7159
22.37932
21.79465
21.08865
20.45452
20.05621
20.12318
20.78432
22.05741
23.80959
25.79916
27.70887
29.20715
30.0573
30.09656
29.30216
27.64097
25.13933
21.84272
17.86201
13.46697
8.959328
4.700119
0.9333572
-2.235107
-4.921585
-7.277588
-9.513565
-11.72914
-13.91868
-16.07442
-18.15037
-20.14321
-22.07885
-24.01169
-25.94329
-27.98457
-30.29182
-33.08448
-36.64977
-41.15903
-46.52645
-52.22919
-57.23914
-60.22517
-59.99358
-55.84003
-47.84898
-36.94254
-24.57371
-12.26153
-1.257416
7.744041
14.60437
19.49601
22.82986
25.0343
26.44418
27.3836
28.02237
28.44449
28.6637
28.67214
28.44747
28.0232
27.49776
26.96281
26.62358
26.68385
27.28369
28.46982
30.05848
31.65221
32.78037
33.01905
32.18895
30.40807
27.98568
25.26217
22.51098
19.79297
17.07599
14.33202
11.53005
8.73189
6.044025
3.527925
1.236707
-0.861515
-2.902211
-5.029947
-7.405546
-10.16463
-13.33928
-16.87659
-20.61352
-24.38729
-28.08488
-31.75014
-35.57036
-39.84655
-44.81287
-50.38146
-56.04575
-60.76942
-63.31461
-62.56039
-57.90368
-49.53728
-38.44084
-26.03238
-13.7791
-2.868011
6.019072
12.71911
17.4997
20.84475
23.25303
25.07326
26.46865
27.49315
28.07437
28.18679
27.89927
27.38944
26.85173
26.47411
26.37732
26.63123
27.25929
28.19495
29.29933
30.36217
31.15083
31.50158
31.296
30.52726
29.31177
27.79783
26.12164
24.38471
22.58964
20.63626
18.41948
15.93872
13.27209
10.63851
8.252708
6.182003
4.329906
2.414406
0.09367371
-2.829948
-6.324219
-10.17862
-14.16718
-18.1243
-22.02969
-25.96114
-30.03691
-34.34349
-38.90853
-43.60571
-48.07938
-51.71281
-53.5926
-52.73383
-48.39447
-40.54448
-29.91905
-17.85793
-5.897362
4.729904
13.31091
19.78039
24.34572
27.37359
29.10347
29.64954
29.13207
27.75163
25.81619
23.67869
21.72027
20.2067
19.30461
19.13785
19.7332
21.01861
22.81121
24.82152
26.63742
27.9106
28.39238
27.97337
26.75081
24.91779
22.62637
20.00185
17.20329
14.34573
11.56487
8.948235
6.512596
4.263588
2.102646
-0.1233826
-2.571487
-5.323257
-8.385468
-11.62212
-14.86428
-17.94903
-20.75069
-23.31944
-25.8254
-28.50301
-31.53417
-35.10516
-39.28244
-44.09002
-49.43506
-54.88958
-59.68122
-62.67721
-62.72324
-59.00671
-51.4704
-40.8567
-28.53803
-16.13066
-4.868828
4.530891
11.96988
17.70229
22.08753
25.39467
27.77784
29.34956
30.22093
30.66779
30.89207
31.09042
31.34695
31.64571
31.91355
32.07796
32.15005
32.15368
32.17728
32.17545
32.02849
31.5937
30.70355
29.27858
27.28809
24.84261
22.07938
19.21916
16.43933
13.82967
11.46173
9.283905
7.267868
5.364716
3.496536
1.534866
-0.6265869
-3.117599
-6.053909
-9.412048
-13.12428
-16.93268
-20.55521
-23.79477
-26.64958
-29.27098
-32.00461
-35.2254
-39.2296
-44.12842
-49.6767
-55.19089
-59.70784
-62.02852
-61.10071
-56.35242
-47.92149
-36.69644
-24.13467
-11.81657
-0.9784393
7.657761
14.05986
18.6082
21.87883
24.39906
26.48872
28.20428
29.51457
30.38127
30.78911
30.83133
30.61531
30.23209
29.76376
29.30406
28.9386
28.83022
29.11897
29.75464
30.58327
31.32912
31.6427
31.36
30.49226
29.19456
27.68465
26.10268
24.40938
22.4774
20.19414
17.46191
14.37839
11.12561
7.890808
4.7892
1.852356
-1.019012
-3.950912
-7.071762
-10.45822
-14.00563
-17.55554
-20.93663
-24.04147
-26.86157
-29.54837
-32.30251
-35.37996
-39.03104
-43.2883
-47.89258
-52.21004
-55.21278
-55.75394
-52.99005
-46.67325
-37.38606
-26.36774
-15.07396
-4.770813
3.774017
10.38718
15.30312
18.86252
21.3763
23.02586
23.89812
24.14227
23.93413
23.55733
23.3176
23.42151
23.94577
24.79698
25.78462
26.67662
27.31934
27.65294
27.7225
27.59073
27.29323
26.78075
25.96707
24.81558
23.28925
21.38631
19.12271
16.53354
13.6376
10.56039
7.487778
4.582916
1.924866
-0.5677032
-3.149719
-6.095978
-9.552399
-13.43933
-17.49667
-21.35789
-24.86043
-27.96735
-30.81616
-33.65634
-36.67659
-40.06909
-44.02339
-48.66148
-53.89334
-59.2339
-63.6703
-65.82617
-64.44067
-58.83609
-49.26845
-36.92299
-23.45499
-10.52728
0.679245
9.68338
16.50624
21.44432
24.90578
27.20892
28.56639
29.2049
29.35114
29.22836
29.03745
28.92465
28.9184
29.04222
29.26089
29.57275
30.02325
30.65004
31.46367
32.34657
33.12924
33.5184
33.29823
32.37851
30.85129
28.97603
27.00146
25.05891
23.0815
20.86534
18.1512
14.85657
11.12532
7.311554
3.762543
0.66716
-2.011475
-4.565948
-7.287338
-10.43123
-13.98106
-17.72594
-21.3723
-24.62717
-27.38306
-29.69031
-31.82973
-34.21054
-37.27765
-41.34895
-46.4353
-52.24559
-57.90495
-62.27898
-64.06134
-62.21902
-56.36082
-46.84418
-34.76038
-21.61992
-8.982498
2.011765
10.7523
17.19917
21.64635
24.56631
26.39714
27.47153
28.0621
28.35353
28.54253
28.7466
29.08925
29.62755
30.33543
31.15269
31.96165
32.78172
33.65787
34.66528
35.81755
37.05603
38.20543
38.95824
39.03111
38.19048
36.4321
33.96468
31.16425
28.39296
25.93651
23.83896
21.94092
19.97485
17.71542
15.10768
12.24707
9.367508
6.680206
4.329346
2.284805
0.3870392
-1.611267
-3.987839
-6.913834
-10.42474
-14.32854
-18.33719
-22.16373
-25.66589
-28.86449
-31.88658
-34.9814
-38.32013
-42.08955
-46.30327
-50.73068
-54.76132
-57.47569
-57.78491
-54.78548
-48.2437
-38.64989
-27.22917
-15.45662
-4.701065
4.22377
11.05797
16.00993
19.45499
21.72525
23.09128
23.66739
23.65134
23.22661
22.65091
22.1814
21.99753
22.22945
22.84779
23.82607
25.01187
26.28593
27.57237
28.77678
29.79167
30.51508
30.81329
30.53307
29.62492
28.07372
25.99123
23.58931
21.07118
18.56595
16.12274
13.66148
11.0314
8.147614
5.035995
1.908157
-0.9638672
-3.401184
-5.379135
-7.173157
-9.130173
-11.57991
-14.56728
-17.8425
-21.04504
-23.82478
-26.12358
-28.12187
-30.2632
-33.00612
-36.68063
-41.36995
-46.8548
-52.58916
-57.64502
-60.84508
-61.01241
-57.3663
-49.82112
-39.09279
-26.57085
-13.85216
-2.37326
7.033569
14.12042
19.09415
22.40538
24.50002
25.73634
26.38742
26.68137
26.75842
26.76019
26.80394
26.96581
27.31998
27.88637
28.60957
29.36159
30.08002
30.68007
31.16461
31.5192
31.66675
31.47118
30.6927
29.18031
26.92188
24.20042
21.42296
19.02414
17.2502
16.01105
15.04803
13.8923
12.1743
9.748917
6.757233
3.548996
0.54776
-1.989868
-4.109467
-6.047363
-8.16098
-10.77731
-13.97771
-17.61278
-21.43073
-25.12878
-28.48488
-31.46957
-34.16669
-36.84601
-39.86079
-43.60121
-48.2968
-53.81631
-59.50037
-64.17915
-66.42525
-64.97612
-59.24255
-49.59705
-37.25966
-24.01048
-11.56813
-1.092484
6.989883
12.86469
17.11221
20.26413
22.66594
24.46104
25.64978
26.29004
26.58067
26.76704
27.02631
27.43192
27.8903
28.24805
28.42725
28.4747
28.60094
29.00362
29.7627
30.69598
31.43105
31.54773
30.80336
29.18503
26.95535
24.53963
22.29369
20.40056
18.80884
17.3578
15.80153
13.96015
11.7583
9.23497
6.549072
3.87381
1.355865
-0.9667587
-3.201294
-5.55706
-8.289955
-11.57698
-15.41009
-19.60233
-23.80109
-27.63933
-30.83649
-33.31671
-35.18542
-36.74706
-38.43102
-40.71299
-43.88481
-47.90448
-52.1494
-55.50037
-56.60277
-54.31522
-48.1597
-38.56693
-26.81367
-14.58414
-3.433662
5.665176
12.39501
16.98888
19.91315
21.66685
22.59968
22.94184
22.86648
22.59724
22.38396
22.41313
22.80339
23.44107
24.16983
24.79267
25.19469
25.41554
25.62898
25.92596
26.31461
26.61357
26.55144
25.96199
24.83833
23.35134
21.71024
20.05558
18.31941
16.38231
14.1206
11.53467
8.781212
6.079826
3.576492
1.29039
-0.8985977
-3.187759
-5.67543
-8.378654
-11.18695
-13.92764
-16.42264
-18.61075
-20.51922
-22.30854
-24.25081
-26.64764
-29.77853
-33.77545
-38.40958
-43.10929
-46.97247
-48.92999
-48.0219
-43.78446
-36.38155
-26.64622
-15.84122
-5.238609
4.112732
11.63882
17.17003
20.86388
22.94285
23.64014
23.19012
21.89835
20.17168
18.41465
17.01328
16.17374
15.93244
16.16296
16.64664
17.19177
17.62899
17.93068
18.10537
18.27966
18.51283
18.7364
18.75479
18.28878
17.12127
15.16851
12.57505
9.627502
6.722359
4.065929
1.652603
-0.7095985
-3.313145
-6.347191
-9.872856
-13.75295
-17.75247
-21.57032
-25.01796
-28.00599
-30.54746
-32.79831
-35.01392
-37.54137
-40.71525
-44.68732
-49.21199
-53.56755
-56.61896
-57.12942
-54.20472
-47.66874
-38.16455
-26.96813
-15.51918
-5.049717
3.687279
10.48666
15.46706
18.90088
21.06149
22.22385
22.66803
22.71664
22.66334
22.69052
22.89398
23.22693
23.56319
23.80785
23.86216
23.72684
23.48258
23.25517
23.20943
23.43071
23.79282
24.06522
23.92878
23.04361
21.25646
18.61869
15.40878
11.99641
8.711143
5.639893
2.668861
-0.4526978
-4.053345
-8.240845
-12.85058
-17.44619
-21.50963
-24.60432
-26.62381
-27.81654
-28.72181
-30.02142
-32.29087
-35.83702
-40.56007
-45.82534
-50.57944
-53.54156
-53.52519
-49.89596
-42.78813
-33.04499
-22.03027
-11.12771
-1.365578
6.709305
13.00385
17.73546
21.16328
23.48854
24.89086
25.52891
25.61145
25.38687
25.07043
24.83952
24.78351
24.90992
25.14647
25.37637
25.51579
25.55916
25.52618
25.52776
25.66827
25.94517
26.21284
26.17104
25.44854
23.80599
21.25078
18.07359
14.80517
11.94421
9.749634
8.162537
6.81266
5.226044
3.015999
0.04654694
-3.487442
-7.257408
-10.91302
-14.26482
-17.27758
-20.08755
-22.89864
-25.97624
-29.56791
-33.78876
-38.55293
-43.43619
-47.63727
-50.05202
-49.66924
-45.85968
-38.72647
-29.11514
-18.35623
-7.780746
1.591431
9.269882
15.24179
19.65956
22.75618
24.65112
25.43941
25.26816
24.40811
23.21994
22.11571
21.37904
21.16815
21.43973
22.03999
22.78352
23.55289
24.32317
25.09801
25.9214
26.69574
27.29071
27.49385
27.05742
25.81927
23.68942
20.74957
17.22144
13.44223
9.735703
6.324829
3.277161
0.4307251
-2.440582
-5.547012
-8.944443
-12.51527
-16.02055
-19.22949
-21.98077
-24.24649
-26.14857
-27.86678
-29.63344
-31.63998
-34.12178
-37.17909
-40.72717
-44.30019
-47.04861
-47.91026
-45.91104
-40.56805
-32.11769
-21.5526
-10.3082
0.1786041
8.899704
15.47672
20.09583
23.2355
25.40831
26.93456
27.94505
28.43088
28.36365
27.79948
26.91615
25.89827
24.95201
24.24431
23.83162
23.76532
24.0257
24.53093
25.14804
25.76721
26.2149
26.34624
25.99615
25.02625
23.45914
21.43286
19.2036
17.01698
15.03543
13.23482
11.4915
9.629974
7.548218
5.337204
3.146118
1.108154
-0.7615967
-2.595871
-4.623444
-6.971512
-9.697601
-12.74544
-15.93781
-19.13696
-22.25153
-25.27328
-28.31265
-31.5696
-35.22308
-39.44302
-44.27313
-49.44926
-54.3503
-57.98398
-59.17137
-57.0289
-51.21964
-42.17659
-31.04993
-19.38489
-8.596542
0.3967896
7.342529
12.51524
16.42365
19.54622
22.1635
24.36571
26.09534
27.32779
28.07813
28.4364
28.57326
28.63828
28.79889
29.10036
29.56448
30.16721
30.90025
31.74161
32.68192
33.66672
34.53644
35.11449
35.18948
34.61159
33.35695
31.54626
29.38469
27.15349
25.10626
23.3651
21.88307
20.42596
18.66456
16.28818
13.21673
9.591743
5.789101
2.271301
-0.6945038
-3.103668
-5.221832
-7.432266
-10.00687
-13.02094
-16.26243
-19.44048
-22.26885
-24.65727
-26.68721
-28.57594
-30.52026
-32.67256
-35.19262
-38.202
-41.76411
-45.71186
-49.52259
-52.2219
-52.64333
-49.80431
-43.38387
-33.93703
-22.75909
-11.48502
-1.500259
6.358078
11.98679
15.80291
18.32809
20.00521
21.0561
21.61607
21.73698
21.6022
21.43843
21.44331
21.79073
22.46483
23.3309
24.20494
24.97665
25.61057
26.18506
26.78863
27.42611
27.97738
28.2263
27.982
27.14023
25.72533
23.83484
21.63321
19.29121
16.94436
14.70913
12.63064
10.746
9.006721
7.25687
5.347809
3.239521
1.035107
-1.09985
-3.020161
-4.747368
-6.426342
-8.284157
-10.49377
-13.02804
-15.6574
-18.05565
-19.98836
-21.44673
-22.61986
-23.86113
-25.52935
-27.94925
-31.31725
-35.60948
-40.49749
-45.21092
-48.69086
-49.76798
-47.6047
-42.02361
-33.6447
-23.68559
-13.58258
-4.527382
2.882557
8.605383
12.98695
16.40298
19.10931
21.19198
22.64785
23.50204
23.8357
23.86012
23.74389
23.62366
23.58455
23.64307
23.85597
24.26265
24.90541
25.75776
26.78227
27.81723
28.62627
28.94214
28.51305
27.20656
25.07135
22.37656
19.4802
16.78618
14.58843
13.03206
12.04536
11.41095
10.85645
10.16088
9.177048
7.837261
6.094917
3.97007
1.55476
-1.03949
-3.668579
-6.213242
-8.626793
-10.95199
-13.325
-15.9314
-18.86607
-22.08888
-25.3718
-28.40577
-30.90676
-32.7966
-34.23144
-35.5538
-37.1902
-39.52792
-42.75264
-46.72546
-50.95986
-54.62897
-56.77057
-56.42506
-52.95464
-46.24846
-36.88457
-25.99927
-14.97421
-5.047249
3.027191
9.047821
13.26249
16.13835
18.1014
19.44391
20.30984
20.76894
20.81757
20.50883
19.92415
19.20035
18.50302
18.01573
17.88617
18.19347
18.93664
20.01065
21.32854
22.78828
24.2668
25.571
26.43942
26.63011
25.99867
24.60011
22.64632
20.46939
18.36755
16.48462
14.81523
13.25977
11.71642
10.15784
8.629761
7.232513
6.005386
4.860321
3.600784
2.089539
0.2764282
-1.712585
-3.668839
-5.447372
-7.044678
-8.622742
-10.44984
-12.74951
-15.49345
-18.4946
-21.44913
-24.0593
-26.24457
-28.09111
-29.81424
-31.74297
-34.2291
-37.4877
-41.5437
-46.00554
-49.99693
-52.33592
-51.86813
-47.87846
-40.43071
-30.38786
-19.16608
-8.268829
1.157059
8.516541
13.74857
17.12796
19.06093
19.89429
19.96219
19.48094
18.66
17.70558
16.81268
16.15558
15.86761
16.01389
16.50264
17.20839
17.94022
18.56412
19.0361
19.38268
19.58752
19.60022
19.32059
18.60837
17.46115
15.96889
14.28214
12.6062
11.03326
9.541397
8.020325
6.36116
4.469376
2.437149
0.4058533
-1.449203
-3.030594
-4.420532
-5.783768
-7.379913
-9.359589
-11.79556
-14.58266
-17.54338
-20.45041
-23.12523
-25.45081
-27.4493
-29.25603
-31.07837
-33.23584
-35.92487
-39.16309
-42.54239
-45.27394
-46.32115
-44.75359
-40.08025
-32.51868
-22.98936
-12.80341
-3.295517
4.587357
10.45949
14.42532
16.90598
18.37819
19.21667
19.64658
19.86429
19.99651
20.12108
20.24332
20.2989
20.21402
19.99417
19.73892
19.61388
19.82001
20.40988
21.28854
22.21135
22.90045
23.1394
22.77469
21.80516
20.31757
18.53467
16.68513
14.96072
13.46902
12.12952
10.72289
8.956589
6.666489
3.86554
0.7927399
-2.267426
-5.082138
-7.555008
-9.904709
-12.39261
-15.29843
-18.70178
-22.49089
-26.37799
-30.02837
-33.20638
-35.80109
-37.91626
-39.78537
-41.75536
-44.15134
-47.1886
-50.77475
-54.36769
-57.0406
-57.63687
-55.18454
-49.28322
-40.27327
-29.2076
-17.48816
-6.451035
2.958633
10.26695
15.46823
18.79576
20.57486
21.25616
21.24484
20.99741
20.80742
20.80444
20.92752
21.03604
21.02774
20.88394
20.76065
20.79211
21.1207
21.79213
22.7896
23.98923
25.18951
26.15425
26.60287
26.36909
25.386
23.77847
21.78897
19.69456
17.63045
15.61523
13.50076
11.1545
8.546921
5.755585
2.968246
0.3467407
-2.078964
-4.396881
-6.810989
-9.513748
-12.58968
-15.9565
-19.40208
-22.60898
-25.39265
-27.75027
-29.81642
-31.9173
-34.4016
-37.54211
-41.36674
-45.59537
-49.60649
-52.46788
-53.25256
-51.17442
-45.97028
-37.96475
-28.11316
-17.66318
-7.89119
0.301712
6.552124
10.97527
14.01158
16.07901
17.52052
18.47426
19.01405
19.23473
19.32965
19.56784
20.14815
21.12169
22.30524
23.49208
24.50223
25.27486
25.88031
26.42049
26.88602
27.15985
27.01773
26.26378
24.79718
22.72394
20.23618
17.63794
15.16747
12.95265
11.04301
9.341721
7.722504
6.048843
4.215378
2.126999
-0.2503357
-3.002319
-6.116684
-9.46814
-12.85127
-15.96806
-18.6566
-20.89548
-22.93271
-25.1653
-28.0506
-31.84555
-36.50494
-41.61529
-46.4246
-49.93979
-51.15437
-49.2979
-44.11305
-36.01094
-25.93306
-15.13124
-4.847221
4.032028
11.07808
16.24944
19.78829
21.9945
23.08886
23.27528
22.73974
21.66393
20.37831
19.24372
18.59582
18.65363
19.36726
20.51055
21.74479
22.81129
23.58488
24.1506
24.61768
25.01057
25.26304
25.11141
24.30745
22.72445
20.39546
17.51693
14.3856
11.20644
8.112907
5.15229
2.292526
-0.5788803
-3.628723
-7.021019
-10.89583
-15.1911
-19.68309
-23.96477
-27.6404
-30.49094
-32.63744
-34.53196
-36.73678
-39.79751
-43.91555
-48.83516
-53.82603
-57.85964
-59.78805
-58.67894
-54.11441
-46.29486
-36.06768
-24.66217
-13.40222
-3.340561
4.863413
11.02357
15.31294
18.08796
19.79757
20.83587
21.5863
22.28152
23.0983
24.05032
25.10782
26.18981
27.21134
28.22885
29.29331
30.48809
31.80686
33.15038
34.29512
34.99648
35.06323
34.38318
33.04028
31.18067
28.96114
26.53167
23.94692
21.26228
18.53475
15.86022
13.32485
10.97543
8.772888
6.590244
4.296062
1.792881
-0.95261
-3.900124
-6.98
-10.19281
-13.53339
-17.03789
-20.64899
-24.22614
-27.65971
-30.96067
-34.31225
-38.0515
-42.51255
-47.71098
-53.17596
-57.85278
-60.38864
-59.59161
-54.89822
-46.63895
-35.98401
-24.48371
-13.58547
-4.231216
3.304832
9.191711
13.87005
17.71124
20.99577
23.83116
26.31227
28.48919
30.36029
31.92525
33.10169
33.87687
34.29877
34.48922
34.62724
34.87833
35.38042
36.10606
37.00017
37.83163
38.40964
38.57626
38.23969
37.412
36.18367
34.69011
33.06802
31.49165
30.00667
28.63118
27.25554
25.67256
23.59746
20.79529
17.21411
13.01364
8.605423
4.40979
0.7444916
-2.317566
-4.917969
-7.380707
-9.966156
-12.82175
-15.95851
-19.24388
-22.56749
-25.81607
-28.94807
-31.98488
-35.04279
-38.30348
-41.99605
-46.28894
-51.07011
-55.87672
-59.77379
-61.56763
-60.19788
-55.1219
-46.54578
-35.46008
-23.30878
-11.51819
-1.216354
7.012436
13.06863
17.14857
19.59294
20.8298
21.29517
21.39417
21.52634
21.89981
22.55858
23.45399
24.48929
25.59598
26.77359
28.05542
29.42874
30.87091
32.28418
33.51338
34.36635
34.67644
34.32312
33.28157
31.62364
29.5098
27.0674
24.43051
21.70468
18.92378
16.12221
13.32903
10.59695
7.902328
5.237747
2.587784
-0.03187561
-2.568939
-5.021378
-7.495468
-10.1416
-13.09067
-16.39665
-19.92651
-23.44545
-26.76675
-29.87909
-32.99202
-36.48694
-40.63612
-45.43156
-50.49249
-55.03905
-58.06252
-58.59001
-55.90623
-49.84753
-40.83983
-29.84962
-18.14407
-6.975464
2.722473
10.50833
16.33563
20.54134
23.47752
25.47179
26.71898
27.28461
27.28468
26.91968
26.47565
26.20284
26.27481
26.69344
27.32433
28.00816
28.60216
29.09225
29.5383
29.9648
30.33185
30.55074
30.52852
30.1906
29.54781
28.61794
27.44463
26.05763
24.43907
22.54573
20.29706
17.58904
14.36775
10.69586
6.800003
3.034805
-0.2877655
-3.065201
-5.45723
-7.875
-10.75494
-14.31586
-18.44431
-22.71191
-26.59473
-29.77591
-32.23509
-34.21971
-36.18999
-38.64265
-41.95453
-46.23703
-51.21086
-56.18805
-60.1105
-61.78094
-60.19592
-54.94568
-46.40997
-35.61104
-23.98526
-12.88914
-3.298416
4.35672
10.11206
14.24434
17.15364
19.25298
20.94627
22.58713
24.39473
26.45299
28.62201
30.68132
32.34525
33.48459
34.16432
34.57877
34.94789
35.40297
35.96606
36.55255
37.08171
37.40822
37.44341
37.04875
36.0589
34.40921
32.13678
29.49403
26.81947
24.4476
22.52968
21.00356
19.61914
18.0827
16.24414
14.05473
11.65503
9.204056
6.863235
4.741714
2.802109
0.9283142
-1.091858
-3.439728
-6.235214
-9.453522
-12.92972
-16.46271
-19.84755
-23.00581
-25.97134
-28.86945
-31.83136
-35.05499
-38.74785
-43.04213
-47.90523
-52.8941
-57.10036
-59.30421
-58.36594
-53.65605
-45.36281
-34.48169
-22.4892
-10.87079
-0.7335052
7.340912
13.24545
17.18936
19.5058
20.60924
20.92619
20.8407
20.71526
20.7471
20.95766
21.30333
21.69453
22.06865
22.43997
22.84868
23.34602
23.98238
24.75858
25.61334
26.45276
27.10687
27.40346
27.2346
26.53894
25.38107
23.89415
22.20865
20.41156
18.52814
16.51288
14.30048
11.8831
9.305222
6.708405
4.210175
1.8367
-0.4924622
-2.974258
-5.857544
-9.258224
-13.07861
-17.09419
-20.94308
-24.32739
-27.19344
-29.64423
-32.01134
-34.7173
-38.10767
-42.31075
-47.1611
-52.01801
-55.87213
-57.57117
-56.1259
-51.09056
-42.75529
-32.06715
-20.35725
-8.988571
1.031967
9.19902
15.47285
20.12354
23.47435
25.78574
27.22827
27.89125
27.8508
27.25064
26.25186
25.09665
23.98964
23.13864
22.63914
22.54546
22.85544
23.54614
24.5464
25.72725
26.91087
27.85532
28.32928
28.17207
27.36052
26.02029
24.33923
22.5524
20.79378
19.05228
17.18616
15.0218
12.41716
9.412918
6.231094
3.138641
0.3514862
-2.115738
-4.480591
-7.06369
-10.1116
-13.70055
-17.69102
-21.80908
-25.82051
-29.53194
-32.85425
-35.82204
-38.54515
-41.22995
-44.20029
-47.70551
-51.76834
-56.00256
-59.48767
-61.02263
-59.50354
-54.33066
-45.72105
-34.69101
-22.70212
-11.2114
-1.263382
6.674118
12.61594
16.86435
19.85385
21.96518
23.5083
24.78613
25.99527
27.25539
28.56392
29.79385
30.71518
31.17581
31.10863
30.64386
30.0549
29.64854
29.67599
30.22403
31.10295
31.94087
32.32899
31.93179
30.64853
28.65015
26.23592
23.76811
21.49644
19.49875
17.74307
16.13548
14.56793
12.94514
11.26883
9.532318
7.80423
6.140106
4.506638
2.817917
0.9118042
-1.420486
-4.318909
-7.741882
-11.53526
-15.41983
-19.1188
-22.51295
-25.62515
-28.61201
-31.77289
-35.41344
-39.73669
-44.7334
-49.99252
-54.62399
-57.44261
-57.27637
-53.41049
-45.90952
-35.64296
-24.06604
-12.75021
-2.876999
5.018509
10.9772
15.386
18.69849
21.16664
22.83965
23.6469
23.51167
22.55165
21.07623
19.4371
18.0081
17.06602
16.70798
16.97604
17.78928
19.00691
20.51593
22.14297
23.70177
24.98572
25.80072
25.96556
25.39626
24.11007
22.19301
19.83356
17.16664
14.28923
11.25654
8.105377
4.931778
1.919327
-0.7550507
-3.035339
-5.008057
-6.927025
-9.053558
-11.51736
-14.29063
-17.17591
-19.9445
-22.45956
-24.74554
-26.9696
-29.42657
-32.40581
-36.16257
-40.71033
-45.69212
-50.3287
-53.45372
-53.88326
-50.80981
-44.14605
-34.62291
-23.55864
-12.40253
-2.317924
6.045929
12.52582
17.27899
20.4987
22.3776
23.08441
22.83429
21.95979
20.83677
19.79519
19.0444
18.67493
18.66762
19.04431
19.78576
20.9252
22.45752
24.27283
26.16251
27.84342
28.97563
29.29977
28.69355
27.19404
24.97971
22.3364
19.49947
16.6634
13.91479
11.26218
8.702309
6.253555
3.943085
1.7742
-0.3273239
-2.524338
-4.960518
-7.749306
-10.89053
-14.26738
-17.70484
-21.04938
-24.18391
-27.09627
-29.88754
-32.63639
-35.51682
-38.74821
-42.55313
-47.05642
-52.04192
-56.79816
-60.14842
-60.81313
-57.77118
-50.78127
-40.54667
-28.50082
-16.34499
-5.488663
3.334358
10.09116
15.12066
18.89513
21.70441
23.68946
24.92374
25.56251
25.84861
26.06073
26.36813
26.76057
27.14264
27.35507
27.3778
27.27837
27.20588
27.33593
27.75444
28.43571
29.18819
29.7393
29.80621
29.22513
28.02818
26.35493
24.44793
22.43476
20.33551
18.06463
15.51524
12.68635
9.681576
6.722012
3.992382
1.637463
-0.4282722
-2.347225
-4.377316
-6.770828
-9.707077
-13.22482
-17.15425
-21.19992
-24.96927
-28.17369
-30.70774
-32.78397
-34.86751
-37.49418
-41.06295
-45.57404
-50.51421
-54.8602
-57.33808
-56.81312
-52.68683
-45.12884
-35.00604
-23.65743
-12.42749
-2.364285
5.963348
12.43458
17.18488
20.49339
22.6128
23.85906
24.53693
24.95445
25.35004
25.85738
26.46042
27.08532
27.63328
28.03427
28.25904
28.37056
28.48092
28.72957
29.18898
29.80677
30.36712
30.5594
30.10959
28.88115
26.98572
24.69938
22.31901
20.02549
17.8485
15.66666
13.3576
10.87003
8.252037
5.595924
2.963024
0.3708687
-2.234577
-4.92535
-7.757282
-10.74807
-13.83524
-16.8795
-19.68418
-22.08077
-23.97407
-25.43594
-26.72284
-28.22204
-30.30479
-33.22898
-36.98827
-41.24551
-45.25738
-48.06397
-48.64769
-46.26968
-40.69312
-32.37477
-22.34531
-11.86645
-2.123683
6.142308
12.63076
17.41
20.71121
22.7565
23.70341
23.66768
22.87468
21.62741
20.30387
19.26731
18.73271
18.73904
19.1444
19.71718
20.23931
20.5961
20.79286
20.87669
20.88317
20.79283
20.56544
20.13473
19.46297
18.51739
17.30433
15.80105
13.97949
11.85935
9.462748
6.842518
4.060667
1.180523
-1.801531
-4.892256
-8.121452
-11.52096
-15.00719
-18.43045
-21.60119
-24.33581
-26.5188
-28.21952
-29.59298
-30.92186
-32.52993
-34.74026
-37.76857
-41.67136
-46.16532
-50.50708
-53.69069
-54.55469
-52.2262
-46.44103
-37.66549
-27.01226
-15.87615
-5.503231
3.309978
10.26664
15.55073
19.47673
22.34464
24.34207
25.56032
26.03702
25.92962
25.46018
24.8567
24.36398
24.06836
23.94156
23.87385
23.77306
23.58908
23.37306
23.22719
23.16916
23.1554
23.0559
22.69228
22.00581
20.9694
19.57813
17.86258
15.8229
13.45633
10.86408
8.147182
5.486942
3.098028
1.035307
-0.7650928
-2.503527
-4.429745
-6.783773
-9.597982
-12.78171
-16.03023
-19.04426
-21.63696
-23.8388
-25.8697
-28.05931
-30.75204
-34.16093
-38.30157
-42.90703
-47.4257
-50.98345
-52.59456
-51.38555
-46.90847
-39.37541
-29.62374
-18.87302
-8.356953
0.9602757
8.555092
14.34007
18.49465
21.32891
23.11612
24.1144
24.47688
24.38169
23.95417
23.33553
22.65791
22.0321
21.55081
21.22467
21.0892
21.1514
21.47268
22.0631
22.89177
23.79178
24.48913
24.7665
24.43445
23.4926
22.05529
20.25726
18.25632
16.16874
14.10598
12.12372
10.32708
8.698904
7.194086
5.6376
3.81662
1.55895
-1.220257
-4.452517
-8.012569
-11.68421
-15.32717
-18.77875
-22.01229
-25.01427
-27.82685
-30.58478
-33.46398
-36.70684
-40.44674
-44.54339
-48.42923
-51.20004
-51.77441
-49.27298
-43.39748
-34.55511
-23.83394
-12.60375
-2.139875
6.673645
13.46239
18.24721
21.31824
23.01338
23.68323
23.563
22.91944
21.98384
21.03759
20.33825
20.07692
20.35358
21.07092
22.08879
23.11942
23.95159
24.45989
24.62099
24.48992
24.11752
23.47794
22.43133
20.89301
18.75797
16.09692
13.09219
10.03246
7.235035
4.927509
3.156879
1.74264
0.3829098
-1.258324
-3.407593
-6.104637
-9.189898
-12.36551
-15.3386
-17.91915
-20.12405
-22.12121
-24.24922
-26.86903
-30.25228
-34.40338
-38.91512
-42.99588
-45.52784
-45.42675
-42.00755
-35.32313
-26.13285
-15.73153
-5.50662
3.442139
10.52335
15.67943
19.16437
21.31
22.39072
22.605
22.13277
21.22077
20.14309
19.17395
18.51615
18.25991
18.36643
18.71406
19.19345
19.7025
20.21823
20.72241
21.21404
21.64524
21.88171
21.73306
20.98571
19.47687
17.15512
14.13898
10.71349
7.254829
4.130116
1.548265
-0.4644241
-2.051046
-3.486292
-5.0793
-7.041937
-9.457535
-12.23797
-15.19276
-18.1441
-21.01501
-23.84176
-26.82152
-30.20221
-34.1464
-38.69129
-43.57228
-48.17099
-51.62063
-52.93148
-51.28667
-46.35463
-38.46695
-28.53162
-17.8227
-7.561001
1.379993
8.589561
14.07292
18.08474
20.90693
22.79681
23.95491
24.51585
24.64744
24.52822
24.25352
23.87532
23.39972
22.77717
22.02312
21.24681
20.61785
20.38513
20.73689
21.68339
23.04135
24.48679
25.59021
25.97186
25.42869
23.88786
21.50161
18.56513
15.41287
12.35828
9.595487
7.083393
4.669838
2.140165
-0.7153111
-3.963398
-7.533739
-11.26305
-14.9153
-18.30524
-21.37098
-24.08909
-26.57301
-29.0332
-31.69974
-34.81755
-38.52358
-42.65673
-46.69981
-49.81878
-51.0041
-49.35853
-44.54809
-36.86455
-27.2696
-17.10837
-7.650058
0.2611866
6.335293
10.78768
14.12118
16.76243
18.96616
20.76761
22.08648
22.86868
23.19636
23.27866
23.37169
23.69726
24.30496
25.14427
26.08381
27.01509
27.86172
28.57611
29.17457
29.63858
29.94291
30.02299
29.82697
29.2703
28.24483
26.68639
24.50575
21.75989
18.58657
15.21324
11.8644
8.700089
5.752839
2.899355
-0.02227974
-3.20047
-6.650842
-10.28386
-13.83183
-17.06106
-19.79974
-22.04004
-23.9478
-25.71003
-27.60782
-29.84851
-32.54498
-35.68382
-39.04603
-42.15284
-44.24382
-44.4828
-42.10911
-36.88137
-29.16157
-19.89696
-10.33106
-1.571304
5.655584
11.17813
15.15048
17.92145
19.71395
20.64777
20.81528
20.35413
19.5698
18.78945
18.32217
18.32292
18.8247
19.66898
20.6981
21.76169
22.74477
23.62807
24.36752
24.87403
24.99557
24.57726
23.48034
21.65741
19.23429
16.39853
13.46547
10.74043
8.406227
6.530952
4.972706
3.492538
1.765667
-0.4658928
-3.345123
-6.772861
-10.49558
-14.1474
-17.40919
-20.14767
-22.45741
-24.59325
-26.92323
-29.82838
-33.47932
-37.86673
-42.61904
-47.09077
-50.36831
-51.46688
-49.60603
-44.50741
-36.60461
-26.88793
-16.65875
-7.084358
1.06361
7.517384
12.3744
15.92401
18.44106
20.12811
21.15029
21.64172
21.76077
21.68689
21.62329
21.77323
22.28617
23.23156
24.50751
25.91789
27.18675
28.09309
28.54862
28.6352
28.41861
27.94595
27.18167
26.04225
24.49036
22.57888
20.39512
18.03003
15.53862
12.90566
10.08566
7.146435
4.228466
1.494339
-0.9496918
-3.181808
-5.446774
-8.051708
-11.20029
-14.88642
-18.85437
-22.72949
-26.18116
-29.10139
-31.62109
-34.04329
-36.73951
-40.00851
-43.90445
-48.13076
-52.07558
-54.79564
-55.27449
-52.7225
-46.8829
-38.19652
-27.75349
-16.90725
-6.789455
1.868198
8.896557
14.51388
19.04417
22.68979
25.54506
27.58644
28.8059
29.31116
29.26535
28.86796
28.31194
27.76319
27.31429
27.06229
27.06979
27.31139
27.75785
28.29263
28.76217
28.96186
28.73352
27.96506
26.71667
25.14344
23.37769
21.50727
19.51709
17.33884
14.98931
12.51387
10.07154
7.78302
5.669655
3.61274
1.472839
-0.8348465
-3.341522
-5.953644
-8.621872
-11.31116
-14.0499
-16.85225
-19.66477
-22.38817
-25.00662
-27.65619
-30.53121
-33.85193
-37.60045
-41.43799
-44.63634
-46.28901
-45.45602
-41.65887
-34.9638
-26.02277
-15.95112
-6.004089
2.734695
9.625404
14.47437
17.51665
19.12327
19.68417
19.49988
18.7424
17.60871
16.35281
15.29241
14.74745
14.90832
15.75777
17.13367
18.7117
20.17466
21.36377
22.23199
22.7759
22.98582
22.79788
22.10847
20.79658
18.85044
16.29803
13.33318
10.2291
7.235207
4.548149
2.235359
0.2465897
-1.595886
-3.501244
-5.652962
-8.153862
-10.96025
-13.93242
-16.82645
-19.44925
-21.66564
-23.52917
-25.26515
-27.18518
-29.65831
-32.91853
-36.98154
-41.49944
-45.79555
-48.88779
-49.76616
-47.66046
-42.35231
-34.31358
-24.57648
-14.42316
-5.020676
2.869247
9.000656
13.49947
16.7213
18.98593
20.51434
21.43387
21.82227
21.7412
21.35771
20.82813
20.31799
19.95407
19.79686
19.81937
20.00629
20.3228
20.72311
21.22183
21.77721
22.33821
22.8246
23.12473
23.09152
22.6089
21.57408
19.91367
17.70244
15.0999
12.37109
9.715164
7.212509
4.70816
1.914978
-1.41745
-5.422287
-9.969727
-14.76369
-19.36844
-23.48425
-26.92693
-29.75002
-32.10039
-34.21167
-36.34654
-38.79475
-41.83763
-45.502
-49.4977
-53.08147
-55.21185
-54.81247
-51.16997
-44.28456
-34.93726
-24.4549
-14.29718
-5.561096
1.234024
6.151382
9.583496
12.0495
13.96521
15.59798
17.08618
18.4489
19.71124
20.87589
21.96478
22.91165
23.69215
24.26003
24.6861
25.05855
25.4668
26.01274
26.68564
27.42651
28.02406
28.29228
27.99655
27.05038
25.4856
23.455
21.22229
19.04051
17.0293
15.14592
13.29565
11.29292
9.028854
6.500717
3.79715
1.034607
-1.705444
-4.431549
-7.219589
-10.15746
-13.28571
-16.5752
-19.88455
-23.07535
-26.02083
-28.74445
-31.37309
-34.13379
-37.33598
-41.14758
-45.56621
-50.22472
-54.39859
-57.04053
-57.1087
-53.83614
-47.04291
-37.28232
-25.70901
-13.79073
-2.861313
6.112061
12.76425
17.19841
19.85471
21.27904
21.92557
22.14024
22.15886
22.11286
22.16586
22.47435
23.14953
24.18834
25.49692
26.82438
27.975
28.85111
29.48103
30.02642
30.56966
31.00348
31.05515
30.41579
28.87315
26.5166
23.66819
20.7551
18.18819
16.14817
14.5972
13.2998
11.99293
10.49007
8.718147
6.733429
4.578308
2.322113
-0.03860474
-2.568604
-5.296936
-8.219231
-11.25543
-14.30179
-17.23993
-20.04179
-22.7305
-25.424
-28.34822
-31.73596
-35.74838
-40.30895
-44.92628
-48.70308
-50.49132
-49.23608
-44.38145
-36.17001
-25.57547
-14.09155
-3.198898
6.048668
13.20902
18.33757
21.74419
23.76009
24.55596
24.29469
23.18509
21.56197
19.8615
18.48614
17.64749
17.36964
17.54276
17.94646
18.4176
18.83696
19.17519
19.45182
19.70435
19.90111
19.9746
19.76671
19.10275
17.88438
16.11404
13.89866
11.41145
8.831055
6.288445
3.902725
1.681107
-0.4143372
-2.449722
-4.601059
-7.065598
-9.959732
-13.23498
-16.69378
-19.99998
-22.8958
-25.27533
-27.25855
-29.1552
-31.37204
-34.26456
-38.00971
-42.51964
-47.27523
-51.37564
-53.62202
-52.86468
-48.39623
-40.2568
-29.29526
-16.97745
-4.913208
5.590416
13.79234
19.60025
23.35443
25.50038
26.44083
26.44343
25.73284
24.55385
23.24608
22.15781
21.56126
21.6036
22.18661
23.10096
24.07693
24.93754
25.57319
25.94669
26.00243
25.68829
24.99661
23.98445
22.75814
21.41219
19.97193
18.36287
16.50407
14.31329
11.82581
9.174927
6.512817
3.941383
1.403343
-1.290054
-4.354828
-7.874725
-11.78709
-15.84835
-19.73361
-23.19082
-26.12753
-28.61095
-30.88623
-33.24058
-35.95094
-39.22598
-43.20403
-47.72384
-52.29802
-55.97009
-57.52489
-55.89095
-50.52274
-41.66648
-30.35239
-18.06376
-6.236519
4.043587
12.31753
18.53061
22.89106
25.65028
27.03178
27.25212
26.61024
25.4931
24.29028
23.33134
22.79128
22.71462
23.05356
23.73186
24.68913
25.85781
27.16825
28.46569
29.56339
30.22762
30.29801
29.67068
28.33559
26.36155
23.83522
20.89537
17.66544
14.34406
11.11555
8.194069
5.674393
3.509895
1.532715
-0.5696182
-3.054047
-6.05526
-9.483589
-13.106
-16.57384
-19.69405
-22.43271
-24.91766
-27.46101
-30.35223
-33.89655
-38.26311
-43.45171
-49.14585
-54.66393
-58.96757
-60.82352
-59.26823
-53.88229
-45.05003
-33.88036
-21.8427
-10.3222
-0.2565536
7.943748
14.33481
19.14966
22.66512
25.0737
26.45284
26.91175
26.59295
25.75771
24.67574
23.64062
22.86322
22.48571
22.56396
23.02149
23.7319
24.51896
25.28618
25.94227
26.46861
26.8098
26.84734
26.42905
25.39616
23.70579
21.45904
18.88072
16.19791
13.58725
11.05153
8.523464
5.849541
2.916714
-0.3477745
-3.938698
-7.77187
-11.65223
-15.27434
-18.33219
-20.67505
-22.40816
-23.87521
-25.59937
-28.07253
-31.63112
-36.33468
-41.81543
-47.30856
-51.73201
-53.82011
-52.47355
-47.20963
-38.32137
-26.91546
-14.61841
-3.013943
6.783558
14.28923
19.55719
22.98949
24.91307
25.62936
25.34776
24.26822
22.65423
20.86633
19.26915
18.13735
17.63086
17.72041
18.2646
19.08291
20.03772
21.04075
22.05883
23.04207
23.86004
24.28851
24.05189
22.98722
21.07159
18.4522
15.50924
12.58576
9.960557
7.740635
5.802158
3.790841
1.333415
-1.836816
-5.818069
-10.36589
-15.12632
-19.71692
-23.88466
-27.57398
-30.95457
-34.28622
-37.86985
-41.9889
-46.71705
-51.87016
-56.87386
-60.70043
-62.11718
-60.04778
-53.98795
-44.26359
-32.01805
-18.78998
-6.110115
4.904348
13.72675
20.30785
24.95143
28.03623
29.9396
30.93274
31.26374
31.11602
30.65836
30.04619
29.41009
28.87148
28.54977
28.47424
28.62832
28.97126
29.41091
29.87016
30.2516
30.38198
30.08219
29.16242
27.48244
25.03491
21.97622
18.58399
15.22599
12.16911
9.516312
7.208138
5.0168
2.662346
-0.09821701
-3.407055
-7.248142
-11.41621
-15.61216
-19.5312
-22.93999
-25.86093
-28.53706
-31.37514
-34.81848
-39.25967
-44.76082
-51.03701
-57.36383
-62.60444
-65.46998
-64.79427
-59.86652
-50.81596
-38.63583
-24.94443
-11.50987
0.2718658
9.709801
16.77905
21.90394
25.61609
28.26268
30.04471
31.05142
31.41008
31.30222
30.99573
30.66698
30.46329
30.41994
30.52885
30.78245
31.19803
31.7451
32.33856
32.91909
33.31612
33.3483
32.78441
31.42924
29.18449
26.13087
22.50739
18.6823
15.09857
12.08246
9.756256
8.015984
6.567932
5.038826
3.093414
0.4742432
-2.881546
-6.832306
-11.08727
-15.29025
-19.11453
-22.42169
-25.29166
-28.00311
-30.94984
-34.53398
-39.00626
-44.31476
-50.01935
-55.17314
-58.58296
-59.03046
-55.68929
-48.45218
-38.06197
-25.84763
-13.37421
-1.973007
7.592041
15.03499
20.45541
24.14842
26.38177
27.34258
27.25494
26.38974
25.08951
23.78325
22.76222
22.18025
22.07054
22.34552
22.83676
23.46797
24.20825
25.04707
26.00026
26.98296
27.81366
28.27768
28.12903
27.16977
25.31114
22.61488
19.29628
15.72691
12.25381
9.153793
6.52916
4.218597
1.907578
-0.740799
-3.973724
-7.804489
-11.93974
-16.01439
-19.6633
-22.73209
-25.33197
-27.77011
-30.43074
-33.6973
-37.82458
-42.7654
-48.16302
-53.26726
-57.0244
-58.26524
-55.99921
-49.82396
-40.12578
-28.09811
-15.33284
-3.39183
6.677597
14.48927
20.19594
24.26205
27.07292
28.82439
29.56174
29.38098
28.49513
27.35266
26.43773
26.0784
26.4178
27.33607
28.5723
29.86263
31.0211
31.93634
32.55562
32.8607
32.76523
32.15877
30.98296
29.18701
26.84612
24.07852
21.07664
18.04282
15.12419
12.36002
9.712952
7.121964
4.532944
1.971832
-0.5614166
-3.090454
-5.716248
-8.590378
-11.82658
-15.44527
-19.29921
-23.18216
-26.84306
-30.20622
-33.33409
-36.50977
-40.15443
-44.64822
-50.11546
-56.21263
-62.09685
-66.40643
-67.71965
-64.96619
-57.76318
-46.70651
-33.1618
-18.86856
-5.453857
5.932465
14.79468
21.23967
25.72733
28.8858
31.19693
32.92014
34.13646
34.87178
35.14568
35.05771
34.79611
34.56155
34.49178
34.63208
34.9631
35.44273
36.06975
36.88837
37.87897
38.89929
39.64217
39.74394
38.87668
36.93684
34.17265
31.0108
27.95947
25.37048
23.30894
21.49277
19.53302
17.10049
14.13344
10.86121
7.639008
4.817078
2.517868
0.5678101
-1.469666
-4.078598
-7.496872
-11.73589
-16.48067
-21.36453
-26.00768
-30.21619
-34.00323
-37.52696
-41.03308
-44.77986
-49.00932
-53.72797
-58.66255
-63.03813
-65.74277
-65.60228
-61.70706
-53.87502
-42.76418
-29.73816
-16.37704
-4.150757
5.987747
13.69968
19.13437
22.78032
25.11649
26.60439
27.52602
28.10471
28.49582
28.81012
29.12424
29.4761
29.90131
30.33063
30.72937
31.08546
31.46526
31.94662
32.59268
33.38791
34.13861
34.61906
34.52679
33.69742
32.09286
29.87465
27.30653
24.64014
22.02654
19.40521
16.69653
13.79498
10.73167
7.61908
4.638489
1.937637
-0.4836578
-2.66806
-4.772614
-6.901123
-9.156601
-11.53275
-13.99254
-16.48407
-18.93652
-21.36043
-23.79349
-26.43082
-29.49055
-33.28473
-37.9496
-43.31668
-48.75598
-53.19287
-55.30847
-53.92628
-48.51212
-39.34492
-27.58583
-14.85716
-2.732071
7.602707
15.64093
21.39282
25.16194
27.27728
28.04552
27.70193
26.49266
24.78128
22.92101
21.34288
20.32918
20.02112
20.44345
21.47194
22.92941
24.53691
26.07108
27.31055
28.14238
28.4863
28.33563
27.63409
26.38608
24.58008
22.25325
19.52502
16.46979
13.2523
9.963425
6.691742
3.484955
0.3597412
-2.736359
-5.831268
-8.967834
-12.21523
-15.50761
-18.77061
-21.83896
-24.56703
-26.85495
-28.70973
-30.28981
-31.95685
-34.21368
-37.49513
-42.06215
-47.68137
-53.56435
-58.34833
-60.49435
-58.73317
-52.58498
-42.59352
-30.13782
-17.03787
-4.930099
5.106873
12.69887
18.04419
21.65264
24.02499
25.54516
26.44643
26.86767
26.884
26.56882
25.98799
25.27236
24.58452
24.0961
23.94803
24.2104
24.88535
25.87691
27.02509
28.12172
28.96542
29.34602
29.1061
28.17475
26.546
24.31579
21.65625
18.75466
15.81763
13.02232
10.45847
8.1222
5.93119
3.75782
1.478416
-0.9843521
-3.661453
-6.551994
-9.658188
-12.98967
-16.54333
-20.25964
-24.032
-27.68513
-31.09192
-34.23131
-37.29327
-40.60298
-44.4602
-48.91125
-53.50784
-57.32419
-59.08492
-57.64984
-52.41519
-43.61176
-32.28343
-19.93612
-8.050323
2.309364
10.64202
16.9838
21.59174
24.81287
26.90899
28.03358
28.39152
28.2603
27.94574
27.64932
27.50346
27.43436
27.36044
27.2565
27.13314
27.0885
27.25105
27.6551
28.13857
28.49934
28.4313
27.74477
26.45723
24.67284
22.58768
20.35333
18.03682
15.59871
13.04788
10.3951
7.772694
5.382587
3.349752
1.733772
0.3862057
-0.9524803
-2.588062
-4.706608
-7.427057
-10.6375
-14.09282
-17.51137
-20.57487
-23.14119
-25.24872
-27.11135
-29.06229
-31.55956
-34.91796
-39.12481
-43.76008
-47.9019
-50.40049
-50.1692
-46.55447
-39.59438
-30.09009
-19.33832
-8.698421
0.6797075
8.211318
13.78271
17.5848
19.94145
21.15076
21.42621
20.99735
20.10614
19.04768
18.09184
17.39281
16.95299
16.73648
16.71958
16.9779
17.6199
18.70046
20.12989
21.67666
23.02843
23.8283
23.87556
23.12553
21.63998
19.54441
17.0174
14.22703
11.38898
8.733154
6.380585
4.339172
2.501225
0.5906296
-1.619576
-4.233173
-7.23283
-10.45367
-13.64783
-16.62579
-19.29692
-21.60483
-23.63502
-25.56389
-27.66418
-30.30491
-33.7981
-38.17551
-43.0598
-47.54187
-50.33784
-50.23691
-46.51215
-39.24573
-29.37206
-18.29691
-7.444672
2.116798
9.887207
15.86658
20.27196
23.3356
25.2126
25.91057
25.50264
24.20095
22.29936
20.21651
18.39774
17.14895
16.63357
16.819
17.44791
18.25298
19.00202
19.58155
20.01648
20.35822
20.54072
20.40215
19.68526
18.14856
15.73338
12.62944
9.175865
5.826096
2.984016
0.7801895
-0.8504715
-2.207336
-3.705513
-5.677528
-8.304001
-11.58639
-15.31929
-19.21086
-22.97314
-26.35432
-29.21019
-31.53312
-33.4793
-35.41684
-37.8141
-41.05992
-45.20398
-49.71925
-53.52699
-55.24689
-53.74982
-48.51286
-39.93964
-29.12239
-17.56615
-6.663574
2.5681
9.691727
14.72368
17.95786
19.87149
20.92693
21.54594
21.95914
22.25392
22.39038
22.32349
22.12964
21.89685
21.80959
21.91888
22.21883
22.61571
23.02995
23.45081
23.84627
24.20209
24.37094
24.21156
23.50461
22.16025
20.17294
17.61926
14.64825
11.43166
8.196915
5.166489
2.582855
0.53685
-1.053268
-2.43515
-3.968033
-5.947769
-8.526657
-11.57841
-14.86436
-18.05605
-20.95522
-23.56146
-26.02284
-28.62315
-31.62408
-35.20584
-39.37204
-43.93428
-48.3952
-51.9762
-53.7393
-52.78282
-48.59006
-41.21776
-31.36981
-20.20547
-9.04187
1.015213
9.264084
15.46704
19.78358
22.53749
24.0544
24.6199
24.48857
23.85909
22.97429
22.04823
21.25769
20.77071
20.63271
20.79929
21.12096
21.48991
21.80402
22.00333
22.04065
21.82635
21.23697
20.16362
18.50943
16.28552
13.64209
10.87517
8.294128
6.249802
4.919937
4.335983
4.327164
4.501144
4.360733
3.41539
1.393036
-1.695984
-5.488434
-9.531387
-13.37486
-16.80449
-19.83533
-22.64807
-25.48657
-28.53212
-31.89215
-35.53026
-39.31389
-42.84084
-45.40196
-46.12265
-44.17972
-39.17018
-31.37659
-21.74208
-11.55534
-2.080399
5.793442
11.76155
15.90927
18.60146
20.23402
21.06618
21.23442
20.81157
19.93211
18.77922
17.62852
16.66624
16.05211
15.77293
15.73283
15.79207
15.91687
16.15251
16.60413
17.31644
18.15253
18.85641
19.07704
18.52448
17.06805
14.80208
12.01381
9.070496
6.329254
3.942383
1.909088
-0.006774902
-2.118378
-4.680939
-7.80571
-11.39401
-15.17783
-18.78668
-21.96603
-24.54132
-26.5704
-28.27657
-29.9823
-32.12877
-35.08694
-39.0507
-43.85162
-48.96057
-53.38977
-56.01086
-55.76324
-51.99702
-44.72667
-34.6825
-23.12514
-11.49989
-1.093796
7.321297
13.53178
17.81157
20.65422
22.52582
23.75265
24.47113
24.75281
24.68223
24.42886
24.19109
24.13427
24.39522
24.95357
25.77925
26.76169
27.75399
28.61085
29.21995
29.46012
29.27979
28.70804
27.73035
26.45718
24.92735
23.19177
21.30976
19.34415
17.27859
15.06977
12.64246
9.879601
6.795456
3.51104
0.2888641
-2.568649
-4.857162
-6.605736
-8.062706
-9.602913
-11.5022
-13.82864
-16.41933
-19.05967
-21.60006
-24.12202
-26.87439
-30.14195
-34.18188
-39.0798
-44.63044
-50.37148
-55.53642
-59.09664
-59.9677
-57.31328
-50.84404
-41.08114
-29.29083
-17.03405
-5.780075
3.508018
10.56837
15.64762
19.27773
21.97305
24.04585
25.60203
26.72094
27.46834
28.01186
28.54937
29.20798
29.98109
30.75596
31.36589
31.72129
31.90746
32.05529
32.34956
32.80113
33.23931
33.37016
32.90961
31.72191
29.88889
27.63994
25.29491
23.11164
21.28861
19.85617
18.74558
17.74492
16.61178
15.09252
13.02272
10.41833
7.464245
4.494492
1.800182
-0.4648399
-2.453949
-4.462036
-6.810944
-9.640377
-12.82798
-16.07779
-19.0622
-21.64349
-23.89607
-26.10902
-28.54859
-31.41627
-34.8258
-38.71869
-42.90097
-46.9457
-50.0813
-51.34375
-49.79571
-44.88615
-36.79367
-26.45853
-15.28959
-4.811581
3.902885
10.38307
14.74849
17.48694
19.1067
19.98366
20.32593
20.25324
19.86135
19.32652
18.83466
18.60798
18.77183
19.35062
20.24675
21.37348
22.66064
24.10805
25.69349
27.33932
28.84754
29.91478
30.27632
29.71196
28.26616
26.14152
23.64016
21.03755
18.4836
15.97362
13.44287
10.85035
8.228928
5.684906
3.311226
1.172676
-0.7787476
-2.708641
-4.835709
-7.386742
-10.47952
-14.06313
-17.89435
-21.65458
-25.00468
-27.75652
-30.02216
-32.14635
-34.62189
-37.87169
-42.06544
-46.88476
-51.55168
-54.9698
-55.94939
-53.69927
-47.98428
-39.28535
-28.69286
-17.5677
-7.160454
1.663834
8.531593
13.55724
17.08559
19.507
21.16541
22.22482
22.76095
22.86264
22.63062
22.22008
21.8163
21.57323
21.62139
21.98647
22.62024
23.50045
24.61195
25.94952
27.4815
29.06406
30.429
31.26878
31.2366
30.13501
27.99789
25.04862
21.66682
18.27363
15.10343
12.26746
9.705193
7.296921
4.967491
2.745888
0.7785797
-0.8926315
-2.274902
-3.528511
-4.873428
-6.52861
-8.60025
-11.09016
-13.92053
-16.93095
-20.03851
-23.18475
-26.37795
-29.64231
-33.01252
-36.58965
-40.44778
-44.70292
-49.32533
-53.99068
-57.9922
-60.32008
-59.87947
-55.91836
-48.42114
-38.1133
-26.34914
-14.63501
-4.215973
4.260841
10.68904
15.35732
18.69637
21.07933
