55.54271
55.4732
55.29767
54.99112
54.5728
53.99006
53.04231
51.43345
48.88835
45.31268
40.89678
36.03502
31.15628
26.50401
22.04601
17.50215
12.54809
7.029152
1.077271
-4.938446
-10.59701
-15.66239
-20.23837
-24.73709
-29.71458
-35.59478
-42.44999
-49.95845
-57.50909
-64.47157
-70.48119
-75.6147
-80.39816
-85.7215
-92.55303
-101.5718
-112.7204
-124.8441
-135.6192
-141.9793
-141.0
-130.9072
-111.8452
-85.97141
-56.80301
-28.14248
-2.969098
17.18041
32.20266
42.92048
50.46565
55.80622
59.61432
62.32552
64.28943
65.8292
67.17531
68.41724
69.4274
69.94623
69.70854
68.6184
66.84502
64.82245
63.09905
62.09947
61.94204
62.31799
62.59475
62.02801
60.06894
56.55556
51.78154
46.35433
40.97105
36.17251
32.14113
28.67185
25.2496
21.27506
16.28109
10.16077
3.225405
-3.879028
-10.41911
-15.9125
-20.36441
-24.30195
-28.58574
-33.99194
-40.85973
-48.91913
-57.43428
-65.52588
-72.60093
-78.5715
-83.89946
-89.39275
-95.95824
-104.3669
-114.986
-127.4938
-140.5957
-151.9642
-158.5275
-157.318
-146.4825
-126.1558
-98.64056
-67.75788
-37.63525
-11.4431
9.326004
24.82862
36.23624
44.91943
51.87434
57.56012
62.06816
65.44231
67.80708
69.38159
70.36129
70.8074
70.62985
69.72758
68.13682
66.14143
64.22823
62.897
62.44034
62.79177
63.53547
64.06632
63.80771
62.4301
59.86776
56.30939
52.07637
47.50754
42.89352
38.41763
34.12475
29.93506
25.67317
21.12541
16.12994
10.68229
4.945675
-0.7572651
-6.064421
-10.72763
-14.74252
-18.41546
-22.28723
-26.90946
-32.58162
-39.1909
-46.21099
-52.93518
-58.76359
-63.48639
-67.35827
-71.00488
-75.23814
-80.84331
-88.37718
-97.86232
-108.5173
-118.5629
-125.3702
-126.0678
-118.4966
-102.0774
-78.25389
-50.12436
-21.4881
4.349091
25.37997
41.12755
52.23926
59.7924
64.77899
67.84927
69.41183
69.83649
69.57764
69.13448
68.94333
69.18705
69.77502
70.44179
70.9026
71.03553
70.93008
70.81059
70.84608
71.01694
71.03943
70.47229
68.91544
66.2079
62.48452
58.1256
53.55023
49.04162
44.65118
40.22485
35.50388
30.31681
24.67205
18.7853
12.97929
7.515152
2.425621
-2.549255
-7.863552
-13.96675
-21.04278
-28.91422
-37.03272
-44.69806
-51.34449
-56.76309
-61.26177
-65.59697
-70.81313
-77.92913
-87.51196
-99.21288
-111.4848
-121.6643
-126.5641
-123.4398
-111.0145
-90.0784
-63.36842
-34.7292
-7.902225
14.51182
31.50674
43.46961
51.53158
56.88862
60.39154
62.51613
63.57114
63.88777
63.86785
63.87144
64.06416
64.32436
64.33281
63.7787
62.57054
60.95463
59.41964
58.45732
58.32372
58.871
59.57096
59.69994
58.58393
55.85445
51.54435
46.07121
40.08047
34.21497
28.91436
24.26713
20.01039
15.67935
10.83725
5.294015
-0.773519
-6.89683
-12.55586
-17.46878
-21.77337
-26.00858
-30.87056
-36.88083
-44.12571
-52.20456
-60.40547
-68.00131
-74.56992
-80.12679
-85.1232
-90.32898
-96.61957
-104.765
-115.0944
-127.1007
-139.1575
-148.5721
-152.1421
-147.1452
-132.4156
-108.9548
-79.77804
-48.96542
-20.37559
3.440651
21.67924
34.97045
44.69624
52.21796
58.464
63.82695
68.36797
72.03109
74.78719
76.68605
77.83352
78.31966
78.19456
77.47356
76.2187
74.60107
72.93112
71.55869
70.73967
70.4552
70.37299
69.94476
68.61755
66.05379
62.23717
57.46838
52.18788
46.82791
41.68083
36.86283
32.36765
28.10034
23.93449
19.69046
15.17931
10.22606
4.745394
-1.215893
-7.437799
-13.56409
-19.26479
-24.39318
-29.14104
-34.00353
-39.59002
-46.29819
-54.08889
-62.42418
-70.51094
-77.61836
-83.39756
-88.04617
-92.22601
-96.87481
-102.9481
-111.1729
-121.7325
-133.9541
-146.0611
-155.2795
-158.4103
-152.8098
-137.4086
-113.2868
-83.4675
-51.9769
-22.62979
2.011456
21.01777
34.85002
44.68168
51.75803
56.97836
60.84353
63.64362
65.61021
67.01006
68.08137
68.94692
69.56915
69.75114
69.29324
68.1285
66.45571
64.69017
63.34572
62.78321
63.01809
63.66387
64.05283
63.49579
61.5564
58.22968
53.91734
49.2538
44.84598
41.03125
37.78927
34.83078
31.74408
28.20358
24.09226
19.50769
14.71362
10.03967
5.745403
1.933002
-1.514889
-4.928173
-8.76936
-13.42321
-19.04074
-25.41601
-32.03266
-38.2719
-43.66195
-48.07894
-51.80764
-55.43024
-59.65055
-65.1283
-72.28105
-81.0994
-90.90031
-100.1393
-106.5031
-107.387
-100.7304
-85.8448
-63.9438
-37.88025
-11.29697
12.53355
31.63153
45.59972
55.19824
61.59583
65.73737
68.0784
68.79362
68.13248
66.62703
65.00617
63.91061
63.59293
63.85216
64.2226
64.26767
63.8642
63.19319
62.61076
62.33192
62.26497
62.01168
61.04645
58.96867
55.67577
51.40415
46.58998
41.69524
37.01908
32.61035
28.30178
23.80865
18.88905
13.4579
7.659815
1.784071
-3.882029
-9.215729
-14.34616
-19.63765
-25.45919
-31.99965
-39.08968
-46.23845
-52.8669
-58.5815
-63.41673
-67.85715
-72.74104
-79.03333
-87.46524
-98.19136
-110.4109
-122.1974
-130.7221
-132.9205
-126.4704
-110.7206
-87.11832
-58.85467
-29.8734
-3.664226
17.64547
33.52398
44.67628
52.33688
57.67273
61.49267
64.23595
66.13886
67.36598
68.04056
68.2483
68.01244
67.31955
66.19206
64.72272
63.10803
61.58268
60.37251
59.59969
59.23006
59.05269
58.70089
57.73917
55.82268
52.81935
48.86407
44.33583
39.71947
35.41812
31.61316
28.21243
24.91423
21.3403
17.15851
12.23408
6.651211
0.692749
-5.23558
-10.74016
-15.58498
-19.81101
-23.76843
-28.02095
-33.15186
-39.48339
-46.90209
-54.86173
-62.57738
-69.33701
-74.84241
-79.34097
-83.57441
-88.57524
-95.32827
-104.4592
-115.8507
-128.3602
-139.7592
-147.0765
-147.3157
-138.4586
-120.3012
-94.71452
-65.17431
-35.65847
-9.476532
11.57108
27.28603
38.609
46.87944
53.2366
58.37675
62.61206
66.09383
68.96877
71.38093
73.40485
74.96802
75.84671
75.8035
74.80644
73.09236
71.17161
69.58403
68.65748
68.3556
68.27638
67.83746
66.53976
64.15686
60.78574
56.77558
52.517
48.27829
44.1282
39.93071
35.48361
30.63368
25.40992
20.02235
14.76071
9.834915
5.250748
0.7951889
-3.831055
-8.824936
-14.15462
-19.54425
-24.61892
-29.10169
-32.99499
-36.60687
-40.4491
-45.03081
-50.59689
-57.02207
-63.85567
-70.48214
-76.40882
-81.47917
-85.93633
-90.40288
-95.72581
-102.7302
-111.9146
-123.0592
-134.8647
-144.9082
-150.0396
-147.2935
-134.9843
-113.5225
-85.49345
-54.89465
-25.84373
-1.345917
17.33562
30.55941
39.62193
45.95592
50.61064
54.16338
56.87386
58.94135
60.60595
62.10133
63.53292
64.81017
65.68588
65.91607
65.42747
64.41477
63.29958
62.58566
62.63441
63.49897
64.87424
66.17748
66.75744
66.13692
64.15082
61.00317
57.17687
53.23692
49.64055
46.5837
43.92642
41.27749
38.15383
34.1758
29.25854
23.66419
17.91195
12.56801
7.991314
4.160385
0.6314774
-3.282417
-8.245865
-14.589
-22.18215
-30.4528
-38.63898
-46.08014
-52.47189
-57.96688
-63.12089
-68.73989
-75.66302
-84.49443
-95.2385
-106.9834
-117.7429
-124.7296
-125.0607
-116.7516
-99.55951
-75.25345
-47.13849
-19.01254
5.981926
26.06917
40.91431
51.1991
57.96155
62.11812
64.31985
65.03332
64.72008
63.89514
63.05155
62.53754
62.46285
62.69229
62.95073
62.96444
62.60099
61.93679
61.21047
60.69567
60.53897
60.62189
60.57488
59.88225
58.09228
54.9995
50.74344
45.74734
40.59276
35.77762
31.53674
27.73925
23.96967
19.72518
14.6581
8.765579
2.422813
-3.788605
-9.351044
-14.10132
-18.3299
-22.65776
-27.77164
-34.10101
-41.6151
-49.84456
-58.09035
-65.67721
-72.21261
-77.68304
-82.46321
-87.23745
-92.90399
-100.3766
-110.2759
-122.456
-135.6149
-147.1826
-153.799
-152.2772
-140.7716
-119.6234
-91.40719
-60.16147
-30.05791
-4.194923
16.05548
30.89147
41.46138
49.07565
54.76138
59.16862
62.69688
65.68744
68.42381
71.06547
73.56709
75.70355
77.15789
77.71154
77.34998
76.28436
74.89438
73.5845
72.66584
72.20869
72.03487
71.75089
70.88956
69.11003
66.28592
62.54485
58.15748
53.40553
48.4692
43.43453
38.34108
33.27187
28.34537
23.63441
19.08538
14.46803
9.473602
3.913284
-2.141495
-8.35186
-14.26385
-19.57188
-24.31646
-28.89763
-33.91914
-39.88673
-46.96744
-54.901
-63.11514
-70.96582
-78.0032
-84.1741
-89.79461
-95.50474
-102.0551
-110.1148
-119.9998
-131.3459
-142.8351
-152.1708
-156.4377
-152.92
-140.09
-118.3157
-89.98835
-58.8777
-28.95651
-3.274223
16.71809
31.14006
41.10606
47.96607
52.78587
56.19672
58.53665
60.10443
61.25279
62.34721
63.6254
65.09583
66.48872
67.42751
67.64671
67.16544
66.34369
65.71118
65.68922
66.33125
67.25562
67.77634
67.2308
65.2618
61.9479
57.73456
53.21394
48.88344
45.00735
41.62118
38.58612
35.68623
32.68397
29.32513
25.41143
20.87531
15.83671
10.61468
5.624097
1.205269
-2.529993
-5.791924
-9.05994
-12.88363
-17.66699
-23.49061
-30.07346
-36.87441
-43.28522
-48.8676
-53.50408
-57.46123
-61.3346
-65.89797
-71.83499
-79.43687
-88.30483
-97.19974
-104.1161
-106.7063
-102.9237
-91.72002
-73.52408
-50.23705
-24.73926
-0.1185946
21.15748
37.73864
49.43168
56.88553
61.07265
62.90295
63.03561
61.98012
60.22169
58.2977
56.74731
55.92751
55.90557
56.45545
57.21602
57.88645
58.36089
58.73924
59.15553
59.62041
59.901
59.57549
58.22642
55.6399
51.92178
47.49448
42.89825
38.58422
34.72315
31.1253
27.37868
23.06157
17.95961
12.20777
6.196732
0.3927193
-4.90411
-9.710407
-14.35434
-19.31807
-24.98877
-31.4986
-38.64646
-45.99265
-53.03291
-59.42692
-65.13688
-70.51394
-76.2484
-83.16723
-91.93687
-102.6105
-114.2628
-124.8985
-131.7263
-131.9321
-123.627
-106.6281
-82.71405
-55.13231
-27.58281
-3.15897
16.39047
30.79013
40.80628
47.61931
52.28725
55.51463
57.71561
59.19456
60.24411
61.14896
62.08826
63.05645
63.85851
64.21327
63.93273
63.05351
61.89399
60.93781
60.60611
61.01345
61.82448
62.35337
61.8339
59.74577
56.04448
51.17955
45.8887
40.91348
36.69242
33.22544
30.09898
26.67566
22.3435
16.79439
10.16079
2.992767
-3.963379
-10.10036
-15.26504
-19.88556
-24.7728
-30.74805
-38.18853
-46.82022
-55.81141
-64.17186
-71.19795
-76.79887
-81.52628
-86.3568
-92.38331
-100.5077
-111.1375
-123.8291
-137.0438
-148.1336
-153.7991
-151.0097
-138.1257
-115.6845
-86.46217
-54.64756
-24.5281
0.8130836
20.11231
33.7911
43.23167
49.95712
55.11065
59.33826
62.98417
66.24594
69.26134
72.02277
74.36755
75.98111
76.58107
76.07059
74.6633
72.83827
71.15378
70.02326
69.53818
69.44141
69.22292
68.33762
66.40413
63.30038
59.18846
54.4004
49.31886
44.24389
39.34851
34.68846
30.23925
25.96104
21.82232
17.78587
13.78065
9.704945
5.442581
0.912632
-3.860737
-8.732689
-13.47257
-17.86489
-21.8417
-25.58075
-29.46065
-33.96111
-39.44053
-45.9729
-53.26744
-60.7692
-67.86845
-74.13527
-79.54193
-84.51232
-89.84608
-96.47824
-105.1149
-115.8308
-127.7287
-138.8363
-146.3936
-147.5072
-140.072
-123.5817
-99.44749
-70.6992
-41.09382
-14.03604
8.265377
25.09357
36.97447
45.10762
50.7463
54.84151
57.97803
60.49098
62.63941
64.6693
66.78875
69.06713
71.41375
73.56895
75.26105
76.32545
76.80433
76.96815
77.16321
77.6554
78.46399
79.31953
79.74362
79.25137
77.52858
74.56762
70.67339
66.33145
62.04781
58.13334
54.60754
51.19491
47.46719
43.0331
37.71467
31.64298
25.23935
19.02132
13.40699
8.515239
4.087765
-0.4301643
-5.648375
-12.00518
-19.56665
-28.00321
-36.68939
-44.96284
-52.32383
-58.62745
-64.18818
-69.70333
-76.11434
-84.28358
-94.61086
-106.6596
-118.9359
-129.0062
-134.0096
-131.4946
-120.23
-100.7745
-75.4452
-47.68039
-21.0713
1.611448
19.03975
31.31754
39.51989
45.01537
48.91148
51.8265
54.0196
55.59779
56.72993
57.66795
58.61722
59.62569
60.58005
61.27357
61.55054
61.43048
61.0756
60.7346
60.5951
60.68013
60.8018
60.6105
59.71232
57.79431
54.77969
50.85115
46.44254
42.04862
38.06293
34.61434
31.54367
28.50665
25.14657
21.23371
16.72897
11.7685
6.564583
1.342525
-3.725166
-8.539604
-13.12454
-17.62267
-22.31112
-27.50561
-33.44287
-40.14872
-47.3955
-54.73517
-61.72195
-68.07497
-73.8194
-79.3129
-85.15732
-92.00436
-100.334
-110.2119
-121.0333
-131.3946
-139.1711
-141.9217
-137.5359
-124.9909
-104.8313
-79.20587
-51.30184
-24.49115
-1.400185
16.66772
29.78524
38.99047
45.65644
50.93418
55.46686
59.45641
62.86302
65.6432
67.84338
69.53471
70.70628
71.26854
71.12788
70.32506
69.11804
67.93476
67.15393
66.92603
67.07515
67.16232
66.69151
65.35151
63.07518
60.0478
56.54028
52.75957
48.78355
44.56994
40.05664
35.24007
30.23853
25.23849
20.43566
15.91251
11.60296
7.283379
2.671028
-2.401955
-7.912949
-13.59676
-19.07835
-24.021
-28.33625
-32.2653
-36.30849
-41.00984
-46.70967
-53.37428
-60.59161
-67.76145
-74.356
-80.14688
-85.31227
-90.34664
-95.95714
-102.8439
-111.4533
-121.702
-132.7171
-142.6898
-149.083
-149.2064
-141.0607
-124.173
-99.92962
-71.33749
-42.10396
-15.59579
6.048264
22.19849
33.48483
41.17964
46.56471
50.5762
53.71326
56.18788
58.0871
59.54395
60.74519
61.86817
63.01529
64.15284
65.1823
66.00244
66.63003
67.21914
67.97823
69.00555
70.20187
71.22774
71.65887
71.16483
69.65755
67.30983
64.45589
61.41751
58.41171
55.48077
52.56821
49.5545
46.3418
42.86388
39.10185
35.0958
30.90677
26.62202
22.30662
17.99644
13.70181
9.399376
5.019714
0.4392624
-4.50288
-9.971909
-16.03943
-22.61828
-29.43401
-36.07789
-42.18534
-47.59983
-52.49949
-57.39747
-63.02117
-70.01878
-78.66663
-88.59773
-98.6871
-107.1856
-112.0139
-111.2738
-103.7572
-89.38818
-69.3351
-45.8323
-21.64709
0.6075172
19.07395
33.00972
42.70314
49.07281
53.17258
55.8006
57.36413
58.0232
57.93725
57.4202
56.9161
56.81818
57.30452
58.27741
59.45123
60.52907
61.33676
61.86534
62.16588
62.24426
61.97099
61.11153
59.43966
56.84404
53.40775
49.35086
44.99603
40.61861
36.40898
32.43053
28.61214
24.76299
20.60074
15.85858
10.4027
4.329414
-2.014893
-8.154709
-13.70028
-18.54747
-22.94225
-27.40004
-32.48383
-38.5643
-45.65285
-53.42664
-61.34164
-68.86658
-75.65027
-81.64473
-87.14629
-92.74672
-99.20341
-107.2192
-117.0863
-128.3544
-139.614
-148.58
-152.537
-149.1148
-137.1041
-116.9613
-90.84114
-62.01131
-33.93846
-9.38945
10.16483
24.58157
34.69775
41.78224
47.01074
51.19878
54.78081
57.91972
60.68103
63.13376
65.32504
67.23148
68.72953
69.6421
69.8745
69.51826
68.84981
68.2312
67.89856
67.83542
67.74032
67.17834
65.75508
63.30076
59.89716
55.79488
51.31004
46.7181
42.21019
37.88036
33.75791
29.7766
25.79672
21.60886
16.98355
11.78013
6.010506
-0.1272125
-6.274727
-12.03666
-17.14581
-21.56707
-25.57247
-29.65901
-34.35242
-40.0347
-46.78122
-54.3303
-62.16565
-69.6991
-76.48846
-82.41179
-87.78049
-93.28986
-99.84203
-108.1891
-118.5275
-130.1695
-141.4032
-149.7281
-152.3939
-147.2344
-133.3892
-111.7387
-84.73763
-55.74757
-28.13048
-4.402977
14.19815
27.67059
36.85983
42.94811
47.00259
49.86134
52.08763
54.0521
56.00275
58.04416
60.12518
62.03898
63.52674
64.38634
64.5899
64.34122
64.00013
63.95945
64.45731
65.45279
66.61638
67.43463
67.3987
66.17357
63.70267
60.20444
56.10634
51.87398
47.89294
44.35541
41.21341
38.22229
35.04585
31.38732
27.10088
22.26445
17.10951
11.97581
7.132877
2.666948
-1.562637
-5.874744
-10.62723
-16.04553
-22.11493
-28.57301
-35.00479
-41.01563
-46.39631
-51.20978
-55.81618
-60.8056
-66.80955
-74.21225
-82.86857
-91.89581
-99.75309
-104.5371
-104.4538
-98.30592
-85.80174
-67.5897
-45.12089
-20.37328
4.466679
27.29231
46.38515
60.67657
69.91193
74.61153
75.82054
74.77124
72.54266
69.88747
67.25605
64.88164
62.90318
61.39492
60.39692
59.87795
59.73758
59.8405
60.06956
60.33935
60.54683
60.54273
60.07013
58.83462
56.62152
53.40994
49.41863
45.02063
40.59711
36.34873
32.20947
27.90828
23.15682
17.82275
12.03002
6.099285
0.3929367
-4.885891
-9.80125
-14.66125
-19.89028
-25.84454
-32.66132
-40.18355
-48.01246
-55.64977
-62.6738
-68.93069
-74.6617
-80.51109
-87.33629
-95.8979
-106.4377
-118.3186
-129.9051
-138.7518
-142.1543
-137.936
-125.1694
-104.6136
-78.59386
-50.40791
-23.40201
-0.1257515
18.17012
31.55428
40.99048
47.73867
52.83178
56.87359
60.07519
62.50818
64.2932
65.66602
66.88367
68.08337
69.22609
70.13235
70.63789
70.72467
70.56413
70.40022
70.39545
70.4754
70.33943
69.61127
68.00642
65.47844
62.20977
58.49808
54.59304
50.62456
46.57283
42.36919
37.9937
33.50871
29.03238
24.63191
20.26655
15.8004
11.04066
5.873699
0.3474579
-5.318573
-10.79457
-15.8211
-20.35072
-24.61852
-29.10141
-34.34026
-40.6956
-48.18151
-56.43089
-64.813
-72.7005
-79.71411
-85.92264
-91.81815
-98.2091
-105.9591
-115.6923
-127.4242
-140.2683
-152.2581
-160.5441
-162.0501
-154.4142
-136.9555
-111.0921
-80.08199
-48.04195
-18.71619
5.474697
23.78572
36.82898
45.9375
52.50739
57.62851
61.99838
65.99216
69.76878
73.31635
76.48577
79.01105
80.6011
81.04905
80.36815
78.84352
77.02245
75.54144
74.90543
75.24529
76.22391
77.17709
77.37434
76.32722
73.94316
70.49342
66.42343
62.1555
57.94452
53.87008
49.89172
45.88617
41.73273
37.3475
32.7204
27.94846
23.21313
18.7037
14.49954
10.4891
6.35693
1.745808
-3.550587
-9.445091
-15.55568
-21.37512
-26.52175
-30.97423
-35.10577
-39.53882
-44.86688
-51.36695
-58.85379
-66.75589
-74.37088
-81.14663
-86.90252
-91.91875
-96.87477
-102.6673
-110.1539
-119.7849
-131.2449
-143.1644
-153.1571
-158.2321
-155.621
-143.7029
-122.7226
-94.88608
-63.78732
-33.35706
-6.788288
14.16719
29.31455
39.58905
46.45632
51.3269
55.2625
58.88013
62.4167
65.84521
68.98262
71.57571
73.42017
74.4653
74.8407
74.82377
74.77931
75.02897
75.78088
77.04659
78.60821
80.06151
80.89223
80.65648
79.12217
76.38841
72.8633
69.11069
65.62061
62.63178
60.06309
57.60015
54.8671
51.63963
47.94518
44.03535
40.22343
36.69173
33.34694
29.8779
25.87786
21.10242
15.61624
9.766243
4.029846
-1.236221
-5.976181
-10.47027
-15.18984
-20.56672
-26.7624
-33.59547
-40.61871
-47.32936
-53.42691
-58.97602
-64.45854
-70.63756
-78.26176
-87.73647
-98.79353
-110.3291
-120.448
-126.7903
-127.0804
-119.7627
-104.5948
-82.83218
-57.01783
-30.33299
-5.771496
14.60987
29.96308
40.56408
47.36442
51.44933
53.71659
54.76615
54.98809
54.71352
54.28582
54.00937
54.08675
54.54477
55.25198
56.02815
56.73756
57.3586
57.97272
58.6927
59.53257
60.32661
60.76664
60.46966
59.14822
56.72159
53.37058
49.47475
45.4338
41.51726
37.76603
34.03258
30.10672
25.89895
21.49318
17.12454
13.02818
9.275429
5.711958
2.012587
-2.140837
-6.863739
-11.97062
-17.09549
-21.88408
-26.2247
-30.3675
-34.79366
-39.9716
-46.10018
-52.98271
-60.10596
-66.89948
-72.98932
-78.34048
-83.30066
-88.48246
-94.63565
-102.431
-112.1905
-123.5511
-135.1836
-144.7974
-149.5433
-146.8151
-135.1684
-114.9719
-88.45007
-59.08193
-30.57098
-5.865639
13.47265
27.29686
36.48852
42.40578
46.34587
49.26557
51.72827
53.98045
56.05758
57.88609
59.35149
60.3244
60.72557
60.55889
59.966
59.22014
58.67899
58.67397
59.377
60.66991
62.10973
63.05188
62.86073
61.17993
58.06691
53.99884
49.65174
45.62092
42.1768
39.19971
36.31789
33.11828
29.39202
25.19915
20.8335
16.67926
13.00465
9.860893
7.046406
4.214756
0.998951
-2.823162
-7.240269
-11.98785
-16.69818
-21.09944
-25.15147
-29.07717
-33.24886
-37.99298
-43.39561
-49.30238
-55.37778
-61.25292
-66.69116
-71.65375
-76.34285
-81.17668
-86.74057
-93.57439
-101.9236
-111.3918
-120.7286
-127.8952
-130.466
-126.3563
-114.5196
-95.40527
-70.91614
-43.92225
-17.4892
5.890869
24.77122
38.86147
48.73609
55.40086
59.8592
62.8646
64.87076
66.16071
66.98926
67.63259
68.38447
69.42178
70.75937
72.26106
73.74322
75.06049
76.17945
77.1507
78.00999
78.7178
79.08942
78.86077
77.74654
75.56953
72.30106
68.1133
63.34521
58.42272
53.74431
49.55966
45.88187
42.46989
38.91285
34.76612
29.74078
23.85636
17.47116
11.18349
5.590912
0.9941921
-2.774914
-6.349903
-10.58498
-16.18972
-23.4006
-31.82906
-40.61985
-48.80484
-55.72047
-61.30186
-66.11953
-71.16398
-77.55668
-86.187
-97.39142
-110.6057
-124.1863
-135.4492
-141.1999
-138.6011
-126.2061
-104.607
-76.40321
-45.4619
-15.73518
9.780968
29.59301
43.58569
52.53892
57.56074
59.76279
60.13857
59.56923
58.78326
58.28864
58.30296
58.77679
59.50668
60.24897
60.85291
61.31494
61.76812
62.43823
63.53418
65.11247
66.97051
68.66154
69.62431
69.37467
67.68243
64.62558
60.51138
55.72914
50.62677
45.46564
40.44958
35.72565
31.35375
27.2439
23.11018
18.5184
13.06372
6.551559
-0.8747559
-8.732834
-16.41759
-23.44223
-29.70551
-35.56516
-41.72942
-48.96053
-57.68718
-67.80437
-78.64133
-89.23195
-98.68726
-106.5626
-113.0537
-119.0162
-125.7932
-134.9534
-147.8755
-165.1455
-185.9222
-207.5445
-225.7304
-235.5601
-232.994
-216.3851
-187.2612
-149.9634
-110.2459
-73.49319
-43.29546
-20.9076
-5.618988
4.373856
11.07515
16.15011
20.74047
25.54709
30.92453
36.93336
43.37682
49.83421
55.78466
60.7539
64.52074
67.2101
69.30273
71.45511
74.24049
77.86893
82.01292
85.88516
88.49855
89.05701
87.23819
83.28413
77.86662
71.79935
65.77987
60.21858
55.23049
50.73878
46.59647
42.67116
38.87902
35.14046
31.3578
27.41428
23.21435
18.74962
14.11245
9.458069
4.873291
0.2713928
-4.651154
-10.3013
-17.00188
-24.77924
-33.31082
-41.99277
-50.18684
-57.46506
-63.78964
-69.50981
-75.28224
-81.95816
-90.35938
-100.9485
-113.4261
-126.3402
-137.0852
-142.3776
-139.2279
-126.014
-103.1881
-73.26016
-40.04173
-7.495972
21.28592
44.62659
62.22412
74.68884
83.02945
88.27539
91.31143
92.86694
93.52396
93.7543
93.89957
94.16248
94.57526
95.02567
95.31424
95.27802
94.90292
94.36978
93.97711
93.97449
94.33105
94.64337
94.23483
92.41193
88.77908
83.43365
76.95102
70.14621
63.76727
58.20096
53.37311
48.84531
44.04123
38.5116
32.12042
25.07498
17.82761
10.89218
4.620789
-0.9429321
-6.102875
-11.39926
-17.38599
-24.42075
-32.48181
-41.16699
-49.82132
-57.79443
-64.69659
-70.58215
-76.00497
-81.91467
-89.40381
-99.23874
-111.3928
-124.6329
-136.5035
-143.7895
-143.4163
-133.4893
-114.0477
-87.1655
-56.32642
-25.38364
2.516388
25.53128
43.18134
55.93134
64.64453
70.20602
73.3779
74.84586
75.25519
75.19858
75.15149
75.3364
75.7384
76.16568
76.40408
76.37228
76.16302
76.01553
76.18353
76.79321
77.71655
78.58368
78.87347
78.10922
76.01901
72.64499
68.27213
63.31308
58.13138
52.94724
47.83545
42.80994
37.89938
33.16684
28.65997
24.33435
20.00818
15.41196
10.29691
4.574036
-1.612396
-7.927368
-13.97708
-19.52307
-24.61401
-29.6329
-35.12363
-41.5625
-49.09641
-57.44882
-65.9841
-73.96652
-80.87973
-86.62756
-91.63568
-96.72095
-102.9157
-111.1526
-121.889
-134.679
-147.8682
-158.6472
-163.585
-159.6328
-145.181
-120.804
-89.25223
-54.66623
-21.34418
7.41449
29.93625
46.17007
57.13647
64.28293
68.9425
72.11954
74.49426
76.49472
78.37543
80.22681
81.9986
83.48917
84.46875
84.76593
84.38382
83.55927
82.68842
82.18414
82.2767
82.83749
83.33493
82.97202
80.97449
76.89804
70.87424
63.5809
56.04492
49.27917
43.90384
39.99042
37.07562
34.44119
31.40512
27.64163
23.24542
18.66922
14.46817
11.00937
8.316467
6.022064
3.558044
0.380127
-3.793182
-8.875366
-14.4725
-20.05051
-25.20374
-29.78375
-33.99542
-38.31999
-43.29919
-49.32162
-56.45322
-64.3933
-72.57124
-80.39146
-87.44817
-93.70108
-99.54211
-105.7255
-113.2128
-122.797
-134.5959
-147.5356
-159.1983
-166.1504
-164.9379
-153.3149
-131.2303
-101.0517
-66.87625
-33.24263
-3.780121
19.56471
36.56306
48.16522
55.75206
60.60399
63.67719
65.6566
67.06491
68.30679
69.62045
71.04239
72.4054
73.4413
73.92656
73.82869
73.34354
72.83316
72.68164
73.1022
74.03119
75.08934
75.68715
75.23792
73.39592
70.17119
65.93651
61.29381
56.83644
52.92542
49.58864
46.54372
43.37274
39.74895
35.59373
31.10416
26.6432
22.53362
18.90332
15.61809
12.33838
8.714264
4.560074
-0.04129028
-4.753708
-9.162186
-12.95905
-16.12886
-18.9744
-22.01219
-25.743
-30.45282
-36.08516
-42.25571
-48.40813
-54.01955
-58.81281
-62.882
-66.70349
-71.05977
-76.84207
-84.71922
-94.69972
-105.7608
-115.7353
-121.7164
-120.8405
-111.2775
-92.97844
-67.83296
-39.13672
-10.57666
14.76381
35.06651
49.85559
59.6044
65.22861
67.65723
67.69306
66.05296
63.45446
60.62213
58.18095
56.54561
55.80465
55.75671
56.05278
56.39714
56.68423
56.99059
57.45538
58.10646
58.74589
58.97379
58.3507
56.57584
53.64533
49.84599
45.61511
41.37101
37.33482
33.48757
29.63789
25.62725
21.41086
17.13593
13.01495
9.150578
5.457317
1.666088
-2.522869
-7.250816
-12.38644
-17.58039
-22.4658
-26.88532
-31.01555
-35.31846
-40.32562
-46.36159
-53.39758
-61.03385
-68.69337
-75.81815
-82.08787
-87.52815
-92.538
-97.84373
-104.3657
-112.9097
-123.7033
-135.9366
-147.5112
-155.3021
-156.0063
-147.2275
-128.4739
-101.4721
-69.73154
-37.45423
-8.323142
15.3609
32.91423
44.93115
52.66714
57.48848
60.52306
62.58111
64.20401
65.72099
67.28469
68.9269
70.52028
71.86239
72.71533
72.92215
72.48601
71.62
70.70591
70.15684
70.23744
70.89329
71.71941
72.06698
71.29868
69.06195
65.44414
60.94507
56.24455
51.89791
48.09869
44.62611
41.01297
36.80348
31.83639
26.31792
20.73999
15.6398
11.34227
7.812592
4.685829
1.442974
-2.369484
-6.926399
-12.10049
-17.54311
-22.87664
-27.90156
-32.70806
-37.64072
-43.12923
-49.47506
-56.66965
-64.38464
-72.1086
-79.34848
-85.84602
-91.66967
-97.20422
-103.0408
-109.9033
-118.4625
-129.0069
-141.0644
-153.0514
-162.3073
-165.6132
-160.205
-144.8116
-120.3036
-89.58625
-56.70742
-25.65914
0.7156448
21.14948
35.81287
45.71139
52.06327
55.97311
58.2978
59.74576
60.89408
62.17162
63.76922
65.62526
67.47623
69.00198
70.01571
70.51953
70.71689
70.84662
71.09989
71.45807
71.72819
71.56847
70.65067
68.76096
65.91887
62.37168
58.4921
54.66285
51.11649
47.85236
44.66341
41.25374
37.38435
33.01419
28.33657
23.6909
19.41059
15.67897
12.44014
9.431942
6.310915
2.814445
-1.103542
-5.259703
-9.34343
-13.10686
-16.51686
-19.79802
-23.31825
-27.40109
-32.12339
-37.28555
-42.48431
-47.2906
-51.45056
-55.00457
-58.27108
-61.76287
-66.11638
-71.94496
-79.57271
-88.70233
-98.08524
-105.4891
-108.1619
-103.6711
-90.8271
-70.28331
-44.36836
-16.3923
10.38164
33.48112
51.57638
64.2677
71.75601
74.54703
73.35736
69.12486
62.95569
55.9659
49.10979
43.08053
38.34985
35.25823
34.03928
34.7723
37.31681
41.27761
46.13069
51.37957
56.66498
61.72726
66.32973
70.13193
72.71168
73.69479
72.94533
70.63031
67.13634
62.83335
57.86293
52.08446
45.28735
37.47661
29.15098
21.28843
15.01882
11.14648
9.684944
9.762657
9.857201
8.369606
4.216446
-2.864273
-12.37358
-23.41412
-35.06913
-46.67386
-57.77256
-67.99436
-76.86585
-83.83681
-88.45619
-90.64241
-90.83871
-90.02251
-89.4593
-90.33652
-93.3681
-98.52299
-104.9434
-111.0796
-114.9837
-114.7353
-108.8723
-96.76088
-78.81615
-56.47926
-31.94638
-7.668549
14.20813
32.32802
46.30669
56.5762
63.97707
69.32545
73.14362
75.61983
76.81659
76.88165
76.15746
75.09669
74.09161
73.33965
72.79367
72.28584
71.62868
70.74007
69.66653
68.51584
67.39548
66.30672
65.12929
63.60005
61.38254
58.14252
53.69571
48.0925
41.6602
34.91818
28.45021
22.7505
18.07526
14.39633
11.41759
8.669357
5.678116
2.115799
-2.072418
-6.715881
-11.5592
-16.51579
-21.81786
-27.99576
-35.64735
-45.10345
-56.16837
-68.0929
-79.79962
-90.23981
-98.71915
-105.1041
-109.8055
-113.679
-117.8122
-123.223
-130.4821
-139.2362
-147.8898
-153.647
-153.1101
-143.3222
-122.8916
-92.72305
-55.95169
-17.10861
19.19086
49.49759
72.18875
87.42429
96.52695
101.2222
103.0787
103.3141
102.8801
102.6087
103.2306
105.2207
108.6689
113.2189
118.1871
122.825
126.5787
129.2057
130.7608
131.403
131.2019
130.0418
127.6035
123.5116
117.5229
109.7052
100.4803
90.55325
80.729
71.66119
63.73514
57.02954
51.39453
46.58755
42.35248
38.39996
34.34335
29.64819
23.60699
15.39487
4.084351
-11.29327
-31.64597
-57.58398
-89.10199
-125.2273
-163.8452
-201.8937
-235.8936
-262.823
-280.9126
-290.1675
-292.3524
-290.417
-287.6889
-287.0544
-290.3254
-297.821
-308.1542
-318.3083
-324.1636
-321.4812
-307.2345
-280.771
-244.2893
-202.3077
-160.2334
-122.6526
-92.0997
-68.7771
-51.20352
-37.27756
-25.19867
-13.84128
-2.689056
8.468658
19.73077
31.09433
42.39548
53.2847
63.33615
72.21036
79.83493
86.4597
92.54182
98.54288
104.6859
110.8131
116.3635
120.5056
122.4478
121.7694
118.6095
113.6621
107.9189
102.2872
97.22053
92.60745
87.89326
82.47386
76.05917
68.86752
61.51957
54.69074
48.71941
43.3626
37.91132
31.502
23.57798
14.17844
3.908272
-6.307259
-15.66209
-23.80379
-30.98631
-37.99113
-45.92328
-55.87158
-68.48662
-83.47108
-99.2412
-112.9289
-120.9441
-120.02
-108.3579
-86.41537
-56.89397
-23.91972
8.192841
36.1236
58.1655
74.17773
85.02667
91.93097
95.98523
98.00537
98.62686
98.41571
97.94162
97.67517
97.86307
98.45901
99.14795
99.52744
99.34958
98.65665
97.7822
97.14481
96.96518
97.09698
96.97006
95.81137
92.94904
88.09741
81.51318
73.92667
66.30435
59.49686
53.91177
49.39017
45.28656
40.77716
35.24271
28.5755
21.20804
13.92627
7.465912
2.144348
-2.329956
-6.713776
-11.8837
-18.4321
-26.37643
-35.19046
-44.04486
-52.1767
-59.2067
-65.28891
-71.04254
-77.41455
-85.44174
-95.90927
-108.9232
-123.462
-137.181
-146.6964
-148.4456
-139.8795
-120.5039
-92.24512
-58.9411
-25.1723
5.108582
29.51758
47.46997
59.77783
67.93939
73.45428
77.47656
80.72925
83.56812
86.12244
88.38232
90.24274
91.55823
92.17456
91.98138
90.98547
89.3894
87.58398
86.06171
85.24878
85.27704
85.86151
86.3595
85.97968
84.11176
80.57465
75.70471
70.22461
64.91534
60.27655
56.32825
52.63013
48.56488
43.69061
38.02252
32.03802
26.45398
21.85291
18.34576
15.52649
12.65161
9.016357
4.291687
-1.34198
-7.327423
-13.04819
-18.17752
-22.82538
-27.49152
-32.81403
-39.23795
-46.79907
-55.10123
-63.48456
-71.30814
-78.2002
-84.16327
-89.55258
-94.98502
-101.2303
-109.0781
-119.0321
-130.8696
-143.24
-153.5385
-158.3951
-154.665
-140.6452
-116.8779
-86.16885
-52.76019
-20.96786
5.995148
26.67786
41.23749
50.83313
56.88672
60.62137
62.91238
64.37894
65.48325
66.56058
67.78491
69.1091
70.29532
71.02512
71.06665
70.40573
69.28659
68.14825
67.44656
67.43979
68.03699
68.79156
69.06506
68.24582
66.01746
62.49023
58.16058
53.73807
49.84109
46.76352
44.37488
42.21988
39.7417
36.55054
32.61276
28.25958
24.05484
20.5043
17.8136
15.75162
13.76355
11.2457
7.825867
3.582062
-1.022858
-5.382507
-9.073303
-12.05838
-14.73059
-17.70233
-21.50937
-26.37927
-32.10651
-38.19708
-44.06232
-49.26755
-53.69025
-57.57635
-61.48856
-66.16803
-72.3934
-80.64761
-90.74704
-101.5078
-110.6842
-115.324
-112.6455
-101.0319
-80.78036
-54.20911
-24.98486
2.985168
26.69614
44.65842
56.83536
64.16599
67.85303
68.92618
68.1178
66.01514
63.19266
60.28271
57.86008
56.28342
55.58151
55.47565
55.56653
55.53696
55.31958
55.06256
54.98425
55.16666
55.42792
55.35498
54.46555
52.46704
49.37613
45.52493
41.35614
37.24692
33.35413
29.6311
25.93921
22.17169
18.36893
14.65533
11.14973
7.86142
4.654282
1.287323
-2.469818
-6.703079
-11.29659
-15.95607
-20.36565
-24.36046
-28.02774
-31.72273
-35.93065
-41.08228
-47.32164
-54.43344
-61.88782
-69.05211
-75.41103
-80.75891
-85.28244
-89.53006
-94.32216
-100.5748
-108.9995
-119.6351
-131.4204
-142.0269
-148.2511
-146.9222
-136.0643
-115.7787
-88.39142
-57.74945
-27.95834
-2.177307
18.06744
32.7944
42.97313
49.84003
54.44994
57.55548
59.73076
61.46556
63.14546
64.94412
66.77571
68.30833
69.14485
69.02719
67.98478
66.34464
64.62849
63.33931
62.80328
63.02785
63.70512
64.28492
64.16003
62.85923
60.19627
56.33922
51.7466
46.98936
42.56234
38.69041
35.29805
32.06187
28.60281
24.68415
20.33129
15.81807
11.52972
7.749268
4.499245
1.523178
-1.613609
-5.305599
-9.696724
-14.62193
-19.69296
-24.50351
-28.8595
-32.90294
-37.04843
-41.79121
-47.457
-54.0373
-61.15032
-68.17901
-74.54536
-79.9382
-84.49113
-88.75838
-93.58534
-99.89919
-108.3841
-119.1193
-131.1886
-142.5263
-150.1333
-150.8209
-142.2421
-123.8694
-97.40456
-66.36487
-34.99142
-6.958477
15.50514
31.86335
42.81473
49.6305
53.58033
55.67866
56.71014
57.29103
57.88747
58.74471
59.86028
60.99923
61.83397
62.10163
61.69624
60.75212
59.56228
58.51092
57.90532
57.86069
58.20064
58.4886
58.17737
56.82451
54.29855
50.8131
46.87294
43.03909
39.71477
36.98734
34.61875
32.17813
29.22706
25.55195
21.25035
16.73096
12.52668
9.043182
6.355932
4.115578
1.700178
-1.521341
-5.855221
-11.15409
-16.83664
-22.18565
-26.70081
-30.35777
-33.61275
-37.17078
-41.64586
-47.22124
-53.57373
-60.04081
-65.93922
-70.87611
-74.92454
-78.58915
-82.61485
-87.81556
-94.85479
-104.0235
-114.8998
-126.0831
-135.1308
-138.9974
-134.9391
-121.5381
-99.41394
-71.20309
-40.76794
-11.99191
12.31207
30.90896
43.99102
52.5265
57.66861
60.33588
61.20294
60.83479
59.82855
58.8049
58.25125
58.42853
59.27685
60.52139
61.79311
62.84856
63.67216
64.47169
65.52306
66.94808
68.57719
69.92326
70.363
69.35739
66.70898
62.62955
57.67855
52.54018
47.80426
43.76858
40.38969
37.37454
34.31943
30.85628
26.75339
21.97475
16.68871
11.2129
5.937454
1.188118
-2.925728
-6.586693
-10.27827
-14.59189
-19.98737
-26.55343
-33.93104
-41.45497
-48.45471
-54.54756
-59.83348
-64.84689
-70.39259
-77.30825
-86.16756
-96.98489
-108.9034
-120.0797
-127.8996
-129.5757
-123.0353
-107.7493
-85.09367
-58.01161
-30.13346
-4.695183
16.19573
31.78029
42.32487
48.58557
51.41125
51.5852
49.89288
47.17921
44.30697
42.00346
40.68832
40.38626
40.78234
41.43559
42.0349
42.5719
43.32296
44.70213
46.98528
50.12691
53.69899
57.04702
59.49094
60.55173
60.03573
57.97921
54.61856
50.26145
45.29156
40.11549
35.1089
30.51604
26.34685
22.37474
18.29137
13.89017
9.235062
4.666534
0.6136093
-2.620415
-5.12352
-7.416489
-10.35106
-14.82497
-21.44352
-30.24107
-40.57738
-51.34043
-61.29517
-69.4999
-75.5808
-79.7938
-82.91806
-85.9836
-90.02668
-95.74693
-103.1157
-111.1013
-117.59
-119.7958
-115.0859
-102.0134
-81.05636
-54.6382
-26.41425
-0.07021332
21.76483
38.02271
49.02045
55.81964
59.56503
61.14505
61.18338
60.23245
58.89684
57.79871
57.3922
57.77032
58.67039
59.6331
60.28448
60.55899
60.7411
61.26137
62.43695
64.23744
66.25659
67.86485
68.46869
67.7162
65.56175
62.20807
57.96556
53.15471
48.02249
42.78342
37.60292
32.60793
27.88736
23.4772
19.3744
15.54993
11.92682
8.396332
4.863785
1.331116
-2.061508
-5.031754
-7.280258
-8.665771
-9.377975
-9.973801
-11.23583
-13.92426
-18.46558
-24.82487
-32.54186
-40.91998
-49.26247
-57.0816
-64.16569
-70.62482
-76.88895
-83.59212
-91.31399
-100.1149
-109.1433
-116.398
-119.1736
-114.8849
-102.1622
-81.59492
-55.73933
-28.34334
-3.118843
17.35778
32.13985
41.68366
47.18959
49.88924
50.64196
49.94286
48.16439
45.8012
43.51527
41.99811
41.70429
42.71156
44.69011
47.1236
49.58804
51.90582
54.14892
56.46496
58.82854
60.91702
62.18395
62.07813
60.30207
56.99606
52.69149
48.09399
43.80498
40.1127
36.94187
33.97731
30.82545
27.18717
22.92171
18.04213
12.66181
6.991936
1.314354
-4.021072
-8.621696
-12.21978
-14.78447
-16.64363
-18.45939
-21.03271
-25.01298
-30.63926
-37.62262
-45.22366
-52.52507
-58.71251
-63.34893
-66.4988
-68.6933
-70.83736
-74.03877
-79.32122
-87.19688
-97.26389
-107.8834
-116.3378
-119.4885
-114.7716
-101.1772
-79.73243
-53.23615
-25.36666
0.4331837
21.86193
38.05656
49.38748
56.9073
61.80123
65.02087
67.20503
68.7075
69.72453
70.36192
70.67248
70.66622
70.32573
69.62198
68.59359
67.39868
66.29175
65.56781
65.43187
65.83722
66.41477
66.54044
65.4877
62.73704
58.21532
52.35741
46.00061
40.07637
35.21021
31.47221
28.37054
25.06697
20.79756
15.2252
8.581772
1.527193
-5.167137
-11.00704
-15.96028
-20.40907
-24.94683
-30.02889
-35.75379
-41.82698
-47.68383
-52.69548
-56.39703
-58.66307
-59.88163
-60.95154
-63.29374
-68.64309
-78.68975
-94.51994
-115.9715
-141.1507
-166.485
-187.5037
-200.0956
-201.7867
-192.4596
-174.2138
-150.4431
-124.6792
-99.66502
-76.98195
-57.21558
-40.31962
-25.94489
-13.56876
-2.524908
7.961349
18.50933
29.35793
40.27718
50.68002
59.92426
67.58522
73.63158
78.39602
82.38376
86.08604
89.77819
93.42026
96.72623
99.28545
100.6696
100.5656
98.82852
95.52129
90.87816
85.29224
79.19739
72.95854
66.79066
60.74848
54.78964
48.8513
42.91489
36.95929
30.93145
24.75939
18.351
11.72535
5.029907
-1.476044
-7.533646
-13.03012
-18.09945
-23.09469
-28.4623
-34.50968
-41.24922
-48.36635
-55.33234
-61.65145
-67.102
-71.85242
-76.46919
-81.80108
-88.76128
-98.0145
-109.6167
-122.6324
-134.9774
-143.6355
-145.4106
-137.9523
-120.7001
-95.28883
-65.08221
-34.12352
-5.930725
17.33044
34.99539
47.51286
55.84966
61.03703
63.9995
65.54271
66.37202
67.05116
67.88454
68.91316
69.97131
70.8217
71.30249
71.41304
71.29056
71.16341
71.26102
71.68781
72.35863
72.97375
73.1144
72.37434
70.52562
67.59552
63.81451
59.51981
55.00168
50.45306
45.97191
41.59872
37.3493
33.21852
29.15508
25.06255
20.87749
16.56972
12.20361
7.911728
3.819977
-1.525879e-05
-3.579117
-7.048737
-10.62949
-14.55605
-19.01753
-24.0798
-29.63118
-35.42729
-41.15175
-46.52405
-51.38828
-55.79836
-60.00444
-64.46747
-69.76602
-76.46408
-84.84096
-94.53221
-104.2628
-111.8788
-114.7583
-110.605
-98.31624
-78.50214
-53.42032
-26.32109
-0.4632111
21.72588
39.03868
51.40533
59.4532
64.02812
65.90417
65.73607
64.14812
61.79657
59.36151
57.41188
56.29594
56.08961
56.5941
57.48593
58.46945
59.36087
60.15031
60.93663
61.76503
62.50562
62.81819
62.21825
60.30446
56.92714
52.33272
47.0777
41.82623
37.06418
32.89102
29.03308
25.00575
20.41634
15.15001
9.432877
3.709946
-1.569595
-6.160477
-10.10504
-13.7229
-17.51056
-21.9214
-27.23438
-33.42346
-40.15121
-46.87781
-53.05687
-58.33986
-62.7531
-66.76501
-71.19125
-76.99316
-84.89566
-94.93512
-106.1046
-116.2516
-122.4815
-121.9263
-112.7574
-94.92802
-70.35564
-42.36845
-14.6732
9.68364
28.97592
42.85231
51.95935
57.35191
60.07533
60.96664
60.69795
59.86693
58.99237
58.45622
58.4068
58.74747
59.19482
59.45061
59.35516
58.96616
58.52438
58.30571
58.47781
58.9534
59.40485
59.36676
58.40485
56.2814
53.02332
48.88786
44.26797
39.56996
35.10403
31.03256
27.35536
23.95708
20.6225
17.12
13.2442
8.866074
3.999161
-1.190727
-6.425407
-11.38435
-15.81716
-19.67651
-23.14951
-26.66566
-30.72727
-35.71633
-41.70177
-48.38332
-55.21404
-61.62434
-67.26966
-72.1842
-76.76691
-81.69165
-87.74918
-95.6413
-105.683
-117.4304
-129.3548
-138.8933
-142.9229
-138.7227
-125.0044
-102.5665
-74.19771
-43.81278
-15.23251
8.854935
27.33741
40.44328
49.14498
54.60676
57.85435
59.73618
60.98048
62.16925
63.65959
65.46055
67.27676
68.65258
69.20958
68.83631
67.74226
66.37071
65.18893
64.5275
64.43304
64.67896
64.83727
64.41434
63.02579
60.537
57.12605
53.20557
49.25897
45.60155
42.29636
39.13287
35.78443
32.03315
27.89037
23.60461
19.52098
15.88614
12.69494
9.693825
6.505119
2.780899
-1.600502
-6.508282
-11.60841
-16.51138
-20.95769
-24.96169
-28.83139
-33.0422
-38.04749
-44.03067
-50.82487
-57.98702
-64.96575
-71.34181
-76.9761
-82.05497
-87.05132
-92.66631
-99.67421
-108.6348
-119.4334
-130.888
-140.5938
-145.396
-142.3233
-129.7643
-108.224
-80.3072
-49.89729
-20.90682
3.795975
22.87792
36.38506
45.17826
50.39808
53.13832
54.34966
54.83785
55.26796
56.05448
57.29192
58.7782
60.15342
61.05789
61.32319
61.01947
60.42714
59.95432
59.92412
60.46883
61.39735
62.27287
62.54148
61.76549
59.79481
56.80153
53.20649
49.46533
45.9071
42.63
39.54442
36.47473
33.28976
30.00354
26.72755
23.60563
20.67345
17.84322
14.90115
11.63104
7.938107
3.931931
-0.09755707
-3.836769
-7.105831
-9.996555
-12.8382
-16.07196
-20.05533
-24.89825
-30.42906
-36.27631
-42.03793
-47.39766
-52.23796
-56.65254
-60.95778
-65.69036
-71.54192
-79.11366
-88.53854
-99.04626
-108.7545
-114.9626
-114.9024
-106.7179
-90.24574
-67.18553
-40.61599
-14.00829
9.730471
28.86459
42.8728
52.12314
57.40205
59.5756
59.46803
57.86298
55.54085
53.20728
51.40314
50.39573
50.19982
50.60534
51.33931
52.17138
52.98433
53.75646
54.52305
55.28851
55.97143
56.39088
56.26017
55.26023
53.14752
49.85358
45.55771
40.65932
35.67468
31.05205
27.03634
23.59642
20.47933
17.33277
13.82965
9.795199
5.211223
0.2399263
-4.847801
-9.744085
-14.19982
-18.14458
-21.74496
-25.38288
-29.53431
-34.58788
-40.68673
-47.62172
-54.91361
-61.92271
-68.0928
-73.16164
-77.30443
-81.16335
-85.74098
-92.11592
-101.0402
-112.4567
-125.1375
-136.6556
-143.8277
-143.5812
-133.9878
-115.0134
-88.65944
-58.40351
-28.18513
-1.31543
20.22684
35.91808
46.36009
52.70949
56.21945
57.97108
58.81491
59.39692
60.14825
61.2795
62.73386
64.26878
65.52726
66.22529
66.27349
65.82748
65.24599
64.91062
65.07156
65.69067
66.44057
66.79037
66.24738
64.53096
61.68635
58.04242
54.01443
49.91987
45.85794
41.76311
37.52454
33.14643
28.78231
24.6562
20.91048
17.47852
14.09588
10.41898
6.208652
1.461174
-3.59093
-8.597955
-13.27229
-17.56175
-21.69316
-26.08099
-31.17215
-37.22878
-44.19457
-51.6933
-59.17125
-66.0966
-72.16814
-77.43969
-82.30422
-87.4422
-93.68484
-101.7826
-112.0903
-124.1406
-136.342
-146.0537
-150.1174
-145.811
-131.8927
-109.2103
-80.56544
-49.87871
-21.00851
3.278937
21.74775
34.56964
42.80394
47.74769
50.5704
52.13697
53.04846
53.71165
54.40552
55.2627
56.29209
57.37418
58.32671
58.98583
59.32705
59.47301
59.6689
60.17336
61.09737
62.29403
63.37179
63.83447
63.30538
61.67563
59.11211
55.95708
52.54659
49.06519
45.54939
41.94741
38.22397
34.42711
30.6536
26.94703
23.25006
19.41648
15.28399
10.82411
6.190842
1.669029
-2.460167
-6.080486
-9.355858
-12.65553
-16.42836
-21.03399
-26.52972
-32.66602
-38.93956
-44.77106
-49.73872
-53.74605
-57.09883
-60.44555
-64.64805
-70.51107
-78.48335
-88.29148
-98.71059
-107.5817
-112.2414
-110.2415
-100.178
-82.29352
-58.52079
-31.93978
-5.887993
16.96477
35.10992
48.24847
56.9034
61.92754
64.15892
64.29928
62.96394
60.77141
58.35022
56.23964
54.82116
54.22254
54.3493
54.94789
55.72849
56.46455
57.0758
57.62333
58.22208
58.90589
59.48554
59.54303
58.56093
56.16051
52.323
47.45017
42.22674
37.35559
33.23692
29.85988
26.82623
23.57926
19.63994
14.77985
9.104027
2.975739
-3.078697
-8.579071
-13.27425
-17.25425
-20.94267
-24.95205
-29.82069
-35.77677
-42.63687
-49.90064
-56.95222
-63.34202
-68.94595
-73.99755
-79.05664
-84.89087
-92.3163
-101.9008
-113.5211
-126.0025
-136.9763
-143.3098
-141.97
-131.1272
-110.9741
-83.83438
-53.46702
-23.92706
1.616753
21.52998
35.72448
45.15656
51.14812
54.89763
57.24549
58.71658
59.64439
60.30772
60.93615
61.67028
62.55398
63.45934
64.18544
64.56266
64.57384
64.39631
64.33261
64.65481
65.41585
66.35766
66.96419
66.6428
64.95454
61.76666
57.31447
52.08739
46.66796
41.5202
36.89365
32.75806
28.90374
25.03211
20.88843
16.33575
11.40639
6.246307
1.076385
-3.876175
-8.45874
-12.6423
-16.58529
-20.64904
-25.30576
-30.97533
-37.81148
-45.57823
-53.69815
-61.45974
-68.31024
-74.10576
-79.16516
-84.19554
-90.09669
-97.73701
-107.6117
-119.5321
-132.2618
-143.4543
-149.983
-148.7856
-137.9498
-117.5742
-89.96087
-58.964
-28.77325
-2.68399
17.66082
32.23869
42.09035
48.55858
52.77319
55.49179
57.2189
58.38542
59.38448
60.51207
61.8597
63.2903
64.51863
65.29652
65.57214
65.494
65.35043
65.39471
65.73022
66.23076
66.59457
66.45262
65.50082
63.60022
60.81331
57.35815
53.53217
49.61142
45.77377
42.09253
38.56218
35.13991
31.7735
28.39078
24.87148
21.05205
16.76204
11.93214
6.654404
1.202103
-4.090042
-8.979935
-13.44722
-17.7225
-22.16991
-27.09464
-32.57903
-38.40901
-44.1599
-49.3708
-53.74448
-57.29135
-60.35738
-63.55872
-67.65273
-73.33249
-80.94502
-90.12582
-99.56985
-107.0752
-109.9958
-106.04
-94.10191
-74.77075
-50.26851
-23.78229
1.479828
23.11038
39.92514
51.85751
59.53781
63.81288
65.45546
65.11261
63.3904
60.94199
58.45602
56.56645
55.67357
55.86559
56.88348
58.26918
59.57185
60.52481
61.12485
61.55504
62.00044
62.48759
62.78065
62.44655
61.04976
58.33395
54.38161
49.59747
44.57707
39.9048
35.91008
32.56439
29.49579
26.12566
21.92015
16.58693
10.24342
3.399673
-3.220978
-8.973953
-13.57027
-17.23456
-20.59229
-24.43105
-29.37227
-35.60576
-42.85065
-50.49567
-57.8485
-64.40889
-70.02646
-74.94678
-79.79852
-85.4256
-92.70377
-102.1488
-113.4791
-125.2844
-135.0568
-139.7234
-136.5665
-124.2251
-103.3135
-76.34192
-46.97705
-18.94618
4.993927
23.5531
36.84436
45.85545
51.83319
55.85577
58.66997
60.74155
62.38969
63.84323
65.22763
66.57014
67.77374
68.67923
69.16805
69.25008
69.09364
68.96791
69.11266
69.62482
70.373
71.01096
71.08682
70.24074
68.32172
65.49319
62.17337
58.85565
55.89771
53.36034
51.01006
48.47549
45.45924
41.84846
37.7209
33.20137
28.31029
22.93788
16.90665
10.1114
2.64415
-5.16951
-12.89363
-20.13806
-26.70079
-32.6306
-38.18851
-43.73828
-49.59694
-55.88025
-62.44682
-68.91437
-74.78296
-79.63062
-83.34724
-86.20287
-88.86223
-92.22368
-97.24358
-104.6058
-114.3711
-125.6159
-136.2957
-143.4987
-144.1554
-136.0534
-118.685
-93.63188
-64.13214
-34.12277
-7.04895
14.95662
31.3116
42.65508
50.20947
55.2097
58.57506
60.8954
62.53004
63.75208
64.76427
65.68996
66.51424
67.08968
67.23647
66.8754
66.12462
65.28503
64.72061
64.67261
65.09579
65.62836
65.71883
64.85194
62.7314
59.427
55.29453
50.83774
46.5058
42.54926
38.98653
35.632
32.23549
28.62256
24.79666
20.93958
17.3051
14.08051
11.24905
8.576935
5.719467
2.395218
-1.459305
-5.64975
-9.843552
-13.76643
-17.38351
-20.96297
-24.94919
-29.7421
-35.46814
-41.92058
-48.64182
-55.11925
-60.98508
-66.1059
-70.61613
-74.84801
-79.30152
-84.53105
-91.01583
-98.8156
-107.2301
-114.6233
-118.6353
-116.8192
-107.5261
-90.61102
-67.64561
-41.48755
-15.41698
7.782181
26.39818
39.92026
48.78059
53.90598
56.34296
57.0284
56.71217
55.97379
55.26878
54.93553
55.20273
56.12984
57.57275
59.23779
60.78023
61.96167
62.75809
63.34161
63.95067
64.69052
65.38693
65.6114
64.8382
62.66824
59.01076
54.12796
48.53552
42.827
37.45291
32.60312
28.15215
23.74744
18.98405
13.57724
7.524765
1.098953
-5.25473
-11.12627
-16.3617
-21.15972
-25.97204
-31.24428
-37.12769
-43.33778
-49.2545
-54.19583
-57.73009
-59.88554
-61.15429
-62.36158
-64.49122
-68.48882
-75.07425
-84.4208
-95.79683
-107.3615
-116.3203
-119.5885
-114.7755
-101.1119
-79.86486
-54.00273
-27.23923
-2.903076
16.89158
31.51315
41.48022
47.8768
51.79449
54.04749
55.19154
55.66475
55.93044
56.4622
57.65734
59.69406
62.48016
65.7029
68.9671
71.95332
74.50507
76.61188
78.32052
79.65038
80.51317
80.7199
80.02525
78.23475
75.29724
71.33131
66.61759
61.51951
56.36469
51.33604
46.44125
41.52104
36.33372
30.67797
24.45078
17.68691
10.55179
3.286324
-3.845161
-10.59394
-16.77943
-22.38027
-27.55396
-32.64415
-38.06565
-44.11597
-50.83788
-57.99282
-65.12161
-71.757
-77.61971
-82.72612
-87.37609
-92.07257
-97.43809
-104.0844
-112.4068
-122.196
-132.335
-140.6864
-144.4733
-141.1058
-129.1416
-108.9932
-82.94144
-54.45973
-27.10074
-3.53613
14.96816
28.4579
37.79034
44.07938
48.33078
51.31938
53.59652
55.58181
57.51842
59.4674
61.30328
62.76085
63.57414
63.61409
63.00122
62.06259
61.24774
60.92039
61.22482
62.02126
62.89304
63.28244
62.68408
60.82475
57.75711
53.85099
49.64523
45.6236
42.04095
38.83546
35.72668
32.39585
28.68171
24.65556
20.57588
16.68938
13.0569
9.523519
5.772579
1.543188
-3.231255
-8.364065
-13.50381
-18.31459
-22.6391
-26.6073
-30.57103
-34.99398
-40.22738
-46.38541
-53.27115
-60.46456
-67.45566
-73.85017
-79.50201
-84.57253
-89.55931
-95.20094
-102.2874
-111.284
-121.9266
-132.8618
-141.706
-145.535
-141.7738
-129.166
-108.3259
-81.67372
-52.71547
-24.9716
-1.057922
17.76605
31.49592
40.92477
47.12171
51.08096
53.5803
55.19155
56.34051
57.34798
58.43912
59.71712
61.14783
62.56239
63.74905
64.53197
64.89745
65.00179
65.09657
65.35821
65.78752
66.1136
65.93033
64.89217
62.87694
60.04384
56.744
53.32336
49.95589
46.61052
43.09776
39.28031
35.18749
31.03528
27.10858
23.61046
20.52707
17.61832
14.54068
11.009
6.946054
2.522944
-1.906806
-5.977313
-9.476693
-12.47561
-15.28126
-18.33624
-21.99015
-26.3604
-31.27064
-36.34917
-41.19422
-45.57735
-49.57919
-53.56989
-58.16168
-64.06679
-71.8299
-81.49663
-92.25064
-102.2434
-108.8728
-109.4513
-102.1367
-86.71889
-64.82491
-39.44387
-13.99503
8.697133
26.99511
40.48236
49.59787
55.09346
57.6915
57.98944
56.56023
54.04927
51.18351
48.62774
46.85274
46.01354
45.96491
46.40704
47.06036
47.80228
48.64813
49.68119
50.90725
52.14981
53.09816
53.37725
52.68304
50.89156
48.05557
44.38042
40.17802
35.78812
31.54171
27.682
24.25536
21.10349
17.89451
14.23268
9.860008
4.810905
-0.5506363
-5.652428
-9.962837
-13.25353
-15.72284
-17.93547
-20.5693
-24.1293
-28.73547
-34.11308
-39.72058
-44.97113
-49.47565
-53.16212
-56.31709
-59.56656
-63.73216
-69.62553
-77.69702
-87.61272
-97.9754
-106.3662
-109.8581
-105.9086
-93.25957
-72.489
-45.95618
-17.10635
10.53344
34.27407
52.74628
65.86729
74.41713
79.54142
82.37211
83.85365
84.70476
85.42636
86.31129
87.43433
88.69794
89.90194
90.83799
91.41309
91.6535
91.68675
91.65683
91.6485
91.64958
91.53029
91.07263
89.9969
88.02141
84.92085
80.6098
75.19511
68.98254
62.40359
55.88904
49.75507
44.07076
38.66328
33.16168
27.17021
20.38983
12.73389
4.390015
-4.211899
-12.51773
-20.0321
-26.46338
-31.88669
-36.72141
-41.58545
-47.07278
-53.48999
-60.74506
-68.37335
-75.67657
-81.95544
-86.7168
-89.83362
-91.71097
-93.34537
-96.18704
-101.7349
-110.8238
-122.9216
-135.8379
-146.1691
-150.4169
-146.3322
-133.8287
-115.0316
-93.43039
-72.5799
-55.02969
-41.90427
-33.09897
-27.88705
-25.41992
-25.00037
-26.03482
-27.94199
-30.14307
-32.10895
-33.4852
-34.10117
-33.92508
-32.95633
-31.13522
-28.30051
-24.22772
-18.71655
-11.75336
-3.612
5.078613
13.43353
20.52905
25.69293
28.70642
29.86829
29.84872
29.36444
28.88705
28.4281
27.58521
25.78442
22.64093
18.18463
12.92938
7.676788
3.170441
-0.1954346
-2.541626
-4.377136
-6.352692
-8.950195
-12.31821
-16.27859
-20.49167
-24.6456
-28.65396
-32.70728
-37.24612
-42.90863
-50.39578
-60.26859
-72.58957
-86.51715
-100.0634
-110.2606
-113.8344
-108.2854
-92.84363
-68.95087
-39.90585
-9.859924
17.44556
39.60268
55.81073
66.5316
72.81004
75.72469
76.11523
74.6447
71.97702
68.8616
66.06688
64.20638
63.57597
64.09784
65.39493
66.99112
68.48509
69.65547
70.46791
70.94287
71.05598
70.64896
69.43922
67.13481
63.55939
58.76396
53.01945
46.72745
40.26613
33.89302
27.71591
21.7417
15.94812
10.32919
4.847748
-0.6354065
-6.381485
-12.70454
-19.80739
-27.65787
-35.93808
-44.15315
-51.85803
-58.83998
-65.24057
-71.5269
-78.407
-86.65817
-96.88417
-109.1282
-122.4638
-134.7709
-142.9759
-143.8397
-135.0723
-116.3127
-89.49829
-58.31322
-27.03523
0.7664337
23.09138
39.63346
51.26708
59.31152
64.90236
68.76231
71.28152
72.73607
73.44736
73.79692
74.12571
74.60119
75.16107
75.59219
75.66157
75.32442
74.78792
74.43117
74.62541
75.4603
76.61124
77.40812
77.06757
75.02504
71.18562
65.9584
60.06251
54.25719
49.00938
44.38535
40.05859
35.5292
30.36389
24.36195
17.63759
10.54762
3.579826
-2.782753
-8.250916
-12.85502
-16.99956
-21.39123
-26.80196
-33.73513
-42.16555
-51.46425
-60.65921
-68.8321
-75.5361
-81.02026
-86.14018
-92.07936
-99.98333
-110.5243
-123.504
-137.5583
-150.0888
-157.6978
-157.0822
-146.1501
-124.9222
-95.74793
-62.62415
-29.95841
-1.273338
21.52547
38.21156
49.66834
57.17786
61.93888
64.87401
66.68496
67.92822
69.02547
70.23186
71.58731
72.94206
74.05621
74.71227
74.81246
74.44953
73.86772
73.35126
73.0914
73.02072
72.81297
71.98026
70.07155
66.88652
62.56294
57.49609
52.16907
46.97034
42.0574
37.38917
32.84703
28.35962
23.97085
19.80268
15.9651
12.42738
9.001133
5.426949
1.516075
-2.717434
-7.04171
-11.13043
-14.77857
-18.05333
-21.32328
-25.08659
-29.73581
-35.34417
-41.6324
-48.10538
-54.23113
-59.68118
-64.38301
-68.56848
-72.71171
-77.48297
-83.6691
-91.90992
-102.2723
-113.7886
-124.252
-130.5095
-129.3553
-118.6519
-98.26254
-70.2673
-38.38137
-6.808052
20.95034
42.85319
58.41156
68.26228
73.5626
75.5148
75.12506
73.25321
70.65636
68.03224
65.94849
64.7469
64.45834
64.82052
65.40561
65.81091
65.85495
65.62395
65.38493
65.4044
65.7151
66.0013
65.66702
64.07933
60.83922
56.00423
50.11939
44.04005
38.59769
34.28458
31.01739
28.18286
24.89959
20.43941
14.57288
7.677464
0.5972061
-5.740765
-10.76169
-14.47876
-17.48755
-20.69876
-24.96275
-30.7226
-37.88965
-45.91159
-54.01974
-61.51339
-67.9476
-73.2803
-77.88803
-82.52023
-88.17487
-95.82706
-105.992
-118.2079
-130.6875
-140.4437
-144.0013
-138.5124
-122.8637
-98.19857
-67.65884
-35.4079
-5.370552
19.73764
38.83399
52.21165
60.98457
66.46565
69.7828
71.73823
72.85866
73.48677
73.81593
73.94652
73.893
73.62989
73.10439
72.32717
71.40264
70.52775
69.92043
69.70647
69.82593
69.98712
69.75638
68.69421
66.50319
63.13873
58.77397
53.74442
48.44374
43.2106
38.27988
33.75911
29.64037
25.82296
22.13706
18.37321
14.31374
9.785095
4.71077
-0.8503189
-6.668396
-12.39693
-17.68237
-22.33591
-26.45811
-30.46722
-34.98011
-40.54288
-47.37229
-55.21995
-63.44454
-71.29179
-78.22663
-84.15676
-89.43484
-94.74879
-100.96
-108.9182
-119.1825
-131.6302
-145.0128
-156.7904
-163.468
-161.5862
-148.9821
-125.8023
-94.714
-60.10638
-26.70264
1.878288
23.88197
39.37268
49.54024
55.89616
59.73299
61.99683
63.41298
64.58561
66.01289
67.97103
70.40808
72.96223
75.08196
76.31095
76.46721
75.76359
74.73071
74.0164
74.08357
74.96057
76.1848
76.95527
76.44974
74.17107
70.16492
64.98524
59.46879
54.37511
50.06902
46.44203
43.00141
39.1832
34.63403
29.4098
23.90353
18.64239
13.98338
9.929825
6.175262
2.239944
-2.239014
-7.32579
-12.76336
-18.13911
-23.1282
-27.68536
-32.0812
-36.79846
-42.31946
-48.88925
-56.40195
-64.42097
-72.31121
-79.47291
-85.58166
-90.69955
-95.32163
-100.296
-106.6613
-115.3343
-126.6449
-139.8072
-152.6206
-161.7159
-163.3937
-154.8896
-135.5041
-107.0666
-73.43056
-39.2532
-8.552704
16.2429
34.52891
47.03264
55.08186
59.97507
62.73318
64.10003
64.6816
64.97017
65.31345
65.88366
66.65096
67.46339
68.17763
68.72986
69.15546
69.57167
70.10303
70.81238
71.65036
72.41641
72.80676
72.48383
71.17987
68.77332
65.35503
61.20667
56.73401
52.35029
48.34165
44.80169
41.61099
38.48817
35.11871
31.26445
26.83477
21.91564
16.74137
11.60484
6.768764
2.390785
-1.548862
-5.22546
-8.973198
-13.19444
-18.22834
-24.22479
-31.03387
-38.24183
-45.29094
-51.68381
-57.18448
-61.93993
-66.4798
-71.64035
-78.36153
-87.3466
-98.60239
-111.0305
-122.2831
-129.1414
-128.4241
-118.0923
-98.15488
-70.82858
-39.91669
-9.576897
16.84874
37.56502
52.33373
61.9564
67.54581
70.08771
70.26367
68.62957
65.79048
62.5142
59.60179
57.68005
57.01234
57.41184
58.39983
59.44114
60.20014
60.64737
61.00686
61.54843
62.34315
63.14503
63.40764
62.48744
59.91202
55.60368
49.9243
43.59341
37.40319
31.97142
27.4937
23.73979
20.17924
16.24284
11.55879
6.100285
0.1684685
-5.768799
-11.2468
-15.9995
-20.05603
-23.7527
-27.61842
-32.215
-37.9041
-44.67687
-52.14359
-59.65814
-66.55386
-72.43875
-77.34715
-81.80022
-86.71806
-93.19379
-102.1461
-113.8455
-127.4533
-140.7806
-150.5443
-153.1803
-146.0118
-128.296
-101.6516
-69.62762
-36.56176
-6.297424
18.73078
37.68864
50.96978
59.53041
64.41724
66.57237
66.88293
66.22205
65.42087
65.1061
65.54039
66.6154
67.95611
69.11786
69.79858
69.93327
69.68669
69.36678
69.24907
69.42168
69.70884
69.69361
68.84687
66.78098
63.41579
59.03049
54.12436
49.17224
44.41253
39.84058
35.31454
30.74236
26.18384
21.77249
17.55367
13.39886
9.032944
4.247963
-0.9039764
-6.078026
-10.83204
-14.90434
-18.4526
-22.04932
-26.41803
-32.07834
-39.0604
-46.87914
-54.75644
-61.97994
-68.17085
-73.40488
-78.15237
-83.12279
-89.15569
-97.08549
-107.454
-120.0998
-133.6756
-145.4958
-151.9827
-149.7188
-136.7723
-113.6112
-83.15244
-49.82799
-18.11485
8.788935
29.53452
44.36265
54.35832
60.69735
64.27736
65.73352
65.6599
64.73875
63.65791
62.95275
62.85605
63.30866
64.05421
64.80707
65.36461
65.65235
65.71743
65.65538
65.5464
65.40601
65.13113
64.52448
63.31344
61.22501
58.09566
53.9467
49.01814
43.72039
38.51733
33.79494
29.69862
26.09324
22.61496
18.81533
14.371
9.223857
3.63807
-1.929409
-7.0322
-11.40067
-15.09862
-18.49125
-22.12671
-26.54916
-32.09098
-38.73213
-46.09534
-53.58361
-60.54655
-66.51589
-71.3863
-75.43317
-79.31003
-83.901
-90.13732
-98.6643
-109.4074
-121.1601
-131.4676
-137.0716
-134.8214
-122.8389
-101.3324
-72.70985
-40.84361
-9.844097
17.09444
38.31491
53.63157
63.79479
69.8448
72.73731
73.23732
72.04533
69.89891
67.56639
65.73535
64.83765
64.98034
65.92557
67.23673
68.46387
69.32857
69.81065
70.09821
70.42377
70.85188
71.14627
70.77084
69.1308
65.82682
60.91823
54.956
48.7823
43.19074
38.58269
34.8077
31.2521
27.19851
22.16697
16.18298
9.739082
3.542713
-1.838894
-6.275249
-10.11611
-14.03035
-18.70288
-24.53549
-31.48626
-39.0985
-46.70905
-53.69666
-59.72917
-64.87793
-69.59045
-74.6238
-80.87791
-89.16891
-99.84331
-112.3419
-124.8716
-134.5273
-137.9352
-132.326
-116.6076
-91.96764
-61.58691
-29.66421
-0.1317177
24.37653
42.84295
55.58256
63.57624
67.89713
69.45985
69.04022
67.38437
65.28603
63.46526
62.39556
62.19633
62.63847
63.27607
63.68423
63.65814
63.255
62.78361
62.59647
62.88359
63.51711
64.0253
63.70802
61.91396
58.31882
53.0912
46.88057
40.59971
35.04243
30.57568
26.988
23.60732
19.61941
14.47726
8.168404
1.24107
-5.444588
-11.15857
-15.62509
-19.20281
-22.74517
-27.18935
-33.12936
-40.5379
-48.80531
-57.00872
-64.3443
-70.39474
-75.26825
-79.48637
-83.86525
-89.37585
-96.94372
-107.0741
-119.3235
-131.9157
-141.775
-145.2609
-139.3723
-122.9617
-97.35451
-66.01649
-33.4162
-3.595863
20.85108
39.11225
51.74126
59.96753
65.05045
67.93831
69.27892
69.56361
69.24723
68.77045
68.51478
68.67664
69.2098
69.85476
70.26493
70.20006
69.6271
68.74873
67.86573
67.21148
66.78072
66.31229
65.38619
63.60954
60.75663
56.83089
52.03117
46.66851
41.08644
35.58514
30.38795
25.59058
21.16367
16.94388
12.68142
8.148537
3.216862
-2.049683
-7.426216
-12.60435
-17.33528
-21.6003
-25.64597
-29.95278
-35.0356
-41.21545
-48.42694
-56.20995
-63.86907
-70.75261
-76.53705
-81.35271
-85.76811
-90.62321
-96.84816
-105.1588
-115.7115
-127.731
-139.2823
-147.4593
-149.0562
-141.6114
-124.3757
-98.78099
-68.06866
-36.29518
-7.104462
17.13351
35.58886
48.6295
57.19867
62.32477
64.87104
65.54159
65.00876
63.94521
62.9744
62.55727
62.89032
63.88122
65.22588
66.5627
67.61359
68.30866
68.77923
69.25734
69.8933
70.61245
71.0478
70.67883
69.02288
65.86882
61.41912
56.24157
51.09106
46.59749
42.99134
40.0143
37.04065
33.38068
28.62038
22.85468
16.63978
10.77261
5.879379
2.108276
-0.9481049
-4.102425
-8.199013
-13.7336
-20.63856
-28.3391
-35.98512
-42.79325
-48.36623
-52.80183
-56.69262
-60.97961
-66.72445
-74.75112
-85.28407
-97.4789
-109.2676
-117.6482
-119.4387
-112.3714
-95.9758
-71.91542
-43.49029
-14.62508
11.31474
32.30485
47.78182
58.2683
64.71779
68.05874
68.98082
68.05325
65.87421
63.16567
60.64971
58.90255
58.1663
58.28556
58.81426
59.23994
59.19659
58.63989
57.82754
57.13319
56.8134
56.81519
56.70766
55.86987
53.755
50.14924
45.31091
39.86964
34.57143
29.94602
26.07098
22.53223
18.6553
13.86109
7.964329
1.296249
-5.410931
-11.38162
-16.15166
-19.79384
-22.93291
-26.45172
-31.119
-37.25129
-44.57099
-52.34245
-59.6931
-65.95555
-70.94038
-75.01878
-79.00648
-83.95621
-90.8606
-100.2989
-112.037
-124.71
-135.7961
-142.0434
-140.3835
-128.9704
-108.0266
-79.93788
-48.55522
-17.99628
8.533277
29.41613
44.57672
54.9171
61.63874
65.7674
68.02733
68.97453
69.12953
68.99625
68.96538
69.21492
69.65703
70.03895
70.07478
69.63254
68.77567
67.72253
66.71886
65.89495
65.2034
64.39337
63.1079
61.02565
57.95096
53.88863
49.03034
43.71577
38.35348
33.3121
28.8103
24.8338
21.12657
17.29883
12.9797
7.99036
2.423981
-3.389515
-9.020844
-14.11763
-18.56207
-22.54002
-26.45635
-30.80394
-35.98177
-42.14451
-49.1498
-56.60237
-63.95421
-70.69539
-76.51073
-81.41624
-85.76761
-90.2322
-95.6843
-102.9609
-112.486
-123.8184
-135.2833
-144.0888
-146.9363
-141.1242
-125.6069
-101.5571
-72.10626
-41.34672
-13.07568
10.21421
27.66036
39.74749
47.64018
52.59137
55.59941
57.36347
58.41352
59.19164
60.06353
61.24337
62.74529
64.33777
65.67332
66.422
66.44547
65.89152
65.14217
64.63478
64.63205
65.0536
65.45599
65.21968
63.79125
60.89616
56.65944
51.5475
46.20625
41.24374
37.01054
33.49449
30.3482
27.05365
23.16181
18.52549
13.3569
8.167622
3.509476
-0.2705975
-3.231022
-5.812923
-8.708771
-12.53574
-17.58843
-23.72235
-30.42587
-37.03878
-43.01676
-48.1523
-52.63877
-57.0556
-62.20818
-68.914
-77.66507
-88.20642
-99.24045
-108.42
-112.8253
-109.8223
-98.04618
-78.03668
-52.18194
-24.03396
2.829437
25.74792
43.43611
55.86067
63.69327
67.83305
69.05923
68.04421
65.46465
62.10619
58.76801
56.11308
54.48818
53.87363
53.95016
54.30292
54.62993
54.81201
54.92336
55.09165
55.34761
55.49674
55.1425
53.8001
51.1045
46.98818
41.76209
36.02425
30.48129
25.64858
21.67535
18.26941
14.83342
10.75867
5.696388
-0.246788
-6.547646
-12.47199
-17.44809
-21.33009
-24.50573
-27.73062
-31.79221
-37.1358
-43.64686
-50.70441
-57.47123
-63.30614
-68.01256
-71.9483
-75.8806
-80.74146
-87.42523
-96.51787
-107.9536
-120.6842
-132.53
-140.3928
-141.0521
-132.2265
-113.5308
-86.84477
-55.83823
-24.82239
2.533157
24.10707
39.50621
49.60384
55.80418
59.42142
61.40359
62.36868
62.78226
63.03264
63.43449
64.14526
65.08888
65.99977
66.55133
66.52969
65.95158
65.05035
64.15214
63.51616
63.1748
62.90378
62.28343
60.87
58.35136
54.67419
50.08203
45.01096
39.95497
35.30225
31.21417
27.61241
24.25046
20.79999
16.94554
12.47229
7.333817
1.694397
-4.081436
-9.550049
-14.34663
-18.41039
-22.0457
-25.8418
-30.42058
-36.14853
-42.9481
-50.30919
-57.54495
-64.07249
-69.64935
-74.4295
-78.90248
-83.77238
-89.86191
-97.92934
-108.3226
-120.5188
-132.742
-142.0594
-145.0568
-139.0318
-123.1164
-98.84477
-69.72285
-40.04494
-13.51707
7.719345
23.23975
33.83334
40.74239
45.09389
47.69644
49.13506
49.92769
50.55408
51.36986
52.50879
53.84766
55.11357
56.00565
56.3513
56.16383
55.63977
55.08173
54.77135
54.86633
55.29369
55.74298
55.76904
54.91708
52.89913
49.69663
45.58357
41.02818
36.53355
32.48743
29.04607
26.09824
23.37102
20.53493
17.33195
13.67717
9.677795
5.577095
1.679642
-1.783699
-4.755127
-7.443253
-10.24701
-13.645
-17.96369
-23.19848
-28.98568
-34.72774
-39.85537
-44.07111
-47.51705
-50.74455
-54.57785
-59.91625
-67.43481
-77.25559
-88.59824
-99.62744
-107.6132
-109.5911
-103.2841
-87.99555
-65.00517
-37.31654
-8.731369
17.2639
38.35429
53.7162
63.70845
69.325
71.61102
71.41654
69.39523
66.16584
62.45319
59.01022
56.48923
55.21894
55.1096
55.72266
56.52006
57.12126
57.44298
57.65994
57.98016
58.40894
58.62123
58.0219
56.02113
52.34335
47.20462
41.26574
35.38047
30.21408
25.9974
22.40278
18.77251
14.45833
9.160309
3.106728
-3.111473
-8.830589
-13.72321
-17.94794
-22.08826
-26.84769
-32.63782
-39.37732
-46.50284
-53.26094
-59.07487
-63.84937
-67.99692
-72.30684
-77.69902
-84.97723
-94.58455
-106.3072
-118.9999
-130.4482
-137.6514
-137.5711
-128.1451
-109.1994
-82.72604
-52.37799
-22.28827
4.138535
25.07846
40.34178
50.8584
57.93355
62.6579
65.75229
67.63098
68.59842
68.9886
69.13733
69.27382
69.46501
69.61079
69.50395
68.99153
68.06972
66.92465
65.86725
65.17766
64.91388
64.84146
64.45863
63.14879
60.4437
56.20688
50.71545
44.60524
38.65831
33.5157
29.42967
26.19215
23.19606
19.71155
15.19772
9.54213
3.106766
-3.401505
-9.272247
-14.0983
-17.98129
-21.48685
-25.40622
-30.43166
-36.86644
-44.51157
-52.75543
-60.83907
-68.11447
-74.28615
-79.51552
-84.37654
-89.76457
-96.67046
-105.8299
-117.2394
-129.7472
-140.9169
-147.4777
-146.269
-135.3723
-114.9031
-87.15715
-55.89859
-25.21967
1.580292
22.69479
37.80571
47.6694
53.53502
56.66679
58.09233
58.5618
58.61082
58.60742
58.79791
59.3035
60.10121
61.00648
61.72
61.95737
61.60019
60.77771
59.83762
59.20325
59.11513
59.47978
59.83624
59.51186
57.89299
54.68645
50.04875
44.5285
38.86008
33.69073
29.36609
25.8573
22.83549
19.85736
16.51964
12.60463
8.133804
3.337479
-1.430969
-5.839111
-9.731537
-13.2126
-16.65608
-20.54633
-25.28021
-30.97911
-37.41122
-44.08131
-50.41324
-55.96021
-60.561
-64.40387
-68.00764
-72.13747
-77.6664
-85.22707
-94.75684
-105.1296
-114.0686
-118.5911
-115.8902
-104.336
-84.18155
-57.59752
-28.01817
0.9061737
26.24155
46.34586
60.83871
70.22151
75.38008
77.26207
76.74699
74.65343
71.77426
68.8239
66.36104
64.71109
63.90942
63.75568
63.92816
64.13243
64.22433
64.21831
64.20952
64.22256
64.07309
63.37808
61.70935
58.79393
54.65074
49.61827
44.21007
38.93095
34.06973
29.63042
25.37755
20.9566
16.07277
10.60716
4.719498
-1.227539
-6.815643
-11.76172
-16.08994
-20.15672
-24.51251
-29.6465
-35.76625
-42.66592
-49.82845
-56.63469
-62.62337
-67.68228
-72.14207
-76.739
-82.45905
-90.24699
-100.5345
-112.7438
-124.975
-134.1786
-136.8997
-130.434
-113.9269
-88.82283
-58.54359
-27.36858
0.8786621
23.78677
40.63971
52.01874
59.11681
63.12878
65.00775
65.451
65.07716
64.4762
64.12395
64.25323
64.77727
65.35545
65.55884
65.11746
64.03265
62.62756
61.35855
60.62314
60.56483
60.98888
61.39742
61.16563
59.73126
56.77338
52.3468
46.88962
41.06915
35.57184
30.81424
26.76941
23.00769
18.90662
13.98946
8.1754
1.836456
-4.398041
-9.905487
-14.38094
-17.99577
-21.30023
-25.03636
-29.83047
-35.97527
-43.30574
-51.26071
-59.07959
-66.06743
-71.84467
-76.49873
-80.60458
-85.11766
-91.17142
-99.70261
-110.9562
-124.0251
-136.6665
-145.6061
-147.4044
-139.6163
-121.7608
-95.63406
-64.80623
-33.47853
-5.265961
17.61858
34.52928
45.99156
53.06854
56.87953
58.39156
58.39485
57.60825
56.68269
56.12793
56.19705
56.82784
57.68979
58.32545
58.38928
57.80209
56.81255
55.85748
55.36288
55.50574
56.06964
56.52628
56.20076
54.55382
51.38362
46.89594
41.63359
36.27939
31.42645
27.36566
23.99557
20.89168
17.47795
13.31805
8.315765
2.765671
-2.773727
-7.731995
-11.81802
-15.15622
-18.20355
-21.58682
-25.81244
-31.073
-37.15388
-43.53214
-49.57982
-54.80229
-59.02734
-62.49586
-65.83273
-69.9052
-75.62688
-83.58298
-93.64032
-104.6055
-114.1944
-119.4431
-117.5297
-106.7269
-87.12282
-60.72728
-30.91121
-1.415649
24.65776
45.44928
60.42943
70.0358
75.17601
76.8681
76.03305
73.48701
69.99313
66.26698
62.93417
60.46362
59.0609
58.65901
58.97226
59.64499
60.41199
61.18976
62.02557
62.95499
63.80327
64.13896
63.35709
60.94899
56.7737
51.17525
44.87262
38.69185
33.2067
28.50639
24.21085
19.7058
14.47778
8.410965
1.84343
-4.599228
-10.36726
-15.25642
-19.54471
-23.8745
-28.9348
-35.108
-42.2749
-49.8508
-57.05334
-63.27206
-68.34212
-72.65045
-77.02284
-82.49913
-90.0408
-100.1374
-112.409
-125.2734
-136.0077
-141.2628
-138.0584
-124.8551
-102.2734
-73.05531
-41.20883
-10.78912
15.2112
35.36247
49.64165
58.85818
64.0972
66.39845
66.69377
65.85056
64.6729
63.79158
63.52719
63.88567
64.59543
65.28131
65.60687
65.40706
64.75357
63.88754
63.12726
62.70799
62.61101
62.48903
61.76146
59.83823
56.37262
51.48329
45.69933
39.77762
34.36824
29.75281
25.76521
21.88257
17.50275
12.21153
5.996582
-0.7724152
-7.47583
-13.53316
-18.65866
-23.00858
-27.14272
-31.8107
-37.6115
-44.73984
-52.86983
-61.25806
-69.07196
-75.74203
-81.19128
-85.90584
-90.80904
-97.00227
-105.4361
-116.4359
-129.2752
-141.9122
-151.2307
-153.7656
-146.8282
-129.5491
-103.3665
-71.7104
-38.91068
-8.878494
15.87805
34.54968
47.64017
56.26096
61.53534
64.33629
65.31877
65.08774
64.28435
63.47371
63.0349
63.05806
63.37813
63.72243
63.88371
63.82994
63.6952
63.66961
63.85548
64.13581
64.17052
63.48083
61.61981
58.3775
53.91387
48.70779
43.38704
38.46442
34.12987
30.19342
26.19641
21.66234
16.34586
10.38022
4.243202
-1.445839
-6.207207
-9.939774
-12.98901
-16.02777
-19.78017
-24.69035
-30.73256
-37.4231
-44.00964
-49.81081
-54.51936
-58.34359
-61.98185
-66.44547
-72.74759
-81.51464
-92.51643
-104.3102
-114.2519
-119.0424
-115.6826
-102.5975
-80.36297
-51.65894
-20.47304
9.132538
34.14335
53.14516
66.18048
74.17561
78.26173
79.39457
78.29187
75.55659
71.85304
67.91807
64.44785
61.94371
60.60775
60.30158
60.69902
61.43385
62.23385
62.97076
63.57978
63.94694
63.83661
62.916
60.86871
57.56201
53.14178
47.96666
42.46815
36.93488
31.4313
25.83646
20.00531
13.91886
7.753048
1.791084
-3.747063
-8.852222
-13.79224
-19.01288
-24.8945
-31.56363
-38.79744
-46.08641
-52.86314
-58.76207
-63.78357
-68.33628
-73.12897
-79.03584
-86.86278
-96.98972
-108.9774
-121.2491
-131.1414
-135.4121
-131.2048
-117.1177
-93.88066
-64.30075
-32.41521
-2.255589
23.2451
42.76875
56.45008
65.28772
70.48837
73.06113
73.73927
73.09682
71.70557
70.15485
68.98215
68.52889
68.81773
69.54452
70.24933
70.51851
70.21472
69.52489
68.84434
68.49069
68.46477
68.3507
67.46111
65.14758
61.10319
55.55095
49.13383
42.66154
36.76122
31.62037
26.95232
22.18418
16.79924
10.57645
3.754368
-3.077206
-9.251877
-14.358
-18.4802
-22.22324
-26.45103
-31.91683
-38.91131
-47.11668
-55.77567
-64.01644
-71.23292
-77.31463
-82.65768
-88.03452
-94.39709
-102.639
-113.2326
-125.8354
-138.8959
-149.6319
-154.5967
-150.7028
-136.4314
-112.5781
-82.17675
-49.49706
-18.73414
7.174011
27.02122
41.04077
50.25886
55.84805
58.79316
59.87665
59.7978
59.21913
58.73326
58.72377
59.2957
60.24499
61.17841
61.72219
61.70738
61.25559
60.73455
60.54682
60.88494
61.54739
61.96778
61.43086
59.39001
55.72805
50.825
45.38261
40.13576
35.55921
31.67958
28.15243
24.42241
20.01783
14.79623
9.008549
3.209333
-2.007963
-6.31105
-9.798897
-12.9585
-16.47143
-20.88258
-26.34939
-32.57904
-38.95449
-44.79733
-49.66247
-53.52152
-56.80439
-60.29923
-65.00758
-71.81624
-81.10904
-92.30386
-103.5952
-112.1007
-114.5681
-108.41
-92.74694
-68.87715
-39.98101
-10.11401
17.02482
39.02906
55.05835
65.52139
71.43668
73.85822
73.63331
71.44464
67.94644
63.86957
59.9436
56.77973
54.74809
53.92101
54.09417
54.89803
55.92277
56.80931
57.31635
57.32938
56.80213
55.69821
53.93185
51.38815
47.98018
43.70329
38.65762
33.03881
27.08246
21.02402
15.05851
9.328133
3.941803
-1.05764
-5.719505
-10.23606
-14.91099
-20.08576
-25.95631
-32.47398
-39.32292
-46.02721
-52.182
-57.6309
-62.57623
-67.53345
-73.22392
-80.40427
-89.61081
-100.7716
-112.8671
-123.7793
-130.5871
-130.3166
-120.9899
-102.4502
-76.60869
-46.92217
-17.31166
8.96312
30.01951
45.42331
55.79514
62.19579
65.70332
67.1938
67.35403
66.75377
65.85915
64.99338
64.31119
63.80342
63.30642
62.63229
61.68595
60.54303
59.44542
58.67865
58.38405
58.42299
58.34624
57.55974
55.5974
52.31474
47.97495
43.11949
38.27876
33.76218
29.5036
25.15198
20.25998
14.5656
8.149918
1.435345
-4.988613
-10.68554
-15.56757
-20.0155
-24.66917
-30.17984
-36.85159
-44.51575
-52.59341
-60.35097
-67.25203
-73.17844
-78.49906
-83.96647
-90.53995
-99.1034
-110.0496
-122.8019
-135.5189
-145.2045
-148.4234
-142.4416
-126.2886
-101.3187
-70.87253
-39.20891
-10.20975
13.62287
31.45929
43.79538
51.79098
56.66439
59.40439
60.71604
61.14418
61.11812
60.97498
60.92442
61.0475
61.28623
61.47828
61.42854
61.0041
60.22688
59.28882
58.47944
58.04351
57.97187
57.93119
57.33797
55.57442
52.27758
47.53429
41.84954
35.99547
30.66955
26.22186
22.55032
19.16553
15.48455
11.08301
5.905258
0.2562103
-5.343046
-10.36983
-14.55137
-17.98627
-21.12498
-24.63291
-29.15229
-35.01809
-42.11955
-49.88919
-57.48782
-64.14226
-69.46275
-73.6349
-77.38035
-81.78728
-87.95114
-96.60747
-107.6756
-119.9587
-131.0773
-137.866
-137.2052
-127.0773
-107.3717
-80.10397
-48.82915
-17.55598
10.39263
33.05856
49.91093
61.4367
68.56709
72.28736
73.52065
73.10884
71.87035
70.51685
69.53146
69.12457
69.26196
69.7455
70.35829
70.95333
71.47493
71.92682
72.35555
72.7278
72.89198
72.57741
71.44174
69.20264
65.79175
61.37373
56.31749
51.04073
45.82404
40.71336
35.53606
30.03925
24.08128
17.76474
11.38919
5.318356
-0.2412033
-5.40443
-10.53928
-16.12033
-22.449
-29.47496
-36.78902
-43.83131
-50.15808
-55.68454
-60.76918
-66.13316
-72.66765
-81.19704
-92.06772
-104.7873
-117.7353
-128.1959
-132.9216
-129.0852
-115.3262
-92.41479
-63.17461
-31.62516
-1.744766
23.59188
43.11311
56.95137
66.03323
71.45296
74.11519
74.7038
73.83528
72.14664
70.30742
68.86575
68.11586
68.03446
68.34288
68.69079
68.81761
68.68143
68.43394
68.27586
68.28725
68.27271
67.76599
66.16071
62.97338
58.07067
51.81435
44.95955
38.3815
32.72832
28.14569
24.24818
20.31373
15.66955
10.01021
3.547092
-3.134888
-9.351717
-14.68832
-19.18945
-23.3259
-27.78429
-33.16676
-39.7174
-47.21818
-55.0899
-62.61136
-69.22484
-74.78966
-79.65076
-84.58112
-90.60505
-98.7272
-109.5208
-122.697
-136.6951
-148.6973
-155.1488
-152.7838
-139.8109
-116.7278
-86.35867
-53.01448
-21.15559
5.885396
26.55772
40.96809
50.2575
55.81386
58.80595
60.04442
60.12417
59.56891
58.88531
58.47655
58.53729
58.97916
59.48627
59.68819
59.37356
58.59912
57.67758
57.0444
57.0061
57.5599
58.35016
58.77605
58.23018
56.3134
53.0018
48.60534
43.68176
38.80684
34.42233
30.69642
27.5078
24.52931
21.34584
17.58342
13.0648
7.873449
2.333622
-3.074638
-7.934196
-12.07869
-15.72082
-19.40748
-23.82901
-29.51188
-36.53783
-44.48179
-52.53447
-59.85295
-65.93419
-70.79252
-74.95583
-79.26973
-84.65273
-91.88266
-101.3483
-112.7222
-124.6502
-134.6869
-139.6683
-136.6059
-123.7695
-101.5121
-72.34731
-40.22536
-9.275883
17.34807
38.07224
52.80222
62.33502
67.74195
69.98928
69.8916
68.2401
65.88589
63.66568
62.22398
61.86523
62.4737
63.6308
64.85947
65.85172
66.62048
67.42793
68.58265
70.1698
71.89142
73.08276
72.9803
71.04668
67.22465
61.96761
56.0815
50.3925
45.41914
41.23923
37.48064
33.54956
28.9097
23.33096
16.99997
10.42729
4.243614
-1.144424
-5.736
-9.995125
-14.63338
-20.25483
-27.06599
-34.72036
-42.4819
-49.57106
-55.55308
-60.53828
-65.18189
-70.44804
-77.34316
-86.52656
-97.92853
-110.428
-121.7668
-128.8663
-128.6395
-119.0333
-99.90224
-73.25276
-42.72153
-12.40836
14.29082
35.45584
50.69183
60.66767
66.46075
69.09342
69.40876
68.13103
66.00379
63.75124
61.96835
61.01085
60.89806
61.35762
61.96808
62.35953
62.35341
62.04485
61.72208
61.68736
62.01759
62.43398
62.34288
61.05778
58.12165
53.52555
47.77193
41.65398
35.92847
30.99892
26.77153
22.74172
18.29407
13.00682
6.869661
0.3003464
-6.067867
-11.68155
-16.34046
-20.31982
-24.26566
-28.91748
-34.78061
-41.89513
-49.80264
-57.74908
-64.99696
-71.13109
-76.24726
-80.92004
-86.07117
-92.74931
-101.8287
-113.5592
-127.1275
-140.3833
-150.0238
-152.4352
-144.8882
-126.6718
-99.57301
-67.42271
-34.81947
-5.739701
17.48599
34.34888
45.66224
52.78411
56.98347
59.2044
60.09976
60.19641
59.95538
59.7573
59.82481
60.19217
60.72386
61.195
61.40401
61.26032
60.82544
60.26984
59.80265
59.52825
59.33898
58.88879
57.6803
55.25657
51.39944
46.26653
40.36105
34.37279
28.9295
24.3344
20.44595
16.74897
12.59946
7.523396
1.485254
-5.079769
-11.43971
-16.9216
-21.21644
-24.56407
-27.65234
-31.32044
-36.20731
-42.46062
-49.72449
-57.30451
-64.4705
-70.74738
-76.04794
-80.66204
-85.18551
-90.44392
-97.34924
-106.6175
-118.2717
-131.1464
-142.7149
-149.5144
-148.1679
-136.6466
-115.1975
-86.41219
-54.39228
-23.40727
3.370079
24.45017
39.85686
50.49071
57.39851
61.39626
63.06914
62.97107
61.76178
60.21105
59.00977
58.57767
58.94204
59.79097
60.67905
61.2673
61.50149
61.5976
61.87638
62.51851
63.37396
63.94186
63.56175
61.71353
58.2709
53.56822
48.27069
43.09238
38.5094
34.5526
30.8678
26.90808
22.25111
16.8244
10.98904
5.363815
0.5187225
-3.331589
-6.475189
-9.57016
-13.34669
-18.25214
-24.25906
-30.91171
-37.56496
-43.67201
-48.96051
-53.53035
-57.7901
-62.42516
-68.27756
-76.14226
-86.30115
-98.03091
-109.3105
-117.0561
-117.994
-109.8301
-92.25673
-67.21411
-38.27466
-9.445755
16.05901
36.50519
51.64302
62.10568
68.75662
72.25206
72.99925
71.41846
68.16362
64.20442
60.62059
58.30551
57.68227
58.58163
60.36073
62.23247
63.60782
64.28337
64.46838
64.52136
64.68723
64.8508
64.5209
63.01443
59.76331
54.55911
47.68326
39.85626
31.97369
24.82571
18.82285
13.86267
9.387817
4.634277
-1.04184
-7.900909
-15.70804
-23.83878
-31.5733
-38.34348
-43.97455
-48.70947
-53.12808
-58.02386
-64.25589
-72.50925
-82.97839
-94.97034
-106.6475
-115.2107
-117.5574
-111.3177
-95.82434
-72.52054
-44.58932
-15.91357
10.11636
31.42252
47.43753
58.71335
66.26083
71.00531
73.58728
74.41205
73.82489
72.22198
70.05896
67.75616
65.61176
63.75375
62.1611
60.76724
59.53903
58.4899
57.65781
57.01593
56.40842
55.55399
54.09854
51.7511
48.37784
44.02148
38.85239
33.10095
27.00415
20.77859
14.65024
8.82663
3.450867
-1.465973
-6.104462
-10.81558
-16.01213
-22.03093
-28.9512
-36.52112
-44.22064
-51.45628
-57.80038
-63.21095
-68.08136
-73.17134
-79.42058
-87.68515
-98.36804
-111.0621
-124.2154
-135.2065
-140.7964
-138.0588
-125.461
-103.5733
-75.10924
-44.12546
-14.7545
10.00714
28.90575
42.31046
51.54572
58.0726
62.98145
66.80406
69.70514
71.72806
72.99773
73.74521
74.24944
74.70901
75.15727
75.47337
75.47812
75.06171
74.27351
73.31825
72.43059
71.72105
71.03558
69.97746
68.08398
65.034
60.80768
55.72406
50.29692
45.04767
40.32834
36.23116
32.60841
29.18321
25.61453
21.61128
16.99448
11.72272
5.939468
-0.05229187
-5.84584
-11.07751
-15.6194
-19.6965
-23.85666
-28.77066
-34.93146
-42.38963
-50.71165
-59.12422
-66.85889
-73.46455
-78.98282
-83.90242
-89.01685
-95.23204
-103.3447
-113.7595
-126.0798
-138.7788
-149.1459
-153.8443
-149.896
-135.8676
-112.5939
-83.06311
-51.47209
-21.88261
2.90892
21.84065
35.31789
44.51024
50.68008
54.81497
57.60696
59.57632
61.18977
62.80698
64.61385
66.5275
68.25058
69.41071
69.7417
69.25378
68.24399
67.19261
66.5526
66.5206
66.95058
67.35831
67.13292
65.73576
62.96053
58.96135
54.22836
49.3898
44.99026
41.29733
38.205
35.3248
32.15038
28.31537
23.77829
18.8643
14.11562
10.02716
6.766235
4.071182
1.395477
-1.849503
-5.948074
-10.77139
-15.85929
-20.70518
-25.04691
-29.03848
-33.15532
-37.9399
-43.67202
-50.20865
-57.04684
-63.53348
-69.17726
-73.84457
-77.78537
-81.5537
-85.87746
-91.5516
-99.23627
-109.101
-120.3788
-131.0818
-138.1492
-138.2287
-128.8579
-109.5537
-82.2403
-50.71159
-19.38964
8.087547
29.758
45.42992
56.07539
63.00886
67.2998
69.61292
70.39927
70.11954
69.35783
68.71646
68.64582
69.29462
70.49866
71.88702
73.08256
73.84749
74.1561
74.14418
74.00049
73.8273
73.55198
72.93981
71.6813
69.51415
66.32162
62.18519
57.36832
52.24268
47.20324
42.55475
38.46169
34.91074
31.72213
28.61131
25.28683
21.51126
17.18688
12.382
7.335938
2.389858
-2.142727
-6.102299
-9.58902
-12.9656
-16.71671
-21.26674
-26.74604
-32.96098
-39.45813
-45.74709
-51.50077
-56.6981
-61.63111
-66.8682
-73.14367
-81.19292
-91.38835
-103.2765
-115.1859
-124.2593
-127.115
-121.0297
-105.1139
-80.94612
-52.19142
-23.41525
1.439244
20.13234
32.36164
39.23449
42.36758
43.16476
42.49732
40.85548
38.60153
36.18365
34.14052
32.95745
32.91126
33.97986
35.87343
38.1791
40.57191
42.94896
45.45678
48.3256
51.65101
55.21922
58.49211
60.82073
61.71988
61.11365
59.32779
56.89317
54.24602
51.4957
48.44666
44.73238
40.10332
34.62643
28.65713
22.69771
17.15211
12.16786
7.607246
3.178192
-1.354836
-5.984154
-10.47421
-14.49881
-17.95596
-21.1551
-24.82371
-29.84232
-36.80592
-45.70258
-55.815
-66.01572
-75.24312
-82.93614
-89.24881
-94.91338
-100.9354
-108.2918
-117.676
-129.2636
-142.4487
-155.6013
-166.0554
-170.5953
-166.3619
-151.9253
-128.0023
-97.42989
-64.32352
-32.83423
-5.969299
14.9091
29.93457
40.10147
46.60414
50.4556
52.41588
53.10712
53.11465
52.98579
53.14778
53.83073
55.01424
56.47757
57.92509
59.11554
59.97279
60.60343
61.22964
62.0058
62.89606
63.59515
63.62703
62.54659
60.18584
56.72789
52.63583
48.4341
44.4351
40.66638
36.95049
33.09972
29.06393
24.96178
20.97527
17.18666
13.51263
9.738396
5.638168
1.129761
-3.67115
-8.478203
-12.98632
-16.99938
-20.59402
-24.12199
-28.10213
-33.03734
-39.17554
-46.35458
-54.0122
-61.36765
-67.73672
-72.82995
-76.91625
-80.79865
-85.58369
-92.34262
-101.6383
-113.0543
-124.9524
-134.582
-138.693
-134.5019
-120.7097
-98.12758
-69.51839
-38.79733
-9.824127
14.63036
33.35644
46.5077
54.99496
59.8531
61.85413
61.54362
59.43002
56.22141
52.81184
50.09183
48.66943
48.65927
49.67867
51.10246
52.39838
53.38963
54.28114
55.44992
57.11083
59.06672
60.72224
61.3153
60.27509
57.50632
53.40555
48.6848
44.07883
40.05881
36.69386
33.69177
30.53451
26.69551
21.85459
16.02209
9.562332
3.099536
-2.742023
-7.591752
-11.50617
-14.96022
-18.67085
-23.26033
-29.02008
-35.78668
-43.02108
-50.05336
-56.36454
-61.74474
-66.39457
-70.87785
-75.99934
-82.61209
-91.27627
-101.8446
-113.1264
-122.8185
-127.9273
-125.6785
-114.4921
-94.67943
-68.49387
-39.45108
-11.23281
13.32088
32.74553
46.88284
56.39592
62.22202
65.19086
65.95867
65.07568
63.10692
60.64026
58.23711
56.35167
55.25131
55.00048
55.46567
56.3732
57.41648
58.33311
58.95909
59.22689
59.10713
58.51543
57.28899
55.20271
52.05241
47.77926
42.5238
36.63093
30.53403
24.63274
19.17239
14.18541
9.504333
4.826233
-0.2027893
-5.872238
-12.28972
-19.30862
-26.54134
-33.44574
-39.52386
-44.49731
-48.46173
-51.88702
-55.55933
-60.38316
-67.14362
-76.17108
-87.02444
-98.26768
-107.5465
-112.0538
-109.3208
-98.08891
-78.83545
-53.7695
-26.1627
0.6014404
23.92287
42.47551
56.11992
65.47055
71.38823
74.61652
75.67938
74.99931
73.02585
70.31265
67.46619
64.99382
63.16643
61.94518
61.07228
60.26897
59.392
58.5441
57.95583
57.78946
57.93188
57.90846
56.99292
54.51231
50.1274
44.00076
36.76106
29.25771
22.27534
16.26099
11.20117
6.661133
1.982208
-3.468948
-10.02853
-17.59792
-25.68863
-33.58968
-40.65492
-46.58981
-51.5719
-56.22609
-61.46538
-68.24908
-77.26404
-88.56583
-101.2358
-113.2329
-121.6686
-123.5055
-116.5734
-100.4394
-76.69525
-48.53293
-19.72197
6.520309
28.25182
44.92474
56.97989
65.24707
70.50815
73.40404
74.50903
74.4295
73.78578
73.03465
72.38472
71.79152
71.07777
70.08725
68.83557
67.48436
66.24832
65.26669
64.5024
63.72981
62.60855
60.79457
58.03876
54.30318
49.71233
44.55528
39.14079
33.68472
28.2337
22.67941
16.85196
10.68011
4.286392
-2.071381
-8.123886
-13.77563
-19.21629
-24.85576
-31.15709
-38.36234
-46.34695
-54.60435
-62.46031
-69.34274
-75.06697
-79.97496
-84.88214
-90.89395
-99.03716
-109.7894
-122.5861
-135.5631
-145.72
-149.624
-144.5055
-129.2847
-105.1064
-75.06885
-43.22978
-13.37704
11.93767
31.7448
46.35736
56.77184
64.1095
69.30019
73.04353
75.85074
78.09711
79.99242
81.55615
82.66409
83.1209
82.79779
81.70929
80.05078
78.15712
76.43578
75.24049
74.74489
74.83403
75.07237
74.81734
73.4519
70.64604
66.50961
61.5782
56.56044
52.06833
48.33675
45.1796
42.13605
38.70247
34.60249
29.8808
24.88727
20.09062
15.87032
12.32558
9.209717
6.017883
2.190834
-2.629761
-8.446579
-14.85882
-21.23068
-26.97422
-31.80952
-35.92751
-39.91062
-44.51799
-50.33178
-57.5231
-65.73879
-74.21769
-82.077
-88.67262
-93.88036
-98.16208
-102.5056
-108.1174
-116.0643
-126.7471
-139.46
-152.1377
-161.5949
-164.2765
-157.3723
-139.9206
-113.2764
-80.85292
-47.03331
-15.86698
10.00378
29.69139
43.76866
53.55745
60.43596
65.47563
69.39047
72.65837
75.62065
78.47224
81.21115
83.60527
85.2642
85.8135
85.12637
83.41942
81.25239
79.31715
78.17038
77.99837
78.51797
79.08677
78.91212
77.38716
74.26288
69.76194
64.48315
59.17425
54.48298
50.72593
47.83681
45.41274
42.92235
39.88485
36.07432
31.564
26.68904
21.90611
17.62629
14.04199
11.04172
8.231537
5.090201
1.190503
-3.625512
-9.133128
-14.81661
-20.09343
-24.58208
-28.31822
-31.75364
-35.62066
-40.58369
-46.96354
-54.57701
-62.79416
-70.78058
-77.8346
-83.63658
-88.37756
-92.71542
-97.62904
-104.1797
-113.1492
-124.5585
-137.2617
-148.7862
-155.7298
-154.7305
-143.6638
-122.5759
-93.88985
-61.64745
-30.23169
-3.049324
18.22259
33.56525
44.04222
51.02169
55.67911
58.85561
61.13268
62.95542
64.62936
66.30059
67.91616
69.29954
70.23629
70.62003
70.48919
70.05453
69.61392
69.4542
69.74335
70.41347
71.12058
71.34413
70.58056
68.58782
65.51312
61.84138
58.18093
55.00403
52.44165
50.29543
48.17286
45.70531
42.72238
39.29993
35.70824
32.28267
29.27362
26.76128
24.60184
22.44347
19.84096
16.41235
11.96964
6.626312
0.7032776
-5.388901
-11.3922
-17.30606
-23.40662
-30.10062
-37.68839
-46.20778
-55.34869
-64.56897
-73.31987
-81.28282
-88.4855
-95.29874
-102.3298
-110.2529
-119.5894
-130.4023
-141.9399
-152.4551
-159.3504
-159.8124
-151.733
-134.6248
-109.9942
-81.0136
-51.53133
-24.94333
-3.32753
12.74832
23.88783
31.19566
35.70903
38.18037
39.11044
38.97845
38.3848
38.04414
38.66823
40.71066
44.2527
48.9576
54.20413
59.29837
63.65804
66.86555
68.63017
68.73878
67.00697
63.38809
58.07559
51.58249
44.68491
38.23628
32.99165
29.41689
27.64522
27.46144
28.36453
29.62837
30.43031
30.00468
27.86589
23.98537
18.82239
13.17215
7.843307
3.324814
-0.4309235
-3.970367
-8.095734
-13.5567
-20.76059
-29.68227
-39.96843
-51.10416
-62.57683
-73.98294
-85.04622
-95.64825
-105.9264
-116.2776
-127.2327
-139.0126
-151.0033
-161.4106
-167.4247
-166.0071
-155.0104
-134.1598
-105.3597
-72.17111
-38.67662
-8.264084
17.12074
37.05963
52.15613
63.35812
71.49242
77.13251
80.77003
83.06496
84.88524
87.11443
90.30788
94.40028
98.66491
101.9792
103.3061
102.0825
98.34133
92.62122
85.63271
78.02134
70.24596
62.62882
55.46468
49.04845
43.63926
39.37294
36.22542
34.0106
32.45541
31.23505
30.00061
28.43903
26.34418
23.75728
20.99936
18.61945
17.15902
16.84595
17.37969
17.86902
17.04126
13.64069
6.860046
-3.311249
-16.03281
-29.8292
-42.99048
-54.06004
-62.21882
-67.46443
-70.61657
-73.08429
-76.48219
-82.02711
-89.85603
-98.56417
-105.2226
-106.0797
-97.80544
-78.85136
-50.25371
-15.49374
20.60381
53.41794
79.84009
98.78117
110.8551
117.5196
120.2508
120.1145
117.8257
114.0332
109.4813
104.9766
101.1216
98.14301
95.89168
94.10339
92.76598
92.31422
93.53241
97.1418
103.2609
111.041
118.6778
123.7641
123.9859
117.7993
104.8168
85.90512
62.90594
38.14514
13.90286
-8.046509
-26.69077
-41.84268
-53.94647
-63.76508
-71.94974
-78.64651
-83.32108
-84.86472
-82.09882
-74.45422
-62.63385
-48.83188
-36.42154
-29.05075
-29.60648
-39.41003
-58.07239
-83.95087
-114.9297
-149.079
-184.9375
-221.3475
-257.1375
-290.8635
-320.7535
-344.7431
-360.6133
-366.1295
-359.3386
-339.0856
-305.6042
-260.925
-208.7822
-153.9907
-101.4172
-55.01108
-17.1496
11.505
31.69394
45.08301
53.72308
59.61951
64.3811
69.03906
73.9825
79.07307
83.86324
87.84357
90.61423
91.99399
92.08255
91.25464
90.09828
89.24998
89.17818
89.9556
91.20375
92.23453
92.3501
91.16586
88.76259
85.62102
82.34367
79.30783
76.47369
73.40411
69.51013
64.36841
57.97423
50.76683
43.44455
36.64819
30.69423
25.41428
20.26134
14.55051
7.802299
-0.06207275
-8.66114
-17.3185
-25.37791
-32.46433
-38.65639
-44.47486
-50.7172
-58.26774
-67.77159
-79.27585
-91.86741
-103.5195
-111.3284
-112.2241
-103.9837
-86.12569
-60.27493
-29.76287
1.366705
29.56156
52.58192
69.70762
81.33852
88.35005
91.57952
91.6321
89.03099
84.43595
78.78617
73.2067
68.74683
66.05296
65.18747
65.68811
66.80976
67.86246
68.46075
68.57323
68.39839
68.09924
67.608
66.54439
64.35532
60.54323
54.9103
47.7162
39.59472
31.39428
23.84285
17.29929
11.59463
6.138977
0.2033997
-6.741497
-14.73859
-23.33374
-31.76442
-39.28425
-45.46708
-50.37212
-54.4833
-58.57677
-63.53951
-70.20769
-79.14187
-90.28362
-102.5451
-113.667
-120.53
-119.994
-109.9987
-90.46825
-63.47544
-32.66759
-2.08934
24.96268
46.6151
62.42401
72.88006
78.84777
81.17702
80.65366
78.06315
74.26862
70.15962
66.47208
63.68223
61.91438
61.0066
60.63
60.45753
60.28042
60.04764
59.83035
59.68399
59.55037
59.19896
58.24689
56.27248
52.96127
48.2049
42.1472
35.1677
27.77066
20.49602
13.74783
7.694901
2.195938
-3.170181
-8.966293
-15.66094
-23.40118
-31.91328
-40.57233
-48.67244
-55.72129
-61.6274
-66.7333
-71.67055
-77.23174
-84.21722
-93.29591
-104.6893
-117.7225
-130.5468
-140.1621
-143.12
-136.6314
-119.6862
-93.61703
-61.79359
-28.5652
2.077782
27.45617
46.5341
59.59444
67.62117
71.7915
73.20514
72.84303
71.59123
70.21765
69.26495
68.97234
69.24609
69.72049
69.91994
69.49001
68.36057
66.8145
65.39919
64.60721
64.6311
65.14494
65.4073
64.56033
62.0155
57.73289
52.21362
46.23729
40.48719
35.24704
30.32338
25.2333
19.50516
12.98343
5.922716
-1.115238
-7.559589
-13.13227
-18.01067
-22.75675
-28.04488
-34.32745
-41.59245
-49.37825
-56.97599
-63.76684
-69.50215
-74.4019
-79.12679
-84.58957
-91.76792
-101.3646
-113.4053
-126.7989
-139.1575
-147.1195
-147.2225
-137.1052
-116.4936
-87.53836
-54.20303
-21.05971
8.075887
31.01233
47.32577
57.86047
63.95753
66.88982
67.59769
66.77731
65.0396
63.0122
61.29101
60.29966
60.16137
60.65145
61.32468
61.72964
61.6411
61.1864
60.72826
60.64685
61.04113
61.56412
61.48672
60.02746
56.70343
51.61765
45.44195
39.15026
33.58553
29.08929
25.3888
21.75132
17.40015
11.87625
5.318579
-1.629753
-8.097629
-13.39012
-17.30736
-20.22997
-22.96452
-26.41981
-31.25014
-37.57347
-44.98333
-52.71665
-59.96781
-66.21648
-71.41608
-76.0081
-80.80257
-86.79967
-94.8857
-105.4608
-117.9945
-130.7181
-140.7276
-144.5877
-139.3953
-123.8628
-98.98733
-67.89201
-34.89631
-4.22188
21.14006
39.91947
52.37993
59.6656
63.16751
64.07614
63.30214
61.55019
59.43495
57.50674
56.15678
55.58228
55.73018
56.347
57.12778
57.86145
58.52505
59.23384
60.1273
61.17157
62.08376
62.36753
61.47919
59.08372
55.20866
50.25302
44.81264
39.43555
34.3912
29.59703
24.78227
19.69906
14.35227
9.031329
4.160947
0.008206367
-3.515137
-6.895036
-10.78084
-15.66228
-21.6062
-28.20475
-34.79878
-40.79296
-45.91302
-50.29865
-54.42764
-58.98669
-64.73705
-72.35945
-82.13734
-93.58449
-105.0784
-113.915
-116.9039
-111.4001
-96.38866
-73.04105
-44.4681
-14.7154
12.49699
34.72047
51.08862
61.96947
68.32642
71.15082
71.23498
69.22127
65.78837
61.74122
57.91956
55.01575
53.3826
52.97159
53.39402
54.14412
54.81218
55.21535
55.40751
55.53206
55.66312
55.63468
55.08618
53.57565
50.82516
46.84668
41.93555
36.53274
30.98471
25.42378
19.77158
13.89799
7.802804
1.674103
-4.166506
-9.508741
-14.41364
-19.26765
-24.59569
-30.78418
-37.84653
-45.39373
-52.81245
-59.53011
-65.29202
-70.22249
-74.83855
-79.90302
-86.30331
-94.78523
-105.5574
-117.8409
-129.5684
-137.6485
-138.6877
-130.226
-111.7557
-85.10463
-53.9149
-22.44962
5.693434
28.42917
45.24957
56.756
63.98603
67.94028
69.47206
69.31788
68.19807
66.77376
65.54048
64.73909
64.39986
64.39409
64.53299
64.65302
64.64202
64.47823
64.23504
64.05389
64.01842
64.01891
63.6865
62.47189
59.89666
55.76871
50.3851
44.44374
38.74314
33.83908
29.78818
26.13191
22.15642
17.24817
11.20539
4.352295
-2.580744
-8.823517
-13.91291
-17.96658
-21.65144
-25.88576
-31.39574
-38.36162
-46.32273
-54.41266
-61.79089
-68.01898
-73.22234
-77.98299
-83.10539
-89.42161
-97.63326
-108.1206
-120.5969
-133.7308
-144.972
-150.9334
-148.3544
-135.3006
-112.1541
-81.66464
-48.15756
-16.09568
11.21381
32.27448
47.2385
57.17495
63.34515
66.72037
68.03642
67.9194
67.08022
66.25256
65.96678
66.39965
67.31844
68.23643
68.69571
68.50887
67.82554
67.02822
66.52464
66.52221
66.89016
67.17941
66.79674
65.21286
62.19046
57.84503
52.58554
46.94857
41.39638
36.22094
31.49402
27.15215
23.03224
18.91827
14.57244
9.760736
4.362608
-1.573286
-7.731915
-13.66083
-18.94482
-23.44915
-27.45591
-31.57006
-36.43819
-42.43019
-49.44279
-56.93834
-64.2007
-70.64772
-76.07014
-80.69731
-85.10814
-90.08134
-96.46313
-104.984
-115.9121
-128.6255
-141.2728
-150.833
-153.7911
-147.2715
-130.2093
-103.9334
-71.88466
-38.49707
-7.810064
17.5516
36.7079
50.09686
58.76112
63.76587
65.97106
66.10152
64.91733
63.22931
61.77023
61.01917
61.12823
61.92244
63.04635
64.14928
64.98659
65.49391
65.76027
65.98809
66.36916
66.95049
67.52277
67.65562
66.81999
64.62312
61.01159
56.33577
51.22228
46.30638
41.99678
38.31873
34.95604
31.42725
27.30075
22.40329
16.87259
11.13112
5.733746
1.134438
-2.497314
-5.402561
-8.184574
-11.6072
-16.23999
-22.2374
-29.25309
-36.59074
-43.49847
-49.48762
-54.52998
-59.04057
-63.77396
-69.61488
-77.39375
-87.48238
-99.4262
-111.5878
-121.2187
-125.0026
-120.1137
-105.3185
-81.61549
-52.06713
-20.81443
8.209885
32.32887
50.47309
62.88532
70.42378
73.99635
74.33199
72.07892
68.03325
63.22809
58.78142
55.62113
54.22503
54.50153
55.89013
57.64934
59.13997
60.06462
60.50486
60.78809
61.24465
61.93713
62.56055
62.49517
61.09877
57.98793
53.27423
47.53407
41.60217
36.20424
31.6753
27.82518
24.09086
19.84736
14.71236
8.768517
2.47612
-3.530167
-8.763107
-13.08959
-16.81274
-20.5437
-24.94807
-30.50287
-37.28274
-44.95763
-52.89917
-60.4102
-66.97388
-72.43575
-77.06815
-81.57386
-86.96197
-94.30429
-104.3179
-116.8361
-130.3643
-142.0539
-148.264
-145.6514
-132.3986
-109.0281
-78.37632
-44.74903
-12.55887
14.87703
35.9696
50.74016
60.2165
65.73112
68.46143
69.28462
68.86425
67.79179
66.62393
65.81364
65.62479
66.04991
66.82635
67.58002
68.00175
68.03378
67.87762
67.8631
68.22371
68.89314
69.47392
69.36523
68.03278
65.22861
61.06191
55.94166
50.38962
44.89613
39.79284
35.23344
31.17575
27.41517
23.64727
19.52386
14.78442
9.347227
3.420605
-2.60238
-8.272974
-13.32138
-17.79442
-22.07576
-26.75752
-32.38762
-39.21954
-47.05162
-55.31364
-63.26134
-70.31026
-76.25148
-81.3511
-86.30283
-92.06191
-99.64687
-109.7535
-122.3109
-136.0079
-148.1737
-155.2447
-153.7851
-141.7422
-119.3528
-89.25042
-55.6645
-23.05974
5.133576
27.22528
43.15797
53.89957
60.6758
64.53905
66.23919
66.38004
65.58423
64.5456
63.89925
64.04613
65.00994
66.39305
67.55141
67.86844
67.05143
65.25414
62.97446
60.76748
58.94382
57.41146
55.72747
53.35066
49.91311
45.39497
40.1061
34.53977
29.16653
24.30881
20.08069
16.39523
13.03899
9.7125
6.130175
2.111559
-2.350918
-7.060806
-11.67383
-15.85205
-19.4117
-22.44415
-25.31365
-28.54135
-32.60516
-37.72701
-43.77113
-50.27718
-56.65558
-62.37669
-67.19121
-71.19511
-74.84419
-78.89328
-84.24373
-91.68261
-101.4726
-112.9021
-124.0207
-131.8701
-133.2292
-125.6898
-108.6258
-83.54927
-53.70652
-23.06063
4.886066
27.87958
45.11199
56.88323
64.03277
67.46857
67.98682
66.30019
63.15208
59.38592
55.87003
53.31832
52.1273
52.28886
53.43616
55.04228
56.63921
57.98434
59.05663
59.93853
60.64199
60.97264
60.57659
59.09118
56.31838
52.39111
47.72281
42.85439
38.21877
33.96799
29.91188
25.64061
20.77859
15.17915
9.062027
2.906258
-2.763977
-7.646385
-11.81128
-15.69245
-19.8643
-24.76988
-30.4944
-36.68106
-42.72736
-48.02983
-52.30252
-55.73816
-58.99202
-63.0314
-68.85312
-77.09885
-87.58492
-99.02762
-109.0117
-114.4477
-112.5301
-101.7008
-82.34676
-56.80814
-28.64873
-1.5121
21.87865
40.239
53.58257
62.63448
68.22374
70.94307
71.15968
69.22122
65.69313
61.36467
57.1512
53.84778
51.89264
51.28751
51.66638
52.49901
53.34366
53.99367
54.44092
54.76579
54.91159
54.61423
53.4476
50.99866
47.05882
41.74721
35.47346
28.80792
22.31395
16.37401
11.07739
6.206635
1.30452
-4.166809
-10.60765
-18.09357
-26.29146
-34.54834
-42.11699
-48.46381
-53.46268
-57.46765
-61.21951
-65.64337
-71.64632
-79.84821
-90.21127
-101.7593
-112.4301
-119.3587
-119.6246
-111.2373
-93.94328
-69.46375
-41.01329
-12.26483
13.69907
35.03793
51.18245
62.43541
69.46825
72.97453
73.63242
72.17432
69.4373
66.27251
63.3622
61.05998
59.35623
58.00391
56.67744
55.17584
53.50978
51.90175
50.6286
49.88324
49.59966
49.35489
48.47942
46.25775
42.22295
36.3777
29.25096
21.72215
14.69728
8.761215
3.950806
-0.2195282
-4.517868
-9.616592
-15.80067
-22.84926
-30.13753
-36.95782
-42.8071
-47.61372
-51.76102
-56.01089
-61.32269
-68.60416
-78.34747
-90.19763
-102.6535
-113.1103
-118.4176
-115.8553
-104.1512
-84.0235
-58.02841
-29.74127
-2.634583
20.81281
39.47827
53.38071
63.16702
69.6106
73.32083
74.71719
74.14075
71.98026
68.7002
64.82477
60.83453
57.07632
53.75177
50.93735
48.67148
46.98178
45.88031
45.26324
44.85168
44.18369
42.73926
40.11728
36.21277
31.24185
25.64691
19.8696
14.17892
8.592987
2.928955
-3.060059
-9.489258
-16.26715
-23.09729
-29.61591
-35.58182
-41.03165
-46.3121
-52.01474
-58.80426
-67.1564
-77.02734
-87.59183
-97.14902
-103.3451
-103.7847
-96.81851
-82.20364
-61.30936
-36.74213
-11.54211
11.6666
31.21027
46.43384
57.37164
64.33847
67.67178
67.72913
65.01959
60.32816
54.64188
48.96677
44.0903
40.42505
38.00284
36.61389
36.00391
36.04614
36.74469
38.11591
39.99503
41.90057
43.06674
42.66803
40.14645
35.4534
29.11966
22.06927
15.24973
9.296082
4.29834
-0.1746216
-4.817291
-10.2171
-16.57208
-23.55768
-30.50366
-36.66904
-41.59546
-45.33405
-48.43256
-51.77737
-56.34308
-62.87564
-71.54544
-81.65302
-91.4845
-98.48911
-99.89108
-93.56519
-78.87479
-57.02863
-30.80643
-3.672333
21.24185
41.922
57.67297
68.8049
76.09125
80.25041
81.77509
80.99232
78.27966
74.21033
69.55258
65.11763
61.57196
59.29773
58.33487
58.46524
59.32776
60.52606
61.70805
62.55516
62.76714
62.07198
60.28677
57.37338
53.49425
48.91481
43.92
38.68658
33.24722
27.52864
21.47505
15.15901
8.775909
2.600021
-3.196198
-8.64949
-14.03442
-19.77185
-26.22208
-33.52271
-41.4976
-49.75954
-57.8226
-65.299
-72.0293
-78.11911
-83.97368
-90.25529
-97.7738
-107.1513
-118.3416
-130.1483
-140.1474
-145.1392
-142.106
-129.3849
-107.3736
-78.56697
-46.7396
-15.75773
11.45927
33.43628
50.00254
61.80117
69.75578
74.76836
77.60926
78.97462
79.47002
79.57514
79.58688
79.59305
79.54494
79.31073
78.80294
78.05965
77.21021
76.42517
75.81231
75.31775
74.70501
73.6318
71.76775
68.95079
65.24489
60.89036
56.21287
51.4713
46.78819
42.13756
37.44434
32.65907
27.82489
23.09103
18.58665
14.35917
10.2997
6.204854
1.872101
-2.760356
-7.565125
-12.29142
-16.72251
-20.88091
-25.08505
-29.84548
-35.61997
-42.54165
-50.27616
-58.13808
-65.35834
-71.42516
-76.33409
-80.5488
-84.84306
-90.04748
-96.88586
-105.7761
-116.6047
-128.4262
-139.2565
-146.2308
-146.2606
-137.063
-118.1484
-91.246
-59.898
-28.35163
-0.2446518
22.32195
38.98682
50.65632
58.71773
64.41602
68.56442
71.61221
73.85153
75.57166
77.05362
78.4402
79.68062
80.46777
80.43507
79.34686
77.30492
74.74547
72.29816
70.50444
69.57582
69.28632
69.04788
68.19421
66.22336
62.98598
58.68645
53.75508
48.67598
43.79839
39.26572
34.97375
30.6562
26.01953
20.89799
15.38231
9.81897
4.714874
0.4892883
-2.722748
-5.172699
-7.398865
-9.986298
-13.34225
-17.4928
-22.1319
-26.78012
-31.06601
-34.86603
-38.38101
-42.01437
-46.19473
-51.17914
-56.91788
-63.10248
-69.26288
-74.94702
-79.89377
-84.14182
-88.06967
-92.34717
-97.85065
-105.3609
-115.1661
-126.5736
-137.6303
-145.3308
-146.3991
-138.4219
-120.8358
-95.32303
-65.33078
-34.97076
-7.764313
14.21252
30.4986
41.81467
49.39709
54.44852
57.86807
60.28558
62.16873
63.87994
65.62756
67.39307
68.93372
69.84473
69.73364
68.43021
66.11423
63.28699
60.59622
58.59131
57.50443
57.1553
57.02261
56.46671
54.97141
52.30692
48.64041
44.41299
40.19037
36.45587
33.44266
31.05914
28.97211
26.73212
23.9754
20.56396
16.62906
12.49036
8.512085
4.945557
1.827515
-1.009155
-3.864685
-7.031677
-10.68573
-14.77264
-19.02496
-23.04205
-26.46027
-29.15643
-31.35315
-33.60895
-36.60144
-40.87439
-46.56952
-53.36053
-60.5321
-67.25885
-72.89587
-77.22827
-80.54797
-83.58264
-87.31958
-92.72272
-100.3675
-110.0126
-120.3201
-128.8999
-132.803
-129.4044
-117.3516
-97.13776
-71.04932
-42.48419
-14.93488
8.947693
27.76862
41.34338
50.25549
55.38934
57.64935
57.88025
56.88739
55.42865
54.13086
53.35626
53.15594
53.3205
53.50183
53.42206
52.99194
52.3338
51.70331
51.34528
51.36017
51.63116
51.84894
51.61157
50.57336
48.55121
45.60168
41.98297
38.08124
34.26758
30.78601
27.64972
24.66699
21.55603
18.0976
14.32019
10.46619
6.931824
4.008484
1.730225
-0.1986084
-2.272461
-4.958557
-8.494934
-12.78772
-17.46753
-22.06097
-26.19769
-29.75574
-32.89233
-36.01074
-39.58392
-43.97516
-49.28827
-55.30957
-61.5791
-67.56207
-72.8595
-77.43341
-81.60706
-86.0708
-91.67731
-99.1286
-108.5652
-119.1381
-128.913
-135.116
-134.863
-126.116
-108.5229
-83.66425
-54.65509
-25.19135
1.517029
23.42432
39.82373
50.9903
57.68781
60.76453
61.02911
59.29529
56.43884
53.35083
50.76917
49.12646
48.50739
48.69476
49.33502
50.14392
51.00916
51.9408
53.03296
54.29248
55.58405
56.5976
56.9173
56.20227
54.28693
51.30695
47.62488
43.71545
39.93353
36.40149
32.97583
29.3952
25.48627
21.29999
17.11707
13.24487
9.843262
6.757935
3.566162
-0.1617432
-4.646301
-9.721375
-14.91559
-19.69452
-23.76648
-27.2334
-30.58435
-34.45953
-39.33063
-45.31488
-52.08435
-59.04071
-65.5498
-71.20239
-75.95715
-80.15601
-84.45294
-89.66351
-96.60449
-105.7913
-117.0456
-129.1212
-139.621
-145.3591
-143.2587
-131.4258
-109.9445
-81.05225
-48.46442
-16.2561
12.25458
35.16693
51.99231
63.20251
69.68604
72.3851
72.18643
69.99323
66.72849
63.2807
60.35117
58.35126
57.36267
57.22495
57.63553
58.34491
59.20563
60.20905
61.41122
62.79999
64.22937
65.37643
65.79672
65.08633
63.01352
59.61478
55.1752
50.13226
44.93243
39.90692
35.22385
30.89551
26.81601
22.84061
18.80328
14.57736
10.07727
5.250763
0.1026001
-5.269104
-10.66635
-15.82077
-20.47928
-24.56171
-28.26062
-32.02521
-36.4408
-41.94379
-48.63797
-56.17953
-63.88379
-71.01151
-77.08612
-82.10297
-86.60031
-91.50409
-97.87308
-106.4925
-117.4098
-129.5136
-140.4374
-146.9375
-145.7693
-134.7732
-113.7332
-84.5668
-50.8222
-16.59531
14.60083
40.49887
60.20566
73.87494
82.17468
85.92976
86.00842
83.36356
79.07849
74.31497
70.1078
67.17633
65.80702
65.85303
66.89294
68.48264
70.30632
72.26227
74.36978
76.59314
78.68564
80.20523
80.59404
79.40225
76.45857
71.93047
66.26062
60.05252
53.88655
48.19678
43.15848
38.6581
34.33386
29.71506
24.39148
18.20779
11.37425
4.43013
-1.950867
-7.234253
-11.3006
-14.53925
-17.74319
-21.77612
-27.23317
-34.17747
-42.14047
-50.31792
-57.89043
-64.33012
-69.56906
-74.0107
-78.45753
-83.95015
-91.47804
-101.557
-113.7147
-126.1267
-135.7528
-139.0104
-132.9344
-116.3162
-90.29962
-58.11446
-24.06757
7.754227
34.50218
54.89018
68.95306
77.42979
81.24979
81.2836
78.38206
73.48209
67.62772
61.87411
57.07487
53.73407
51.93941
51.46497
51.94431
53.06326
54.64627
56.64486
59.01002
61.55272
63.89479
65.50267
65.86049
64.63088
61.79338
57.65324
52.7426
47.6713
42.94447
38.80063
35.11474
31.46242
27.25549
22.01217
15.61491
8.386543
1.004387
-5.771446
-11.44647
-16.00961
-19.9583
-24.07651
-29.10022
-35.36958
-42.70283
-50.48431
-57.91845
-64.40565
-69.779
-74.35408
-78.85998
-84.26298
-91.51299
-101.2296
-113.2797
-126.379
-137.9889
-144.6815
-143.06
-130.9645
-108.3934
-77.68603
-42.87562
-8.406971
22.10583
46.5845
64.51576
76.40282
83.10245
85.46047
84.26181
80.38612
74.94676
69.22098
64.34601
61.06967
59.57167
59.53069
60.38747
61.63456
62.98986
64.4395
66.0687
67.86565
69.5938
70.76625
70.79568
69.18804
65.73362
60.5826
54.26662
47.54745
41.1873
35.71662
31.20961
27.26476
23.1787
18.2668
12.20847
5.2295
-1.991494
-8.636909
-14.15828
-18.55995
-22.41801
-26.6151
-31.94721
-38.75999
-46.81723
-55.45511
-63.88822
-71.53822
-78.22739
-84.21103
-90.04206
-96.47771
-104.3132
-114.1719
-126.125
-139.2435
-151.3146
-159.0672
-159.0117
-148.6341
-127.5112
-97.67833
-63.11322
-28.45056
2.407478
27.20205
45.44984
57.86599
65.6101
69.70277
70.88825
69.81488
67.24599
64.12634
61.41169
59.83334
59.68002
60.73814
62.44271
64.16918
65.53201
66.46192
67.19098
67.95927
68.80774
69.46095
69.36902
67.96336
64.91101
60.31613
54.69933
48.85408
43.52798
39.16957
35.76483
32.88708
29.89101
26.19556
21.55072
16.14366
10.5224
5.306046
0.8808136
-2.807541
-6.24057
-10.0831
-14.86966
-20.71573
-27.28168
-33.89058
-39.86157
-44.79941
-48.79053
-52.41676
-56.60576
-62.43097
-70.72185
-81.66525
-94.35966
-106.6685
-115.4764
-117.4908
-110.328
-93.42105
-68.3941
-38.56493
-7.95816
19.90215
42.76057
59.81702
71.33318
78.04718
80.72412
80.00284
76.54628
71.20796
65.08041
59.33566
54.93649
52.38441
51.60326
52.11131
53.3049
54.77341
56.39494
58.22391
60.23657
62.1409
63.36824
63.2794
61.46065
57.91766
53.08775
47.62762
42.15187
36.99869
32.11902
27.18826
21.78755
15.66942
8.911697
1.92981
-4.694031
-10.47624
-15.30063
-19.5271
-23.88144
-29.15514
-35.82909
-43.85414
-52.67862
-61.44774
-69.37262
-76.03851
-81.57381
-86.62061
-92.22615
-99.48883
-109.1549
-121.0654
-133.7518
-144.4122
-149.4607
-145.6214
-131.1006
-106.4367
-74.48689
-39.55638
-6.068542
22.68556
45.1153
61.21318
71.8826
78.28571
81.39857
81.98317
80.73816
78.42102
75.80017
73.52188
71.94223
71.06555
70.63647
70.30255
69.80368
69.09372
68.36194
67.90506
67.93799
68.42624
68.96756
68.85699
67.32825
63.85822
58.43567
51.63779
44.46362
37.94562
32.72156
28.76611
25.42737
21.76859
17.0228
10.98941
4.097351
-2.780182
-8.797791
-13.51874
-17.13751
-20.38655
-24.20621
-29.31995
-35.96616
-43.80591
-52.12314
-60.09785
-67.12436
-72.99901
-77.96611
-82.67035
-88.02078
-94.98592
-104.2261
-115.6512
-127.9739
-138.6013
-144.0914
-141.1408
-127.8055
-104.389
-73.53925
-39.46655
-6.62561
21.54382
43.29776
58.51108
68.0853
73.26361
75.15302
74.63708
72.4949
69.50485
66.44525
63.97891
62.48343
62.00693
62.31039
63.00653
63.76419
64.41266
64.98187
65.6069
66.38977
67.21933
67.74643
67.46545
65.875
62.67883
57.90594
51.93372
45.40857
39.06979
33.50702
28.98526
25.30896
21.88394
17.95377
12.90768
6.598053
-0.5766907
-7.801208
-14.24557
-19.44214
-23.54367
-27.26685
-31.55316
-37.14026
-44.21844
-52.37146
-60.73782
-68.40421
-74.74963
-79.71503
-83.81775
-88.00977
-93.42517
-101.0635
-111.3761
-123.8597
-136.7871
-147.2485
-151.7793
-147.3762
-132.5927
-108.2416
-77.30438
-44.04053
-12.69299
13.65488
33.62607
47.39301
56.03992
60.86487
62.93942
63.01877
61.71002
59.6394
57.46362
55.78128
54.95892
54.99646
55.58951
56.30069
56.81635
57.10645
57.42569
58.0867
59.23187
60.61719
61.63406
61.53656
59.7655
56.20264
51.24319
45.59897
40.01401
34.94757
30.43564
26.15921
21.68793
16.78107
11.54724
6.417145
1.881073
-1.806549
-4.825531
-7.751678
-11.2963
-15.94565
-21.71072
-28.10107
-34.33179
-39.67953
-43.78702
-46.81155
-49.38968
-52.46313
-57.02063
-63.83401
-73.06436
-83.96173
-94.66541
-102.3882
-104.0777
-97.40631
-81.6857
-58.30923
-30.41238
-1.909119
23.72952
44.358
59.40582
69.45023
75.5213
78.51047
78.96625
77.2468
73.81232
69.38812
64.9053
61.25565
59.01288
58.29614
58.80124
59.99832
61.3533
62.47516
63.14685
63.29605
62.90793
61.95203
60.35379
57.97693
54.65918
50.27283
44.79727
38.39081
31.39655
24.3049
17.62631
11.72534
6.657745
2.143616
-2.348969
-7.404663
-13.41507
-20.42978
-28.1026
-35.8345
-42.99393
-49.14087
-54.18375
-58.39667
-62.34576
-66.7872
-72.53583
-80.29465
-90.2973
-101.8883
-113.2642
-121.5623
-123.571
-116.8076
-100.5276
-76.21655
-47.20236
-17.57208
9.07901
30.58307
46.39279
57.13815
63.92145
67.76544
69.39642
69.33041
68.04202
66.05911
63.90216
61.98553
60.52756
59.52786
58.85544
58.36298
57.98077
57.76407
57.82199
58.17181
58.63141
58.75983
57.98059
55.85178
52.23914
47.4429
42.03799
36.59494
31.42184
26.45401
21.38748
15.90698
9.927917
3.650513
-2.557953
-8.375305
-13.71219
-18.77158
-23.95169
-29.64474
-36.06375
-43.11978
-50.48297
-57.72678
-64.48856
-70.62436
-76.25223
-81.75467
-87.76939
-95.07553
-104.2787
-115.3487
-127.1484
-137.2927
-142.5615
-139.8693
-127.4436
-105.6544
-77.06125
-45.60561
-15.33104
10.77443
31.34225
46.43253
56.94165
63.95621
68.41119
71.00635
72.34119
72.95059
73.29539
73.67451
74.15446
74.62241
74.85207
74.63927
73.90509
72.75644
71.44284
70.28519
69.54036
69.24606
69.16805
68.79855
67.57083
65.04242
61.10686
56.00912
50.26633
44.46677
39.06973
34.2776
30.01665
26.01271
21.92297
17.4417
12.40794
6.843475
0.9703217
-4.865295
-10.28149
-15.03029
-19.13876
-22.95934
-27.08846
-32.14461
-38.48869
-46.01218
-54.17503
-62.20462
-69.4037
-75.4527
-80.50732
-85.14105
-90.16003
-96.46599
-104.7996
-115.4715
-127.894
-140.2637
-149.5916
-152.3539
-145.6313
-128.3416
-101.9053
-69.96198
-37.17905
-7.749176
15.79427
32.87758
44.42628
51.95001
56.78342
59.78403
61.44537
62.16634
62.40504
62.63186
63.14418
63.94109
64.74339
65.1658
64.95691
64.13329
62.97158
61.86597
61.14827
60.88455
60.83568
60.49789
59.31979
56.90656
53.17341
48.39635
43.06403
37.69405
32.65314
28.07043
23.87936
19.94216
16.15767
12.46394
8.799683
5.033577
0.9927292
-3.450851
-8.22966
-13.05577
-17.51552
-21.31316
-24.4752
-27.4544
-30.97111
-35.68291
-41.83875
-49.10182
-56.68964
-63.6902
-69.484
-73.98235
-77.65625
-81.37385
-86.12061
-92.74545
-101.651
-112.429
-123.6279
-132.7431
-136.6741
-132.6229
-119.1253
-96.76907
-68.18557
-37.2728
-7.966629
16.85457
35.9412
49.48804
58.52235
64.22189
67.48297
68.8884
68.87846
67.94996
66.71301
65.77843
65.5341
66.04141
67.01685
68.04763
68.82726
69.32748
69.76038
70.41731
71.39692
72.44506
72.98082
72.33604
70.03394
66.03979
60.78547
55.01175
49.4677
44.62434
40.50902
36.73795
32.69715
27.85416
22.01155
15.41714
8.680954
2.48233
-2.724068
-6.950287
-10.66162
-14.58455
-19.36418
-25.24103
-31.97921
-38.95492
-45.49393
-51.15498
-55.9471
-60.31389
-64.99688
-70.82468
-78.4724
-88.12616
-99.13986
-109.8464
-117.6439
-119.6363
-113.5396
-98.59848
-76.05941
-48.869
-20.75912
4.889496
25.89048
41.52142
52.16268
58.7075
62.04432
62.84238
61.64198
59.03965
55.77586
52.6673
50.38536
49.25919
49.17889
49.6877
50.23262
50.45437
50.34999
50.22429
50.44724
51.17695
52.14294
52.72883
52.19357
50.03052
46.2196
41.25772
35.96489
31.16668
27.32765
24.40861
21.89736
19.03654
15.19395
10.14013
4.14974
-2.119228
-7.937841
-12.86984
-17.0001
-20.88881
-25.32488
-30.91967
-37.80957
-45.59086
-53.49939
-60.75985
-66.89687
-71.92984
-76.32307
-80.87315
-86.53391
-94.16085
-104.1598
-116.0273
-128.0176
-137.2299
-140.2691
-134.3278
-118.3276
-93.49007
-63.071
-31.31012
-2.109253
21.96526
40.02872
52.5158
60.53194
65.23191
67.53114
68.1208
67.60313
66.57846
65.612
65.1126
65.22164
65.78208
66.43597
66.78147
66.58837
65.88409
64.94983
64.1948
63.89591
64.03177
64.21303
63.79991
62.13013
58.79945
53.83618
47.69808
41.10963
34.78972
29.1983
24.42971
20.22131
16.13612
11.76292
6.878403
1.522865
-4.02372
-9.347504
-14.08581
-18.09291
-21.55576
-24.96575
-28.96429
-34.07976
-40.49488
-47.92799
-55.74242
-63.16955
-69.63617
-74.97488
-79.46266
-83.76598
-88.78699
-95.47917
-104.5364
-115.971
-128.6884
-140.2997
-147.4919
-146.9515
-136.5393
-116.2538
-88.38695
-56.83888
-25.86607
1.178299
22.52554
37.94992
48.21089
54.3815
57.43437
58.18524
57.38284
55.83442
54.33078
53.4577
53.42143
54.00806
54.69839
54.91459
54.32847
53.02138
51.4643
50.29044
49.9656
50.51435
51.45999
52.00414
51.34661
49.05663
45.22927
40.43142
35.44645
30.94228
27.21424
24.10583
21.1213
17.67735
13.41031
8.333969
2.852257
-2.427994
-6.981552
-10.6247
-13.60903
-16.51387
-20.00458
-24.5593
-30.25298
-36.75528
-43.45178
-49.69077
-55.03557
-59.40643
-63.12898
-66.86013
-71.46425
-77.7797
-86.2517
-96.49577
-106.9868
-115.0929
-117.6702
-112.0518
-97.09481
-73.76241
-44.96514
-14.61527
13.58602
37.13409
55.07655
67.67042
75.73071
80.07136
81.29606
79.90805
76.53925
72.05178
67.43214
63.52708
60.86417
59.5353
59.30342
59.76714
60.55292
61.39373
62.14796
62.71717
62.97553
62.70529
61.62119
59.45036
56.04959
51.52431
46.19444
40.51005
34.85719
29.40604
24.06363
18.60671
12.87915
6.922623
0.9892426
-4.635857
-9.841652
-14.80522
-19.91085
-25.54319
-31.87655
-38.76869
-45.83918
-52.6405
-58.84788
-64.39058
-69.50808
-74.72431
-80.81776
-88.63708
-98.71166
-110.7628
-123.2583
-133.4074
-137.7728
-133.3788
-118.8639
-95.15788
-65.28771
-33.4166
-3.526665
21.62772
40.90807
54.49897
63.28674
68.2821
70.30598
70.05013
68.2212
65.61842
63.04422
61.14548
60.23883
60.25025
60.79318
61.38544
61.67374
61.60019
61.35949
61.26534
61.48655
61.86374
61.92035
61.0162
58.65443
54.70315
49.49037
43.66248
37.88023
32.54173
27.61043
22.66839
17.19032
10.86188
3.816765
-3.401794
-10.0704
-15.66
-20.12949
-23.96307
-27.98131
-32.93748
-39.19796
-46.58421
-54.4669
-62.0248
-68.61731
-74.01171
-78.53466
-82.95688
-88.34819
-95.71651
-105.6056
-117.6438
-130.2283
-140.6008
-145.3831
-141.5907
-127.6944
-104.3099
-74.18108
-41.35307
-9.949356
16.95026
37.8558
52.75162
62.48544
68.14206
70.65359
70.76546
69.20667
66.80041
64.38806
62.65801
61.91618
62.01466
62.46626
62.71264
62.40229
61.59008
60.65426
60.07713
60.12778
60.6338
60.96875
60.26741
57.80906
53.33691
47.20969
40.28147
33.55833
27.79506
23.20075
19.41218
15.72455
11.46087
6.301712
0.4584618
-5.490768
-10.87931
-15.32477
-18.94196
-22.31587
-26.23056
-31.30543
-37.71259
-45.10175
-52.75208
-59.87775
-65.93657
-70.84494
-75.00434
-79.22263
-84.52156
-91.84163
-101.6077
-113.2504
-124.9128
-133.5945
-135.8815
-129.078
-112.2906
-86.9012
-56.23487
-24.47752
4.612022
28.63412
46.77038
59.42112
67.54818
72.14595
74.01873
73.82877
72.24461
69.99559
67.7822
66.18093
65.52008
65.82713
66.89089
68.35773
69.8637
71.16168
72.12854
72.75752
73.06199
72.99913
72.41399
71.07214
68.72498
65.20313
60.48517
54.73173
48.24495
41.41315
34.59746
28.05482
21.90323
16.11758
10.54639
4.983477
-0.8114738
-7.025351
-13.73412
-20.83397
-28.03544
-34.908
-41.06099
-46.33426
-50.93645
-55.48391
-60.86263
-67.95303
-77.27454
-88.53244
-100.3445
-110.2839
-115.351
-112.8101
-101.1707
-80.82321
-54.11681
-24.68419
3.635832
27.86101
46.49551
59.48117
67.66601
72.13593
73.77505
73.17513
70.81815
67.30942
63.41845
59.9452
57.49917
56.29262
56.11127
56.49061
56.96802
57.25041
57.27167
57.06858
56.64231
55.85316
54.44701
52.18448
48.97368
44.91956
40.23646
35.12543
29.6641
23.83917
17.62173
11.10029
4.52158
-1.774826
-7.532131
-12.74278
-17.70626
-22.93177
-28.89215
-35.77924
-43.37416
-51.12905
-58.37992
-64.64446
-69.82922
-74.27482
-78.69659
-84.01342
-91.12246
-100.5533
-112.054
-124.2364
-134.5235
-139.6427
-136.5742
-123.6982
-101.5362
-72.74759
-41.28592
-11.12955
14.79842
35.14323
49.90305
59.84612
65.91946
68.9456
69.63148
68.69898
66.9351
65.10001
63.72848
63.02821
62.87443
62.92451
62.8401
62.42917
61.70914
60.85406
60.07139
59.44254
58.82817
57.90018
56.23612
53.53772
49.74563
45.06367
39.85236
34.44328
28.98714
23.41586
17.55236
11.26464
4.645004
-1.985245
-8.227058
-13.84076
-18.91335
-23.88959
-29.34982
-35.72049
-43.0246
-50.84017
-58.51925
-65.49508
-71.54189
-76.86763
-82.0273
-87.75466
-94.82235
-103.8319
-114.9086
-127.2917
-139.062
-147.2325
-148.4735
-140.2448
-121.8783
-95.07585
-63.47124
-31.49256
-2.961571
19.83138
36.37
47.40955
54.25831
58.13641
59.90076
60.09302
59.13303
57.47099
55.6208
54.06729
53.13174
52.89735
53.18198
53.66933
54.05244
54.16945
54.04246
53.79172
53.4735
52.9635
51.97185
50.17473
47.3515
43.5072
38.8551
33.71292
28.40881
23.19112
18.20878
13.53142
9.18103
5.098953
1.162819
-2.859669
-7.240738
-12.18344
-17.71014
-23.57995
-29.37548
-34.65061
-39.13818
-42.87177
-46.22156
-49.75449
-54.15431
-60.05903
-67.8904
-77.5605
-88.11807
-97.60153
-103.2726
-102.3159
-92.85577
-74.75914
-49.90532
-21.65694
6.19762
30.57327
49.76641
63.49641
72.3936
77.34827
79.09453
78.13036
74.94853
70.25694
65.05306
60.43356
57.26252
55.89501
56.06569
57.08759
58.15886
58.72114
58.55521
57.73872
56.46148
54.83622
52.83627
50.30804
47.07934
43.0176
38.07549
32.30344
25.86293
19.04309
12.23396
5.833252
0.1251335
-4.835327
-9.295376
-13.70285
-18.56114
-24.24415
-30.83348
-38.07558
-45.45463
-52.38584
-58.42381
-63.43959
-67.71899
-71.89153
-76.83556
-83.45081
-92.32343
-103.2194
-114.7619
-124.3571
-128.713
-124.8586
-111.2611
-88.57117
-59.56273
-28.27981
1.246338
26.09964
45.00628
58.1446
66.54161
71.40076
73.702
74.15948
73.31641
71.71346
69.8866
68.30063
67.22456
66.646
66.33064
65.94334
65.24438
64.25996
63.24864
62.51258
62.1795
61.98989
61.34775
59.61467
56.38938
51.76133
46.24696
40.56573
35.25359
30.50336
26.08117
21.52591
16.40575
10.56071
4.183212
-2.280045
-8.315033
-13.64278
-18.36354
-22.95156
-28.06106
-34.18533
-41.39328
-49.26505
-57.04389
-64.00007
-69.7531
-74.43118
-78.69099
-83.52291
-89.98708
-98.85355
-110.1403
-122.7271
-134.2324
-141.3654
-140.8141
-130.4151
-110.0743
-82.01001
-50.12719
-18.76101
8.594421
30.09603
45.57834
56.02602
62.78879
67.03178
69.52482
70.74535
71.06473
70.86636
70.48909
70.12792
69.76361
69.16848
68.08504
66.41897
64.34377
62.27396
60.64733
59.67047
59.13592
58.42823
56.76542
53.56608
48.73888
42.75211
36.43589
30.57874
25.56316
21.23477
17.03504
12.3484
6.866081
0.7562103
-5.469109
-11.24575
-16.30138
-20.81241
-25.29998
-30.34009
-36.26825
-42.99979
-50.06921
-56.84004
-62.75534
-67.6025
-71.59477
-75.36272
-79.82436
-85.95982
-94.47448
-105.3943
-117.6929
-129.1783
-136.8124
-137.4828
-129.0155
-111.0456
-85.28689
-55.09749
-24.50026
2.987648
25.15907
41.37154
52.22144
58.91612
62.69139
64.49777
64.96001
64.51671
63.57635
62.56531
61.87445
61.72559
62.08117
62.67414
63.17858
63.35998
63.22614
63.00044
62.93917
63.12943
63.34994
63.1132
61.88414
59.35601
55.5801
50.95705
46.04555
41.27603
36.82907
32.60036
28.35373
23.90077
19.23303
14.52724
9.997227
5.72543
1.528271
-2.953964
-8.100731
-14.0612
-20.65371
-27.41014
-33.7877
-39.43052
-44.32695
-48.85164
-53.65464
-59.52983
-67.15355
-76.75497
-87.75578
-98.51254
-106.4442
-108.5818
-102.5557
-87.53107
-64.74974
-37.24933
-8.943306
16.61202
37.13696
51.94186
61.58172
67.16247
69.72672
69.97005
68.35126
65.33286
61.57296
57.88551
55.02473
53.41239
53.014
53.41736
54.09786
54.70351
55.17757
55.66494
56.27225
56.84109
56.8855
55.75718
52.97691
48.51455
42.86258
36.82408
31.16612
26.2681
22.01705
17.91988
13.4109
8.185715
2.342072
-3.711685
-9.490646
-14.7258
-19.51991
-24.28008
-29.50935
-35.53352
-42.30557
-49.43832
-56.35875
-62.57358
-67.89037
-72.51349
-77.02827
-82.2683
-89.12825
-98.24554
-109.5992
-122.1444
-133.6617
-141.0658
-141.2005
-131.9253
-112.9786
-86.28589
-55.4433
-24.59888
2.738373
24.52921
40.33345
50.88531
57.4445
61.21089
63.12589
63.83305
63.82753
63.52213
63.2574
63.24695
63.52995
63.94525
64.20068
64.02728
63.3235
62.23579
61.10548
60.31557
60.03255
60.03336
59.73573
58.39915
55.48357
50.90849
45.14597
39.00435
33.30727
28.52576
24.56964
20.8961
16.75243
11.56837
5.233932
-1.829163
-8.860458
-15.12564
-20.25369
-24.46288
-28.45016
-33.095
-39.03442
-46.36674
-54.6003
-62.86952
-70.32059
-76.46014
-81.33319
-85.48734
-89.80174
-95.26752
-102.7409
-112.6254
-124.448
-136.5662
-146.1961
-149.9682
-144.9913
-129.9756
-105.9155
-75.90146
-44.15471
-14.66797
9.897064
28.57547
41.79907
50.67091
56.32912
59.61615
61.15257
61.47952
61.15829
60.71065
60.47673
60.5341
60.70541
60.7016
60.32973
59.63406
58.91322
58.57849
58.90486
59.83774
60.93095
61.45157
60.68883
58.23503
54.1626
49.01514
43.59383
38.66823
34.68008
31.58835
28.89525
25.87732
21.92474
16.83159
10.92053
4.926392
-0.3744965
-4.569016
-7.808456
-10.77216
-14.2888
-18.91179
-24.6416
-30.95215
-37.05119
-42.29439
-46.45631
-49.79694
-52.99715
-56.91974
-62.44003
-70.18559
-80.18956
-91.54808
-102.2439
-109.4156
-110.0703
-102.1046
-85.16638
-60.95164
-32.73521
-4.351151
20.94698
41.2191
55.9734
65.7467
71.44095
73.87886
73.63019
71.17747
67.1528
62.45462
58.09387
54.95209
53.48384
53.58385
54.70528
56.13715
57.31894
58.02663
58.31224
58.31569
58.06522
57.33762
55.76691
53.03761
49.10196
44.23897
38.92754
33.63451
28.60133
23.74918
18.80115
13.46014
7.641113
1.531403
-4.485916
-10.02721
-14.93501
-19.34502
-23.66565
-28.40651
-33.96059
-40.43259
-47.60748
-55.0011
-62.04196
-68.29219
-73.62408
-78.32906
-83.12207
-89.01437
-96.99559
-107.5208
-119.9629
-132.3035
-141.3479
-143.5466
-136.2105
-118.5975
-92.33289
-60.9581
-28.76656
0.4754791
24.43462
42.39709
54.84006
62.7975
67.3105
69.23106
69.26166
68.06039
66.30348
64.61275
63.43814
62.97769
63.1515
63.65666
64.15054
64.39438
64.35895
64.21159
64.17947
64.31758
64.39833
63.94128
62.39363
59.42007
55.0753
49.82817
44.36984
39.31844
34.93411
31.01198
27.0107
22.30124
16.50772
9.717819
2.490891
-4.37114
-10.19579
-14.74915
-18.39148
-21.91306
-26.20181
-31.83293
-38.83994
-46.75595
-54.83791
-62.41515
-69.11427
-74.97629
-80.39046
-86.01314
-92.67479
-101.1917
-112.0089
-124.713
-137.6325
-147.8335
-151.7537
-146.3379
-130.245
-104.5501
-72.55759
-38.75293
-7.402466
18.59189
38.14289
51.68566
60.45713
65.7635
68.58519
69.56948
69.21368
68.05878
66.70361
65.70082
65.38306
65.74244
66.46987
67.13714
67.3983
67.15981
66.59447
66.01413
65.6519
65.468
65.09612
63.9892
61.66489
57.94221
53.05327
47.56364
42.16914
37.40335
33.45547
30.11649
26.8989
23.24197
18.74227
13.29128
7.128448
0.7767563
-5.139221
-10.10105
-13.91384
-16.81294
-19.4127
-22.48637
-26.66372
-32.1732
-38.74738
-45.75642
-52.47839
-58.42023
-63.49313
-68.05101
-72.73486
-78.31783
-85.52859
-94.79532
-105.9049
-117.6605
-127.7494
-133.0836
-130.6252
-118.4479
-96.60073
-67.30754
-34.36142
-1.968163
26.45901
49.02327
65.3866
76.24579
82.66769
85.57857
85.68989
83.66694
80.33209
76.70982
73.80888
72.34211
72.46323
73.77026
75.5537
77.14198
78.21115
78.81073
79.17919
79.44163
79.39619
78.56679
76.42597
72.73323
67.6739
61.79528
55.75726
50.03628
44.74443
39.6836
34.50447
28.96256
23.05515
17.04173
11.31621
6.210625
1.852989
-1.932732
-5.547226
-9.474228
-14.05014
-19.31524
-25.01439
-30.67766
-35.86232
-40.36664
-44.32349
-48.19109
-52.67771
-58.57498
-66.49811
-76.46945
-87.49274
-97.29756
-102.6199
-100.0358
-87.1321
-63.58418
-31.46405
5.334396
42.28741
75.55823
102.7743
123.0487
136.535
143.8568
145.777
143.1777
137.1329
128.8438
119.3747
109.3373
98.71161
86.95262
73.23572
56.83081
37.42249
15.27068
-8.791931
-33.49286
-57.32918
-78.88155
-97.03787
-111.1355
-120.9362
-126.4556
-127.8025
-125.1372
-118.7066
-109.0061
-96.90381
-83.58701
-70.41251
-58.59082
-48.91071
-41.6185
-36.43393
-32.74658
-29.90845
-27.5271
-25.58203
-24.43268
-24.61151
-26.52502
-30.23926
-35.37833
-41.28073
-47.21777
-52.69336
-57.5748
-62.13608
-66.99011
-72.96173
-80.91263
-91.42584
-104.3317
-118.2474
-130.462
-137.3616
-135.4922
-122.7923
-99.53122
-68.44174
-33.89725
-0.5855103
27.8501
49.51906
64.27449
73.1544
77.62834
79.08499
78.57346
76.86777
74.56189
72.17783
70.15491
68.80345
68.22621
68.28462
68.65591
68.97108
68.98965
68.69667
68.29405
68.03072
68.01042
68.01071
67.48694
65.78391
62.39363
57.21306
50.60976
43.3257
36.20712
29.9438
24.83318
20.71271
17.07516
13.26833
8.766571
3.39772
-2.615616
-8.727798
-14.35608
-19.14928
-23.18417
-26.97249
-31.23163
-36.5549
-43.11111
-50.54524
-58.12592
-65.05563
-70.84776
-75.49998
-79.53409
-83.84317
-89.43526
-97.14857
-107.2878
-119.252
-131.258
-140.4809
-143.5817
-137.7324
-121.6309
-96.17818
-64.36082
-30.41003
1.468155
28.21532
48.46001
62.36702
70.99556
75.61882
77.29065
76.79797
74.83108
72.14512
69.55288
67.75584
67.1366
67.63723
68.84615
70.23306
71.43662
72.4267
73.40415
74.59112
75.96187
77.10974
77.37566
76.13065
73.11681
68.59009
63.22572
57.79848
52.84092
48.41948
44.17165
39.56496
34.21661
28.1339
21.67282
15.35233
9.5569
4.315983
-0.7126083
-6.085106
-12.26769
-19.42228
-27.26967
-35.22039
-42.62108
-49.04174
-54.47373
-59.35783
-64.50274
-70.84309
-79.25441
-90.1519
-103.0984
-116.4987
-127.6253
-133.1319
-130.0268
-116.7805
-94.01668
-64.49151
-32.2562
-1.415264
24.97152
45.41177
59.82493
68.96371
73.80515
75.23775
74.05578
71.12138
67.43011
63.98614
61.56273
60.47171
60.52864
