1570526327.6708
1570526327.68643
1570526327.70206
1570526327.71768
1570526327.73331
1570526327.74893
1570526327.76456
1570526327.78018
1570526327.79581
1570526327.81144
1570526327.82706
1570526327.84269
1570526327.85831
1570526327.87394
1570526327.88956
1570526327.90519
1570526327.92082
1570526327.93644
1570526327.95207
1570526327.96769
1570526327.98332
1570526327.99894
1570526328.01457
1570526328.0302
1570526328.04582
1570526328.06145
1570526328.07707
1570526328.0927
1570526328.10832
1570526328.12395
1570526328.13958
1570526328.1552
1570526328.17083
1570526328.18645
1570526328.20208
1570526328.2177
1570526328.23333
1570526328.24896
1570526328.26458
1570526328.28021
1570526328.29583
1570526328.31146
1570526328.32708
1570526328.34271
1570526328.35834
1570526328.37396
1570526328.38959
1570526328.40521
1570526328.42084
1570526328.43646
1570526328.45209
1570526328.46772
1570526328.48334
1570526328.49897
1570526328.51459
1570526328.53022
1570526328.54584
1570526328.56147
1570526328.5771
1570526328.59272
1570526328.60835
1570526328.62397
1570526328.6396
1570526328.65522
1570526328.67085
1570526328.68648
1570526328.7021
1570526328.71773
1570526328.73335
1570526328.74898
1570526328.7646
1570526328.78023
1570526328.79586
1570526328.81148
1570526328.82711
1570526328.84273
1570526328.85836
1570526328.87398
1570526328.88961
1570526328.90524
1570526328.92086
1570526328.93649
1570526328.95211
1570526328.96774
1570526328.98336
1570526328.99899
1570526329.01462
1570526329.03024
1570526329.04587
1570526329.06149
1570526329.07712
1570526329.09274
1570526329.10837
1570526329.124
1570526329.13962
1570526329.15525
1570526329.17087
1570526329.1865
1570526329.20212
1570526329.21775
1570526329.23338
1570526329.249
1570526329.26463
1570526329.28025
1570526329.29588
1570526329.31151
1570526329.32713
1570526329.34276
1570526329.35838
1570526329.37401
1570526329.38963
1570526329.40526
1570526329.42089
1570526329.43651
1570526329.45214
1570526329.46776
1570526329.48339
1570526329.49901
1570526329.51464
1570526329.53027
1570526329.54589
1570526329.56152
1570526329.57714
1570526329.59277
1570526329.60839
1570526329.62402
1570526329.63965
1570526329.65527
1570526329.6709
1570526329.68652
1570526329.70215
1570526329.71777
1570526329.7334
1570526329.74903
1570526329.76465
1570526329.78028
1570526329.7959
1570526329.81153
1570526329.82715
1570526329.84278
1570526329.85841
1570526329.87403
1570526329.88966
1570526329.90528
1570526329.92091
1570526329.93653
1570526329.95216
1570526329.96779
1570526329.98341
1570526329.99904
1570526330.01466
1570526330.03029
1570526330.04591
1570526330.06154
1570526330.07717
1570526330.09279
1570526330.10842
1570526330.12404
1570526330.13967
1570526330.15529
1570526330.17092
1570526330.18655
1570526330.20217
1570526330.2178
1570526330.23342
1570526330.24905
1570526330.26467
1570526330.2803
1570526330.29593
1570526330.31155
1570526330.32718
1570526330.3428
1570526330.35843
1570526330.37405
1570526330.38968
1570526330.40531
1570526330.42093
1570526330.43656
1570526330.45218
1570526330.46781
1570526330.48343
1570526330.49906
1570526330.51469
1570526330.53031
1570526330.54594
1570526330.56156
1570526330.57719
1570526330.59281
1570526330.60844
1570526330.62407
1570526330.63969
1570526330.65532
1570526330.67094
1570526330.68657
1570526330.70219
1570526330.71782
1570526330.73345
1570526330.74907
1570526330.7647
1570526330.78032
1570526330.79595
1570526330.81157
1570526330.8272
1570526330.84283
1570526330.85845
1570526330.87408
1570526330.8897
1570526330.90533
1570526330.92095
1570526330.93658
1570526330.95221
1570526330.96783
1570526330.98346
1570526330.99908
1570526331.01471
1570526331.03033
1570526331.04596
1570526331.06159
1570526331.07721
1570526331.09284
1570526331.10846
1570526331.12409
1570526331.13971
1570526331.15534
1570526331.17097
1570526331.18659
1570526331.20222
1570526331.21784
1570526331.23347
1570526331.24909
1570526331.26472
1570526331.28035
1570526331.29597
1570526331.3116
1570526331.32722
1570526331.34285
1570526331.35847
1570526331.3741
1570526331.38973
1570526331.40535
1570526331.42098
1570526331.4366
1570526331.45223
1570526331.46785
1570526331.48348
1570526331.49911
1570526331.51473
1570526331.53036
1570526331.54598
1570526331.56161
1570526331.57723
1570526331.59286
1570526331.60849
1570526331.62411
1570526331.63974
1570526331.65536
1570526331.67099
1570526331.68661
1570526331.70224
1570526331.71787
1570526331.73349
1570526331.74912
1570526331.76474
1570526331.78037
1570526331.796
1570526331.81162
1570526331.82725
1570526331.84287
1570526331.8585
1570526331.87412
1570526331.88975
1570526331.90538
1570526331.921
1570526331.93663
1570526331.95225
1570526331.96788
1570526331.9835
1570526331.99913
1570526332.01476
1570526332.03038
1570526332.04601
1570526332.06163
1570526332.07726
1570526332.09288
1570526332.10851
1570526332.12414
1570526332.13976
1570526332.15539
1570526332.17101
1570526332.18664
1570526332.20226
1570526332.21789
1570526332.23352
1570526332.24914
1570526332.26477
1570526332.28039
1570526332.29602
1570526332.31164
1570526332.32727
1570526332.3429
1570526332.35852
1570526332.37415
1570526332.38977
1570526332.4054
1570526332.42102
1570526332.43665
1570526332.45228
1570526332.4679
1570526332.48353
1570526332.49915
1570526332.51478
1570526332.5304
1570526332.54603
1570526332.56166
1570526332.57728
1570526332.59291
1570526332.60853
1570526332.62416
1570526332.63978
1570526332.65541
1570526332.67104
1570526332.68666
1570526332.70229
1570526332.71791
1570526332.73354
1570526332.74916
1570526332.76479
1570526332.78042
1570526332.79604
1570526332.81167
1570526332.82729
1570526332.84292
1570526332.85854
1570526332.87417
1570526332.8898
1570526332.90542
1570526332.92105
1570526332.93667
1570526332.9523
1570526332.96792
1570526332.98355
1570526332.99918
1570526333.0148
1570526333.03043
1570526333.04605
1570526333.06168
1570526333.0773
1570526333.09293
1570526333.10856
1570526333.12418
1570526333.13981
1570526333.15543
1570526333.17106
1570526333.18668
1570526333.20231
1570526333.21794
1570526333.23356
1570526333.24919
1570526333.26481
1570526333.28044
1570526333.29606
1570526333.31169
1570526333.32732
1570526333.34294
1570526333.35857
1570526333.37419
1570526333.38982
1570526333.40544
1570526333.42107
1570526333.4367
1570526333.45232
1570526333.46795
1570526333.48357
1570526333.4992
1570526333.51482
1570526333.53045
1570526333.54608
1570526333.5617
1570526333.57733
1570526333.59295
1570526333.60858
1570526333.6242
1570526333.63983
1570526333.65546
1570526333.67108
1570526333.68671
1570526333.70233
1570526333.71796
1570526333.73358
1570526333.74921
1570526333.76484
1570526333.78046
1570526333.79609
1570526333.81171
1570526333.82734
1570526333.84296
1570526333.85859
1570526333.87422
1570526333.88984
1570526333.90547
1570526333.92109
1570526333.93672
1570526333.95234
1570526333.96797
1570526333.9836
1570526333.99922
1570526334.01485
1570526334.03047
1570526334.0461
1570526334.06172
1570526334.07735
1570526334.09298
1570526334.1086
1570526334.12423
1570526334.13985
1570526334.15548
1570526334.1711
1570526334.18673
1570526334.20236
1570526334.21798
1570526334.23361
1570526334.24923
1570526334.26486
1570526334.28049
1570526334.29611
1570526334.31174
1570526334.32736
1570526334.34299
1570526334.35861
1570526334.37424
1570526334.38987
1570526334.40549
1570526334.42112
1570526334.43674
1570526334.45237
1570526334.46799
1570526334.48362
1570526334.49925
1570526334.51487
1570526334.5305
1570526334.54612
1570526334.56175
1570526334.57737
1570526334.593
1570526334.60863
1570526334.62425
1570526334.63988
1570526334.6555
1570526334.67113
1570526334.68675
1570526334.70238
1570526334.71801
1570526334.73363
1570526334.74926
1570526334.76488
1570526334.78051
1570526334.79613
1570526334.81176
1570526334.82739
1570526334.84301
1570526334.85864
1570526334.87426
1570526334.88989
1570526334.90551
1570526334.92114
1570526334.93677
1570526334.95239
1570526334.96802
1570526334.98364
1570526334.99927
1570526335.01489
1570526335.03052
1570526335.04615
1570526335.06177
1570526335.0774
1570526335.09302
1570526335.10865
1570526335.12427
1570526335.1399
1570526335.15553
1570526335.17115
1570526335.18678
1570526335.2024
1570526335.21803
1570526335.23365
1570526335.24928
1570526335.26491
1570526335.28053
1570526335.29616
1570526335.31178
1570526335.32741
1570526335.34303
1570526335.35866
1570526335.37429
1570526335.38991
1570526335.40554
1570526335.42116
1570526335.43679
1570526335.45241
1570526335.46804
1570526335.48367
1570526335.49929
1570526335.51492
1570526335.53054
1570526335.54617
1570526335.56179
1570526335.57742
1570526335.59305
1570526335.60867
1570526335.6243
1570526335.63992
1570526335.65555
1570526335.67117
1570526335.6868
1570526335.70243
1570526335.71805
1570526335.73368
1570526335.7493
1570526335.76493
1570526335.78055
1570526335.79618
1570526335.81181
1570526335.82743
1570526335.84306
1570526335.85868
1570526335.87431
1570526335.88993
1570526335.90556
1570526335.92119
1570526335.93681
1570526335.95244
1570526335.96806
1570526335.98369
1570526335.99931
1570526336.01494
1570526336.03057
1570526336.04619
1570526336.06182
1570526336.07744
1570526336.09307
1570526336.10869
1570526336.12432
1570526336.13995
1570526336.15557
1570526336.1712
1570526336.18682
1570526336.20245
1570526336.21807
1570526336.2337
1570526336.24933
1570526336.26495
1570526336.28058
1570526336.2962
1570526336.31183
1570526336.32745
1570526336.34308
1570526336.35871
1570526336.37433
1570526336.38996
1570526336.40558
1570526336.42121
1570526336.43684
1570526336.45246
1570526336.46809
1570526336.48371
1570526336.49934
1570526336.51496
1570526336.53059
1570526336.54622
1570526336.56184
1570526336.57747
1570526336.59309
1570526336.60872
1570526336.62434
1570526336.63997
1570526336.6556
1570526336.67122
1570526336.68685
1570526336.70247
1570526336.7181
1570526336.73372
1570526336.74935
1570526336.76498
1570526336.7806
1570526336.79623
1570526336.81185
1570526336.82748
1570526336.8431
1570526336.85873
1570526336.87436
1570526336.88998
1570526336.90561
1570526336.92123
1570526336.93686
1570526336.95248
1570526336.96811
1570526336.98374
1570526336.99936
1570526337.01499
1570526337.03061
1570526337.04624
1570526337.06186
1570526337.07749
1570526337.09312
1570526337.10874
1570526337.12437
1570526337.13999
1570526337.15562
1570526337.17124
1570526337.18687
1570526337.2025
1570526337.21812
1570526337.23375
1570526337.24937
1570526337.265
1570526337.28062
1570526337.29625
1570526337.31188
1570526337.3275
1570526337.34313
1570526337.35875
1570526337.37438
1570526337.39
1570526337.40563
1570526337.42126
1570526337.43688
1570526337.45251
1570526337.46813
1570526337.48376
1570526337.49938
1570526337.51501
1570526337.53064
1570526337.54626
1570526337.56189
1570526337.57751
1570526337.59314
1570526337.60876
1570526337.62439
1570526337.64002
1570526337.65564
1570526337.67127
1570526337.68689
1570526337.70252
1570526337.71814
1570526337.73377
1570526337.7494
1570526337.76502
1570526337.78065
1570526337.79627
1570526337.8119
1570526337.82752
1570526337.84315
1570526337.85878
1570526337.8744
1570526337.89003
1570526337.90565
1570526337.92128
1570526337.9369
1570526337.95253
1570526337.96816
1570526337.98378
1570526337.99941
1570526338.01503
1570526338.03066
1570526338.04628
1570526338.06191
1570526338.07754
1570526338.09316
1570526338.10879
1570526338.12441
1570526338.14004
1570526338.15566
1570526338.17129
1570526338.18692
1570526338.20254
1570526338.21817
1570526338.23379
1570526338.24942
1570526338.26504
1570526338.28067
1570526338.2963
1570526338.31192
1570526338.32755
1570526338.34317
1570526338.3588
1570526338.37442
1570526338.39005
1570526338.40568
1570526338.4213
1570526338.43693
1570526338.45255
1570526338.46818
1570526338.4838
1570526338.49943
1570526338.51506
1570526338.53068
1570526338.54631
1570526338.56193
1570526338.57756
1570526338.59318
1570526338.60881
1570526338.62444
1570526338.64006
1570526338.65569
1570526338.67131
1570526338.68694
1570526338.70256
1570526338.71819
1570526338.73382
1570526338.74944
1570526338.76507
1570526338.78069
1570526338.79632
1570526338.81194
1570526338.82757
1570526338.8432
1570526338.85882
1570526338.87445
1570526338.89007
1570526338.9057
1570526338.92132
1570526338.93695
1570526338.95258
1570526338.9682
1570526338.98383
1570526338.99945
1570526339.01508
1570526339.0307
1570526339.04633
1570526339.06196
1570526339.07758
1570526339.09321
1570526339.10883
1570526339.12446
1570526339.14009
1570526339.15571
1570526339.17134
1570526339.18696
1570526339.20259
1570526339.21821
1570526339.23384
1570526339.24947
1570526339.26509
1570526339.28072
1570526339.29634
1570526339.31197
1570526339.32759
1570526339.34322
1570526339.35885
1570526339.37447
1570526339.3901
1570526339.40572
1570526339.42135
1570526339.43697
1570526339.4526
1570526339.46823
1570526339.48385
1570526339.49948
1570526339.5151
1570526339.53073
1570526339.54635
1570526339.56198
1570526339.57761
1570526339.59323
1570526339.60886
1570526339.62448
1570526339.64011
1570526339.65573
1570526339.67136
1570526339.68699
1570526339.70261
1570526339.71824
1570526339.73386
1570526339.74949
1570526339.76511
1570526339.78074
1570526339.79637
1570526339.81199
1570526339.82762
1570526339.84324
1570526339.85887
1570526339.87449
1570526339.89012
1570526339.90575
1570526339.92137
1570526339.937
1570526339.95262
1570526339.96825
1570526339.98387
1570526339.9995
1570526340.01513
1570526340.03075
1570526340.04638
1570526340.062
1570526340.07763
1570526340.09325
1570526340.10888
1570526340.12451
1570526340.14013
1570526340.15576
1570526340.17138
1570526340.18701
1570526340.20263
1570526340.21826
1570526340.23389
1570526340.24951
1570526340.26514
1570526340.28076
1570526340.29639
1570526340.31201
1570526340.32764
1570526340.34327
1570526340.35889
1570526340.37452
1570526340.39014
1570526340.40577
1570526340.42139
1570526340.43702
1570526340.45265
1570526340.46827
1570526340.4839
1570526340.49952
1570526340.51515
1570526340.53077
1570526340.5464
1570526340.56203
1570526340.57765
1570526340.59328
1570526340.6089
1570526340.62453
1570526340.64015
1570526340.65578
1570526340.67141
1570526340.68703
1570526340.70266
1570526340.71828
1570526340.73391
1570526340.74953
1570526340.76516
1570526340.78079
1570526340.79641
1570526340.81204
1570526340.82766
1570526340.84329
1570526340.85891
1570526340.87454
1570526340.89017
1570526340.90579
1570526340.92142
1570526340.93704
1570526340.95267
1570526340.96829
1570526340.98392
1570526340.99955
1570526341.01517
1570526341.0308
1570526341.04642
1570526341.06205
1570526341.07767
1570526341.0933
1570526341.10893
1570526341.12455
1570526341.14018
1570526341.1558
1570526341.17143
1570526341.18705
1570526341.20268
1570526341.21831
1570526341.23393
1570526341.24956
1570526341.26518
1570526341.28081
1570526341.29644
1570526341.31206
1570526341.32769
1570526341.34331
1570526341.35894
1570526341.37456
1570526341.39019
1570526341.40582
1570526341.42144
1570526341.43707
1570526341.45269
1570526341.46832
1570526341.48394
1570526341.49957
1570526341.5152
1570526341.53082
1570526341.54645
1570526341.56207
1570526341.5777
1570526341.59332
1570526341.60895
1570526341.62458
1570526341.6402
1570526341.65583
1570526341.67145
1570526341.68708
1570526341.7027
1570526341.71833
1570526341.73396
1570526341.74958
1570526341.76521
1570526341.78083
1570526341.79646
1570526341.81208
1570526341.82771
1570526341.84334
1570526341.85896
1570526341.87459
1570526341.89021
1570526341.90584
1570526341.92146
1570526341.93709
1570526341.95272
1570526341.96834
1570526341.98397
1570526341.99959
1570526342.01522
1570526342.03084
1570526342.04647
1570526342.0621
1570526342.07772
1570526342.09335
1570526342.10897
1570526342.1246
1570526342.14022
1570526342.15585
1570526342.17148
1570526342.1871
1570526342.20273
1570526342.21835
1570526342.23398
1570526342.2496
1570526342.26523
1570526342.28086
1570526342.29648
1570526342.31211
1570526342.32773
1570526342.34336
1570526342.35898
1570526342.37461
1570526342.39024
1570526342.40586
1570526342.42149
1570526342.43711
1570526342.45274
1570526342.46836
1570526342.48399
1570526342.49962
1570526342.51524
1570526342.53087
1570526342.54649
1570526342.56212
1570526342.57774
1570526342.59337
1570526342.609
1570526342.62462
1570526342.64025
1570526342.65587
1570526342.6715
1570526342.68712
1570526342.70275
1570526342.71838
1570526342.734
1570526342.74963
1570526342.76525
1570526342.78088
1570526342.7965
1570526342.81213
1570526342.82776
1570526342.84338
1570526342.85901
1570526342.87463
1570526342.89026
1570526342.90588
1570526342.92151
1570526342.93714
1570526342.95276
1570526342.96839
1570526342.98401
1570526342.99964
1570526343.01526
1570526343.03089
1570526343.04652
1570526343.06214
1570526343.07777
1570526343.09339
1570526343.10902
1570526343.12464
1570526343.14027
1570526343.1559
1570526343.17152
1570526343.18715
1570526343.20277
1570526343.2184
1570526343.23402
1570526343.24965
1570526343.26528
1570526343.2809
1570526343.29653
1570526343.31215
1570526343.32778
1570526343.3434
1570526343.35903
1570526343.37466
1570526343.39028
1570526343.40591
1570526343.42153
1570526343.43716
1570526343.45278
1570526343.46841
1570526343.48404
1570526343.49966
1570526343.51529
1570526343.53091
1570526343.54654
1570526343.56217
1570526343.57779
1570526343.59342
1570526343.60904
1570526343.62467
1570526343.64029
1570526343.65592
1570526343.67155
1570526343.68717
1570526343.7028
1570526343.71842
1570526343.73405
1570526343.74967
1570526343.7653
1570526343.78093
1570526343.79655
1570526343.81218
1570526343.8278
1570526343.84343
1570526343.85905
1570526343.87468
1570526343.89031
1570526343.90593
1570526343.92156
1570526343.93718
1570526343.95281
1570526343.96843
1570526343.98406
1570526343.99969
1570526344.01531
1570526344.03094
1570526344.04656
1570526344.06219
1570526344.07781
1570526344.09344
1570526344.10907
1570526344.12469
1570526344.14032
1570526344.15594
1570526344.17157
1570526344.18719
1570526344.20282
1570526344.21845
1570526344.23407
1570526344.2497
1570526344.26532
1570526344.28095
1570526344.29657
1570526344.3122
1570526344.32783
1570526344.34345
1570526344.35908
1570526344.3747
1570526344.39033
1570526344.40595
1570526344.42158
1570526344.43721
1570526344.45283
1570526344.46846
1570526344.48408
1570526344.49971
1570526344.51533
1570526344.53096
1570526344.54659
1570526344.56221
1570526344.57784
1570526344.59346
1570526344.60909
1570526344.62471
1570526344.64034
1570526344.65597
1570526344.67159
1570526344.68722
1570526344.70284
1570526344.71847
1570526344.73409
1570526344.74972
1570526344.76535
1570526344.78097
1570526344.7966
1570526344.81222
1570526344.82785
1570526344.84347
1570526344.8591
1570526344.87473
1570526344.89035
1570526344.90598
1570526344.9216
1570526344.93723
1570526344.95285
1570526344.96848
1570526344.98411
1570526344.99973
1570526345.01536
1570526345.03098
1570526345.04661
1570526345.06223
1570526345.07786
1570526345.09349
1570526345.10911
1570526345.12474
1570526345.14036
1570526345.15599
1570526345.17161
1570526345.18724
1570526345.20287
1570526345.21849
1570526345.23412
1570526345.24974
1570526345.26537
1570526345.28099
1570526345.29662
1570526345.31225
1570526345.32787
1570526345.3435
1570526345.35912
1570526345.37475
1570526345.39037
1570526345.406
1570526345.42163
1570526345.43725
1570526345.45288
1570526345.4685
1570526345.48413
1570526345.49975
1570526345.51538
1570526345.53101
1570526345.54663
1570526345.56226
1570526345.57788
1570526345.59351
1570526345.60913
1570526345.62476
1570526345.64039
1570526345.65601
1570526345.67164
1570526345.68726
1570526345.70289
1570526345.71851
1570526345.73414
1570526345.74977
1570526345.76539
1570526345.78102
1570526345.79664
1570526345.81227
1570526345.82789
1570526345.84352
1570526345.85915
1570526345.87477
1570526345.8904
1570526345.90602
1570526345.92165
1570526345.93727
1570526345.9529
1570526345.96853
1570526345.98415
1570526345.99978
1570526346.0154
1570526346.03103
1570526346.04665
1570526346.06228
1570526346.07791
1570526346.09353
1570526346.10916
1570526346.12478
1570526346.14041
1570526346.15604
1570526346.17166
1570526346.18729
1570526346.20291
1570526346.21854
1570526346.23416
1570526346.24979
1570526346.26542
1570526346.28104
1570526346.29667
1570526346.31229
1570526346.32792
1570526346.34354
1570526346.35917
1570526346.3748
1570526346.39042
1570526346.40605
1570526346.42167
1570526346.4373
1570526346.45292
1570526346.46855
1570526346.48418
1570526346.4998
1570526346.51543
1570526346.53105
1570526346.54668
1570526346.5623
1570526346.57793
1570526346.59356
1570526346.60918
1570526346.62481
1570526346.64043
1570526346.65606
1570526346.67168
1570526346.68731
1570526346.70294
1570526346.71856
1570526346.73419
1570526346.74981
1570526346.76544
1570526346.78106
1570526346.79669
1570526346.81232
1570526346.82794
1570526346.84357
1570526346.85919
1570526346.87482
1570526346.89044
1570526346.90607
1570526346.9217
1570526346.93732
1570526346.95295
1570526346.96857
1570526346.9842
1570526346.99982
1570526347.01545
1570526347.03108
1570526347.0467
1570526347.06233
1570526347.07795
1570526347.09358
1570526347.1092
1570526347.12483
1570526347.14046
1570526347.15608
1570526347.17171
1570526347.18733
1570526347.20296
1570526347.21858
1570526347.23421
1570526347.24984
1570526347.26546
1570526347.28109
1570526347.29671
1570526347.31234
1570526347.32796
1570526347.34359
1570526347.35922
1570526347.37484
1570526347.39047
1570526347.40609
1570526347.42172
1570526347.43734
1570526347.45297
1570526347.4686
1570526347.48422
1570526347.49985
1570526347.51547
1570526347.5311
1570526347.54672
1570526347.56235
1570526347.57798
1570526347.5936
1570526347.60923
1570526347.62485
1570526347.64048
1570526347.6561
1570526347.67173
1570526347.68736
1570526347.70298
1570526347.71861
1570526347.73423
1570526347.74986
1570526347.76548
1570526347.78111
1570526347.79674
1570526347.81236
1570526347.82799
1570526347.84361
1570526347.85924
1570526347.87486
1570526347.89049
1570526347.90612
1570526347.92174
1570526347.93737
1570526347.95299
1570526347.96862
1570526347.98424
1570526347.99987
1570526348.0155
1570526348.03112
1570526348.04675
1570526348.06237
1570526348.078
1570526348.09362
1570526348.10925
1570526348.12488
1570526348.1405
1570526348.15613
1570526348.17175
1570526348.18738
1570526348.203
1570526348.21863
1570526348.23426
1570526348.24988
1570526348.26551
1570526348.28113
1570526348.29676
1570526348.31238
1570526348.32801
1570526348.34364
1570526348.35926
1570526348.37489
1570526348.39051
1570526348.40614
1570526348.42177
1570526348.43739
1570526348.45302
1570526348.46864
1570526348.48427
1570526348.49989
1570526348.51552
1570526348.53115
1570526348.54677
1570526348.5624
1570526348.57802
1570526348.59365
1570526348.60927
1570526348.6249
1570526348.64053
1570526348.65615
1570526348.67178
1570526348.6874
1570526348.70303
1570526348.71865
1570526348.73428
1570526348.74991
1570526348.76553
1570526348.78116
1570526348.79678
1570526348.81241
1570526348.82803
1570526348.84366
1570526348.85929
1570526348.87491
1570526348.89054
1570526348.90616
1570526348.92179
1570526348.93741
1570526348.95304
1570526348.96867
1570526348.98429
1570526348.99992
1570526349.01554
1570526349.03117
1570526349.04679
1570526349.06242
1570526349.07805
1570526349.09367
1570526349.1093
1570526349.12492
1570526349.14055
1570526349.15617
1570526349.1718
1570526349.18743
1570526349.20305
1570526349.21868
1570526349.2343
1570526349.24993
1570526349.26555
1570526349.28118
1570526349.29681
1570526349.31243
1570526349.32806
1570526349.34368
1570526349.35931
1570526349.37493
1570526349.39056
1570526349.40619
1570526349.42181
1570526349.43744
1570526349.45306
1570526349.46869
1570526349.48431
1570526349.49994
1570526349.51557
1570526349.53119
1570526349.54682
1570526349.56244
1570526349.57807
1570526349.59369
1570526349.60932
1570526349.62495
1570526349.64057
1570526349.6562
1570526349.67182
1570526349.68745
1570526349.70307
1570526349.7187
1570526349.73433
1570526349.74995
1570526349.76558
1570526349.7812
1570526349.79683
1570526349.81245
1570526349.82808
1570526349.84371
1570526349.85933
1570526349.87496
1570526349.89058
1570526349.90621
1570526349.92183
1570526349.93746
1570526349.95309
1570526349.96871
1570526349.98434
1570526349.99996
1570526350.01559
1570526350.03121
1570526350.04684
1570526350.06247
1570526350.07809
1570526350.09372
1570526350.10934
1570526350.12497
1570526350.14059
1570526350.15622
1570526350.17185
1570526350.18747
1570526350.2031
1570526350.21872
1570526350.23435
1570526350.24997
1570526350.2656
1570526350.28123
1570526350.29685
1570526350.31248
1570526350.3281
1570526350.34373
1570526350.35935
1570526350.37498
1570526350.39061
1570526350.40623
1570526350.42186
1570526350.43748
1570526350.45311
1570526350.46873
1570526350.48436
1570526350.49999
1570526350.51561
1570526350.53124
1570526350.54686
1570526350.56249
1570526350.57811
1570526350.59374
1570526350.60937
1570526350.62499
1570526350.64062
1570526350.65624
1570526350.67187
1570526350.68749
1570526350.70312
1570526350.71875
1570526350.73437
1570526350.75
1570526350.76562
1570526350.78125
1570526350.79688
1570526350.8125
1570526350.82813
1570526350.84375
1570526350.85938
1570526350.875
1570526350.89063
1570526350.90626
1570526350.92188
1570526350.93751
1570526350.95313
1570526350.96876
1570526350.98438
1570526351.00001
1570526351.01564
1570526351.03126
1570526351.04689
1570526351.06251
1570526351.07814
1570526351.09376
1570526351.10939
1570526351.12502
1570526351.14064
1570526351.15627
1570526351.17189
1570526351.18752
1570526351.20314
1570526351.21877
1570526351.2344
1570526351.25002
1570526351.26565
1570526351.28127
1570526351.2969
1570526351.31252
1570526351.32815
1570526351.34378
1570526351.3594
1570526351.37503
1570526351.39065
1570526351.40628
1570526351.4219
1570526351.43753
1570526351.45316
1570526351.46878
1570526351.48441
1570526351.50003
1570526351.51566
1570526351.53128
1570526351.54691
1570526351.56254
1570526351.57816
1570526351.59379
1570526351.60941
1570526351.62504
1570526351.64066
1570526351.65629
1570526351.67192
1570526351.68754
1570526351.70317
1570526351.71879
1570526351.73442
1570526351.75004
1570526351.76567
1570526351.7813
1570526351.79692
1570526351.81255
1570526351.82817
1570526351.8438
1570526351.85942
1570526351.87505
1570526351.89068
1570526351.9063
1570526351.92193
1570526351.93755
1570526351.95318
1570526351.9688
1570526351.98443
1570526352.00006
1570526352.01568
1570526352.03131
1570526352.04693
1570526352.06256
1570526352.07818
1570526352.09381
1570526352.10944
1570526352.12506
1570526352.14069
1570526352.15631
1570526352.17194
1570526352.18756
1570526352.20319
1570526352.21882
1570526352.23444
1570526352.25007
1570526352.26569
1570526352.28132
1570526352.29694
1570526352.31257
1570526352.3282
1570526352.34382
1570526352.35945
1570526352.37507
1570526352.3907
1570526352.40632
1570526352.42195
1570526352.43758
1570526352.4532
1570526352.46883
1570526352.48445
1570526352.50008
1570526352.5157
1570526352.53133
1570526352.54696
1570526352.56258
1570526352.57821
1570526352.59383
1570526352.60946
1570526352.62508
1570526352.64071
1570526352.65634
1570526352.67196
1570526352.68759
1570526352.70321
1570526352.71884
1570526352.73446
1570526352.75009
1570526352.76572
1570526352.78134
1570526352.79697
1570526352.81259
1570526352.82822
1570526352.84384
1570526352.85947
1570526352.8751
1570526352.89072
1570526352.90635
1570526352.92197
1570526352.9376
1570526352.95322
1570526352.96885
1570526352.98448
1570526353.0001
1570526353.01573
1570526353.03135
1570526353.04698
1570526353.0626
1570526353.07823
1570526353.09386
1570526353.10948
1570526353.12511
1570526353.14073
1570526353.15636
1570526353.17198
1570526353.18761
1570526353.20324
1570526353.21886
1570526353.23449
1570526353.25011
1570526353.26574
1570526353.28137
1570526353.29699
1570526353.31262
1570526353.32824
1570526353.34387
1570526353.35949
1570526353.37512
1570526353.39075
1570526353.40637
1570526353.422
1570526353.43762
1570526353.45325
1570526353.46887
1570526353.4845
1570526353.50013
1570526353.51575
1570526353.53138
1570526353.547
1570526353.56263
1570526353.57825
1570526353.59388
1570526353.60951
1570526353.62513
1570526353.64076
1570526353.65638
1570526353.67201
1570526353.68763
1570526353.70326
1570526353.71889
1570526353.73451
1570526353.75014
1570526353.76576
1570526353.78139
1570526353.79701
1570526353.81264
1570526353.82827
1570526353.84389
1570526353.85952
1570526353.87514
1570526353.89077
1570526353.90639
1570526353.92202
1570526353.93765
1570526353.95327
1570526353.9689
1570526353.98452
1570526354.00015
1570526354.01577
1570526354.0314
1570526354.04703
1570526354.06265
1570526354.07828
1570526354.0939
1570526354.10953
1570526354.12515
1570526354.14078
1570526354.15641
1570526354.17203
1570526354.18766
1570526354.20328
1570526354.21891
1570526354.23453
1570526354.25016
1570526354.26579
1570526354.28141
1570526354.29704
1570526354.31266
1570526354.32829
1570526354.34391
1570526354.35954
1570526354.37517
1570526354.39079
1570526354.40642
1570526354.42204
1570526354.43767
1570526354.45329
1570526354.46892
1570526354.48455
1570526354.50017
1570526354.5158
1570526354.53142
1570526354.54705
1570526354.56267
1570526354.5783
1570526354.59393
1570526354.60955
1570526354.62518
1570526354.6408
1570526354.65643
1570526354.67205
1570526354.68768
1570526354.70331
1570526354.71893
1570526354.73456
1570526354.75018
1570526354.76581
1570526354.78143
1570526354.79706
1570526354.81269
1570526354.82831
1570526354.84394
1570526354.85956
1570526354.87519
1570526354.89081
1570526354.90644
1570526354.92207
1570526354.93769
1570526354.95332
1570526354.96894
1570526354.98457
1570526355.00019
1570526355.01582
1570526355.03145
1570526355.04707
1570526355.0627
1570526355.07832
1570526355.09395
1570526355.10957
1570526355.1252
1570526355.14083
1570526355.15645
1570526355.17208
1570526355.1877
1570526355.20333
1570526355.21895
1570526355.23458
1570526355.25021
1570526355.26583
1570526355.28146
1570526355.29708
1570526355.31271
1570526355.32833
1570526355.34396
1570526355.35959
1570526355.37521
1570526355.39084
1570526355.40646
1570526355.42209
1570526355.43772
1570526355.45334
1570526355.46897
1570526355.48459
1570526355.50022
1570526355.51584
1570526355.53147
1570526355.5471
1570526355.56272
1570526355.57835
1570526355.59397
1570526355.6096
1570526355.62522
1570526355.64085
1570526355.65648
1570526355.6721
1570526355.68773
1570526355.70335
1570526355.71898
1570526355.7346
1570526355.75023
1570526355.76586
1570526355.78148
1570526355.79711
1570526355.81273
1570526355.82836
1570526355.84398
1570526355.85961
1570526355.87524
1570526355.89086
1570526355.90649
1570526355.92211
1570526355.93774
1570526355.95336
1570526355.96899
1570526355.98462
1570526356.00024
1570526356.01587
1570526356.03149
1570526356.04712
1570526356.06274
1570526356.07837
1570526356.094
1570526356.10962
1570526356.12525
1570526356.14087
1570526356.1565
1570526356.17212
1570526356.18775
1570526356.20338
1570526356.219
1570526356.23463
1570526356.25025
1570526356.26588
1570526356.2815
1570526356.29713
1570526356.31276
1570526356.32838
1570526356.34401
1570526356.35963
1570526356.37526
1570526356.39088
1570526356.40651
1570526356.42214
1570526356.43776
1570526356.45339
1570526356.46901
1570526356.48464
1570526356.50026
1570526356.51589
1570526356.53152
1570526356.54714
1570526356.56277
1570526356.57839
1570526356.59402
1570526356.60964
1570526356.62527
1570526356.6409
1570526356.65652
1570526356.67215
1570526356.68777
1570526356.7034
1570526356.71902
1570526356.73465
1570526356.75028
1570526356.7659
1570526356.78153
1570526356.79715
1570526356.81278
1570526356.8284
1570526356.84403
1570526356.85966
1570526356.87528
1570526356.89091
1570526356.90653
1570526356.92216
1570526356.93778
1570526356.95341
1570526356.96904
1570526356.98466
1570526357.00029
1570526357.01591
1570526357.03154
1570526357.04716
1570526357.06279
1570526357.07842
1570526357.09404
1570526357.10967
1570526357.12529
1570526357.14092
1570526357.15654
1570526357.17217
1570526357.1878
1570526357.20342
1570526357.21905
1570526357.23467
1570526357.2503
1570526357.26592
1570526357.28155
1570526357.29718
1570526357.3128
1570526357.32843
1570526357.34405
1570526357.35968
1570526357.3753
1570526357.39093
1570526357.40656
1570526357.42218
1570526357.43781
1570526357.45343
1570526357.46906
1570526357.48468
1570526357.50031
1570526357.51594
1570526357.53156
1570526357.54719
1570526357.56281
1570526357.57844
1570526357.59406
1570526357.60969
1570526357.62532
1570526357.64094
1570526357.65657
1570526357.67219
1570526357.68782
1570526357.70344
1570526357.71907
1570526357.7347
1570526357.75032
1570526357.76595
1570526357.78157
1570526357.7972
1570526357.81282
1570526357.82845
1570526357.84408
1570526357.8597
1570526357.87533
1570526357.89095
1570526357.90658
1570526357.9222
1570526357.93783
1570526357.95346
1570526357.96908
1570526357.98471
1570526358.00033
1570526358.01596
1570526358.03158
1570526358.04721
1570526358.06284
1570526358.07846
1570526358.09409
1570526358.10971
1570526358.12534
1570526358.14097
1570526358.15659
1570526358.17222
1570526358.18784
1570526358.20347
1570526358.21909
1570526358.23472
1570526358.25035
1570526358.26597
1570526358.2816
1570526358.29722
1570526358.31285
1570526358.32847
1570526358.3441
1570526358.35973
1570526358.37535
1570526358.39098
1570526358.4066
1570526358.42223
1570526358.43785
1570526358.45348
1570526358.46911
1570526358.48473
1570526358.50036
1570526358.51598
1570526358.53161
1570526358.54723
1570526358.56286
1570526358.57849
1570526358.59411
1570526358.60974
1570526358.62536
1570526358.64099
1570526358.65661
1570526358.67224
1570526358.68787
1570526358.70349
1570526358.71912
1570526358.73474
1570526358.75037
1570526358.76599
1570526358.78162
1570526358.79725
1570526358.81287
1570526358.8285
1570526358.84412
1570526358.85975
1570526358.87537
1570526358.891
1570526358.90663
1570526358.92225
1570526358.93788
1570526358.9535
1570526358.96913
1570526358.98475
1570526359.00038
1570526359.01601
1570526359.03163
1570526359.04726
1570526359.06288
1570526359.07851
1570526359.09413
1570526359.10976
1570526359.12539
1570526359.14101
1570526359.15664
1570526359.17226
1570526359.18789
1570526359.20351
1570526359.21914
1570526359.23477
1570526359.25039
1570526359.26602
1570526359.28164
1570526359.29727
1570526359.31289
1570526359.32852
1570526359.34415
1570526359.35977
1570526359.3754
1570526359.39102
1570526359.40665
1570526359.42227
1570526359.4379
1570526359.45353
1570526359.46915
1570526359.48478
1570526359.5004
1570526359.51603
1570526359.53165
1570526359.54728
1570526359.56291
1570526359.57853
1570526359.59416
1570526359.60978
1570526359.62541
1570526359.64103
1570526359.65666
1570526359.67229
1570526359.68791
1570526359.70354
1570526359.71916
1570526359.73479
1570526359.75041
1570526359.76604
1570526359.78167
1570526359.79729
1570526359.81292
1570526359.82854
1570526359.84417
1570526359.85979
1570526359.87542
1570526359.89105
1570526359.90667
1570526359.9223
1570526359.93792
1570526359.95355
1570526359.96917
1570526359.9848
1570526360.00043
1570526360.01605
1570526360.03168
1570526360.0473
1570526360.06293
1570526360.07855
1570526360.09418
1570526360.10981
1570526360.12543
1570526360.14106
1570526360.15668
1570526360.17231
1570526360.18793
1570526360.20356
1570526360.21919
1570526360.23481
1570526360.25044
1570526360.26606
1570526360.28169
1570526360.29732
1570526360.31294
1570526360.32857
1570526360.34419
1570526360.35982
1570526360.37544
1570526360.39107
1570526360.4067
1570526360.42232
1570526360.43795
1570526360.45357
1570526360.4692
1570526360.48482
1570526360.50045
1570526360.51608
1570526360.5317
1570526360.54733
1570526360.56295
1570526360.57858
1570526360.5942
1570526360.60983
1570526360.62546
1570526360.64108
1570526360.65671
1570526360.67233
1570526360.68796
1570526360.70358
1570526360.71921
1570526360.73484
1570526360.75046
1570526360.76609
1570526360.78171
1570526360.79734
1570526360.81296
1570526360.82859
1570526360.84422
1570526360.85984
1570526360.87547
1570526360.89109
1570526360.90672
1570526360.92234
1570526360.93797
1570526360.9536
1570526360.96922
1570526360.98485
1570526361.00047
1570526361.0161
1570526361.03172
1570526361.04735
1570526361.06298
1570526361.0786
1570526361.09423
1570526361.10985
1570526361.12548
1570526361.1411
1570526361.15673
1570526361.17236
1570526361.18798
1570526361.20361
1570526361.21923
1570526361.23486
1570526361.25048
1570526361.26611
1570526361.28174
1570526361.29736
1570526361.31299
1570526361.32861
1570526361.34424
1570526361.35986
1570526361.37549
1570526361.39112
1570526361.40674
1570526361.42237
1570526361.43799
1570526361.45362
1570526361.46924
1570526361.48487
1570526361.5005
1570526361.51612
1570526361.53175
1570526361.54737
1570526361.563
1570526361.57862
1570526361.59425
1570526361.60988
1570526361.6255
1570526361.64113
1570526361.65675
1570526361.67238
1570526361.688
1570526361.70363
1570526361.71926
1570526361.73488
1570526361.75051
1570526361.76613
1570526361.78176
1570526361.79738
1570526361.81301
1570526361.82864
1570526361.84426
1570526361.85989
1570526361.87551
1570526361.89114
1570526361.90676
1570526361.92239
1570526361.93802
1570526361.95364
1570526361.96927
1570526361.98489
1570526362.00052
1570526362.01614
1570526362.03177
1570526362.0474
1570526362.06302
1570526362.07865
1570526362.09427
1570526362.1099
1570526362.12552
1570526362.14115
1570526362.15678
1570526362.1724
1570526362.18803
1570526362.20365
1570526362.21928
1570526362.2349
1570526362.25053
1570526362.26616
1570526362.28178
1570526362.29741
1570526362.31303
1570526362.32866
1570526362.34428
1570526362.35991
1570526362.37554
1570526362.39116
1570526362.40679
1570526362.42241
1570526362.43804
1570526362.45366
1570526362.46929
1570526362.48492
1570526362.50054
1570526362.51617
1570526362.53179
1570526362.54742
1570526362.56305
1570526362.57867
1570526362.5943
1570526362.60992
1570526362.62555
1570526362.64117
1570526362.6568
1570526362.67243
1570526362.68805
1570526362.70368
1570526362.7193
1570526362.73493
1570526362.75055
1570526362.76618
1570526362.78181
1570526362.79743
1570526362.81306
1570526362.82868
1570526362.84431
1570526362.85993
1570526362.87556
1570526362.89119
1570526362.90681
1570526362.92244
1570526362.93806
1570526362.95369
1570526362.96931
1570526362.98494
1570526363.00057
1570526363.01619
1570526363.03182
1570526363.04744
1570526363.06307
1570526363.07869
1570526363.09432
1570526363.10995
1570526363.12557
1570526363.1412
1570526363.15682
1570526363.17245
1570526363.18807
1570526363.2037
1570526363.21933
1570526363.23495
1570526363.25058
1570526363.2662
1570526363.28183
1570526363.29745
1570526363.31308
1570526363.32871
1570526363.34433
1570526363.35996
1570526363.37558
1570526363.39121
1570526363.40683
1570526363.42246
1570526363.43809
1570526363.45371
1570526363.46934
1570526363.48496
1570526363.50059
1570526363.51621
1570526363.53184
1570526363.54747
1570526363.56309
1570526363.57872
1570526363.59434
1570526363.60997
1570526363.62559
1570526363.64122
1570526363.65685
1570526363.67247
1570526363.6881
1570526363.70372
1570526363.71935
1570526363.73497
1570526363.7506
1570526363.76623
1570526363.78185
1570526363.79748
1570526363.8131
1570526363.82873
1570526363.84435
1570526363.85998
1570526363.87561
1570526363.89123
1570526363.90686
1570526363.92248
1570526363.93811
1570526363.95373
1570526363.96936
1570526363.98499
1570526364.00061
1570526364.01624
1570526364.03186
1570526364.04749
1570526364.06311
1570526364.07874
1570526364.09437
1570526364.10999
1570526364.12562
1570526364.14124
1570526364.15687
1570526364.17249
1570526364.18812
1570526364.20375
1570526364.21937
1570526364.235
1570526364.25062
1570526364.26625
1570526364.28187
1570526364.2975
1570526364.31313
1570526364.32875
1570526364.34438
1570526364.36
1570526364.37563
1570526364.39125
1570526364.40688
1570526364.42251
1570526364.43813
1570526364.45376
1570526364.46938
1570526364.48501
1570526364.50063
1570526364.51626
1570526364.53189
1570526364.54751
1570526364.56314
1570526364.57876
1570526364.59439
1570526364.61001
1570526364.62564
1570526364.64127
1570526364.65689
1570526364.67252
1570526364.68814
1570526364.70377
1570526364.71939
1570526364.73502
1570526364.75065
1570526364.76627
1570526364.7819
1570526364.79752
1570526364.81315
1570526364.82877
1570526364.8444
1570526364.86003
1570526364.87565
1570526364.89128
1570526364.9069
1570526364.92253
1570526364.93815
1570526364.95378
1570526364.96941
1570526364.98503
1570526365.00066
1570526365.01628
1570526365.03191
1570526365.04753
1570526365.06316
1570526365.07879
1570526365.09441
1570526365.11004
1570526365.12566
1570526365.14129
1570526365.15691
1570526365.17254
1570526365.18817
1570526365.20379
1570526365.21942
1570526365.23504
1570526365.25067
1570526365.2663
1570526365.28192
1570526365.29755
1570526365.31317
1570526365.3288
1570526365.34442
1570526365.36005
1570526365.37568
1570526365.3913
1570526365.40693
1570526365.42255
1570526365.43818
1570526365.4538
1570526365.46943
1570526365.48506
1570526365.50068
1570526365.51631
1570526365.53193
1570526365.54756
1570526365.56318
1570526365.57881
1570526365.59444
1570526365.61006
1570526365.62569
1570526365.64131
1570526365.65694
1570526365.67256
1570526365.68819
1570526365.70382
1570526365.71944
1570526365.73507
1570526365.75069
1570526365.76632
1570526365.78194
1570526365.79757
1570526365.8132
1570526365.82882
1570526365.84445
1570526365.86007
1570526365.8757
1570526365.89132
1570526365.90695
1570526365.92258
1570526365.9382
1570526365.95383
1570526365.96945
1570526365.98508
1570526366.0007
1570526366.01633
1570526366.03196
1570526366.04758
1570526366.06321
1570526366.07883
1570526366.09446
1570526366.11008
1570526366.12571
1570526366.14134
1570526366.15696
1570526366.17259
1570526366.18821
1570526366.20384
1570526366.21946
1570526366.23509
1570526366.25072
1570526366.26634
1570526366.28197
1570526366.29759
1570526366.31322
1570526366.32884
1570526366.34447
1570526366.3601
1570526366.37572
1570526366.39135
1570526366.40697
1570526366.4226
1570526366.43822
1570526366.45385
1570526366.46948
1570526366.4851
1570526366.50073
1570526366.51635
1570526366.53198
1570526366.5476
1570526366.56323
1570526366.57886
1570526366.59448
1570526366.61011
1570526366.62573
1570526366.64136
1570526366.65698
1570526366.67261
1570526366.68824
1570526366.70386
1570526366.71949
1570526366.73511
1570526366.75074
1570526366.76636
1570526366.78199
1570526366.79762
1570526366.81324
1570526366.82887
1570526366.84449
1570526366.86012
1570526366.87574
1570526366.89137
1570526366.907
1570526366.92262
1570526366.93825
1570526366.95387
1570526366.9695
1570526366.98512
1570526367.00075
1570526367.01638
1570526367.032
1570526367.04763
1570526367.06325
1570526367.07888
1570526367.0945
1570526367.11013
1570526367.12576
1570526367.14138
1570526367.15701
1570526367.17263
1570526367.18826
1570526367.20388
1570526367.21951
1570526367.23514
1570526367.25076
1570526367.26639
1570526367.28201
1570526367.29764
1570526367.31326
1570526367.32889
1570526367.34452
1570526367.36014
1570526367.37577
1570526367.39139
1570526367.40702
1570526367.42265
1570526367.43827
1570526367.4539
1570526367.46952
1570526367.48515
1570526367.50077
1570526367.5164
1570526367.53203
1570526367.54765
1570526367.56328
1570526367.5789
1570526367.59453
1570526367.61015
1570526367.62578
1570526367.64141
1570526367.65703
1570526367.67266
1570526367.68828
1570526367.70391
1570526367.71953
1570526367.73516
1570526367.75079
1570526367.76641
1570526367.78204
1570526367.79766
1570526367.81329
1570526367.82891
1570526367.84454
1570526367.86017
1570526367.87579
1570526367.89142
1570526367.90704
1570526367.92267
1570526367.93829
1570526367.95392
1570526367.96955
1570526367.98517
1570526368.0008
1570526368.01642
1570526368.03205
1570526368.04767
1570526368.0633
1570526368.07893
1570526368.09455
1570526368.11018
1570526368.1258
1570526368.14143
1570526368.15705
1570526368.17268
1570526368.18831
1570526368.20393
1570526368.21956
1570526368.23518
1570526368.25081
1570526368.26643
1570526368.28206
1570526368.29769
1570526368.31331
1570526368.32894
1570526368.34456
1570526368.36019
1570526368.37581
1570526368.39144
1570526368.40707
1570526368.42269
1570526368.43832
1570526368.45394
1570526368.46957
1570526368.48519
1570526368.50082
1570526368.51645
1570526368.53207
1570526368.5477
1570526368.56332
1570526368.57895
1570526368.59457
1570526368.6102
1570526368.62583
1570526368.64145
1570526368.65708
1570526368.6727
1570526368.68833
1570526368.70395
1570526368.71958
1570526368.73521
1570526368.75083
1570526368.76646
1570526368.78208
1570526368.79771
1570526368.81333
1570526368.82896
1570526368.84459
1570526368.86021
1570526368.87584
1570526368.89146
1570526368.90709
1570526368.92271
1570526368.93834
1570526368.95397
1570526368.96959
1570526368.98522
1570526369.00084
1570526369.01647
1570526369.03209
1570526369.04772
1570526369.06335
1570526369.07897
1570526369.0946
1570526369.11022
1570526369.12585
1570526369.14147
1570526369.1571
1570526369.17273
1570526369.18835
1570526369.20398
1570526369.2196
1570526369.23523
1570526369.25085
1570526369.26648
1570526369.28211
1570526369.29773
1570526369.31336
1570526369.32898
1570526369.34461
1570526369.36023
1570526369.37586
1570526369.39149
1570526369.40711
1570526369.42274
1570526369.43836
1570526369.45399
1570526369.46961
1570526369.48524
1570526369.50087
1570526369.51649
1570526369.53212
1570526369.54774
1570526369.56337
1570526369.57899
1570526369.59462
1570526369.61025
1570526369.62587
1570526369.6415
1570526369.65712
1570526369.67275
1570526369.68838
1570526369.704
1570526369.71963
1570526369.73525
1570526369.75088
1570526369.7665
1570526369.78213
1570526369.79776
1570526369.81338
1570526369.82901
1570526369.84463
1570526369.86026
1570526369.87588
1570526369.89151
1570526369.90714
1570526369.92276
1570526369.93839
1570526369.95401
1570526369.96964
1570526369.98526
1570526370.00089
1570526370.01652
1570526370.03214
1570526370.04777
1570526370.06339
1570526370.07902
1570526370.09464
1570526370.11027
1570526370.1259
1570526370.14152
1570526370.15715
1570526370.17277
1570526370.1884
1570526370.20402
1570526370.21965
1570526370.23528
1570526370.2509
1570526370.26653
1570526370.28215
1570526370.29778
1570526370.3134
1570526370.32903
1570526370.34466
1570526370.36028
1570526370.37591
1570526370.39153
1570526370.40716
1570526370.42278
1570526370.43841
1570526370.45404
1570526370.46966
1570526370.48529
1570526370.50091
1570526370.51654
1570526370.53216
1570526370.54779
1570526370.56342
1570526370.57904
1570526370.59467
1570526370.61029
1570526370.62592
1570526370.64154
1570526370.65717
1570526370.6728
1570526370.68842
1570526370.70405
1570526370.71967
1570526370.7353
1570526370.75092
1570526370.76655
1570526370.78218
1570526370.7978
1570526370.81343
1570526370.82905
1570526370.84468
1570526370.8603
1570526370.87593
1570526370.89156
1570526370.90718
1570526370.92281
1570526370.93843
1570526370.95406
1570526370.96968
1570526370.98531
1570526371.00094
1570526371.01656
1570526371.03219
1570526371.04781
1570526371.06344
1570526371.07906
1570526371.09469
1570526371.11032
1570526371.12594
1570526371.14157
1570526371.15719
1570526371.17282
1570526371.18844
1570526371.20407
1570526371.2197
1570526371.23532
1570526371.25095
1570526371.26657
1570526371.2822
1570526371.29782
1570526371.31345
1570526371.32908
1570526371.3447
1570526371.36033
1570526371.37595
1570526371.39158
1570526371.4072
1570526371.42283
1570526371.43846
1570526371.45408
1570526371.46971
1570526371.48533
1570526371.50096
1570526371.51658
1570526371.53221
1570526371.54784
1570526371.56346
1570526371.57909
1570526371.59471
1570526371.61034
1570526371.62596
1570526371.64159
1570526371.65722
1570526371.67284
1570526371.68847
1570526371.70409
1570526371.71972
1570526371.73534
1570526371.75097
1570526371.7666
1570526371.78222
1570526371.79785
1570526371.81347
1570526371.8291
1570526371.84472
1570526371.86035
1570526371.87598
1570526371.8916
1570526371.90723
1570526371.92285
1570526371.93848
1570526371.9541
1570526371.96973
1570526371.98536
1570526372.00098
1570526372.01661
1570526372.03223
1570526372.04786
1570526372.06348
1570526372.07911
1570526372.09474
1570526372.11036
1570526372.12599
1570526372.14161
1570526372.15724
1570526372.17286
1570526372.18849
1570526372.20412
1570526372.21974
1570526372.23537
1570526372.25099
1570526372.26662
1570526372.28225
1570526372.29787
1570526372.3135
1570526372.32912
1570526372.34475
1570526372.36037
1570526372.376
1570526372.39163
1570526372.40725
1570526372.42288
1570526372.4385
1570526372.45413
1570526372.46975
1570526372.48538
1570526372.50101
1570526372.51663
1570526372.53226
1570526372.54788
1570526372.56351
1570526372.57913
1570526372.59476
1570526372.61039
1570526372.62601
1570526372.64164
1570526372.65726
1570526372.67289
1570526372.68851
1570526372.70414
1570526372.71977
1570526372.73539
1570526372.75102
1570526372.76664
1570526372.78227
1570526372.79789
1570526372.81352
1570526372.82915
1570526372.84477
1570526372.8604
1570526372.87602
1570526372.89165
1570526372.90727
1570526372.9229
1570526372.93853
1570526372.95415
1570526372.96978
1570526372.9854
1570526373.00103
1570526373.01665
1570526373.03228
1570526373.04791
1570526373.06353
1570526373.07916
1570526373.09478
1570526373.11041
1570526373.12603
1570526373.14166
1570526373.15729
1570526373.17291
1570526373.18854
1570526373.20416
1570526373.21979
1570526373.23541
1570526373.25104
1570526373.26667
1570526373.28229
1570526373.29792
1570526373.31354
1570526373.32917
1570526373.34479
1570526373.36042
1570526373.37605
1570526373.39167
1570526373.4073
1570526373.42292
1570526373.43855
1570526373.45417
1570526373.4698
1570526373.48543
1570526373.50105
1570526373.51668
1570526373.5323
1570526373.54793
1570526373.56355
1570526373.57918
1570526373.59481
1570526373.61043
1570526373.62606
1570526373.64168
1570526373.65731
1570526373.67293
1570526373.68856
1570526373.70419
1570526373.71981
1570526373.73544
1570526373.75106
1570526373.76669
1570526373.78231
1570526373.79794
1570526373.81357
1570526373.82919
1570526373.84482
1570526373.86044
1570526373.87607
1570526373.89169
1570526373.90732
1570526373.92295
1570526373.93857
1570526373.9542
1570526373.96982
1570526373.98545
1570526374.00107
1570526374.0167
1570526374.03233
1570526374.04795
1570526374.06358
1570526374.0792
1570526374.09483
1570526374.11045
1570526374.12608
1570526374.14171
1570526374.15733
1570526374.17296
1570526374.18858
1570526374.20421
1570526374.21983
1570526374.23546
1570526374.25109
1570526374.26671
1570526374.28234
1570526374.29796
1570526374.31359
1570526374.32921
1570526374.34484
1570526374.36047
1570526374.37609
1570526374.39172
1570526374.40734
1570526374.42297
1570526374.43859
1570526374.45422
1570526374.46985
1570526374.48547
1570526374.5011
1570526374.51672
1570526374.53235
1570526374.54798
1570526374.5636
1570526374.57923
1570526374.59485
1570526374.61048
1570526374.6261
1570526374.64173
1570526374.65736
1570526374.67298
1570526374.68861
1570526374.70423
1570526374.71986
1570526374.73548
1570526374.75111
1570526374.76674
1570526374.78236
1570526374.79799
1570526374.81361
1570526374.82924
1570526374.84486
1570526374.86049
1570526374.87612
1570526374.89174
1570526374.90737
1570526374.92299
1570526374.93862
1570526374.95424
1570526374.96987
1570526374.9855
1570526375.00112
1570526375.01675
1570526375.03237
1570526375.048
1570526375.06362
1570526375.07925
1570526375.09488
1570526375.1105
1570526375.12613
1570526375.14175
1570526375.15738
1570526375.173
1570526375.18863
1570526375.20426
1570526375.21988
1570526375.23551
1570526375.25113
1570526375.26676
1570526375.28238
1570526375.29801
1570526375.31364
1570526375.32926
1570526375.34489
1570526375.36051
1570526375.37614
1570526375.39176
1570526375.40739
1570526375.42302
1570526375.43864
1570526375.45427
1570526375.46989
1570526375.48552
1570526375.50114
1570526375.51677
1570526375.5324
1570526375.54802
1570526375.56365
1570526375.57927
1570526375.5949
1570526375.61052
1570526375.62615
1570526375.64178
1570526375.6574
1570526375.67303
1570526375.68865
1570526375.70428
1570526375.7199
1570526375.73553
1570526375.75116
1570526375.76678
1570526375.78241
1570526375.79803
1570526375.81366
1570526375.82928
1570526375.84491
1570526375.86054
1570526375.87616
1570526375.89179
1570526375.90741
1570526375.92304
1570526375.93866
1570526375.95429
1570526375.96992
1570526375.98554
1570526376.00117
1570526376.01679
1570526376.03242
1570526376.04804
1570526376.06367
1570526376.0793
1570526376.09492
1570526376.11055
1570526376.12617
1570526376.1418
1570526376.15742
1570526376.17305
1570526376.18868
1570526376.2043
1570526376.21993
1570526376.23555
1570526376.25118
1570526376.2668
1570526376.28243
1570526376.29806
1570526376.31368
1570526376.32931
1570526376.34493
1570526376.36056
1570526376.37618
1570526376.39181
1570526376.40744
1570526376.42306
1570526376.43869
1570526376.45431
1570526376.46994
1570526376.48556
1570526376.50119
1570526376.51682
1570526376.53244
1570526376.54807
1570526376.56369
1570526376.57932
1570526376.59494
1570526376.61057
1570526376.6262
1570526376.64182
1570526376.65745
1570526376.67307
1570526376.6887
1570526376.70432
1570526376.71995
1570526376.73558
1570526376.7512
1570526376.76683
1570526376.78245
1570526376.79808
1570526376.8137
1570526376.82933
1570526376.84496
1570526376.86058
1570526376.87621
1570526376.89183
1570526376.90746
1570526376.92308
1570526376.93871
1570526376.95434
1570526376.96996
1570526376.98559
1570526377.00121
1570526377.01684
1570526377.03246
1570526377.04809
1570526377.06372
1570526377.07934
1570526377.09497
1570526377.11059
1570526377.12622
1570526377.14185
1570526377.15747
1570526377.1731
1570526377.18872
1570526377.20435
1570526377.21997
1570526377.2356
1570526377.25123
1570526377.26685
1570526377.28248
1570526377.2981
1570526377.31373
1570526377.32935
1570526377.34498
1570526377.36061
1570526377.37623
1570526377.39186
1570526377.40748
1570526377.42311
1570526377.43873
1570526377.45436
1570526377.46999
1570526377.48561
1570526377.50124
1570526377.51686
1570526377.53249
1570526377.54811
1570526377.56374
1570526377.57937
1570526377.59499
1570526377.61062
1570526377.62624
1570526377.64187
1570526377.65749
1570526377.67312
1570526377.68875
1570526377.70437
1570526377.72
1570526377.73562
1570526377.75125
1570526377.76687
1570526377.7825
1570526377.79813
1570526377.81375
1570526377.82938
1570526377.845
1570526377.86063
1570526377.87625
1570526377.89188
1570526377.90751
1570526377.92313
1570526377.93876
1570526377.95438
1570526377.97001
1570526377.98563
1570526378.00126
1570526378.01689
1570526378.03251
1570526378.04814
1570526378.06376
1570526378.07939
1570526378.09501
1570526378.11064
1570526378.12627
1570526378.14189
1570526378.15752
1570526378.17314
1570526378.18877
1570526378.20439
1570526378.22002
1570526378.23565
1570526378.25127
1570526378.2669
1570526378.28252
1570526378.29815
1570526378.31377
1570526378.3294
1570526378.34503
1570526378.36065
1570526378.37628
1570526378.3919
1570526378.40753
1570526378.42315
1570526378.43878
1570526378.45441
1570526378.47003
1570526378.48566
1570526378.50128
1570526378.51691
1570526378.53253
1570526378.54816
1570526378.56379
1570526378.57941
1570526378.59504
1570526378.61066
1570526378.62629
1570526378.64191
1570526378.65754
1570526378.67317
1570526378.68879
1570526378.70442
1570526378.72004
1570526378.73567
1570526378.75129
1570526378.76692
1570526378.78255
1570526378.79817
1570526378.8138
1570526378.82942
1570526378.84505
1570526378.86067
1570526378.8763
1570526378.89193
1570526378.90755
1570526378.92318
1570526378.9388
1570526378.95443
1570526378.97005
1570526378.98568
1570526379.00131
1570526379.01693
1570526379.03256
1570526379.04818
1570526379.06381
1570526379.07943
1570526379.09506
1570526379.11069
1570526379.12631
1570526379.14194
1570526379.15756
1570526379.17319
1570526379.18881
1570526379.20444
1570526379.22007
1570526379.23569
1570526379.25132
1570526379.26694
1570526379.28257
1570526379.29819
1570526379.31382
1570526379.32945
1570526379.34507
1570526379.3607
1570526379.37632
1570526379.39195
1570526379.40758
1570526379.4232
1570526379.43883
1570526379.45445
1570526379.47008
1570526379.4857
1570526379.50133
1570526379.51696
1570526379.53258
1570526379.54821
1570526379.56383
1570526379.57946
1570526379.59508
1570526379.61071
1570526379.62634
1570526379.64196
1570526379.65759
1570526379.67321
1570526379.68884
1570526379.70446
1570526379.72009
1570526379.73572
1570526379.75134
1570526379.76697
1570526379.78259
1570526379.79822
1570526379.81384
1570526379.82947
1570526379.8451
1570526379.86072
1570526379.87635
1570526379.89197
1570526379.9076
1570526379.92322
1570526379.93885
1570526379.95448
1570526379.9701
1570526379.98573
1570526380.00135
1570526380.01698
1570526380.0326
1570526380.04823
1570526380.06386
1570526380.07948
1570526380.09511
1570526380.11073
1570526380.12636
1570526380.14198
1570526380.15761
1570526380.17324
1570526380.18886
1570526380.20449
1570526380.22011
1570526380.23574
1570526380.25136
1570526380.26699
1570526380.28262
1570526380.29824
1570526380.31387
1570526380.32949
1570526380.34512
1570526380.36074
1570526380.37637
1570526380.392
1570526380.40762
1570526380.42325
1570526380.43887
1570526380.4545
1570526380.47012
1570526380.48575
1570526380.50138
1570526380.517
1570526380.53263
1570526380.54825
1570526380.56388
1570526380.5795
1570526380.59513
1570526380.61076
1570526380.62638
1570526380.64201
1570526380.65763
1570526380.67326
1570526380.68888
1570526380.70451
1570526380.72014
1570526380.73576
1570526380.75139
1570526380.76701
1570526380.78264
1570526380.79826
1570526380.81389
1570526380.82952
1570526380.84514
1570526380.86077
1570526380.87639
1570526380.89202
1570526380.90764
1570526380.92327
1570526380.9389
1570526380.95452
1570526380.97015
1570526380.98577
1570526381.0014
1570526381.01702
1570526381.03265
1570526381.04828
1570526381.0639
1570526381.07953
1570526381.09515
1570526381.11078
1570526381.1264
1570526381.14203
1570526381.15766
1570526381.17328
1570526381.18891
1570526381.20453
1570526381.22016
1570526381.23578
1570526381.25141
1570526381.26704
1570526381.28266
1570526381.29829
1570526381.31391
1570526381.32954
1570526381.34516
1570526381.36079
1570526381.37642
1570526381.39204
1570526381.40767
1570526381.42329
1570526381.43892
1570526381.45454
1570526381.47017
1570526381.4858
1570526381.50142
1570526381.51705
1570526381.53267
1570526381.5483
1570526381.56393
1570526381.57955
1570526381.59518
1570526381.6108
1570526381.62643
1570526381.64205
1570526381.65768
1570526381.67331
1570526381.68893
1570526381.70456
1570526381.72018
1570526381.73581
1570526381.75143
1570526381.76706
1570526381.78269
1570526381.79831
1570526381.81394
1570526381.82956
1570526381.84519
1570526381.86081
1570526381.87644
1570526381.89207
1570526381.90769
1570526381.92332
1570526381.93894
1570526381.95457
1570526381.97019
1570526381.98582
1570526382.00145
1570526382.01707
1570526382.0327
1570526382.04832
1570526382.06395
1570526382.07957
1570526382.0952
1570526382.11083
1570526382.12645
1570526382.14208
1570526382.1577
1570526382.17333
1570526382.18895
1570526382.20458
1570526382.22021
1570526382.23583
1570526382.25146
1570526382.26708
1570526382.28271
1570526382.29833
1570526382.31396
1570526382.32959
1570526382.34521
1570526382.36084
1570526382.37646
1570526382.39209
1570526382.40771
1570526382.42334
1570526382.43897
1570526382.45459
1570526382.47022
1570526382.48584
1570526382.50147
1570526382.51709
1570526382.53272
1570526382.54835
1570526382.56397
1570526382.5796
1570526382.59522
1570526382.61085
1570526382.62647
1570526382.6421
1570526382.65773
1570526382.67335
1570526382.68898
1570526382.7046
1570526382.72023
1570526382.73585
1570526382.75148
1570526382.76711
1570526382.78273
1570526382.79836
1570526382.81398
1570526382.82961
1570526382.84523
1570526382.86086
1570526382.87649
1570526382.89211
1570526382.90774
1570526382.92336
1570526382.93899
1570526382.95461
1570526382.97024
1570526382.98587
1570526383.00149
1570526383.01712
1570526383.03274
1570526383.04837
1570526383.06399
1570526383.07962
1570526383.09525
1570526383.11087
1570526383.1265
1570526383.14212
1570526383.15775
1570526383.17337
1570526383.189
1570526383.20463
1570526383.22025
1570526383.23588
1570526383.2515
1570526383.26713
1570526383.28275
1570526383.29838
1570526383.31401
1570526383.32963
1570526383.34526
1570526383.36088
1570526383.37651
1570526383.39213
1570526383.40776
1570526383.42339
1570526383.43901
1570526383.45464
1570526383.47026
1570526383.48589
1570526383.50151
1570526383.51714
1570526383.53277
1570526383.54839
1570526383.56402
1570526383.57964
1570526383.59527
1570526383.61089
1570526383.62652
1570526383.64215
1570526383.65777
1570526383.6734
1570526383.68902
1570526383.70465
1570526383.72027
1570526383.7359
1570526383.75153
1570526383.76715
1570526383.78278
1570526383.7984
1570526383.81403
1570526383.82965
1570526383.84528
1570526383.86091
1570526383.87653
1570526383.89216
1570526383.90778
1570526383.92341
1570526383.93903
1570526383.95466
1570526383.97029
1570526383.98591
1570526384.00154
1570526384.01716
1570526384.03279
1570526384.04841
1570526384.06404
1570526384.07967
1570526384.09529
1570526384.11092
1570526384.12654
1570526384.14217
1570526384.15779
1570526384.17342
1570526384.18905
1570526384.20467
1570526384.2203
1570526384.23592
1570526384.25155
1570526384.26718
1570526384.2828
1570526384.29843
1570526384.31405
1570526384.32968
1570526384.3453
1570526384.36093
1570526384.37656
1570526384.39218
1570526384.40781
1570526384.42343
1570526384.43906
1570526384.45468
1570526384.47031
1570526384.48594
1570526384.50156
1570526384.51719
1570526384.53281
1570526384.54844
1570526384.56406
1570526384.57969
1570526384.59532
1570526384.61094
1570526384.62657
1570526384.64219
1570526384.65782
1570526384.67344
1570526384.68907
1570526384.7047
1570526384.72032
1570526384.73595
1570526384.75157
1570526384.7672
1570526384.78282
1570526384.79845
1570526384.81408
1570526384.8297
1570526384.84533
1570526384.86095
1570526384.87658
1570526384.8922
1570526384.90783
1570526384.92346
1570526384.93908
1570526384.95471
1570526384.97033
1570526384.98596
1570526385.00158
1570526385.01721
1570526385.03284
1570526385.04846
1570526385.06409
1570526385.07971
1570526385.09534
1570526385.11096
1570526385.12659
1570526385.14222
1570526385.15784
1570526385.17347
1570526385.18909
1570526385.20472
1570526385.22034
1570526385.23597
1570526385.2516
1570526385.26722
1570526385.28285
1570526385.29847
1570526385.3141
1570526385.32972
1570526385.34535
1570526385.36098
1570526385.3766
1570526385.39223
1570526385.40785
1570526385.42348
1570526385.4391
1570526385.45473
1570526385.47036
1570526385.48598
1570526385.50161
1570526385.51723
1570526385.53286
1570526385.54848
1570526385.56411
1570526385.57974
1570526385.59536
1570526385.61099
1570526385.62661
1570526385.64224
1570526385.65786
1570526385.67349
1570526385.68912
1570526385.70474
1570526385.72037
1570526385.73599
1570526385.75162
1570526385.76724
1570526385.78287
1570526385.7985
1570526385.81412
1570526385.82975
1570526385.84537
1570526385.861
1570526385.87662
1570526385.89225
1570526385.90788
1570526385.9235
1570526385.93913
1570526385.95475
1570526385.97038
1570526385.986
1570526386.00163
1570526386.01726
1570526386.03288
1570526386.04851
1570526386.06413
1570526386.07976
1570526386.09538
1570526386.11101
1570526386.12664
1570526386.14226
1570526386.15789
1570526386.17351
1570526386.18914
1570526386.20476
1570526386.22039
1570526386.23602
1570526386.25164
1570526386.26727
1570526386.28289
1570526386.29852
1570526386.31414
1570526386.32977
1570526386.3454
1570526386.36102
1570526386.37665
1570526386.39227
1570526386.4079
1570526386.42353
1570526386.43915
1570526386.45478
1570526386.4704
1570526386.48603
1570526386.50165
1570526386.51728
1570526386.53291
1570526386.54853
1570526386.56416
1570526386.57978
1570526386.59541
1570526386.61103
1570526386.62666
1570526386.64229
1570526386.65791
1570526386.67354
1570526386.68916
1570526386.70479
1570526386.72041
1570526386.73604
1570526386.75167
1570526386.76729
1570526386.78292
1570526386.79854
1570526386.81417
1570526386.82979
1570526386.84542
1570526386.86105
1570526386.87667
1570526386.8923
1570526386.90792
1570526386.92355
1570526386.93917
1570526386.9548
1570526386.97043
1570526386.98605
1570526387.00168
1570526387.0173
1570526387.03293
1570526387.04855
1570526387.06418
1570526387.07981
1570526387.09543
1570526387.11106
1570526387.12668
1570526387.14231
1570526387.15793
1570526387.17356
1570526387.18919
1570526387.20481
1570526387.22044
1570526387.23606
1570526387.25169
1570526387.26731
1570526387.28294
1570526387.29857
1570526387.31419
1570526387.32982
1570526387.34544
1570526387.36107
1570526387.37669
1570526387.39232
1570526387.40795
1570526387.42357
1570526387.4392
1570526387.45482
1570526387.47045
1570526387.48607
1570526387.5017
1570526387.51733
1570526387.53295
1570526387.54858
1570526387.5642
1570526387.57983
1570526387.59545
1570526387.61108
1570526387.62671
1570526387.64233
1570526387.65796
1570526387.67358
1570526387.68921
1570526387.70483
1570526387.72046
1570526387.73609
1570526387.75171
1570526387.76734
1570526387.78296
1570526387.79859
1570526387.81421
1570526387.82984
1570526387.84547
1570526387.86109
1570526387.87672
1570526387.89234
1570526387.90797
1570526387.92359
1570526387.93922
1570526387.95485
1570526387.97047
1570526387.9861
1570526388.00172
1570526388.01735
1570526388.03297
1570526388.0486
1570526388.06423
1570526388.07985
1570526388.09548
1570526388.1111
1570526388.12673
1570526388.14235
1570526388.15798
1570526388.17361
1570526388.18923
1570526388.20486
1570526388.22048
1570526388.23611
1570526388.25173
1570526388.26736
1570526388.28299
1570526388.29861
1570526388.31424
1570526388.32986
1570526388.34549
1570526388.36111
1570526388.37674
1570526388.39237
1570526388.40799
1570526388.42362
1570526388.43924
1570526388.45487
1570526388.47049
1570526388.48612
1570526388.50175
1570526388.51737
1570526388.533
1570526388.54862
1570526388.56425
1570526388.57987
1570526388.5955
1570526388.61113
1570526388.62675
1570526388.64238
1570526388.658
1570526388.67363
1570526388.68926
1570526388.70488
1570526388.72051
1570526388.73613
1570526388.75176
1570526388.76738
1570526388.78301
1570526388.79864
1570526388.81426
1570526388.82989
1570526388.84551
1570526388.86114
1570526388.87676
1570526388.89239
1570526388.90802
1570526388.92364
1570526388.93927
1570526388.95489
1570526388.97052
1570526388.98614
1570526389.00177
1570526389.0174
1570526389.03302
1570526389.04865
1570526389.06427
1570526389.0799
1570526389.09552
1570526389.11115
1570526389.12678
1570526389.1424
1570526389.15803
1570526389.17365
1570526389.18928
1570526389.2049
1570526389.22053
1570526389.23616
1570526389.25178
1570526389.26741
1570526389.28303
1570526389.29866
1570526389.31428
1570526389.32991
1570526389.34554
1570526389.36116
1570526389.37679
1570526389.39241
1570526389.40804
1570526389.42366
1570526389.43929
1570526389.45492
1570526389.47054
1570526389.48617
1570526389.50179
1570526389.51742
1570526389.53304
1570526389.54867
1570526389.5643
1570526389.57992
1570526389.59555
1570526389.61117
1570526389.6268
1570526389.64242
1570526389.65805
1570526389.67368
1570526389.6893
1570526389.70493
1570526389.72055
1570526389.73618
1570526389.7518
1570526389.76743
1570526389.78306
1570526389.79868
1570526389.81431
1570526389.82993
1570526389.84556
1570526389.86118
1570526389.87681
1570526389.89244
1570526389.90806
1570526389.92369
1570526389.93931
1570526389.95494
1570526389.97056
1570526389.98619
1570526390.00182
1570526390.01744
1570526390.03307
1570526390.04869
1570526390.06432
1570526390.07994
1570526390.09557
1570526390.1112
1570526390.12682
1570526390.14245
1570526390.15807
1570526390.1737
1570526390.18932
1570526390.20495
1570526390.22058
1570526390.2362
1570526390.25183
1570526390.26745
1570526390.28308
1570526390.2987
1570526390.31433
1570526390.32996
1570526390.34558
1570526390.36121
1570526390.37683
1570526390.39246
1570526390.40808
1570526390.42371
1570526390.43934
1570526390.45496
1570526390.47059
1570526390.48621
1570526390.50184
1570526390.51746
1570526390.53309
1570526390.54872
1570526390.56434
1570526390.57997
1570526390.59559
1570526390.61122
1570526390.62684
1570526390.64247
1570526390.6581
1570526390.67372
1570526390.68935
1570526390.70497
1570526390.7206
1570526390.73622
1570526390.75185
1570526390.76748
1570526390.7831
1570526390.79873
1570526390.81435
1570526390.82998
1570526390.8456
1570526390.86123
1570526390.87686
1570526390.89248
1570526390.90811
1570526390.92373
1570526390.93936
1570526390.95498
1570526390.97061
1570526390.98624
1570526391.00186
1570526391.01749
1570526391.03311
1570526391.04874
1570526391.06436
1570526391.07999
1570526391.09562
1570526391.11124
1570526391.12687
1570526391.14249
1570526391.15812
1570526391.17374
1570526391.18937
1570526391.205
1570526391.22062
1570526391.23625
1570526391.25187
1570526391.2675
1570526391.28313
1570526391.29875
1570526391.31438
1570526391.33
1570526391.34563
1570526391.36125
1570526391.37688
1570526391.39251
1570526391.40813
1570526391.42376
1570526391.43938
1570526391.45501
1570526391.47063
1570526391.48626
1570526391.50189
1570526391.51751
1570526391.53314
1570526391.54876
1570526391.56439
1570526391.58001
1570526391.59564
1570526391.61127
1570526391.62689
1570526391.64252
1570526391.65814
1570526391.67377
1570526391.68939
1570526391.70502
1570526391.72065
1570526391.73627
1570526391.7519
1570526391.76752
1570526391.78315
1570526391.79877
1570526391.8144
1570526391.83003
1570526391.84565
1570526391.86128
1570526391.8769
1570526391.89253
1570526391.90815
1570526391.92378
1570526391.93941
1570526391.95503
1570526391.97066
1570526391.98628
1570526392.00191
1570526392.01753
1570526392.03316
1570526392.04879
1570526392.06441
1570526392.08004
1570526392.09566
1570526392.11129
1570526392.12691
1570526392.14254
1570526392.15817
1570526392.17379
1570526392.18942
1570526392.20504
1570526392.22067
1570526392.23629
1570526392.25192
1570526392.26755
1570526392.28317
1570526392.2988
1570526392.31442
1570526392.33005
1570526392.34567
1570526392.3613
1570526392.37693
1570526392.39255
1570526392.40818
1570526392.4238
1570526392.43943
1570526392.45505
1570526392.47068
1570526392.48631
1570526392.50193
1570526392.51756
1570526392.53318
1570526392.54881
1570526392.56443
1570526392.58006
1570526392.59569
1570526392.61131
1570526392.62694
1570526392.64256
1570526392.65819
1570526392.67381
1570526392.68944
1570526392.70507
1570526392.72069
1570526392.73632
1570526392.75194
1570526392.76757
1570526392.78319
1570526392.79882
1570526392.81445
1570526392.83007
1570526392.8457
1570526392.86132
1570526392.87695
1570526392.89257
1570526392.9082
1570526392.92383
1570526392.93945
1570526392.95508
1570526392.9707
1570526392.98633
1570526393.00195
1570526393.01758
1570526393.03321
1570526393.04883
1570526393.06446
1570526393.08008
1570526393.09571
1570526393.11133
1570526393.12696
1570526393.14259
1570526393.15821
1570526393.17384
1570526393.18946
1570526393.20509
1570526393.22071
1570526393.23634
1570526393.25197
1570526393.26759
1570526393.28322
1570526393.29884
1570526393.31447
1570526393.33009
1570526393.34572
1570526393.36135
1570526393.37697
1570526393.3926
1570526393.40822
1570526393.42385
1570526393.43947
1570526393.4551
1570526393.47073
1570526393.48635
1570526393.50198
1570526393.5176
1570526393.53323
1570526393.54886
1570526393.56448
1570526393.58011
1570526393.59573
1570526393.61136
1570526393.62698
1570526393.64261
1570526393.65824
1570526393.67386
1570526393.68949
1570526393.70511
1570526393.72074
1570526393.73636
1570526393.75199
1570526393.76762
1570526393.78324
1570526393.79887
1570526393.81449
1570526393.83012
1570526393.84574
1570526393.86137
1570526393.877
1570526393.89262
1570526393.90825
1570526393.92387
1570526393.9395
1570526393.95512
1570526393.97075
1570526393.98638
1570526394.002
1570526394.01763
1570526394.03325
1570526394.04888
1570526394.0645
1570526394.08013
1570526394.09576
1570526394.11138
1570526394.12701
1570526394.14263
1570526394.15826
1570526394.17388
1570526394.18951
1570526394.20514
1570526394.22076
1570526394.23639
1570526394.25201
1570526394.26764
1570526394.28326
1570526394.29889
1570526394.31452
1570526394.33014
1570526394.34577
1570526394.36139
1570526394.37702
1570526394.39264
1570526394.40827
1570526394.4239
1570526394.43952
1570526394.45515
1570526394.47077
1570526394.4864
1570526394.50202
1570526394.51765
1570526394.53328
1570526394.5489
1570526394.56453
1570526394.58015
1570526394.59578
1570526394.6114
1570526394.62703
1570526394.64266
1570526394.65828
1570526394.67391
1570526394.68953
1570526394.70516
1570526394.72078
1570526394.73641
1570526394.75204
1570526394.76766
1570526394.78329
1570526394.79891
1570526394.81454
1570526394.83016
1570526394.84579
1570526394.86142
1570526394.87704
1570526394.89267
1570526394.90829
1570526394.92392
1570526394.93954
1570526394.95517
1570526394.9708
1570526394.98642
1570526395.00205
1570526395.01767
1570526395.0333
1570526395.04892
1570526395.06455
1570526395.08018
1570526395.0958
1570526395.11143
1570526395.12705
1570526395.14268
1570526395.1583
1570526395.17393
1570526395.18956
1570526395.20518
1570526395.22081
1570526395.23643
1570526395.25206
1570526395.26768
1570526395.28331
1570526395.29894
1570526395.31456
1570526395.33019
1570526395.34581
1570526395.36144
1570526395.37706
1570526395.39269
1570526395.40832
1570526395.42394
1570526395.43957
1570526395.45519
1570526395.47082
1570526395.48644
1570526395.50207
1570526395.5177
1570526395.53332
1570526395.54895
1570526395.56457
1570526395.5802
1570526395.59582
1570526395.61145
1570526395.62708
1570526395.6427
1570526395.65833
1570526395.67395
1570526395.68958
1570526395.7052
1570526395.72083
1570526395.73646
1570526395.75208
1570526395.76771
1570526395.78333
1570526395.79896
1570526395.81458
1570526395.83021
1570526395.84584
1570526395.86146
1570526395.87709
1570526395.89271
1570526395.90834
1570526395.92396
1570526395.93959
1570526395.95522
1570526395.97084
1570526395.98647
1570526396.00209
1570526396.01772
1570526396.03334
1570526396.04897
1570526396.0646
1570526396.08022
1570526396.09585
1570526396.11147
1570526396.1271
1570526396.14272
1570526396.15835
1570526396.17398
1570526396.1896
1570526396.20523
1570526396.22085
1570526396.23648
1570526396.25211
1570526396.26773
1570526396.28336
1570526396.29898
1570526396.31461
1570526396.33023
1570526396.34586
1570526396.36149
1570526396.37711
1570526396.39274
1570526396.40836
1570526396.42399
1570526396.43961
1570526396.45524
1570526396.47087
1570526396.48649
1570526396.50212
1570526396.51774
1570526396.53337
1570526396.54899
1570526396.56462
1570526396.58025
1570526396.59587
1570526396.6115
1570526396.62712
1570526396.64275
1570526396.65837
1570526396.674
1570526396.68963
1570526396.70525
1570526396.72088
1570526396.7365
1570526396.75213
1570526396.76775
1570526396.78338
1570526396.79901
1570526396.81463
1570526396.83026
1570526396.84588
1570526396.86151
1570526396.87713
1570526396.89276
1570526396.90839
1570526396.92401
1570526396.93964
1570526396.95526
1570526396.97089
1570526396.98651
1570526397.00214
1570526397.01777
1570526397.03339
1570526397.04902
1570526397.06464
1570526397.08027
1570526397.09589
1570526397.11152
1570526397.12715
1570526397.14277
1570526397.1584
1570526397.17402
1570526397.18965
1570526397.20527
1570526397.2209
1570526397.23653
1570526397.25215
1570526397.26778
1570526397.2834
1570526397.29903
1570526397.31465
1570526397.33028
1570526397.34591
1570526397.36153
1570526397.37716
1570526397.39278
1570526397.40841
1570526397.42403
1570526397.43966
1570526397.45529
1570526397.47091
1570526397.48654
1570526397.50216
1570526397.51779
1570526397.53341
1570526397.54904
1570526397.56467
1570526397.58029
1570526397.59592
1570526397.61154
1570526397.62717
1570526397.64279
1570526397.65842
1570526397.67405
1570526397.68967
1570526397.7053
1570526397.72092
1570526397.73655
1570526397.75217
1570526397.7678
1570526397.78343
1570526397.79905
1570526397.81468
1570526397.8303
1570526397.84593
1570526397.86155
1570526397.87718
1570526397.89281
1570526397.90843
1570526397.92406
1570526397.93968
1570526397.95531
1570526397.97093
1570526397.98656
1570526398.00219
1570526398.01781
1570526398.03344
1570526398.04906
1570526398.06469
1570526398.08031
1570526398.09594
1570526398.11157
1570526398.12719
1570526398.14282
1570526398.15844
1570526398.17407
1570526398.18969
1570526398.20532
1570526398.22095
1570526398.23657
1570526398.2522
1570526398.26782
1570526398.28345
1570526398.29907
1570526398.3147
1570526398.33033
1570526398.34595
1570526398.36158
1570526398.3772
1570526398.39283
1570526398.40846
1570526398.42408
1570526398.43971
1570526398.45533
1570526398.47096
1570526398.48658
1570526398.50221
1570526398.51784
1570526398.53346
1570526398.54909
1570526398.56471
1570526398.58034
1570526398.59596
1570526398.61159
1570526398.62722
1570526398.64284
1570526398.65847
1570526398.67409
1570526398.68972
1570526398.70534
1570526398.72097
1570526398.7366
1570526398.75222
1570526398.76785
1570526398.78347
1570526398.7991
1570526398.81472
1570526398.83035
1570526398.84598
1570526398.8616
1570526398.87723
1570526398.89285
1570526398.90848
1570526398.9241
1570526398.93973
1570526398.95536
1570526398.97098
1570526398.98661
1570526399.00223
1570526399.01786
1570526399.03348
1570526399.04911
1570526399.06474
1570526399.08036
1570526399.09599
1570526399.11161
1570526399.12724
1570526399.14286
1570526399.15849
1570526399.17412
1570526399.18974
1570526399.20537
1570526399.22099
1570526399.23662
1570526399.25224
1570526399.26787
1570526399.2835
1570526399.29912
1570526399.31475
1570526399.33037
1570526399.346
1570526399.36162
1570526399.37725
1570526399.39288
1570526399.4085
1570526399.42413
1570526399.43975
1570526399.45538
1570526399.471
1570526399.48663
1570526399.50226
1570526399.51788
1570526399.53351
1570526399.54913
1570526399.56476
1570526399.58038
1570526399.59601
1570526399.61164
1570526399.62726
1570526399.64289
1570526399.65851
1570526399.67414
1570526399.68976
1570526399.70539
1570526399.72102
1570526399.73664
1570526399.75227
1570526399.76789
1570526399.78352
1570526399.79914
1570526399.81477
1570526399.8304
1570526399.84602
1570526399.86165
1570526399.87727
1570526399.8929
1570526399.90852
1570526399.92415
1570526399.93978
1570526399.9554
1570526399.97103
1570526399.98665
1570526400.00228
1570526400.0179
1570526400.03353
1570526400.04916
1570526400.06478
1570526400.08041
1570526400.09603
1570526400.11166
1570526400.12728
1570526400.14291
1570526400.15854
1570526400.17416
1570526400.18979
1570526400.20541
1570526400.22104
1570526400.23666
1570526400.25229
1570526400.26792
1570526400.28354
1570526400.29917
1570526400.31479
1570526400.33042
1570526400.34604
1570526400.36167
1570526400.3773
1570526400.39292
1570526400.40855
1570526400.42417
1570526400.4398
1570526400.45542
1570526400.47105
1570526400.48668
1570526400.5023
1570526400.51793
1570526400.53355
1570526400.54918
1570526400.5648
1570526400.58043
1570526400.59606
1570526400.61168
1570526400.62731
1570526400.64293
1570526400.65856
1570526400.67419
1570526400.68981
1570526400.70544
1570526400.72106
1570526400.73669
1570526400.75231
1570526400.76794
1570526400.78357
1570526400.79919
1570526400.81482
1570526400.83044
1570526400.84607
1570526400.86169
1570526400.87732
1570526400.89295
1570526400.90857
1570526400.9242
1570526400.93982
1570526400.95545
1570526400.97107
1570526400.9867
1570526401.00233
1570526401.01795
1570526401.03358
1570526401.0492
1570526401.06483
1570526401.08045
1570526401.09608
1570526401.11171
1570526401.12733
1570526401.14296
1570526401.15858
1570526401.17421
1570526401.18983
1570526401.20546
1570526401.22109
1570526401.23671
1570526401.25234
1570526401.26796
1570526401.28359
1570526401.29921
1570526401.31484
1570526401.33047
1570526401.34609
1570526401.36172
1570526401.37734
1570526401.39297
1570526401.40859
1570526401.42422
1570526401.43985
1570526401.45547
1570526401.4711
1570526401.48672
1570526401.50235
1570526401.51797
1570526401.5336
1570526401.54923
1570526401.56485
1570526401.58048
1570526401.5961
1570526401.61173
1570526401.62735
1570526401.64298
1570526401.65861
1570526401.67423
1570526401.68986
1570526401.70548
1570526401.72111
1570526401.73673
1570526401.75236
1570526401.76799
1570526401.78361
1570526401.79924
1570526401.81486
1570526401.83049
1570526401.84611
1570526401.86174
1570526401.87737
1570526401.89299
1570526401.90862
1570526401.92424
1570526401.93987
1570526401.95549
1570526401.97112
1570526401.98675
1570526402.00237
1570526402.018
1570526402.03362
1570526402.04925
1570526402.06487
1570526402.0805
1570526402.09613
1570526402.11175
1570526402.12738
1570526402.143
1570526402.15863
1570526402.17425
1570526402.18988
1570526402.20551
1570526402.22113
1570526402.23676
1570526402.25238
1570526402.26801
1570526402.28363
1570526402.29926
1570526402.31489
1570526402.33051
1570526402.34614
1570526402.36176
1570526402.37739
1570526402.39301
1570526402.40864
1570526402.42427
1570526402.43989
1570526402.45552
1570526402.47114
1570526402.48677
1570526402.50239
1570526402.51802
1570526402.53365
1570526402.54927
1570526402.5649
1570526402.58052
1570526402.59615
1570526402.61177
1570526402.6274
1570526402.64303
1570526402.65865
1570526402.67428
1570526402.6899
1570526402.70553
1570526402.72115
1570526402.73678
1570526402.75241
1570526402.76803
1570526402.78366
1570526402.79928
1570526402.81491
1570526402.83053
1570526402.84616
1570526402.86179
1570526402.87741
1570526402.89304
1570526402.90866
1570526402.92429
1570526402.93991
1570526402.95554
1570526402.97117
1570526402.98679
1570526403.00242
1570526403.01804
1570526403.03367
1570526403.04929
1570526403.06492
1570526403.08055
1570526403.09617
1570526403.1118
1570526403.12742
1570526403.14305
1570526403.15867
1570526403.1743
1570526403.18993
1570526403.20555
1570526403.22118
1570526403.2368
1570526403.25243
1570526403.26806
1570526403.28368
1570526403.29931
1570526403.31493
1570526403.33056
1570526403.34618
1570526403.36181
1570526403.37744
1570526403.39306
1570526403.40869
1570526403.42431
1570526403.43994
1570526403.45556
1570526403.47119
1570526403.48682
1570526403.50244
1570526403.51807
1570526403.53369
1570526403.54932
1570526403.56494
1570526403.58057
1570526403.5962
1570526403.61182
1570526403.62745
1570526403.64307
1570526403.6587
1570526403.67432
1570526403.68995
1570526403.70558
1570526403.7212
1570526403.73683
1570526403.75245
1570526403.76808
1570526403.7837
1570526403.79933
1570526403.81496
1570526403.83058
1570526403.84621
1570526403.86183
1570526403.87746
1570526403.89308
1570526403.90871
1570526403.92434
1570526403.93996
1570526403.95559
1570526403.97121
1570526403.98684
1570526404.00246
1570526404.01809
1570526404.03372
1570526404.04934
1570526404.06497
1570526404.08059
1570526404.09622
1570526404.11184
1570526404.12747
1570526404.1431
1570526404.15872
1570526404.17435
1570526404.18997
1570526404.2056
1570526404.22122
1570526404.23685
1570526404.25248
1570526404.2681
1570526404.28373
1570526404.29935
1570526404.31498
1570526404.3306
1570526404.34623
1570526404.36186
1570526404.37748
1570526404.39311
1570526404.40873
1570526404.42436
1570526404.43998
1570526404.45561
1570526404.47124
1570526404.48686
1570526404.50249
1570526404.51811
1570526404.53374
1570526404.54936
1570526404.56499
1570526404.58062
1570526404.59624
1570526404.61187
1570526404.62749
1570526404.64312
1570526404.65874
1570526404.67437
1570526404.69
1570526404.70562
1570526404.72125
1570526404.73687
1570526404.7525
1570526404.76812
1570526404.78375
1570526404.79938
1570526404.815
1570526404.83063
1570526404.84625
1570526404.86188
1570526404.8775
1570526404.89313
1570526404.90876
1570526404.92438
1570526404.94001
1570526404.95563
1570526404.97126
1570526404.98688
1570526405.00251
1570526405.01814
1570526405.03376
1570526405.04939
1570526405.06501
1570526405.08064
1570526405.09626
1570526405.11189
1570526405.12752
1570526405.14314
1570526405.15877
1570526405.17439
1570526405.19002
1570526405.20564
1570526405.22127
1570526405.2369
1570526405.25252
1570526405.26815
1570526405.28377
1570526405.2994
1570526405.31502
1570526405.33065
1570526405.34628
1570526405.3619
1570526405.37753
1570526405.39315
1570526405.40878
1570526405.4244
1570526405.44003
1570526405.45566
1570526405.47128
1570526405.48691
1570526405.50253
1570526405.51816
1570526405.53379
1570526405.54941
1570526405.56504
1570526405.58066
1570526405.59629
1570526405.61191
1570526405.62754
1570526405.64317
1570526405.65879
1570526405.67442
1570526405.69004
1570526405.70567
1570526405.72129
1570526405.73692
1570526405.75255
1570526405.76817
1570526405.7838
1570526405.79942
1570526405.81505
1570526405.83067
1570526405.8463
1570526405.86193
1570526405.87755
1570526405.89318
1570526405.9088
1570526405.92443
1570526405.94005
1570526405.95568
1570526405.97131
1570526405.98693
1570526406.00256
1570526406.01818
1570526406.03381
1570526406.04943
1570526406.06506
1570526406.08069
1570526406.09631
1570526406.11194
1570526406.12756
1570526406.14319
1570526406.15881
1570526406.17444
1570526406.19007
1570526406.20569
1570526406.22132
1570526406.23694
1570526406.25257
1570526406.26819
1570526406.28382
1570526406.29945
1570526406.31507
1570526406.3307
1570526406.34632
1570526406.36195
1570526406.37757
1570526406.3932
1570526406.40883
1570526406.42445
1570526406.44008
1570526406.4557
1570526406.47133
1570526406.48695
1570526406.50258
1570526406.51821
1570526406.53383
1570526406.54946
1570526406.56508
1570526406.58071
1570526406.59633
1570526406.61196
1570526406.62759
1570526406.64321
1570526406.65884
1570526406.67446
1570526406.69009
1570526406.70571
1570526406.72134
1570526406.73697
1570526406.75259
1570526406.76822
1570526406.78384
1570526406.79947
1570526406.81509
1570526406.83072
1570526406.84635
1570526406.86197
1570526406.8776
1570526406.89322
1570526406.90885
1570526406.92447
1570526406.9401
1570526406.95573
1570526406.97135
1570526406.98698
1570526407.0026
1570526407.01823
1570526407.03385
1570526407.04948
1570526407.06511
1570526407.08073
1570526407.09636
1570526407.11198
1570526407.12761
1570526407.14323
1570526407.15886
1570526407.17449
1570526407.19011
1570526407.20574
1570526407.22136
1570526407.23699
1570526407.25261
1570526407.26824
1570526407.28387
1570526407.29949
1570526407.31512
1570526407.33074
1570526407.34637
1570526407.36199
1570526407.37762
1570526407.39325
1570526407.40887
1570526407.4245
1570526407.44012
1570526407.45575
1570526407.47137
1570526407.487
1570526407.50263
1570526407.51825
1570526407.53388
1570526407.5495
1570526407.56513
1570526407.58075
1570526407.59638
1570526407.61201
1570526407.62763
1570526407.64326
1570526407.65888
1570526407.67451
1570526407.69014
1570526407.70576
1570526407.72139
1570526407.73701
1570526407.75264
1570526407.76826
1570526407.78389
1570526407.79952
1570526407.81514
1570526407.83077
1570526407.84639
1570526407.86202
1570526407.87764
1570526407.89327
1570526407.9089
1570526407.92452
1570526407.94015
1570526407.95577
1570526407.9714
1570526407.98702
1570526408.00265
1570526408.01828
1570526408.0339
1570526408.04953
1570526408.06515
1570526408.08078
1570526408.0964
1570526408.11203
1570526408.12766
1570526408.14328
1570526408.15891
1570526408.17453
1570526408.19016
1570526408.20578
1570526408.22141
1570526408.23704
1570526408.25266
1570526408.26829
1570526408.28391
1570526408.29954
1570526408.31516
1570526408.33079
1570526408.34642
1570526408.36204
1570526408.37767
1570526408.39329
1570526408.40892
1570526408.42454
1570526408.44017
1570526408.4558
1570526408.47142
1570526408.48705
1570526408.50267
1570526408.5183
1570526408.53392
1570526408.54955
1570526408.56518
1570526408.5808
1570526408.59643
1570526408.61205
1570526408.62768
1570526408.6433
1570526408.65893
1570526408.67456
1570526408.69018
1570526408.70581
1570526408.72143
1570526408.73706
1570526408.75268
1570526408.76831
1570526408.78394
1570526408.79956
1570526408.81519
1570526408.83081
1570526408.84644
1570526408.86206
1570526408.87769
1570526408.89332
1570526408.90894
1570526408.92457
1570526408.94019
1570526408.95582
1570526408.97144
1570526408.98707
1570526409.0027
1570526409.01832
1570526409.03395
1570526409.04957
1570526409.0652
1570526409.08082
1570526409.09645
1570526409.11208
1570526409.1277
1570526409.14333
1570526409.15895
1570526409.17458
1570526409.1902
1570526409.20583
1570526409.22146
1570526409.23708
1570526409.25271
1570526409.26833
1570526409.28396
1570526409.29958
1570526409.31521
1570526409.33084
1570526409.34646
1570526409.36209
1570526409.37771
1570526409.39334
1570526409.40896
1570526409.42459
1570526409.44022
1570526409.45584
1570526409.47147
1570526409.48709
1570526409.50272
1570526409.51834
1570526409.53397
1570526409.5496
1570526409.56522
1570526409.58085
1570526409.59647
1570526409.6121
1570526409.62772
1570526409.64335
1570526409.65898
1570526409.6746
1570526409.69023
1570526409.70585
1570526409.72148
1570526409.7371
1570526409.75273
1570526409.76836
1570526409.78398
1570526409.79961
1570526409.81523
1570526409.83086
1570526409.84648
1570526409.86211
1570526409.87774
1570526409.89336
1570526409.90899
1570526409.92461
1570526409.94024
1570526409.95586
1570526409.97149
1570526409.98712
1570526410.00274
1570526410.01837
1570526410.03399
1570526410.04962
1570526410.06524
1570526410.08087
1570526410.0965
1570526410.11212
1570526410.12775
1570526410.14337
1570526410.159
1570526410.17462
1570526410.19025
1570526410.20588
1570526410.2215
1570526410.23713
1570526410.25275
1570526410.26838
1570526410.284
1570526410.29963
1570526410.31526
1570526410.33088
1570526410.34651
1570526410.36213
1570526410.37776
1570526410.39339
1570526410.40901
1570526410.42464
1570526410.44026
1570526410.45589
1570526410.47151
1570526410.48714
1570526410.50277
1570526410.51839
1570526410.53402
1570526410.54964
1570526410.56527
1570526410.58089
1570526410.59652
1570526410.61215
1570526410.62777
1570526410.6434
1570526410.65902
1570526410.67465
1570526410.69027
1570526410.7059
1570526410.72153
1570526410.73715
1570526410.75278
1570526410.7684
1570526410.78403
1570526410.79965
1570526410.81528
1570526410.83091
1570526410.84653
1570526410.86216
1570526410.87778
1570526410.89341
1570526410.90903
1570526410.92466
1570526410.94029
1570526410.95591
1570526410.97154
1570526410.98716
1570526411.00279
1570526411.01841
1570526411.03404
1570526411.04967
1570526411.06529
1570526411.08092
1570526411.09654
1570526411.11217
1570526411.12779
1570526411.14342
1570526411.15905
1570526411.17467
1570526411.1903
1570526411.20592
1570526411.22155
1570526411.23717
1570526411.2528
1570526411.26843
1570526411.28405
1570526411.29968
1570526411.3153
1570526411.33093
1570526411.34655
1570526411.36218
1570526411.37781
1570526411.39343
1570526411.40906
1570526411.42468
1570526411.44031
1570526411.45593
1570526411.47156
1570526411.48719
1570526411.50281
1570526411.51844
1570526411.53406
1570526411.54969
1570526411.56531
1570526411.58094
1570526411.59657
1570526411.61219
1570526411.62782
1570526411.64344
1570526411.65907
1570526411.67469
1570526411.69032
1570526411.70595
1570526411.72157
1570526411.7372
1570526411.75282
1570526411.76845
1570526411.78407
1570526411.7997
1570526411.81533
1570526411.83095
1570526411.84658
1570526411.8622
1570526411.87783
1570526411.89345
1570526411.90908
1570526411.92471
1570526411.94033
1570526411.95596
1570526411.97158
1570526411.98721
1570526412.00283
1570526412.01846
1570526412.03409
1570526412.04971
1570526412.06534
1570526412.08096
1570526412.09659
1570526412.11221
1570526412.12784
1570526412.14347
1570526412.15909
1570526412.17472
1570526412.19034
1570526412.20597
1570526412.22159
1570526412.23722
1570526412.25285
1570526412.26847
1570526412.2841
1570526412.29972
1570526412.31535
1570526412.33097
1570526412.3466
1570526412.36223
1570526412.37785
1570526412.39348
1570526412.4091
1570526412.42473
1570526412.44035
1570526412.45598
1570526412.47161
1570526412.48723
1570526412.50286
1570526412.51848
1570526412.53411
1570526412.54974
1570526412.56536
1570526412.58099
1570526412.59661
1570526412.61224
1570526412.62786
1570526412.64349
1570526412.65912
1570526412.67474
1570526412.69037
1570526412.70599
1570526412.72162
1570526412.73724
1570526412.75287
1570526412.7685
1570526412.78412
1570526412.79975
1570526412.81537
1570526412.831
1570526412.84662
1570526412.86225
1570526412.87788
1570526412.8935
1570526412.90913
1570526412.92475
1570526412.94038
1570526412.956
1570526412.97163
1570526412.98726
1570526413.00288
1570526413.01851
1570526413.03413
1570526413.04976
1570526413.06538
1570526413.08101
1570526413.09664
1570526413.11226
1570526413.12789
1570526413.14351
1570526413.15914
1570526413.17476
1570526413.19039
1570526413.20602
1570526413.22164
1570526413.23727
1570526413.25289
1570526413.26852
1570526413.28414
1570526413.29977
1570526413.3154
1570526413.33102
1570526413.34665
1570526413.36227
1570526413.3779
1570526413.39352
1570526413.40915
1570526413.42478
1570526413.4404
1570526413.45603
1570526413.47165
1570526413.48728
1570526413.5029
1570526413.51853
1570526413.53416
1570526413.54978
1570526413.56541
1570526413.58103
1570526413.59666
1570526413.61228
1570526413.62791
1570526413.64354
1570526413.65916
1570526413.67479
1570526413.69041
1570526413.70604
1570526413.72166
1570526413.73729
1570526413.75292
1570526413.76854
1570526413.78417
1570526413.79979
1570526413.81542
1570526413.83104
1570526413.84667
1570526413.8623
1570526413.87792
1570526413.89355
1570526413.90917
1570526413.9248
1570526413.94042
1570526413.95605
1570526413.97168
1570526413.9873
1570526414.00293
1570526414.01855
1570526414.03418
1570526414.0498
1570526414.06543
1570526414.08106
1570526414.09668
1570526414.11231
1570526414.12793
1570526414.14356
1570526414.15918
1570526414.17481
1570526414.19044
1570526414.20606
1570526414.22169
1570526414.23731
1570526414.25294
1570526414.26856
1570526414.28419
1570526414.29982
1570526414.31544
1570526414.33107
1570526414.34669
1570526414.36232
1570526414.37794
1570526414.39357
1570526414.4092
1570526414.42482
1570526414.44045
1570526414.45607
1570526414.4717
1570526414.48732
1570526414.50295
1570526414.51858
1570526414.5342
1570526414.54983
1570526414.56545
1570526414.58108
1570526414.5967
1570526414.61233
1570526414.62796
1570526414.64358
1570526414.65921
1570526414.67483
1570526414.69046
1570526414.70608
1570526414.72171
1570526414.73734
1570526414.75296
1570526414.76859
1570526414.78421
1570526414.79984
1570526414.81546
1570526414.83109
1570526414.84672
1570526414.86234
1570526414.87797
1570526414.89359
1570526414.90922
1570526414.92484
1570526414.94047
1570526414.9561
1570526414.97172
1570526414.98735
1570526415.00297
1570526415.0186
1570526415.03422
1570526415.04985
1570526415.06548
1570526415.0811
1570526415.09673
1570526415.11235
1570526415.12798
1570526415.1436
1570526415.15923
1570526415.17486
1570526415.19048
1570526415.20611
1570526415.22173
1570526415.23736
1570526415.25299
1570526415.26861
1570526415.28424
1570526415.29986
1570526415.31549
1570526415.33111
1570526415.34674
1570526415.36237
1570526415.37799
1570526415.39362
1570526415.40924
1570526415.42487
1570526415.44049
1570526415.45612
1570526415.47175
1570526415.48737
1570526415.503
1570526415.51862
1570526415.53425
1570526415.54987
1570526415.5655
1570526415.58113
1570526415.59675
1570526415.61238
1570526415.628
1570526415.64363
1570526415.65925
1570526415.67488
1570526415.69051
1570526415.70613
1570526415.72176
1570526415.73738
1570526415.75301
1570526415.76863
1570526415.78426
1570526415.79989
1570526415.81551
1570526415.83114
1570526415.84676
1570526415.86239
1570526415.87801
1570526415.89364
1570526415.90927
1570526415.92489
1570526415.94052
1570526415.95614
1570526415.97177
1570526415.98739
1570526416.00302
1570526416.01865
1570526416.03427
1570526416.0499
1570526416.06552
1570526416.08115
1570526416.09677
1570526416.1124
1570526416.12803
1570526416.14365
1570526416.15928
1570526416.1749
1570526416.19053
1570526416.20615
1570526416.22178
1570526416.23741
1570526416.25303
1570526416.26866
1570526416.28428
1570526416.29991
1570526416.31553
1570526416.33116
1570526416.34679
1570526416.36241
1570526416.37804
1570526416.39366
1570526416.40929
1570526416.42491
1570526416.44054
1570526416.45617
1570526416.47179
1570526416.48742
1570526416.50304
1570526416.51867
1570526416.53429
1570526416.54992
1570526416.56555
1570526416.58117
1570526416.5968
1570526416.61242
1570526416.62805
1570526416.64367
1570526416.6593
1570526416.67493
1570526416.69055
1570526416.70618
1570526416.7218
1570526416.73743
1570526416.75305
1570526416.76868
1570526416.78431
1570526416.79993
1570526416.81556
1570526416.83118
1570526416.84681
1570526416.86243
1570526416.87806
1570526416.89369
1570526416.90931
1570526416.92494
1570526416.94056
1570526416.95619
1570526416.97181
1570526416.98744
1570526417.00307
1570526417.01869
1570526417.03432
1570526417.04994
1570526417.06557
1570526417.08119
1570526417.09682
1570526417.11245
1570526417.12807
1570526417.1437
1570526417.15932
1570526417.17495
1570526417.19057
1570526417.2062
1570526417.22183
1570526417.23745
1570526417.25308
1570526417.2687
1570526417.28433
1570526417.29995
1570526417.31558
1570526417.33121
1570526417.34683
1570526417.36246
1570526417.37808
1570526417.39371
1570526417.40934
1570526417.42496
1570526417.44059
1570526417.45621
1570526417.47184
1570526417.48746
1570526417.50309
1570526417.51872
1570526417.53434
1570526417.54997
1570526417.56559
1570526417.58122
1570526417.59684
1570526417.61247
1570526417.6281
1570526417.64372
1570526417.65935
1570526417.67497
1570526417.6906
1570526417.70622
1570526417.72185
1570526417.73748
1570526417.7531
1570526417.76873
1570526417.78435
1570526417.79998
1570526417.8156
1570526417.83123
1570526417.84686
1570526417.86248
1570526417.87811
1570526417.89373
1570526417.90936
1570526417.92498
1570526417.94061
1570526417.95624
1570526417.97186
1570526417.98749
1570526418.00311
1570526418.01874
1570526418.03436
1570526418.04999
1570526418.06562
1570526418.08124
1570526418.09687
1570526418.11249
1570526418.12812
1570526418.14374
1570526418.15937
1570526418.175
1570526418.19062
1570526418.20625
1570526418.22187
1570526418.2375
1570526418.25312
1570526418.26875
1570526418.28438
1570526418.3
1570526418.31563
1570526418.33125
1570526418.34688
1570526418.3625
1570526418.37813
1570526418.39376
1570526418.40938
1570526418.42501
1570526418.44063
1570526418.45626
1570526418.47188
1570526418.48751
1570526418.50314
1570526418.51876
1570526418.53439
1570526418.55001
1570526418.56564
1570526418.58126
1570526418.59689
1570526418.61252
1570526418.62814
1570526418.64377
1570526418.65939
1570526418.67502
1570526418.69064
1570526418.70627
1570526418.7219
1570526418.73752
1570526418.75315
1570526418.76877
1570526418.7844
1570526418.80002
1570526418.81565
1570526418.83128
1570526418.8469
1570526418.86253
1570526418.87815
1570526418.89378
1570526418.9094
1570526418.92503
1570526418.94066
1570526418.95628
1570526418.97191
1570526418.98753
1570526419.00316
1570526419.01878
1570526419.03441
1570526419.05004
1570526419.06566
1570526419.08129
1570526419.09691
1570526419.11254
1570526419.12816
1570526419.14379
1570526419.15942
1570526419.17504
1570526419.19067
1570526419.20629
1570526419.22192
1570526419.23754
1570526419.25317
1570526419.2688
1570526419.28442
1570526419.30005
1570526419.31567
1570526419.3313
1570526419.34692
1570526419.36255
1570526419.37818
1570526419.3938
1570526419.40943
1570526419.42505
1570526419.44068
1570526419.4563
1570526419.47193
1570526419.48756
1570526419.50318
1570526419.51881
1570526419.53443
1570526419.55006
1570526419.56568
1570526419.58131
1570526419.59694
1570526419.61256
1570526419.62819
1570526419.64381
1570526419.65944
1570526419.67507
1570526419.69069
1570526419.70632
1570526419.72194
1570526419.73757
1570526419.75319
1570526419.76882
1570526419.78445
1570526419.80007
1570526419.8157
1570526419.83132
1570526419.84695
1570526419.86257
1570526419.8782
1570526419.89383
1570526419.90945
1570526419.92508
1570526419.9407
1570526419.95633
1570526419.97195
1570526419.98758
1570526420.00321
1570526420.01883
1570526420.03446
1570526420.05008
1570526420.06571
1570526420.08133
1570526420.09696
1570526420.11259
1570526420.12821
1570526420.14384
1570526420.15946
1570526420.17509
1570526420.19071
1570526420.20634
1570526420.22197
1570526420.23759
1570526420.25322
1570526420.26884
1570526420.28447
1570526420.30009
1570526420.31572
1570526420.33135
1570526420.34697
1570526420.3626
1570526420.37822
1570526420.39385
1570526420.40947
1570526420.4251
1570526420.44073
1570526420.45635
1570526420.47198
1570526420.4876
1570526420.50323
1570526420.51885
1570526420.53448
1570526420.55011
1570526420.56573
1570526420.58136
1570526420.59698
1570526420.61261
1570526420.62823
1570526420.64386
1570526420.65949
1570526420.67511
1570526420.69074
1570526420.70636
1570526420.72199
1570526420.73761
1570526420.75324
1570526420.76887
1570526420.78449
1570526420.80012
1570526420.81574
1570526420.83137
1570526420.84699
1570526420.86262
1570526420.87825
1570526420.89387
1570526420.9095
1570526420.92512
1570526420.94075
1570526420.95637
1570526420.972
1570526420.98763
1570526421.00325
1570526421.01888
1570526421.0345
1570526421.05013
1570526421.06575
1570526421.08138
1570526421.09701
1570526421.11263
1570526421.12826
1570526421.14388
1570526421.15951
1570526421.17513
1570526421.19076
1570526421.20639
1570526421.22201
1570526421.23764
1570526421.25326
1570526421.26889
1570526421.28451
1570526421.30014
1570526421.31577
1570526421.33139
1570526421.34702
1570526421.36264
1570526421.37827
1570526421.39389
1570526421.40952
1570526421.42515
1570526421.44077
1570526421.4564
1570526421.47202
1570526421.48765
1570526421.50327
1570526421.5189
1570526421.53453
1570526421.55015
1570526421.56578
1570526421.5814
1570526421.59703
1570526421.61265
1570526421.62828
1570526421.64391
1570526421.65953
1570526421.67516
1570526421.69078
1570526421.70641
1570526421.72203
1570526421.73766
1570526421.75329
1570526421.76891
1570526421.78454
1570526421.80016
1570526421.81579
1570526421.83141
1570526421.84704
1570526421.86267
1570526421.87829
1570526421.89392
1570526421.90954
1570526421.92517
1570526421.94079
1570526421.95642
1570526421.97205
1570526421.98767
1570526422.0033
1570526422.01892
1570526422.03455
1570526422.05017
1570526422.0658
1570526422.08143
1570526422.09705
1570526422.11268
1570526422.1283
1570526422.14393
1570526422.15955
1570526422.17518
1570526422.19081
1570526422.20643
1570526422.22206
1570526422.23768
1570526422.25331
1570526422.26894
1570526422.28456
1570526422.30019
1570526422.31581
1570526422.33144
1570526422.34706
1570526422.36269
1570526422.37832
1570526422.39394
1570526422.40957
1570526422.42519
1570526422.44082
1570526422.45644
1570526422.47207
1570526422.4877
1570526422.50332
1570526422.51895
1570526422.53457
1570526422.5502
1570526422.56582
1570526422.58145
1570526422.59708
1570526422.6127
1570526422.62833
1570526422.64395
1570526422.65958
1570526422.6752
1570526422.69083
1570526422.70646
1570526422.72208
1570526422.73771
1570526422.75333
1570526422.76896
1570526422.78458
1570526422.80021
1570526422.81584
1570526422.83146
1570526422.84709
1570526422.86271
1570526422.87834
1570526422.89396
1570526422.90959
1570526422.92522
1570526422.94084
1570526422.95647
1570526422.97209
1570526422.98772
1570526423.00334
1570526423.01897
1570526423.0346
1570526423.05022
1570526423.06585
1570526423.08147
1570526423.0971
1570526423.11272
1570526423.12835
1570526423.14398
1570526423.1596
1570526423.17523
1570526423.19085
1570526423.20648
1570526423.2221
1570526423.23773
1570526423.25336
1570526423.26898
1570526423.28461
1570526423.30023
1570526423.31586
1570526423.33148
1570526423.34711
1570526423.36274
1570526423.37836
1570526423.39399
1570526423.40961
1570526423.42524
1570526423.44086
1570526423.45649
1570526423.47212
1570526423.48774
1570526423.50337
1570526423.51899
1570526423.53462
1570526423.55024
1570526423.56587
1570526423.5815
1570526423.59712
1570526423.61275
1570526423.62837
1570526423.644
1570526423.65962
1570526423.67525
1570526423.69088
1570526423.7065
1570526423.72213
1570526423.73775
1570526423.75338
1570526423.769
1570526423.78463
1570526423.80026
1570526423.81588
1570526423.83151
1570526423.84713
1570526423.86276
1570526423.87838
1570526423.89401
1570526423.90964
1570526423.92526
1570526423.94089
1570526423.95651
1570526423.97214
1570526423.98776
1570526424.00339
1570526424.01902
1570526424.03464
1570526424.05027
1570526424.06589
1570526424.08152
1570526424.09714
1570526424.11277
1570526424.1284
1570526424.14402
1570526424.15965
1570526424.17527
1570526424.1909
1570526424.20652
1570526424.22215
1570526424.23778
1570526424.2534
1570526424.26903
1570526424.28465
1570526424.30028
1570526424.3159
1570526424.33153
1570526424.34716
1570526424.36278
1570526424.37841
1570526424.39403
1570526424.40966
1570526424.42528
1570526424.44091
1570526424.45654
1570526424.47216
1570526424.48779
1570526424.50341
1570526424.51904
1570526424.53467
1570526424.55029
1570526424.56592
1570526424.58154
1570526424.59717
1570526424.61279
1570526424.62842
1570526424.64405
1570526424.65967
1570526424.6753
1570526424.69092
1570526424.70655
1570526424.72217
1570526424.7378
1570526424.75343
1570526424.76905
1570526424.78468
1570526424.8003
1570526424.81593
1570526424.83155
1570526424.84718
1570526424.86281
1570526424.87843
1570526424.89406
1570526424.90968
1570526424.92531
1570526424.94093
1570526424.95656
1570526424.97219
1570526424.98781
1570526425.00344
1570526425.01906
1570526425.03469
1570526425.05031
1570526425.06594
1570526425.08157
1570526425.09719
1570526425.11282
1570526425.12844
1570526425.14407
1570526425.15969
1570526425.17532
1570526425.19095
1570526425.20657
1570526425.2222
1570526425.23782
1570526425.25345
1570526425.26907
1570526425.2847
1570526425.30033
1570526425.31595
1570526425.33158
1570526425.3472
1570526425.36283
1570526425.37845
1570526425.39408
1570526425.40971
1570526425.42533
1570526425.44096
1570526425.45658
1570526425.47221
1570526425.48783
1570526425.50346
1570526425.51909
1570526425.53471
1570526425.55034
1570526425.56596
1570526425.58159
1570526425.59721
1570526425.61284
1570526425.62847
1570526425.64409
1570526425.65972
1570526425.67534
1570526425.69097
1570526425.70659
1570526425.72222
1570526425.73785
1570526425.75347
1570526425.7691
1570526425.78472
1570526425.80035
1570526425.81597
1570526425.8316
1570526425.84723
1570526425.86285
1570526425.87848
1570526425.8941
1570526425.90973
1570526425.92535
1570526425.94098
1570526425.95661
1570526425.97223
1570526425.98786
1570526426.00348
1570526426.01911
1570526426.03473
1570526426.05036
1570526426.06599
1570526426.08161
1570526426.09724
1570526426.11286
1570526426.12849
1570526426.14411
1570526426.15974
1570526426.17537
1570526426.19099
1570526426.20662
1570526426.22224
1570526426.23787
1570526426.25349
1570526426.26912
1570526426.28475
1570526426.30037
1570526426.316
1570526426.33162
1570526426.34725
1570526426.36287
1570526426.3785
1570526426.39413
1570526426.40975
1570526426.42538
1570526426.441
1570526426.45663
1570526426.47225
1570526426.48788
1570526426.50351
1570526426.51913
1570526426.53476
1570526426.55038
1570526426.56601
1570526426.58163
1570526426.59726
1570526426.61289
1570526426.62851
1570526426.64414
1570526426.65976
1570526426.67539
1570526426.69101
1570526426.70664
1570526426.72227
1570526426.73789
1570526426.75352
1570526426.76914
1570526426.78477
1570526426.8004
1570526426.81602
1570526426.83165
1570526426.84727
1570526426.8629
1570526426.87852
1570526426.89415
1570526426.90978
1570526426.9254
1570526426.94103
1570526426.95665
1570526426.97228
1570526426.9879
1570526427.00353
1570526427.01916
1570526427.03478
1570526427.05041
1570526427.06603
1570526427.08166
1570526427.09728
1570526427.11291
1570526427.12854
1570526427.14416
1570526427.15979
1570526427.17541
1570526427.19104
1570526427.20666
1570526427.22229
1570526427.23792
1570526427.25354
1570526427.26917
1570526427.28479
1570526427.30042
1570526427.31604
1570526427.33167
1570526427.3473
1570526427.36292
1570526427.37855
1570526427.39417
1570526427.4098
1570526427.42542
1570526427.44105
1570526427.45668
1570526427.4723
1570526427.48793
1570526427.50355
1570526427.51918
1570526427.5348
1570526427.55043
1570526427.56606
1570526427.58168
1570526427.59731
1570526427.61293
1570526427.62856
1570526427.64418
1570526427.65981
1570526427.67544
1570526427.69106
1570526427.70669
1570526427.72231
1570526427.73794
1570526427.75356
1570526427.76919
1570526427.78482
1570526427.80044
1570526427.81607
1570526427.83169
1570526427.84732
1570526427.86294
1570526427.87857
1570526427.8942
1570526427.90982
1570526427.92545
1570526427.94107
1570526427.9567
1570526427.97232
1570526427.98795
1570526428.00358
1570526428.0192
1570526428.03483
1570526428.05045
1570526428.06608
1570526428.0817
1570526428.09733
1570526428.11296
1570526428.12858
1570526428.14421
1570526428.15983
1570526428.17546
1570526428.19108
1570526428.20671
1570526428.22234
1570526428.23796
1570526428.25359
1570526428.26921
1570526428.28484
1570526428.30046
1570526428.31609
1570526428.33172
1570526428.34734
1570526428.36297
1570526428.37859
1570526428.39422
1570526428.40984
1570526428.42547
1570526428.4411
1570526428.45672
1570526428.47235
1570526428.48797
1570526428.5036
1570526428.51922
1570526428.53485
1570526428.55048
1570526428.5661
1570526428.58173
1570526428.59735
1570526428.61298
1570526428.6286
1570526428.64423
1570526428.65986
1570526428.67548
1570526428.69111
1570526428.70673
1570526428.72236
1570526428.73798
1570526428.75361
1570526428.76924
1570526428.78486
1570526428.80049
1570526428.81611
1570526428.83174
1570526428.84736
1570526428.86299
1570526428.87862
1570526428.89424
1570526428.90987
1570526428.92549
1570526428.94112
1570526428.95674
1570526428.97237
1570526428.988
1570526429.00362
1570526429.01925
1570526429.03487
1570526429.0505
1570526429.06612
1570526429.08175
1570526429.09738
1570526429.113
1570526429.12863
1570526429.14425
1570526429.15988
1570526429.1755
1570526429.19113
1570526429.20676
1570526429.22238
1570526429.23801
1570526429.25363
1570526429.26926
1570526429.28488
1570526429.30051
1570526429.31614
1570526429.33176
1570526429.34739
1570526429.36301
1570526429.37864
1570526429.39427
1570526429.40989
1570526429.42552
1570526429.44114
1570526429.45677
1570526429.47239
1570526429.48802
1570526429.50365
1570526429.51927
1570526429.5349
1570526429.55052
1570526429.56615
1570526429.58177
1570526429.5974
1570526429.61303
1570526429.62865
1570526429.64428
1570526429.6599
1570526429.67553
1570526429.69115
1570526429.70678
1570526429.72241
1570526429.73803
1570526429.75366
1570526429.76928
1570526429.78491
1570526429.80053
1570526429.81616
1570526429.83179
1570526429.84741
1570526429.86304
1570526429.87866
1570526429.89429
1570526429.90991
1570526429.92554
1570526429.94117
1570526429.95679
1570526429.97242
1570526429.98804
1570526430.00367
1570526430.01929
1570526430.03492
1570526430.05055
1570526430.06617
1570526430.0818
1570526430.09742
1570526430.11305
1570526430.12867
1570526430.1443
1570526430.15993
1570526430.17555
1570526430.19118
1570526430.2068
1570526430.22243
1570526430.23805
1570526430.25368
1570526430.26931
1570526430.28493
1570526430.30056
1570526430.31618
1570526430.33181
1570526430.34743
1570526430.36306
1570526430.37869
1570526430.39431
1570526430.40994
1570526430.42556
1570526430.44119
1570526430.45681
1570526430.47244
1570526430.48807
1570526430.50369
1570526430.51932
1570526430.53494
1570526430.55057
1570526430.56619
1570526430.58182
1570526430.59745
1570526430.61307
1570526430.6287
1570526430.64432
1570526430.65995
1570526430.67557
1570526430.6912
1570526430.70683
1570526430.72245
1570526430.73808
1570526430.7537
1570526430.76933
1570526430.78495
1570526430.80058
1570526430.81621
1570526430.83183
1570526430.84746
1570526430.86308
1570526430.87871
1570526430.89433
1570526430.90996
1570526430.92559
1570526430.94121
1570526430.95684
1570526430.97246
1570526430.98809
1570526431.00371
1570526431.01934
1570526431.03497
1570526431.05059
1570526431.06622
1570526431.08184
1570526431.09747
1570526431.11309
1570526431.12872
1570526431.14435
1570526431.15997
1570526431.1756
1570526431.19122
1570526431.20685
1570526431.22247
1570526431.2381
1570526431.25373
1570526431.26935
1570526431.28498
1570526431.3006
1570526431.31623
1570526431.33185
1570526431.34748
1570526431.36311
1570526431.37873
1570526431.39436
1570526431.40998
1570526431.42561
1570526431.44123
1570526431.45686
1570526431.47249
1570526431.48811
1570526431.50374
1570526431.51936
1570526431.53499
1570526431.55061
1570526431.56624
1570526431.58187
1570526431.59749
1570526431.61312
1570526431.62874
1570526431.64437
1570526431.66
1570526431.67562
1570526431.69125
1570526431.70687
1570526431.7225
1570526431.73812
1570526431.75375
1570526431.76938
1570526431.785
1570526431.80063
1570526431.81625
1570526431.83188
1570526431.8475
1570526431.86313
1570526431.87876
1570526431.89438
1570526431.91001
1570526431.92563
1570526431.94126
1570526431.95688
1570526431.97251
1570526431.98814
1570526432.00376
1570526432.01939
1570526432.03501
1570526432.05064
1570526432.06626
1570526432.08189
1570526432.09752
1570526432.11314
1570526432.12877
1570526432.14439
1570526432.16002
1570526432.17564
1570526432.19127
1570526432.2069
1570526432.22252
1570526432.23815
1570526432.25377
1570526432.2694
1570526432.28502
1570526432.30065
1570526432.31628
1570526432.3319
1570526432.34753
1570526432.36315
1570526432.37878
1570526432.3944
1570526432.41003
1570526432.42566
1570526432.44128
1570526432.45691
1570526432.47253
1570526432.48816
1570526432.50378
1570526432.51941
1570526432.53504
1570526432.55066
1570526432.56629
1570526432.58191
1570526432.59754
1570526432.61316
1570526432.62879
1570526432.64442
1570526432.66004
1570526432.67567
1570526432.69129
1570526432.70692
1570526432.72254
1570526432.73817
1570526432.7538
1570526432.76942
1570526432.78505
1570526432.80067
1570526432.8163
1570526432.83192
1570526432.84755
1570526432.86318
1570526432.8788
1570526432.89443
1570526432.91005
1570526432.92568
1570526432.9413
1570526432.95693
1570526432.97256
1570526432.98818
1570526433.00381
1570526433.01943
1570526433.03506
1570526433.05068
1570526433.06631
1570526433.08194
1570526433.09756
1570526433.11319
1570526433.12881
1570526433.14444
1570526433.16006
1570526433.17569
1570526433.19132
1570526433.20694
1570526433.22257
1570526433.23819
1570526433.25382
1570526433.26944
1570526433.28507
1570526433.3007
1570526433.31632
1570526433.33195
1570526433.34757
1570526433.3632
1570526433.37882
1570526433.39445
1570526433.41008
1570526433.4257
1570526433.44133
1570526433.45695
1570526433.47258
1570526433.4882
1570526433.50383
1570526433.51946
1570526433.53508
1570526433.55071
1570526433.56633
1570526433.58196
1570526433.59758
1570526433.61321
1570526433.62884
1570526433.64446
1570526433.66009
1570526433.67571
1570526433.69134
1570526433.70696
1570526433.72259
1570526433.73822
1570526433.75384
1570526433.76947
1570526433.78509
1570526433.80072
1570526433.81634
1570526433.83197
1570526433.8476
1570526433.86322
1570526433.87885
1570526433.89447
1570526433.9101
1570526433.92572
1570526433.94135
1570526433.95698
1570526433.9726
1570526433.98823
1570526434.00385
1570526434.01948
1570526434.0351
1570526434.05073
1570526434.06636
1570526434.08198
1570526434.09761
1570526434.11323
1570526434.12886
1570526434.14449
1570526434.16011
1570526434.17574
1570526434.19136
1570526434.20699
1570526434.22261
1570526434.23824
1570526434.25387
1570526434.26949
1570526434.28512
1570526434.30074
1570526434.31637
1570526434.33199
1570526434.34762
1570526434.36325
1570526434.37887
1570526434.3945
1570526434.41012
1570526434.42575
1570526434.44137
1570526434.457
1570526434.47263
1570526434.48825
1570526434.50388
1570526434.5195
1570526434.53513
1570526434.55075
1570526434.56638
1570526434.58201
1570526434.59763
1570526434.61326
1570526434.62888
1570526434.64451
1570526434.66013
1570526434.67576
1570526434.69139
1570526434.70701
1570526434.72264
1570526434.73826
1570526434.75389
1570526434.76951
1570526434.78514
1570526434.80077
1570526434.81639
1570526434.83202
1570526434.84764
1570526434.86327
1570526434.87889
1570526434.89452
1570526434.91015
1570526434.92577
1570526434.9414
1570526434.95702
1570526434.97265
1570526434.98827
1570526435.0039
1570526435.01953
1570526435.03515
1570526435.05078
1570526435.0664
1570526435.08203
1570526435.09765
1570526435.11328
1570526435.12891
1570526435.14453
1570526435.16016
1570526435.17578
1570526435.19141
1570526435.20703
1570526435.22266
1570526435.23829
1570526435.25391
1570526435.26954
1570526435.28516
1570526435.30079
1570526435.31641
1570526435.33204
1570526435.34767
1570526435.36329
1570526435.37892
1570526435.39454
1570526435.41017
1570526435.42579
1570526435.44142
1570526435.45705
1570526435.47267
1570526435.4883
1570526435.50392
1570526435.51955
1570526435.53517
1570526435.5508
1570526435.56643
1570526435.58205
1570526435.59768
1570526435.6133
1570526435.62893
1570526435.64455
1570526435.66018
1570526435.67581
1570526435.69143
1570526435.70706
1570526435.72268
1570526435.73831
1570526435.75393
1570526435.76956
1570526435.78519
1570526435.80081
1570526435.81644
1570526435.83206
1570526435.84769
1570526435.86331
1570526435.87894
1570526435.89457
1570526435.91019
1570526435.92582
1570526435.94144
1570526435.95707
1570526435.97269
1570526435.98832
1570526436.00395
1570526436.01957
1570526436.0352
1570526436.05082
1570526436.06645
1570526436.08207
1570526436.0977
1570526436.11333
1570526436.12895
1570526436.14458
1570526436.1602
1570526436.17583
1570526436.19145
1570526436.20708
1570526436.22271
1570526436.23833
1570526436.25396
1570526436.26958
1570526436.28521
1570526436.30083
1570526436.31646
1570526436.33209
1570526436.34771
1570526436.36334
1570526436.37896
1570526436.39459
1570526436.41021
1570526436.42584
1570526436.44147
1570526436.45709
1570526436.47272
1570526436.48834
1570526436.50397
1570526436.5196
1570526436.53522
1570526436.55085
1570526436.56647
1570526436.5821
1570526436.59772
1570526436.61335
1570526436.62898
1570526436.6446
1570526436.66023
1570526436.67585
1570526436.69148
1570526436.7071
1570526436.72273
1570526436.73836
1570526436.75398
1570526436.76961
1570526436.78523
1570526436.80086
1570526436.81648
1570526436.83211
1570526436.84774
1570526436.86336
1570526436.87899
1570526436.89461
1570526436.91024
1570526436.92586
1570526436.94149
1570526436.95712
1570526436.97274
1570526436.98837
1570526437.00399
1570526437.01962
1570526437.03524
1570526437.05087
1570526437.0665
1570526437.08212
1570526437.09775
1570526437.11337
1570526437.129
1570526437.14462
1570526437.16025
1570526437.17588
1570526437.1915
1570526437.20713
1570526437.22275
1570526437.23838
1570526437.254
1570526437.26963
1570526437.28526
1570526437.30088
1570526437.31651
1570526437.33213
1570526437.34776
1570526437.36338
1570526437.37901
1570526437.39464
1570526437.41026
1570526437.42589
1570526437.44151
1570526437.45714
1570526437.47276
1570526437.48839
1570526437.50402
1570526437.51964
1570526437.53527
1570526437.55089
1570526437.56652
1570526437.58214
1570526437.59777
1570526437.6134
1570526437.62902
1570526437.64465
1570526437.66027
1570526437.6759
1570526437.69152
1570526437.70715
1570526437.72278
1570526437.7384
1570526437.75403
1570526437.76965
1570526437.78528
1570526437.8009
1570526437.81653
1570526437.83216
1570526437.84778
1570526437.86341
1570526437.87903
1570526437.89466
1570526437.91028
1570526437.92591
1570526437.94154
1570526437.95716
1570526437.97279
1570526437.98841
1570526438.00404
1570526438.01966
1570526438.03529
1570526438.05092
1570526438.06654
1570526438.08217
1570526438.09779
1570526438.11342
1570526438.12904
1570526438.14467
1570526438.1603
1570526438.17592
1570526438.19155
1570526438.20717
1570526438.2228
1570526438.23842
1570526438.25405
1570526438.26968
1570526438.2853
1570526438.30093
1570526438.31655
1570526438.33218
1570526438.3478
1570526438.36343
1570526438.37906
1570526438.39468
1570526438.41031
1570526438.42593
1570526438.44156
1570526438.45718
1570526438.47281
1570526438.48844
1570526438.50406
1570526438.51969
1570526438.53531
1570526438.55094
1570526438.56656
1570526438.58219
1570526438.59782
1570526438.61344
1570526438.62907
1570526438.64469
1570526438.66032
1570526438.67595
