1570525805.64663
1570525805.66225
1570525805.67788
1570525805.6935
1570525805.70913
1570525805.72476
1570525805.74038
1570525805.75601
1570525805.77163
1570525805.78726
1570525805.80288
1570525805.81851
1570525805.83414
1570525805.84976
1570525805.86539
1570525805.88101
1570525805.89664
1570525805.91226
1570525805.92789
1570525805.94352
1570525805.95914
1570525805.97477
1570525805.99039
1570525806.00602
1570525806.02164
1570525806.03727
1570525806.0529
1570525806.06852
1570525806.08415
1570525806.09977
1570525806.1154
1570525806.13103
1570525806.14665
1570525806.16228
1570525806.1779
1570525806.19353
1570525806.20915
1570525806.22478
1570525806.24041
1570525806.25603
1570525806.27166
1570525806.28728
1570525806.30291
1570525806.31853
1570525806.33416
1570525806.34979
1570525806.36541
1570525806.38104
1570525806.39666
1570525806.41229
1570525806.42791
1570525806.44354
1570525806.45917
1570525806.47479
1570525806.49042
1570525806.50604
1570525806.52167
1570525806.53729
1570525806.55292
1570525806.56855
1570525806.58417
1570525806.5998
1570525806.61542
1570525806.63105
1570525806.64667
1570525806.6623
1570525806.67793
1570525806.69355
1570525806.70918
1570525806.7248
1570525806.74043
1570525806.75605
1570525806.77168
1570525806.78731
1570525806.80293
1570525806.81856
1570525806.83418
1570525806.84981
1570525806.86543
1570525806.88106
1570525806.89669
1570525806.91231
1570525806.92794
1570525806.94356
1570525806.95919
1570525806.97481
1570525806.99044
1570525807.00607
1570525807.02169
1570525807.03732
1570525807.05294
1570525807.06857
1570525807.08419
1570525807.09982
1570525807.11545
1570525807.13107
1570525807.1467
1570525807.16232
1570525807.17795
1570525807.19357
1570525807.2092
1570525807.22483
1570525807.24045
1570525807.25608
1570525807.2717
1570525807.28733
1570525807.30295
1570525807.31858
1570525807.33421
1570525807.34983
1570525807.36546
1570525807.38108
1570525807.39671
1570525807.41233
1570525807.42796
1570525807.44359
1570525807.45921
1570525807.47484
1570525807.49046
1570525807.50609
1570525807.52171
1570525807.53734
1570525807.55297
1570525807.56859
1570525807.58422
1570525807.59984
1570525807.61547
1570525807.63109
1570525807.64672
1570525807.66235
1570525807.67797
1570525807.6936
1570525807.70922
1570525807.72485
1570525807.74047
1570525807.7561
1570525807.77173
1570525807.78735
1570525807.80298
1570525807.8186
1570525807.83423
1570525807.84985
1570525807.86548
1570525807.88111
1570525807.89673
1570525807.91236
1570525807.92798
1570525807.94361
1570525807.95923
1570525807.97486
1570525807.99049
1570525808.00611
1570525808.02174
1570525808.03736
1570525808.05299
1570525808.06861
1570525808.08424
1570525808.09987
1570525808.11549
1570525808.13112
1570525808.14674
1570525808.16237
1570525808.17799
1570525808.19362
1570525808.20925
1570525808.22487
1570525808.2405
1570525808.25612
1570525808.27175
1570525808.28737
1570525808.303
1570525808.31863
1570525808.33425
1570525808.34988
1570525808.3655
1570525808.38113
1570525808.39675
1570525808.41238
1570525808.42801
1570525808.44363
1570525808.45926
1570525808.47488
1570525808.49051
1570525808.50613
1570525808.52176
1570525808.53739
1570525808.55301
1570525808.56864
1570525808.58426
1570525808.59989
1570525808.61551
1570525808.63114
1570525808.64677
1570525808.66239
1570525808.67802
1570525808.69364
1570525808.70927
1570525808.7249
1570525808.74052
1570525808.75615
1570525808.77177
1570525808.7874
1570525808.80302
1570525808.81865
1570525808.83428
1570525808.8499
1570525808.86553
1570525808.88115
1570525808.89678
1570525808.9124
1570525808.92803
1570525808.94366
1570525808.95928
1570525808.97491
1570525808.99053
1570525809.00616
1570525809.02178
1570525809.03741
1570525809.05304
1570525809.06866
1570525809.08429
1570525809.09991
1570525809.11554
1570525809.13116
1570525809.14679
1570525809.16242
1570525809.17804
1570525809.19367
1570525809.20929
1570525809.22492
1570525809.24054
1570525809.25617
1570525809.2718
1570525809.28742
1570525809.30305
1570525809.31867
1570525809.3343
1570525809.34992
1570525809.36555
1570525809.38118
1570525809.3968
1570525809.41243
1570525809.42805
1570525809.44368
1570525809.4593
1570525809.47493
1570525809.49056
1570525809.50618
1570525809.52181
1570525809.53743
1570525809.55306
1570525809.56868
1570525809.58431
1570525809.59994
1570525809.61556
1570525809.63119
1570525809.64681
1570525809.66244
1570525809.67806
1570525809.69369
1570525809.70932
1570525809.72494
1570525809.74057
1570525809.75619
1570525809.77182
1570525809.78744
1570525809.80307
1570525809.8187
1570525809.83432
1570525809.84995
1570525809.86557
1570525809.8812
1570525809.89682
1570525809.91245
1570525809.92808
1570525809.9437
1570525809.95933
1570525809.97495
1570525809.99058
1570525810.0062
1570525810.02183
1570525810.03746
1570525810.05308
1570525810.06871
1570525810.08433
1570525810.09996
1570525810.11558
1570525810.13121
1570525810.14684
1570525810.16246
1570525810.17809
1570525810.19371
1570525810.20934
1570525810.22496
1570525810.24059
1570525810.25622
1570525810.27184
1570525810.28747
1570525810.30309
1570525810.31872
1570525810.33434
1570525810.34997
1570525810.3656
1570525810.38122
1570525810.39685
1570525810.41247
1570525810.4281
1570525810.44372
1570525810.45935
1570525810.47498
1570525810.4906
1570525810.50623
1570525810.52185
1570525810.53748
1570525810.5531
1570525810.56873
1570525810.58436
1570525810.59998
1570525810.61561
1570525810.63123
1570525810.64686
1570525810.66248
1570525810.67811
1570525810.69374
1570525810.70936
1570525810.72499
1570525810.74061
1570525810.75624
1570525810.77186
1570525810.78749
1570525810.80312
1570525810.81874
1570525810.83437
1570525810.84999
1570525810.86562
1570525810.88124
1570525810.89687
1570525810.9125
1570525810.92812
1570525810.94375
1570525810.95937
1570525810.975
1570525810.99063
1570525811.00625
1570525811.02188
1570525811.0375
1570525811.05313
1570525811.06875
1570525811.08438
1570525811.10001
1570525811.11563
1570525811.13126
1570525811.14688
1570525811.16251
1570525811.17813
1570525811.19376
1570525811.20939
1570525811.22501
1570525811.24064
1570525811.25626
1570525811.27189
1570525811.28751
1570525811.30314
1570525811.31877
1570525811.33439
1570525811.35002
1570525811.36564
1570525811.38127
1570525811.39689
1570525811.41252
1570525811.42815
1570525811.44377
1570525811.4594
1570525811.47502
1570525811.49065
1570525811.50627
1570525811.5219
1570525811.53753
1570525811.55315
1570525811.56878
1570525811.5844
1570525811.60003
1570525811.61565
1570525811.63128
1570525811.64691
1570525811.66253
1570525811.67816
1570525811.69378
1570525811.70941
1570525811.72503
1570525811.74066
1570525811.75629
1570525811.77191
1570525811.78754
1570525811.80316
1570525811.81879
1570525811.83441
1570525811.85004
1570525811.86567
1570525811.88129
1570525811.89692
1570525811.91254
1570525811.92817
1570525811.94379
1570525811.95942
1570525811.97505
1570525811.99067
1570525812.0063
1570525812.02192
1570525812.03755
1570525812.05317
1570525812.0688
1570525812.08443
1570525812.10005
1570525812.11568
1570525812.1313
1570525812.14693
1570525812.16255
1570525812.17818
1570525812.19381
1570525812.20943
1570525812.22506
1570525812.24068
1570525812.25631
1570525812.27193
1570525812.28756
1570525812.30319
1570525812.31881
1570525812.33444
1570525812.35006
1570525812.36569
1570525812.38131
1570525812.39694
1570525812.41257
1570525812.42819
1570525812.44382
1570525812.45944
1570525812.47507
1570525812.49069
1570525812.50632
1570525812.52195
1570525812.53757
1570525812.5532
1570525812.56882
1570525812.58445
1570525812.60007
1570525812.6157
1570525812.63133
1570525812.64695
1570525812.66258
1570525812.6782
1570525812.69383
1570525812.70945
1570525812.72508
1570525812.74071
1570525812.75633
1570525812.77196
1570525812.78758
1570525812.80321
1570525812.81883
1570525812.83446
1570525812.85009
1570525812.86571
1570525812.88134
1570525812.89696
1570525812.91259
1570525812.92821
1570525812.94384
1570525812.95947
1570525812.97509
1570525812.99072
1570525813.00634
1570525813.02197
1570525813.03759
1570525813.05322
1570525813.06885
1570525813.08447
1570525813.1001
1570525813.11572
1570525813.13135
1570525813.14698
1570525813.1626
1570525813.17823
1570525813.19385
1570525813.20948
1570525813.2251
1570525813.24073
1570525813.25636
1570525813.27198
1570525813.28761
1570525813.30323
1570525813.31886
1570525813.33448
1570525813.35011
1570525813.36574
1570525813.38136
1570525813.39699
1570525813.41261
1570525813.42824
1570525813.44386
1570525813.45949
1570525813.47512
1570525813.49074
1570525813.50637
1570525813.52199
1570525813.53762
1570525813.55324
1570525813.56887
1570525813.5845
1570525813.60012
1570525813.61575
1570525813.63137
1570525813.647
1570525813.66262
1570525813.67825
1570525813.69388
1570525813.7095
1570525813.72513
1570525813.74075
1570525813.75638
1570525813.772
1570525813.78763
1570525813.80326
1570525813.81888
1570525813.83451
1570525813.85013
1570525813.86576
1570525813.88138
1570525813.89701
1570525813.91264
1570525813.92826
1570525813.94389
1570525813.95951
1570525813.97514
1570525813.99076
1570525814.00639
1570525814.02202
1570525814.03764
1570525814.05327
1570525814.06889
1570525814.08452
1570525814.10014
1570525814.11577
1570525814.1314
1570525814.14702
1570525814.16265
1570525814.17827
1570525814.1939
1570525814.20952
1570525814.22515
1570525814.24078
1570525814.2564
1570525814.27203
1570525814.28765
1570525814.30328
1570525814.3189
1570525814.33453
1570525814.35016
1570525814.36578
1570525814.38141
1570525814.39703
1570525814.41266
1570525814.42828
1570525814.44391
1570525814.45954
1570525814.47516
1570525814.49079
1570525814.50641
1570525814.52204
1570525814.53766
1570525814.55329
1570525814.56892
1570525814.58454
1570525814.60017
1570525814.61579
1570525814.63142
1570525814.64704
1570525814.66267
1570525814.6783
1570525814.69392
1570525814.70955
1570525814.72517
1570525814.7408
1570525814.75642
1570525814.77205
1570525814.78768
1570525814.8033
1570525814.81893
1570525814.83455
1570525814.85018
1570525814.8658
1570525814.88143
1570525814.89706
1570525814.91268
1570525814.92831
1570525814.94393
1570525814.95956
1570525814.97518
1570525814.99081
1570525815.00644
1570525815.02206
1570525815.03769
1570525815.05331
1570525815.06894
1570525815.08456
1570525815.10019
1570525815.11582
1570525815.13144
1570525815.14707
1570525815.16269
1570525815.17832
1570525815.19394
1570525815.20957
1570525815.2252
1570525815.24082
1570525815.25645
1570525815.27207
1570525815.2877
1570525815.30332
1570525815.31895
1570525815.33458
1570525815.3502
1570525815.36583
1570525815.38145
1570525815.39708
1570525815.4127
1570525815.42833
1570525815.44396
1570525815.45958
1570525815.47521
1570525815.49083
1570525815.50646
1570525815.52208
1570525815.53771
1570525815.55334
1570525815.56896
1570525815.58459
1570525815.60021
1570525815.61584
1570525815.63146
1570525815.64709
1570525815.66272
1570525815.67834
1570525815.69397
1570525815.70959
1570525815.72522
1570525815.74084
1570525815.75647
1570525815.7721
1570525815.78772
1570525815.80335
1570525815.81897
1570525815.8346
1570525815.85023
1570525815.86585
1570525815.88148
1570525815.8971
1570525815.91273
1570525815.92835
1570525815.94398
1570525815.95961
1570525815.97523
1570525815.99086
1570525816.00648
1570525816.02211
1570525816.03773
1570525816.05336
1570525816.06899
1570525816.08461
1570525816.10024
1570525816.11586
1570525816.13149
1570525816.14711
1570525816.16274
1570525816.17837
1570525816.19399
1570525816.20962
1570525816.22524
1570525816.24087
1570525816.25649
1570525816.27212
1570525816.28775
1570525816.30337
1570525816.319
1570525816.33462
1570525816.35025
1570525816.36587
1570525816.3815
1570525816.39713
1570525816.41275
1570525816.42838
1570525816.444
1570525816.45963
1570525816.47525
1570525816.49088
1570525816.50651
1570525816.52213
1570525816.53776
1570525816.55338
1570525816.56901
1570525816.58463
1570525816.60026
1570525816.61589
1570525816.63151
1570525816.64714
1570525816.66276
1570525816.67839
1570525816.69401
1570525816.70964
1570525816.72527
1570525816.74089
1570525816.75652
1570525816.77214
1570525816.78777
1570525816.80339
1570525816.81902
1570525816.83465
1570525816.85027
1570525816.8659
1570525816.88152
1570525816.89715
1570525816.91277
1570525816.9284
1570525816.94403
1570525816.95965
1570525816.97528
1570525816.9909
1570525817.00653
1570525817.02215
1570525817.03778
1570525817.05341
1570525817.06903
1570525817.08466
1570525817.10028
1570525817.11591
1570525817.13153
1570525817.14716
1570525817.16279
1570525817.17841
1570525817.19404
1570525817.20966
1570525817.22529
1570525817.24091
1570525817.25654
1570525817.27217
1570525817.28779
1570525817.30342
1570525817.31904
1570525817.33467
1570525817.35029
1570525817.36592
1570525817.38155
1570525817.39717
1570525817.4128
1570525817.42842
1570525817.44405
1570525817.45967
1570525817.4753
1570525817.49093
1570525817.50655
1570525817.52218
1570525817.5378
1570525817.55343
1570525817.56905
1570525817.58468
1570525817.60031
1570525817.61593
1570525817.63156
1570525817.64718
1570525817.66281
1570525817.67843
1570525817.69406
1570525817.70969
1570525817.72531
1570525817.74094
1570525817.75656
1570525817.77219
1570525817.78781
1570525817.80344
1570525817.81907
1570525817.83469
1570525817.85032
1570525817.86594
1570525817.88157
1570525817.89719
1570525817.91282
1570525817.92845
1570525817.94407
1570525817.9597
1570525817.97532
1570525817.99095
1570525818.00658
1570525818.0222
1570525818.03783
1570525818.05345
1570525818.06908
1570525818.0847
1570525818.10033
1570525818.11596
1570525818.13158
1570525818.14721
1570525818.16283
1570525818.17846
1570525818.19408
1570525818.20971
1570525818.22534
1570525818.24096
1570525818.25659
1570525818.27221
1570525818.28784
1570525818.30346
1570525818.31909
1570525818.33472
1570525818.35034
1570525818.36597
1570525818.38159
1570525818.39722
1570525818.41284
1570525818.42847
1570525818.4441
1570525818.45972
1570525818.47535
1570525818.49097
1570525818.5066
1570525818.52222
1570525818.53785
1570525818.55348
1570525818.5691
1570525818.58473
1570525818.60035
1570525818.61598
1570525818.6316
1570525818.64723
1570525818.66286
1570525818.67848
1570525818.69411
1570525818.70973
1570525818.72536
1570525818.74098
1570525818.75661
1570525818.77224
1570525818.78786
1570525818.80349
1570525818.81911
1570525818.83474
1570525818.85036
1570525818.86599
1570525818.88162
1570525818.89724
1570525818.91287
1570525818.92849
1570525818.94412
1570525818.95974
1570525818.97537
1570525818.991
1570525819.00662
1570525819.02225
1570525819.03787
1570525819.0535
1570525819.06912
1570525819.08475
1570525819.10038
1570525819.116
1570525819.13163
1570525819.14725
1570525819.16288
1570525819.1785
1570525819.19413
1570525819.20976
1570525819.22538
1570525819.24101
1570525819.25663
1570525819.27226
1570525819.28788
1570525819.30351
1570525819.31914
1570525819.33476
1570525819.35039
1570525819.36601
1570525819.38164
1570525819.39726
1570525819.41289
1570525819.42852
1570525819.44414
1570525819.45977
1570525819.47539
1570525819.49102
1570525819.50664
1570525819.52227
1570525819.5379
1570525819.55352
1570525819.56915
1570525819.58477
1570525819.6004
1570525819.61602
1570525819.63165
1570525819.64728
1570525819.6629
1570525819.67853
1570525819.69415
1570525819.70978
1570525819.7254
1570525819.74103
1570525819.75666
1570525819.77228
1570525819.78791
1570525819.80353
1570525819.81916
1570525819.83478
1570525819.85041
1570525819.86604
1570525819.88166
1570525819.89729
1570525819.91291
1570525819.92854
1570525819.94416
1570525819.95979
1570525819.97542
1570525819.99104
1570525820.00667
1570525820.02229
1570525820.03792
1570525820.05354
1570525820.06917
1570525820.0848
1570525820.10042
1570525820.11605
1570525820.13167
1570525820.1473
1570525820.16292
1570525820.17855
1570525820.19418
1570525820.2098
1570525820.22543
1570525820.24105
1570525820.25668
1570525820.27231
1570525820.28793
1570525820.30356
1570525820.31918
1570525820.33481
1570525820.35043
1570525820.36606
1570525820.38169
1570525820.39731
1570525820.41294
1570525820.42856
1570525820.44419
1570525820.45981
1570525820.47544
1570525820.49107
1570525820.50669
1570525820.52232
1570525820.53794
1570525820.55357
1570525820.56919
1570525820.58482
1570525820.60045
1570525820.61607
1570525820.6317
1570525820.64732
1570525820.66295
1570525820.67857
1570525820.6942
1570525820.70983
1570525820.72545
1570525820.74108
1570525820.7567
1570525820.77233
1570525820.78795
1570525820.80358
1570525820.81921
1570525820.83483
1570525820.85046
1570525820.86608
1570525820.88171
1570525820.89733
1570525820.91296
1570525820.92859
1570525820.94421
1570525820.95984
1570525820.97546
1570525820.99109
1570525821.00671
1570525821.02234
1570525821.03797
1570525821.05359
1570525821.06922
1570525821.08484
1570525821.10047
1570525821.11609
1570525821.13172
1570525821.14735
1570525821.16297
1570525821.1786
1570525821.19422
1570525821.20985
1570525821.22547
1570525821.2411
1570525821.25673
1570525821.27235
1570525821.28798
1570525821.3036
1570525821.31923
1570525821.33485
1570525821.35048
1570525821.36611
1570525821.38173
1570525821.39736
1570525821.41298
1570525821.42861
1570525821.44423
1570525821.45986
1570525821.47549
1570525821.49111
1570525821.50674
1570525821.52236
1570525821.53799
1570525821.55361
1570525821.56924
1570525821.58487
1570525821.60049
1570525821.61612
1570525821.63174
1570525821.64737
1570525821.66299
1570525821.67862
1570525821.69425
1570525821.70987
1570525821.7255
1570525821.74112
1570525821.75675
1570525821.77237
1570525821.788
1570525821.80363
1570525821.81925
1570525821.83488
1570525821.8505
1570525821.86613
1570525821.88175
1570525821.89738
1570525821.91301
1570525821.92863
1570525821.94426
1570525821.95988
1570525821.97551
1570525821.99113
1570525822.00676
1570525822.02239
1570525822.03801
1570525822.05364
1570525822.06926
1570525822.08489
1570525822.10051
1570525822.11614
1570525822.13177
1570525822.14739
1570525822.16302
1570525822.17864
1570525822.19427
1570525822.20989
1570525822.22552
1570525822.24115
1570525822.25677
1570525822.2724
1570525822.28802
1570525822.30365
1570525822.31927
1570525822.3349
1570525822.35053
1570525822.36615
1570525822.38178
1570525822.3974
1570525822.41303
1570525822.42865
1570525822.44428
1570525822.45991
1570525822.47553
1570525822.49116
1570525822.50678
1570525822.52241
1570525822.53803
1570525822.55366
1570525822.56929
1570525822.58491
1570525822.60054
1570525822.61616
1570525822.63179
1570525822.64741
1570525822.66304
1570525822.67867
1570525822.69429
1570525822.70992
1570525822.72554
1570525822.74117
1570525822.75679
1570525822.77242
1570525822.78805
1570525822.80367
1570525822.8193
1570525822.83492
1570525822.85055
1570525822.86618
1570525822.8818
1570525822.89743
1570525822.91305
1570525822.92868
1570525822.9443
1570525822.95993
1570525822.97556
1570525822.99118
1570525823.00681
1570525823.02243
1570525823.03806
1570525823.05368
1570525823.06931
1570525823.08494
1570525823.10056
1570525823.11619
1570525823.13181
1570525823.14744
1570525823.16306
1570525823.17869
1570525823.19432
1570525823.20994
1570525823.22557
1570525823.24119
1570525823.25682
1570525823.27244
1570525823.28807
1570525823.3037
1570525823.31932
1570525823.33495
1570525823.35057
1570525823.3662
1570525823.38182
1570525823.39745
1570525823.41308
1570525823.4287
1570525823.44433
1570525823.45995
1570525823.47558
1570525823.4912
1570525823.50683
1570525823.52246
1570525823.53808
1570525823.55371
1570525823.56933
1570525823.58496
1570525823.60058
1570525823.61621
1570525823.63184
1570525823.64746
1570525823.66309
1570525823.67871
1570525823.69434
1570525823.70996
1570525823.72559
1570525823.74122
1570525823.75684
1570525823.77247
1570525823.78809
1570525823.80372
1570525823.81934
1570525823.83497
1570525823.8506
1570525823.86622
1570525823.88185
1570525823.89747
1570525823.9131
1570525823.92872
1570525823.94435
1570525823.95998
1570525823.9756
1570525823.99123
1570525824.00685
1570525824.02248
1570525824.0381
1570525824.05373
1570525824.06936
1570525824.08498
1570525824.10061
1570525824.11623
1570525824.13186
1570525824.14748
1570525824.16311
1570525824.17874
1570525824.19436
1570525824.20999
1570525824.22561
1570525824.24124
1570525824.25686
1570525824.27249
1570525824.28812
1570525824.30374
1570525824.31937
1570525824.33499
1570525824.35062
1570525824.36624
1570525824.38187
1570525824.3975
1570525824.41312
1570525824.42875
1570525824.44437
1570525824.46
1570525824.47562
1570525824.49125
1570525824.50688
1570525824.5225
1570525824.53813
1570525824.55375
1570525824.56938
1570525824.585
1570525824.60063
1570525824.61626
1570525824.63188
1570525824.64751
1570525824.66313
1570525824.67876
1570525824.69438
1570525824.71001
1570525824.72564
1570525824.74126
1570525824.75689
1570525824.77251
1570525824.78814
1570525824.80376
1570525824.81939
1570525824.83502
1570525824.85064
1570525824.86627
1570525824.88189
1570525824.89752
1570525824.91314
1570525824.92877
1570525824.9444
1570525824.96002
1570525824.97565
1570525824.99127
1570525825.0069
1570525825.02252
1570525825.03815
1570525825.05378
1570525825.0694
1570525825.08503
1570525825.10065
1570525825.11628
1570525825.13191
1570525825.14753
1570525825.16316
1570525825.17878
1570525825.19441
1570525825.21003
1570525825.22566
1570525825.24129
1570525825.25691
1570525825.27254
1570525825.28816
1570525825.30379
1570525825.31941
1570525825.33504
1570525825.35067
1570525825.36629
1570525825.38192
1570525825.39754
1570525825.41317
1570525825.42879
1570525825.44442
1570525825.46005
1570525825.47567
1570525825.4913
1570525825.50692
1570525825.52255
1570525825.53817
1570525825.5538
1570525825.56943
1570525825.58505
1570525825.60068
1570525825.6163
1570525825.63193
1570525825.64755
1570525825.66318
1570525825.67881
1570525825.69443
1570525825.71006
1570525825.72568
1570525825.74131
1570525825.75693
1570525825.77256
1570525825.78819
1570525825.80381
1570525825.81944
1570525825.83506
1570525825.85069
1570525825.86631
1570525825.88194
1570525825.89757
1570525825.91319
1570525825.92882
1570525825.94444
1570525825.96007
1570525825.97569
1570525825.99132
1570525826.00695
1570525826.02257
1570525826.0382
1570525826.05382
1570525826.06945
1570525826.08507
1570525826.1007
1570525826.11633
1570525826.13195
1570525826.14758
1570525826.1632
1570525826.17883
1570525826.19445
1570525826.21008
1570525826.22571
1570525826.24133
1570525826.25696
1570525826.27258
1570525826.28821
1570525826.30383
1570525826.31946
1570525826.33509
1570525826.35071
1570525826.36634
1570525826.38196
1570525826.39759
1570525826.41321
1570525826.42884
1570525826.44447
1570525826.46009
1570525826.47572
1570525826.49134
1570525826.50697
1570525826.52259
1570525826.53822
1570525826.55385
1570525826.56947
1570525826.5851
1570525826.60072
1570525826.61635
1570525826.63197
1570525826.6476
1570525826.66323
1570525826.67885
1570525826.69448
1570525826.7101
1570525826.72573
1570525826.74135
1570525826.75698
1570525826.77261
1570525826.78823
1570525826.80386
1570525826.81948
1570525826.83511
1570525826.85073
1570525826.86636
1570525826.88199
1570525826.89761
1570525826.91324
1570525826.92886
1570525826.94449
1570525826.96011
1570525826.97574
1570525826.99137
1570525827.00699
1570525827.02262
1570525827.03824
1570525827.05387
1570525827.06949
1570525827.08512
1570525827.10075
1570525827.11637
1570525827.132
1570525827.14762
1570525827.16325
1570525827.17887
1570525827.1945
1570525827.21013
1570525827.22575
1570525827.24138
1570525827.257
1570525827.27263
1570525827.28825
1570525827.30388
1570525827.31951
1570525827.33513
1570525827.35076
1570525827.36638
1570525827.38201
1570525827.39763
1570525827.41326
1570525827.42889
1570525827.44451
1570525827.46014
1570525827.47576
1570525827.49139
1570525827.50701
1570525827.52264
1570525827.53827
1570525827.55389
1570525827.56952
1570525827.58514
1570525827.60077
1570525827.6164
1570525827.63202
1570525827.64765
1570525827.66327
1570525827.6789
1570525827.69452
1570525827.71015
1570525827.72578
1570525827.7414
1570525827.75703
1570525827.77265
1570525827.78828
1570525827.8039
1570525827.81953
1570525827.83516
1570525827.85078
1570525827.86641
1570525827.88203
1570525827.89766
1570525827.91328
1570525827.92891
1570525827.94454
1570525827.96016
1570525827.97579
1570525827.99141
1570525828.00704
1570525828.02266
1570525828.03829
1570525828.05392
1570525828.06954
1570525828.08517
1570525828.10079
1570525828.11642
1570525828.13204
1570525828.14767
1570525828.1633
1570525828.17892
1570525828.19455
1570525828.21017
1570525828.2258
1570525828.24142
1570525828.25705
1570525828.27268
1570525828.2883
1570525828.30393
1570525828.31955
1570525828.33518
1570525828.3508
1570525828.36643
1570525828.38206
1570525828.39768
1570525828.41331
1570525828.42893
1570525828.44456
1570525828.46018
1570525828.47581
1570525828.49144
1570525828.50706
1570525828.52269
1570525828.53831
1570525828.55394
1570525828.56956
1570525828.58519
1570525828.60082
1570525828.61644
1570525828.63207
1570525828.64769
1570525828.66332
1570525828.67894
1570525828.69457
1570525828.7102
1570525828.72582
1570525828.74145
1570525828.75707
1570525828.7727
1570525828.78832
1570525828.80395
1570525828.81958
1570525828.8352
1570525828.85083
1570525828.86645
1570525828.88208
1570525828.8977
1570525828.91333
1570525828.92896
1570525828.94458
1570525828.96021
1570525828.97583
1570525828.99146
1570525829.00708
1570525829.02271
1570525829.03834
1570525829.05396
1570525829.06959
1570525829.08521
1570525829.10084
1570525829.11646
1570525829.13209
1570525829.14772
1570525829.16334
1570525829.17897
1570525829.19459
1570525829.21022
1570525829.22584
1570525829.24147
1570525829.2571
1570525829.27272
1570525829.28835
1570525829.30397
1570525829.3196
1570525829.33522
1570525829.35085
1570525829.36648
1570525829.3821
1570525829.39773
1570525829.41335
1570525829.42898
1570525829.4446
1570525829.46023
1570525829.47586
1570525829.49148
1570525829.50711
1570525829.52273
1570525829.53836
1570525829.55398
1570525829.56961
1570525829.58524
1570525829.60086
1570525829.61649
1570525829.63211
1570525829.64774
1570525829.66336
1570525829.67899
1570525829.69462
1570525829.71024
1570525829.72587
1570525829.74149
1570525829.75712
1570525829.77274
1570525829.78837
1570525829.804
1570525829.81962
1570525829.83525
1570525829.85087
1570525829.8665
1570525829.88212
1570525829.89775
1570525829.91338
1570525829.929
1570525829.94463
1570525829.96025
1570525829.97588
1570525829.99151
1570525830.00713
1570525830.02276
1570525830.03838
1570525830.05401
1570525830.06963
1570525830.08526
1570525830.10089
1570525830.11651
1570525830.13214
1570525830.14776
1570525830.16339
1570525830.17901
1570525830.19464
1570525830.21027
1570525830.22589
1570525830.24152
1570525830.25714
1570525830.27277
1570525830.28839
1570525830.30402
1570525830.31965
1570525830.33527
1570525830.3509
1570525830.36652
1570525830.38215
1570525830.39777
1570525830.4134
1570525830.42903
1570525830.44465
1570525830.46028
1570525830.4759
1570525830.49153
1570525830.50715
1570525830.52278
1570525830.53841
1570525830.55403
1570525830.56966
1570525830.58528
1570525830.60091
1570525830.61653
1570525830.63216
1570525830.64779
1570525830.66341
1570525830.67904
1570525830.69466
1570525830.71029
1570525830.72591
1570525830.74154
1570525830.75717
1570525830.77279
1570525830.78842
1570525830.80404
1570525830.81967
1570525830.83529
1570525830.85092
1570525830.86655
1570525830.88217
1570525830.8978
1570525830.91342
1570525830.92905
1570525830.94467
1570525830.9603
1570525830.97593
1570525830.99155
1570525831.00718
1570525831.0228
1570525831.03843
1570525831.05405
1570525831.06968
1570525831.08531
1570525831.10093
1570525831.11656
1570525831.13218
1570525831.14781
1570525831.16343
1570525831.17906
1570525831.19469
1570525831.21031
1570525831.22594
1570525831.24156
1570525831.25719
1570525831.27281
1570525831.28844
1570525831.30407
1570525831.31969
1570525831.33532
1570525831.35094
1570525831.36657
1570525831.38219
1570525831.39782
1570525831.41345
1570525831.42907
1570525831.4447
1570525831.46032
1570525831.47595
1570525831.49157
1570525831.5072
1570525831.52283
1570525831.53845
1570525831.55408
1570525831.5697
1570525831.58533
1570525831.60095
1570525831.61658
1570525831.63221
1570525831.64783
1570525831.66346
1570525831.67908
1570525831.69471
1570525831.71033
1570525831.72596
1570525831.74159
1570525831.75721
1570525831.77284
1570525831.78846
1570525831.80409
1570525831.81971
1570525831.83534
1570525831.85097
1570525831.86659
1570525831.88222
1570525831.89784
1570525831.91347
1570525831.92909
1570525831.94472
1570525831.96035
1570525831.97597
1570525831.9916
1570525832.00722
1570525832.02285
1570525832.03847
1570525832.0541
1570525832.06973
1570525832.08535
1570525832.10098
1570525832.1166
1570525832.13223
1570525832.14785
1570525832.16348
1570525832.17911
1570525832.19473
1570525832.21036
1570525832.22598
1570525832.24161
1570525832.25724
1570525832.27286
1570525832.28849
1570525832.30411
1570525832.31974
1570525832.33536
1570525832.35099
1570525832.36662
1570525832.38224
1570525832.39787
1570525832.41349
1570525832.42912
1570525832.44474
1570525832.46037
1570525832.476
1570525832.49162
1570525832.50725
1570525832.52287
1570525832.5385
1570525832.55412
1570525832.56975
1570525832.58538
1570525832.601
1570525832.61663
1570525832.63225
1570525832.64788
1570525832.6635
1570525832.67913
1570525832.69476
1570525832.71038
1570525832.72601
1570525832.74163
1570525832.75726
1570525832.77288
1570525832.78851
1570525832.80414
1570525832.81976
1570525832.83539
1570525832.85101
1570525832.86664
1570525832.88226
1570525832.89789
1570525832.91352
1570525832.92914
1570525832.94477
1570525832.96039
1570525832.97602
1570525832.99164
1570525833.00727
1570525833.0229
1570525833.03852
1570525833.05415
1570525833.06977
1570525833.0854
1570525833.10102
1570525833.11665
1570525833.13228
1570525833.1479
1570525833.16353
1570525833.17915
1570525833.19478
1570525833.2104
1570525833.22603
1570525833.24166
1570525833.25728
1570525833.27291
1570525833.28853
1570525833.30416
1570525833.31978
1570525833.33541
1570525833.35104
1570525833.36666
1570525833.38229
1570525833.39791
1570525833.41354
1570525833.42916
1570525833.44479
1570525833.46042
1570525833.47604
1570525833.49167
1570525833.50729
1570525833.52292
1570525833.53854
1570525833.55417
1570525833.5698
1570525833.58542
1570525833.60105
1570525833.61667
1570525833.6323
1570525833.64792
1570525833.66355
1570525833.67918
1570525833.6948
1570525833.71043
1570525833.72605
1570525833.74168
1570525833.7573
1570525833.77293
1570525833.78856
1570525833.80418
1570525833.81981
1570525833.83543
1570525833.85106
1570525833.86668
1570525833.88231
1570525833.89794
1570525833.91356
1570525833.92919
1570525833.94481
1570525833.96044
1570525833.97606
1570525833.99169
1570525834.00732
1570525834.02294
1570525834.03857
1570525834.05419
1570525834.06982
1570525834.08544
1570525834.10107
1570525834.1167
1570525834.13232
1570525834.14795
1570525834.16357
1570525834.1792
1570525834.19482
1570525834.21045
1570525834.22608
1570525834.2417
1570525834.25733
1570525834.27295
1570525834.28858
1570525834.3042
1570525834.31983
1570525834.33546
1570525834.35108
1570525834.36671
1570525834.38233
1570525834.39796
1570525834.41358
1570525834.42921
1570525834.44484
1570525834.46046
1570525834.47609
1570525834.49171
1570525834.50734
1570525834.52296
1570525834.53859
1570525834.55422
1570525834.56984
1570525834.58547
1570525834.60109
1570525834.61672
1570525834.63234
1570525834.64797
1570525834.6636
1570525834.67922
1570525834.69485
1570525834.71047
1570525834.7261
1570525834.74172
1570525834.75735
1570525834.77298
1570525834.7886
1570525834.80423
1570525834.81985
1570525834.83548
1570525834.85111
1570525834.86673
1570525834.88236
1570525834.89798
1570525834.91361
1570525834.92923
1570525834.94486
1570525834.96049
1570525834.97611
1570525834.99174
1570525835.00736
1570525835.02299
1570525835.03861
1570525835.05424
1570525835.06987
1570525835.08549
1570525835.10112
1570525835.11674
1570525835.13237
1570525835.14799
1570525835.16362
1570525835.17925
1570525835.19487
1570525835.2105
1570525835.22612
1570525835.24175
1570525835.25737
1570525835.273
1570525835.28863
1570525835.30425
1570525835.31988
1570525835.3355
1570525835.35113
1570525835.36675
1570525835.38238
1570525835.39801
1570525835.41363
1570525835.42926
1570525835.44488
1570525835.46051
1570525835.47613
1570525835.49176
1570525835.50739
1570525835.52301
1570525835.53864
1570525835.55426
1570525835.56989
1570525835.58551
1570525835.60114
1570525835.61677
1570525835.63239
1570525835.64802
1570525835.66364
1570525835.67927
1570525835.69489
1570525835.71052
1570525835.72615
1570525835.74177
1570525835.7574
1570525835.77302
1570525835.78865
1570525835.80427
1570525835.8199
1570525835.83553
1570525835.85115
1570525835.86678
1570525835.8824
1570525835.89803
1570525835.91365
1570525835.92928
1570525835.94491
1570525835.96053
1570525835.97616
1570525835.99178
1570525836.00741
1570525836.02303
1570525836.03866
1570525836.05429
1570525836.06991
1570525836.08554
1570525836.10116
1570525836.11679
1570525836.13241
1570525836.14804
1570525836.16367
1570525836.17929
1570525836.19492
1570525836.21054
1570525836.22617
1570525836.24179
1570525836.25742
1570525836.27305
1570525836.28867
1570525836.3043
1570525836.31992
1570525836.33555
1570525836.35117
1570525836.3668
1570525836.38243
1570525836.39805
1570525836.41368
1570525836.4293
1570525836.44493
1570525836.46055
1570525836.47618
1570525836.49181
1570525836.50743
1570525836.52306
1570525836.53868
1570525836.55431
1570525836.56993
1570525836.58556
1570525836.60119
1570525836.61681
1570525836.63244
1570525836.64806
1570525836.66369
1570525836.67931
1570525836.69494
1570525836.71057
1570525836.72619
1570525836.74182
1570525836.75744
1570525836.77307
1570525836.78869
1570525836.80432
1570525836.81995
1570525836.83557
1570525836.8512
1570525836.86682
1570525836.88245
1570525836.89807
1570525836.9137
1570525836.92933
1570525836.94495
1570525836.96058
1570525836.9762
1570525836.99183
1570525837.00745
1570525837.02308
1570525837.03871
1570525837.05433
1570525837.06996
1570525837.08558
1570525837.10121
1570525837.11684
1570525837.13246
1570525837.14809
1570525837.16371
1570525837.17934
1570525837.19496
1570525837.21059
1570525837.22622
1570525837.24184
1570525837.25747
1570525837.27309
1570525837.28872
1570525837.30434
1570525837.31997
1570525837.3356
1570525837.35122
1570525837.36685
1570525837.38247
1570525837.3981
1570525837.41372
1570525837.42935
1570525837.44498
1570525837.4606
1570525837.47623
1570525837.49185
1570525837.50748
1570525837.5231
1570525837.53873
1570525837.55436
1570525837.56998
1570525837.58561
1570525837.60123
1570525837.61686
1570525837.63248
1570525837.64811
1570525837.66374
1570525837.67936
1570525837.69499
1570525837.71061
1570525837.72624
1570525837.74186
1570525837.75749
1570525837.77312
1570525837.78874
1570525837.80437
1570525837.81999
1570525837.83562
1570525837.85124
1570525837.86687
1570525837.8825
1570525837.89812
1570525837.91375
1570525837.92937
1570525837.945
1570525837.96062
1570525837.97625
1570525837.99188
1570525838.0075
1570525838.02313
1570525838.03875
1570525838.05438
1570525838.07
1570525838.08563
1570525838.10126
1570525838.11688
1570525838.13251
1570525838.14813
1570525838.16376
1570525838.17938
1570525838.19501
1570525838.21064
1570525838.22626
1570525838.24189
1570525838.25751
1570525838.27314
1570525838.28876
1570525838.30439
1570525838.32002
1570525838.33564
1570525838.35127
1570525838.36689
1570525838.38252
1570525838.39814
1570525838.41377
1570525838.4294
1570525838.44502
1570525838.46065
1570525838.47627
1570525838.4919
1570525838.50752
1570525838.52315
1570525838.53878
1570525838.5544
1570525838.57003
1570525838.58565
1570525838.60128
1570525838.6169
1570525838.63253
1570525838.64816
1570525838.66378
1570525838.67941
1570525838.69503
1570525838.71066
1570525838.72628
1570525838.74191
1570525838.75754
1570525838.77316
1570525838.78879
1570525838.80441
1570525838.82004
1570525838.83566
1570525838.85129
1570525838.86692
1570525838.88254
1570525838.89817
1570525838.91379
1570525838.92942
1570525838.94504
1570525838.96067
1570525838.9763
1570525838.99192
1570525839.00755
1570525839.02317
1570525839.0388
1570525839.05442
1570525839.07005
1570525839.08568
1570525839.1013
1570525839.11693
1570525839.13255
1570525839.14818
1570525839.1638
1570525839.17943
1570525839.19506
1570525839.21068
1570525839.22631
1570525839.24193
1570525839.25756
1570525839.27319
1570525839.28881
1570525839.30444
1570525839.32006
1570525839.33569
1570525839.35131
1570525839.36694
1570525839.38257
1570525839.39819
1570525839.41382
1570525839.42944
1570525839.44507
1570525839.46069
1570525839.47632
1570525839.49195
1570525839.50757
1570525839.5232
1570525839.53882
1570525839.55445
1570525839.57007
1570525839.5857
1570525839.60133
1570525839.61695
1570525839.63258
1570525839.6482
1570525839.66383
1570525839.67945
1570525839.69508
1570525839.71071
1570525839.72633
1570525839.74196
1570525839.75758
1570525839.77321
1570525839.78883
1570525839.80446
1570525839.82009
1570525839.83571
1570525839.85134
1570525839.86696
1570525839.88259
1570525839.89821
1570525839.91384
1570525839.92947
1570525839.94509
1570525839.96072
1570525839.97634
1570525839.99197
1570525840.00759
1570525840.02322
1570525840.03885
1570525840.05447
1570525840.0701
1570525840.08572
1570525840.10135
1570525840.11697
1570525840.1326
1570525840.14823
1570525840.16385
1570525840.17948
1570525840.1951
1570525840.21073
1570525840.22635
1570525840.24198
1570525840.25761
1570525840.27323
1570525840.28886
1570525840.30448
1570525840.32011
1570525840.33573
1570525840.35136
1570525840.36699
1570525840.38261
1570525840.39824
1570525840.41386
1570525840.42949
1570525840.44511
1570525840.46074
1570525840.47637
1570525840.49199
1570525840.50762
1570525840.52324
1570525840.53887
1570525840.55449
1570525840.57012
1570525840.58575
1570525840.60137
1570525840.617
1570525840.63262
1570525840.64825
1570525840.66387
1570525840.6795
1570525840.69513
1570525840.71075
1570525840.72638
1570525840.742
1570525840.75763
1570525840.77325
1570525840.78888
1570525840.80451
1570525840.82013
1570525840.83576
1570525840.85138
1570525840.86701
1570525840.88263
1570525840.89826
1570525840.91389
1570525840.92951
1570525840.94514
1570525840.96076
1570525840.97639
1570525840.99201
1570525841.00764
1570525841.02327
1570525841.03889
1570525841.05452
1570525841.07014
1570525841.08577
1570525841.10139
1570525841.11702
1570525841.13265
1570525841.14827
1570525841.1639
1570525841.17952
1570525841.19515
1570525841.21077
1570525841.2264
1570525841.24203
1570525841.25765
1570525841.27328
1570525841.2889
1570525841.30453
1570525841.32015
1570525841.33578
1570525841.35141
1570525841.36703
1570525841.38266
1570525841.39828
1570525841.41391
1570525841.42953
1570525841.44516
1570525841.46079
1570525841.47641
1570525841.49204
1570525841.50766
1570525841.52329
1570525841.53891
1570525841.55454
1570525841.57017
1570525841.58579
1570525841.60142
1570525841.61704
1570525841.63267
1570525841.64829
1570525841.66392
1570525841.67955
1570525841.69517
1570525841.7108
1570525841.72642
1570525841.74205
1570525841.75767
1570525841.7733
1570525841.78893
1570525841.80455
1570525841.82018
1570525841.8358
1570525841.85143
1570525841.86705
1570525841.88268
1570525841.89831
1570525841.91393
1570525841.92956
1570525841.94518
1570525841.96081
1570525841.97644
1570525841.99206
1570525842.00769
1570525842.02331
1570525842.03894
1570525842.05456
1570525842.07019
1570525842.08582
1570525842.10144
1570525842.11707
1570525842.13269
1570525842.14832
1570525842.16394
1570525842.17957
1570525842.1952
1570525842.21082
1570525842.22645
1570525842.24207
1570525842.2577
1570525842.27332
1570525842.28895
1570525842.30458
1570525842.3202
1570525842.33583
1570525842.35145
1570525842.36708
1570525842.3827
1570525842.39833
1570525842.41396
1570525842.42958
1570525842.44521
1570525842.46083
1570525842.47646
1570525842.49208
1570525842.50771
1570525842.52334
1570525842.53896
1570525842.55459
1570525842.57021
1570525842.58584
1570525842.60146
1570525842.61709
1570525842.63272
1570525842.64834
1570525842.66397
1570525842.67959
1570525842.69522
1570525842.71084
1570525842.72647
1570525842.7421
1570525842.75772
1570525842.77335
1570525842.78897
1570525842.8046
1570525842.82022
1570525842.83585
1570525842.85148
1570525842.8671
1570525842.88273
1570525842.89835
1570525842.91398
1570525842.9296
1570525842.94523
1570525842.96086
1570525842.97648
1570525842.99211
1570525843.00773
1570525843.02336
1570525843.03898
1570525843.05461
1570525843.07024
1570525843.08586
1570525843.10149
1570525843.11711
1570525843.13274
1570525843.14836
1570525843.16399
1570525843.17962
1570525843.19524
1570525843.21087
1570525843.22649
1570525843.24212
1570525843.25774
1570525843.27337
1570525843.289
1570525843.30462
1570525843.32025
1570525843.33587
1570525843.3515
1570525843.36712
1570525843.38275
1570525843.39838
1570525843.414
1570525843.42963
1570525843.44525
1570525843.46088
1570525843.4765
1570525843.49213
1570525843.50776
1570525843.52338
1570525843.53901
1570525843.55463
1570525843.57026
1570525843.58588
1570525843.60151
1570525843.61714
1570525843.63276
1570525843.64839
1570525843.66401
1570525843.67964
1570525843.69526
1570525843.71089
1570525843.72652
1570525843.74214
1570525843.75777
1570525843.77339
1570525843.78902
1570525843.80464
1570525843.82027
1570525843.8359
1570525843.85152
1570525843.86715
1570525843.88277
1570525843.8984
1570525843.91402
1570525843.92965
1570525843.94528
1570525843.9609
1570525843.97653
1570525843.99215
1570525844.00778
1570525844.0234
1570525844.03903
1570525844.05466
1570525844.07028
1570525844.08591
1570525844.10153
1570525844.11716
1570525844.13279
1570525844.14841
1570525844.16404
1570525844.17966
1570525844.19529
1570525844.21091
1570525844.22654
1570525844.24217
1570525844.25779
1570525844.27342
1570525844.28904
1570525844.30467
1570525844.32029
1570525844.33592
1570525844.35155
1570525844.36717
1570525844.3828
1570525844.39842
1570525844.41405
1570525844.42967
1570525844.4453
1570525844.46093
1570525844.47655
1570525844.49218
1570525844.5078
1570525844.52343
1570525844.53905
1570525844.55468
1570525844.57031
1570525844.58593
1570525844.60156
1570525844.61718
1570525844.63281
1570525844.64843
1570525844.66406
1570525844.67969
1570525844.69531
1570525844.71094
1570525844.72656
1570525844.74219
1570525844.75781
1570525844.77344
1570525844.78907
1570525844.80469
1570525844.82032
1570525844.83594
1570525844.85157
1570525844.86719
1570525844.88282
1570525844.89845
1570525844.91407
1570525844.9297
1570525844.94532
1570525844.96095
1570525844.97657
1570525844.9922
1570525845.00783
1570525845.02345
1570525845.03908
1570525845.0547
1570525845.07033
1570525845.08595
1570525845.10158
1570525845.11721
1570525845.13283
1570525845.14846
1570525845.16408
1570525845.17971
1570525845.19533
1570525845.21096
1570525845.22659
1570525845.24221
1570525845.25784
1570525845.27346
1570525845.28909
1570525845.30471
1570525845.32034
1570525845.33597
1570525845.35159
1570525845.36722
1570525845.38284
1570525845.39847
1570525845.41409
1570525845.42972
1570525845.44535
1570525845.46097
1570525845.4766
1570525845.49222
1570525845.50785
1570525845.52347
1570525845.5391
1570525845.55473
1570525845.57035
1570525845.58598
1570525845.6016
1570525845.61723
1570525845.63285
1570525845.64848
1570525845.66411
1570525845.67973
1570525845.69536
1570525845.71098
1570525845.72661
1570525845.74223
1570525845.75786
1570525845.77349
1570525845.78911
1570525845.80474
1570525845.82036
1570525845.83599
1570525845.85161
1570525845.86724
1570525845.88287
1570525845.89849
1570525845.91412
1570525845.92974
1570525845.94537
1570525845.96099
1570525845.97662
1570525845.99225
1570525846.00787
1570525846.0235
1570525846.03912
1570525846.05475
1570525846.07037
1570525846.086
1570525846.10163
1570525846.11725
1570525846.13288
1570525846.1485
1570525846.16413
1570525846.17975
1570525846.19538
1570525846.21101
1570525846.22663
1570525846.24226
1570525846.25788
1570525846.27351
1570525846.28913
1570525846.30476
1570525846.32039
1570525846.33601
1570525846.35164
1570525846.36726
1570525846.38289
1570525846.39851
1570525846.41414
1570525846.42977
1570525846.44539
1570525846.46102
1570525846.47664
1570525846.49227
1570525846.50789
1570525846.52352
1570525846.53915
1570525846.55477
1570525846.5704
1570525846.58602
1570525846.60165
1570525846.61728
1570525846.6329
1570525846.64853
1570525846.66415
1570525846.67978
1570525846.6954
1570525846.71103
1570525846.72666
1570525846.74228
1570525846.75791
1570525846.77353
1570525846.78916
1570525846.80478
1570525846.82041
1570525846.83604
1570525846.85166
1570525846.86729
1570525846.88291
1570525846.89854
1570525846.91416
1570525846.92979
1570525846.94542
1570525846.96104
1570525846.97667
1570525846.99229
1570525847.00792
1570525847.02354
1570525847.03917
1570525847.0548
1570525847.07042
1570525847.08605
1570525847.10167
1570525847.1173
1570525847.13292
1570525847.14855
1570525847.16418
1570525847.1798
1570525847.19543
1570525847.21105
1570525847.22668
1570525847.2423
1570525847.25793
1570525847.27356
1570525847.28918
1570525847.30481
1570525847.32043
1570525847.33606
1570525847.35168
1570525847.36731
1570525847.38294
1570525847.39856
1570525847.41419
1570525847.42981
1570525847.44544
1570525847.46106
1570525847.47669
1570525847.49232
1570525847.50794
1570525847.52357
1570525847.53919
1570525847.55482
1570525847.57044
1570525847.58607
1570525847.6017
1570525847.61732
1570525847.63295
1570525847.64857
1570525847.6642
1570525847.67982
1570525847.69545
1570525847.71108
1570525847.7267
1570525847.74233
1570525847.75795
1570525847.77358
1570525847.7892
1570525847.80483
1570525847.82046
1570525847.83608
1570525847.85171
1570525847.86733
1570525847.88296
1570525847.89858
1570525847.91421
1570525847.92984
1570525847.94546
1570525847.96109
1570525847.97671
1570525847.99234
1570525848.00796
1570525848.02359
1570525848.03922
1570525848.05484
1570525848.07047
1570525848.08609
1570525848.10172
1570525848.11734
1570525848.13297
1570525848.1486
1570525848.16422
1570525848.17985
1570525848.19547
1570525848.2111
1570525848.22672
1570525848.24235
1570525848.25798
1570525848.2736
1570525848.28923
1570525848.30485
1570525848.32048
1570525848.3361
1570525848.35173
1570525848.36736
1570525848.38298
1570525848.39861
1570525848.41423
1570525848.42986
1570525848.44548
1570525848.46111
1570525848.47674
1570525848.49236
1570525848.50799
1570525848.52361
1570525848.53924
1570525848.55486
1570525848.57049
1570525848.58612
1570525848.60174
1570525848.61737
1570525848.63299
1570525848.64862
1570525848.66424
1570525848.67987
1570525848.6955
1570525848.71112
1570525848.72675
1570525848.74237
1570525848.758
1570525848.77362
1570525848.78925
1570525848.80488
1570525848.8205
1570525848.83613
1570525848.85175
1570525848.86738
1570525848.883
1570525848.89863
1570525848.91426
1570525848.92988
1570525848.94551
1570525848.96113
1570525848.97676
1570525848.99239
1570525849.00801
1570525849.02364
1570525849.03926
1570525849.05489
1570525849.07051
1570525849.08614
1570525849.10177
1570525849.11739
1570525849.13302
1570525849.14864
1570525849.16427
1570525849.17989
1570525849.19552
1570525849.21115
1570525849.22677
1570525849.2424
1570525849.25802
1570525849.27365
1570525849.28927
1570525849.3049
1570525849.32053
1570525849.33615
1570525849.35178
1570525849.3674
1570525849.38303
1570525849.39865
1570525849.41428
1570525849.42991
1570525849.44553
1570525849.46116
1570525849.47678
1570525849.49241
1570525849.50803
1570525849.52366
1570525849.53929
1570525849.55491
1570525849.57054
1570525849.58616
1570525849.60179
1570525849.61741
1570525849.63304
1570525849.64867
1570525849.66429
1570525849.67992
1570525849.69554
1570525849.71117
1570525849.72679
1570525849.74242
1570525849.75805
1570525849.77367
1570525849.7893
1570525849.80492
1570525849.82055
1570525849.83617
1570525849.8518
1570525849.86743
1570525849.88305
1570525849.89868
1570525849.9143
1570525849.92993
1570525849.94555
1570525849.96118
1570525849.97681
1570525849.99243
1570525850.00806
1570525850.02368
1570525850.03931
1570525850.05493
1570525850.07056
1570525850.08619
1570525850.10181
1570525850.11744
1570525850.13306
1570525850.14869
1570525850.16431
1570525850.17994
1570525850.19557
1570525850.21119
1570525850.22682
1570525850.24244
1570525850.25807
1570525850.27369
1570525850.28932
1570525850.30495
1570525850.32057
1570525850.3362
1570525850.35182
1570525850.36745
1570525850.38307
1570525850.3987
1570525850.41433
1570525850.42995
1570525850.44558
1570525850.4612
1570525850.47683
1570525850.49245
1570525850.50808
1570525850.52371
1570525850.53933
1570525850.55496
1570525850.57058
1570525850.58621
1570525850.60183
1570525850.61746
1570525850.63309
1570525850.64871
1570525850.66434
1570525850.67996
1570525850.69559
1570525850.71121
1570525850.72684
1570525850.74247
1570525850.75809
1570525850.77372
1570525850.78934
1570525850.80497
1570525850.82059
1570525850.83622
1570525850.85185
1570525850.86747
1570525850.8831
1570525850.89872
1570525850.91435
1570525850.92997
1570525850.9456
1570525850.96123
1570525850.97685
1570525850.99248
1570525851.0081
1570525851.02373
1570525851.03935
1570525851.05498
1570525851.07061
1570525851.08623
1570525851.10186
1570525851.11748
1570525851.13311
1570525851.14873
1570525851.16436
1570525851.17999
1570525851.19561
1570525851.21124
1570525851.22686
1570525851.24249
1570525851.25812
1570525851.27374
1570525851.28937
1570525851.30499
1570525851.32062
1570525851.33624
1570525851.35187
1570525851.3675
1570525851.38312
1570525851.39875
1570525851.41437
1570525851.43
1570525851.44562
1570525851.46125
1570525851.47688
1570525851.4925
1570525851.50813
1570525851.52375
1570525851.53938
1570525851.555
1570525851.57063
1570525851.58626
1570525851.60188
1570525851.61751
1570525851.63313
1570525851.64876
1570525851.66438
1570525851.68001
1570525851.69564
1570525851.71126
1570525851.72689
1570525851.74251
1570525851.75814
1570525851.77376
1570525851.78939
1570525851.80502
1570525851.82064
1570525851.83627
1570525851.85189
1570525851.86752
1570525851.88314
1570525851.89877
1570525851.9144
1570525851.93002
1570525851.94565
1570525851.96127
1570525851.9769
1570525851.99252
1570525852.00815
1570525852.02378
1570525852.0394
1570525852.05503
1570525852.07065
1570525852.08628
1570525852.1019
1570525852.11753
1570525852.13316
1570525852.14878
1570525852.16441
1570525852.18003
1570525852.19566
1570525852.21128
1570525852.22691
1570525852.24254
1570525852.25816
1570525852.27379
1570525852.28941
1570525852.30504
1570525852.32066
1570525852.33629
1570525852.35192
1570525852.36754
1570525852.38317
1570525852.39879
1570525852.41442
1570525852.43004
1570525852.44567
1570525852.4613
1570525852.47692
1570525852.49255
1570525852.50817
1570525852.5238
1570525852.53942
1570525852.55505
1570525852.57068
1570525852.5863
1570525852.60193
1570525852.61755
1570525852.63318
1570525852.6488
1570525852.66443
1570525852.68006
1570525852.69568
1570525852.71131
1570525852.72693
1570525852.74256
1570525852.75818
1570525852.77381
1570525852.78944
1570525852.80506
1570525852.82069
1570525852.83631
1570525852.85194
1570525852.86756
1570525852.88319
1570525852.89882
1570525852.91444
1570525852.93007
1570525852.94569
1570525852.96132
1570525852.97694
1570525852.99257
1570525853.0082
1570525853.02382
1570525853.03945
1570525853.05507
1570525853.0707
1570525853.08632
1570525853.10195
1570525853.11758
1570525853.1332
1570525853.14883
1570525853.16445
1570525853.18008
1570525853.1957
1570525853.21133
1570525853.22696
1570525853.24258
1570525853.25821
1570525853.27383
1570525853.28946
1570525853.30508
1570525853.32071
1570525853.33634
1570525853.35196
1570525853.36759
1570525853.38321
1570525853.39884
1570525853.41446
1570525853.43009
1570525853.44572
1570525853.46134
1570525853.47697
1570525853.49259
1570525853.50822
1570525853.52384
1570525853.53947
1570525853.5551
1570525853.57072
1570525853.58635
1570525853.60197
1570525853.6176
1570525853.63322
1570525853.64885
1570525853.66448
1570525853.6801
1570525853.69573
1570525853.71135
1570525853.72698
1570525853.7426
1570525853.75823
1570525853.77386
1570525853.78948
1570525853.80511
1570525853.82073
1570525853.83636
1570525853.85199
1570525853.86761
1570525853.88324
1570525853.89886
1570525853.91449
1570525853.93011
1570525853.94574
1570525853.96137
1570525853.97699
1570525853.99262
1570525854.00824
1570525854.02387
1570525854.03949
1570525854.05512
1570525854.07075
1570525854.08637
1570525854.102
1570525854.11762
1570525854.13325
1570525854.14887
1570525854.1645
1570525854.18013
1570525854.19575
1570525854.21138
1570525854.227
1570525854.24263
1570525854.25825
1570525854.27388
1570525854.28951
1570525854.30513
1570525854.32076
1570525854.33638
1570525854.35201
1570525854.36763
1570525854.38326
1570525854.39889
1570525854.41451
1570525854.43014
1570525854.44576
1570525854.46139
1570525854.47701
1570525854.49264
1570525854.50827
1570525854.52389
1570525854.53952
1570525854.55514
1570525854.57077
1570525854.58639
1570525854.60202
1570525854.61765
1570525854.63327
1570525854.6489
1570525854.66452
1570525854.68015
1570525854.69577
1570525854.7114
1570525854.72703
1570525854.74265
1570525854.75828
1570525854.7739
1570525854.78953
1570525854.80515
1570525854.82078
1570525854.83641
1570525854.85203
1570525854.86766
1570525854.88328
1570525854.89891
1570525854.91453
1570525854.93016
1570525854.94579
1570525854.96141
1570525854.97704
1570525854.99266
1570525855.00829
1570525855.02391
1570525855.03954
1570525855.05517
1570525855.07079
1570525855.08642
1570525855.10204
1570525855.11767
1570525855.13329
1570525855.14892
1570525855.16455
1570525855.18017
1570525855.1958
1570525855.21142
1570525855.22705
1570525855.24267
1570525855.2583
1570525855.27393
1570525855.28955
1570525855.30518
1570525855.3208
1570525855.33643
1570525855.35205
1570525855.36768
1570525855.38331
1570525855.39893
1570525855.41456
1570525855.43018
1570525855.44581
1570525855.46143
1570525855.47706
1570525855.49269
1570525855.50831
1570525855.52394
1570525855.53956
1570525855.55519
1570525855.57081
1570525855.58644
1570525855.60207
1570525855.61769
1570525855.63332
1570525855.64894
1570525855.66457
1570525855.68019
1570525855.69582
1570525855.71145
1570525855.72707
1570525855.7427
1570525855.75832
1570525855.77395
1570525855.78957
1570525855.8052
1570525855.82083
1570525855.83645
1570525855.85208
1570525855.8677
1570525855.88333
1570525855.89895
1570525855.91458
1570525855.93021
1570525855.94583
1570525855.96146
1570525855.97708
1570525855.99271
1570525856.00833
1570525856.02396
1570525856.03959
1570525856.05521
1570525856.07084
1570525856.08646
1570525856.10209
1570525856.11772
1570525856.13334
1570525856.14897
1570525856.16459
1570525856.18022
1570525856.19584
1570525856.21147
1570525856.2271
1570525856.24272
1570525856.25835
1570525856.27397
1570525856.2896
1570525856.30522
1570525856.32085
1570525856.33648
1570525856.3521
1570525856.36773
1570525856.38335
1570525856.39898
1570525856.4146
1570525856.43023
1570525856.44586
1570525856.46148
1570525856.47711
1570525856.49273
1570525856.50836
1570525856.52398
1570525856.53961
1570525856.55524
1570525856.57086
1570525856.58649
1570525856.60211
1570525856.61774
1570525856.63336
1570525856.64899
1570525856.66462
1570525856.68024
1570525856.69587
1570525856.71149
1570525856.72712
1570525856.74274
1570525856.75837
1570525856.774
1570525856.78962
1570525856.80525
1570525856.82087
1570525856.8365
1570525856.85212
1570525856.86775
1570525856.88338
1570525856.899
1570525856.91463
1570525856.93025
1570525856.94588
1570525856.9615
1570525856.97713
1570525856.99276
1570525857.00838
1570525857.02401
1570525857.03963
1570525857.05526
1570525857.07088
1570525857.08651
1570525857.10214
1570525857.11776
1570525857.13339
1570525857.14901
1570525857.16464
1570525857.18026
1570525857.19589
1570525857.21152
1570525857.22714
1570525857.24277
1570525857.25839
1570525857.27402
1570525857.28964
1570525857.30527
1570525857.3209
1570525857.33652
1570525857.35215
1570525857.36777
1570525857.3834
1570525857.39902
1570525857.41465
1570525857.43028
1570525857.4459
1570525857.46153
1570525857.47715
1570525857.49278
1570525857.5084
1570525857.52403
1570525857.53966
1570525857.55528
1570525857.57091
1570525857.58653
1570525857.60216
1570525857.61778
1570525857.63341
1570525857.64904
1570525857.66466
1570525857.68029
1570525857.69591
1570525857.71154
1570525857.72716
1570525857.74279
1570525857.75842
1570525857.77404
1570525857.78967
1570525857.80529
1570525857.82092
1570525857.83654
1570525857.85217
1570525857.8678
1570525857.88342
1570525857.89905
1570525857.91467
1570525857.9303
1570525857.94592
1570525857.96155
1570525857.97718
1570525857.9928
1570525858.00843
1570525858.02405
1570525858.03968
1570525858.0553
1570525858.07093
1570525858.08656
1570525858.10218
1570525858.11781
1570525858.13343
1570525858.14906
1570525858.16468
1570525858.18031
1570525858.19594
1570525858.21156
1570525858.22719
1570525858.24281
1570525858.25844
1570525858.27406
1570525858.28969
1570525858.30532
1570525858.32094
1570525858.33657
1570525858.35219
1570525858.36782
1570525858.38345
1570525858.39907
1570525858.4147
1570525858.43032
1570525858.44595
1570525858.46157
1570525858.4772
1570525858.49283
1570525858.50845
1570525858.52408
1570525858.5397
1570525858.55533
1570525858.57095
1570525858.58658
1570525858.60221
1570525858.61783
1570525858.63346
1570525858.64908
1570525858.66471
1570525858.68033
1570525858.69596
1570525858.71159
1570525858.72721
1570525858.74284
1570525858.75846
1570525858.77409
1570525858.78971
1570525858.80534
1570525858.82097
1570525858.83659
1570525858.85222
1570525858.86784
1570525858.88347
1570525858.89909
1570525858.91472
1570525858.93035
1570525858.94597
1570525858.9616
1570525858.97722
1570525858.99285
1570525859.00847
1570525859.0241
1570525859.03973
1570525859.05535
1570525859.07098
1570525859.0866
1570525859.10223
1570525859.11785
1570525859.13348
1570525859.14911
1570525859.16473
1570525859.18036
1570525859.19598
1570525859.21161
1570525859.22723
1570525859.24286
1570525859.25849
1570525859.27411
1570525859.28974
1570525859.30536
1570525859.32099
1570525859.33661
1570525859.35224
1570525859.36787
1570525859.38349
1570525859.39912
1570525859.41474
1570525859.43037
1570525859.44599
1570525859.46162
1570525859.47725
1570525859.49287
1570525859.5085
1570525859.52412
1570525859.53975
1570525859.55537
1570525859.571
1570525859.58663
1570525859.60225
1570525859.61788
1570525859.6335
1570525859.64913
1570525859.66475
1570525859.68038
1570525859.69601
1570525859.71163
1570525859.72726
1570525859.74288
1570525859.75851
1570525859.77413
1570525859.78976
1570525859.80539
1570525859.82101
1570525859.83664
1570525859.85226
1570525859.86789
1570525859.88351
1570525859.89914
1570525859.91477
1570525859.93039
1570525859.94602
1570525859.96164
1570525859.97727
1570525859.99289
1570525860.00852
1570525860.02415
1570525860.03977
1570525860.0554
1570525860.07102
1570525860.08665
1570525860.10227
1570525860.1179
1570525860.13353
1570525860.14915
1570525860.16478
1570525860.1804
1570525860.19603
1570525860.21165
1570525860.22728
1570525860.24291
1570525860.25853
1570525860.27416
1570525860.28978
1570525860.30541
1570525860.32103
1570525860.33666
1570525860.35229
1570525860.36791
1570525860.38354
1570525860.39916
1570525860.41479
1570525860.43041
1570525860.44604
1570525860.46167
1570525860.47729
1570525860.49292
1570525860.50854
1570525860.52417
1570525860.53979
1570525860.55542
1570525860.57105
1570525860.58667
1570525860.6023
1570525860.61792
1570525860.63355
1570525860.64917
1570525860.6648
1570525860.68043
1570525860.69605
1570525860.71168
1570525860.7273
1570525860.74293
1570525860.75855
1570525860.77418
1570525860.78981
1570525860.80543
1570525860.82106
1570525860.83668
1570525860.85231
1570525860.86793
1570525860.88356
1570525860.89919
1570525860.91481
1570525860.93044
1570525860.94606
1570525860.96169
1570525860.97732
1570525860.99294
1570525861.00857
1570525861.02419
1570525861.03982
1570525861.05544
1570525861.07107
1570525861.0867
1570525861.10232
1570525861.11795
1570525861.13357
1570525861.1492
1570525861.16482
1570525861.18045
1570525861.19608
1570525861.2117
1570525861.22733
1570525861.24295
1570525861.25858
1570525861.2742
1570525861.28983
1570525861.30546
1570525861.32108
1570525861.33671
1570525861.35233
1570525861.36796
1570525861.38358
1570525861.39921
1570525861.41484
1570525861.43046
1570525861.44609
1570525861.46171
1570525861.47734
1570525861.49296
1570525861.50859
1570525861.52422
1570525861.53984
1570525861.55547
1570525861.57109
1570525861.58672
1570525861.60234
1570525861.61797
1570525861.6336
1570525861.64922
1570525861.66485
1570525861.68047
1570525861.6961
1570525861.71172
1570525861.72735
1570525861.74298
1570525861.7586
1570525861.77423
1570525861.78985
1570525861.80548
1570525861.8211
1570525861.83673
1570525861.85236
1570525861.86798
1570525861.88361
1570525861.89923
1570525861.91486
1570525861.93048
1570525861.94611
1570525861.96174
1570525861.97736
1570525861.99299
1570525862.00861
1570525862.02424
1570525862.03986
1570525862.05549
1570525862.07112
1570525862.08674
1570525862.10237
1570525862.11799
1570525862.13362
1570525862.14924
1570525862.16487
1570525862.1805
1570525862.19612
1570525862.21175
1570525862.22737
1570525862.243
1570525862.25862
1570525862.27425
1570525862.28988
1570525862.3055
1570525862.32113
1570525862.33675
1570525862.35238
1570525862.368
1570525862.38363
1570525862.39926
1570525862.41488
1570525862.43051
1570525862.44613
1570525862.46176
1570525862.47738
1570525862.49301
1570525862.50864
1570525862.52426
1570525862.53989
1570525862.55551
1570525862.57114
1570525862.58676
1570525862.60239
1570525862.61802
1570525862.63364
1570525862.64927
1570525862.66489
1570525862.68052
1570525862.69614
1570525862.71177
1570525862.7274
1570525862.74302
1570525862.75865
1570525862.77427
1570525862.7899
1570525862.80552
1570525862.82115
1570525862.83678
1570525862.8524
1570525862.86803
1570525862.88365
1570525862.89928
1570525862.9149
1570525862.93053
1570525862.94616
1570525862.96178
1570525862.97741
1570525862.99303
1570525863.00866
1570525863.02428
1570525863.03991
1570525863.05554
1570525863.07116
1570525863.08679
1570525863.10241
1570525863.11804
1570525863.13366
1570525863.14929
1570525863.16492
1570525863.18054
1570525863.19617
1570525863.21179
1570525863.22742
1570525863.24305
1570525863.25867
1570525863.2743
1570525863.28992
1570525863.30555
1570525863.32117
1570525863.3368
1570525863.35243
1570525863.36805
1570525863.38368
1570525863.3993
1570525863.41493
1570525863.43055
1570525863.44618
1570525863.46181
1570525863.47743
1570525863.49306
1570525863.50868
1570525863.52431
1570525863.53993
1570525863.55556
1570525863.57119
1570525863.58681
1570525863.60244
1570525863.61806
1570525863.63369
1570525863.64931
1570525863.66494
1570525863.68057
1570525863.69619
1570525863.71182
1570525863.72744
1570525863.74307
1570525863.75869
1570525863.77432
1570525863.78995
1570525863.80557
1570525863.8212
1570525863.83682
1570525863.85245
1570525863.86807
1570525863.8837
1570525863.89933
1570525863.91495
1570525863.93058
1570525863.9462
1570525863.96183
1570525863.97745
1570525863.99308
1570525864.00871
1570525864.02433
1570525864.03996
1570525864.05558
1570525864.07121
1570525864.08683
1570525864.10246
1570525864.11809
1570525864.13371
1570525864.14934
1570525864.16496
1570525864.18059
1570525864.19621
1570525864.21184
1570525864.22747
1570525864.24309
1570525864.25872
1570525864.27434
1570525864.28997
1570525864.30559
1570525864.32122
1570525864.33685
1570525864.35247
1570525864.3681
1570525864.38372
1570525864.39935
1570525864.41497
1570525864.4306
1570525864.44623
1570525864.46185
1570525864.47748
1570525864.4931
1570525864.50873
1570525864.52435
1570525864.53998
1570525864.55561
1570525864.57123
1570525864.58686
1570525864.60248
1570525864.61811
1570525864.63373
1570525864.64936
1570525864.66499
1570525864.68061
1570525864.69624
1570525864.71186
1570525864.72749
1570525864.74311
1570525864.75874
1570525864.77437
1570525864.78999
1570525864.80562
1570525864.82124
1570525864.83687
1570525864.85249
1570525864.86812
1570525864.88375
1570525864.89937
1570525864.915
1570525864.93062
1570525864.94625
1570525864.96187
1570525864.9775
1570525864.99313
1570525865.00875
1570525865.02438
1570525865.04
1570525865.05563
1570525865.07125
1570525865.08688
1570525865.10251
1570525865.11813
1570525865.13376
1570525865.14938
1570525865.16501
1570525865.18063
1570525865.19626
1570525865.21189
1570525865.22751
1570525865.24314
1570525865.25876
1570525865.27439
1570525865.29001
1570525865.30564
1570525865.32127
1570525865.33689
1570525865.35252
1570525865.36814
1570525865.38377
1570525865.39939
1570525865.41502
1570525865.43065
1570525865.44627
1570525865.4619
1570525865.47752
1570525865.49315
1570525865.50878
1570525865.5244
1570525865.54003
1570525865.55565
1570525865.57128
1570525865.5869
1570525865.60253
1570525865.61816
1570525865.63378
1570525865.64941
1570525865.66503
1570525865.68066
1570525865.69628
1570525865.71191
1570525865.72754
1570525865.74316
1570525865.75879
1570525865.77441
1570525865.79004
1570525865.80566
1570525865.82129
1570525865.83692
1570525865.85254
1570525865.86817
1570525865.88379
1570525865.89942
1570525865.91504
1570525865.93067
1570525865.9463
1570525865.96192
1570525865.97755
1570525865.99317
1570525866.0088
1570525866.02442
1570525866.04005
1570525866.05568
1570525866.0713
1570525866.08693
1570525866.10255
1570525866.11818
1570525866.1338
1570525866.14943
1570525866.16506
1570525866.18068
1570525866.19631
1570525866.21193
1570525866.22756
1570525866.24318
1570525866.25881
1570525866.27444
1570525866.29006
1570525866.30569
1570525866.32131
1570525866.33694
1570525866.35256
1570525866.36819
1570525866.38382
1570525866.39944
1570525866.41507
1570525866.43069
1570525866.44632
1570525866.46194
1570525866.47757
1570525866.4932
1570525866.50882
1570525866.52445
1570525866.54007
1570525866.5557
1570525866.57132
1570525866.58695
1570525866.60258
1570525866.6182
1570525866.63383
1570525866.64945
1570525866.66508
1570525866.6807
1570525866.69633
1570525866.71196
1570525866.72758
1570525866.74321
1570525866.75883
1570525866.77446
1570525866.79008
1570525866.80571
1570525866.82134
1570525866.83696
1570525866.85259
1570525866.86821
1570525866.88384
1570525866.89946
1570525866.91509
1570525866.93072
1570525866.94634
1570525866.96197
1570525866.97759
1570525866.99322
1570525867.00884
1570525867.02447
1570525867.0401
1570525867.05572
1570525867.07135
1570525867.08697
1570525867.1026
1570525867.11822
1570525867.13385
1570525867.14948
1570525867.1651
1570525867.18073
1570525867.19635
1570525867.21198
1570525867.2276
1570525867.24323
1570525867.25886
1570525867.27448
1570525867.29011
1570525867.30573
1570525867.32136
1570525867.33698
1570525867.35261
1570525867.36824
1570525867.38386
1570525867.39949
1570525867.41511
1570525867.43074
1570525867.44636
1570525867.46199
1570525867.47762
1570525867.49324
1570525867.50887
1570525867.52449
1570525867.54012
1570525867.55574
1570525867.57137
1570525867.587
1570525867.60262
1570525867.61825
1570525867.63387
1570525867.6495
1570525867.66512
1570525867.68075
1570525867.69638
1570525867.712
1570525867.72763
1570525867.74325
1570525867.75888
1570525867.7745
1570525867.79013
1570525867.80576
1570525867.82138
1570525867.83701
1570525867.85263
1570525867.86826
1570525867.88388
1570525867.89951
1570525867.91514
1570525867.93076
1570525867.94639
1570525867.96201
1570525867.97764
1570525867.99326
1570525868.00889
1570525868.02452
1570525868.04014
1570525868.05577
1570525868.07139
1570525868.08702
1570525868.10265
1570525868.11827
1570525868.1339
1570525868.14952
1570525868.16515
1570525868.18077
1570525868.1964
1570525868.21203
1570525868.22765
1570525868.24328
1570525868.2589
1570525868.27453
1570525868.29015
1570525868.30578
1570525868.32141
1570525868.33703
1570525868.35266
1570525868.36828
1570525868.38391
1570525868.39953
1570525868.41516
1570525868.43079
1570525868.44641
1570525868.46204
1570525868.47766
1570525868.49329
1570525868.50891
1570525868.52454
1570525868.54017
1570525868.55579
1570525868.57142
1570525868.58704
1570525868.60267
1570525868.61829
1570525868.63392
1570525868.64955
1570525868.66517
1570525868.6808
1570525868.69642
1570525868.71205
1570525868.72767
1570525868.7433
1570525868.75893
1570525868.77455
1570525868.79018
1570525868.8058
1570525868.82143
1570525868.83705
1570525868.85268
1570525868.86831
1570525868.88393
1570525868.89956
1570525868.91518
1570525868.93081
1570525868.94643
1570525868.96206
1570525868.97769
1570525868.99331
1570525869.00894
1570525869.02456
1570525869.04019
1570525869.05581
1570525869.07144
1570525869.08707
1570525869.10269
1570525869.11832
1570525869.13394
1570525869.14957
1570525869.16519
1570525869.18082
1570525869.19645
1570525869.21207
1570525869.2277
1570525869.24332
1570525869.25895
1570525869.27457
1570525869.2902
1570525869.30583
1570525869.32145
1570525869.33708
1570525869.3527
1570525869.36833
1570525869.38395
1570525869.39958
1570525869.41521
1570525869.43083
1570525869.44646
1570525869.46208
1570525869.47771
1570525869.49333
1570525869.50896
1570525869.52459
1570525869.54021
1570525869.55584
1570525869.57146
1570525869.58709
1570525869.60271
1570525869.61834
1570525869.63397
1570525869.64959
1570525869.66522
1570525869.68084
1570525869.69647
1570525869.71209
1570525869.72772
1570525869.74335
1570525869.75897
1570525869.7746
1570525869.79022
1570525869.80585
1570525869.82147
1570525869.8371
1570525869.85273
1570525869.86835
1570525869.88398
1570525869.8996
1570525869.91523
1570525869.93085
1570525869.94648
1570525869.96211
1570525869.97773
1570525869.99336
1570525870.00898
1570525870.02461
1570525870.04023
1570525870.05586
1570525870.07149
1570525870.08711
1570525870.10274
1570525870.11836
1570525870.13399
1570525870.14961
1570525870.16524
1570525870.18087
1570525870.19649
1570525870.21212
1570525870.22774
1570525870.24337
1570525870.259
1570525870.27462
1570525870.29025
1570525870.30587
1570525870.3215
1570525870.33712
1570525870.35275
1570525870.36838
1570525870.384
1570525870.39963
1570525870.41525
1570525870.43088
1570525870.4465
1570525870.46213
1570525870.47776
1570525870.49338
1570525870.50901
1570525870.52463
1570525870.54026
1570525870.55588
1570525870.57151
1570525870.58714
1570525870.60276
1570525870.61839
1570525870.63401
1570525870.64964
1570525870.66526
1570525870.68089
1570525870.69652
1570525870.71214
1570525870.72777
1570525870.74339
1570525870.75902
1570525870.77464
1570525870.79027
1570525870.8059
1570525870.82152
1570525870.83715
1570525870.85277
1570525870.8684
1570525870.88402
1570525870.89965
1570525870.91528
1570525870.9309
1570525870.94653
1570525870.96215
1570525870.97778
1570525870.9934
1570525871.00903
1570525871.02466
1570525871.04028
1570525871.05591
1570525871.07153
1570525871.08716
1570525871.10278
1570525871.11841
1570525871.13404
1570525871.14966
1570525871.16529
1570525871.18091
1570525871.19654
1570525871.21216
1570525871.22779
1570525871.24342
1570525871.25904
1570525871.27467
1570525871.29029
1570525871.30592
1570525871.32154
1570525871.33717
1570525871.3528
1570525871.36842
1570525871.38405
1570525871.39967
1570525871.4153
1570525871.43092
1570525871.44655
1570525871.46218
1570525871.4778
1570525871.49343
1570525871.50905
1570525871.52468
1570525871.5403
1570525871.55593
1570525871.57156
1570525871.58718
1570525871.60281
1570525871.61843
1570525871.63406
1570525871.64968
1570525871.66531
1570525871.68094
1570525871.69656
1570525871.71219
1570525871.72781
1570525871.74344
1570525871.75906
1570525871.77469
1570525871.79032
1570525871.80594
1570525871.82157
1570525871.83719
1570525871.85282
1570525871.86844
1570525871.88407
1570525871.8997
1570525871.91532
1570525871.93095
1570525871.94657
1570525871.9622
1570525871.97782
1570525871.99345
1570525872.00908
1570525872.0247
1570525872.04033
1570525872.05595
1570525872.07158
1570525872.0872
1570525872.10283
1570525872.11846
1570525872.13408
1570525872.14971
1570525872.16533
1570525872.18096
1570525872.19658
1570525872.21221
1570525872.22784
1570525872.24346
1570525872.25909
1570525872.27471
1570525872.29034
1570525872.30596
1570525872.32159
1570525872.33722
1570525872.35284
1570525872.36847
1570525872.38409
1570525872.39972
1570525872.41534
1570525872.43097
1570525872.4466
1570525872.46222
1570525872.47785
1570525872.49347
1570525872.5091
1570525872.52472
1570525872.54035
1570525872.55598
1570525872.5716
1570525872.58723
1570525872.60285
1570525872.61848
1570525872.6341
1570525872.64973
1570525872.66536
1570525872.68098
1570525872.69661
1570525872.71223
1570525872.72786
1570525872.74348
1570525872.75911
1570525872.77474
1570525872.79036
1570525872.80599
1570525872.82161
1570525872.83724
1570525872.85286
1570525872.86849
1570525872.88412
1570525872.89974
1570525872.91537
1570525872.93099
1570525872.94662
1570525872.96225
1570525872.97787
1570525872.9935
1570525873.00912
1570525873.02475
1570525873.04037
1570525873.056
1570525873.07163
1570525873.08725
1570525873.10288
1570525873.1185
1570525873.13413
1570525873.14975
1570525873.16538
1570525873.18101
1570525873.19663
1570525873.21226
1570525873.22788
1570525873.24351
1570525873.25913
1570525873.27476
1570525873.29039
1570525873.30601
1570525873.32164
1570525873.33726
1570525873.35289
1570525873.36851
1570525873.38414
1570525873.39977
1570525873.41539
1570525873.43102
1570525873.44664
1570525873.46227
1570525873.47789
1570525873.49352
1570525873.50915
1570525873.52477
1570525873.5404
1570525873.55602
1570525873.57165
1570525873.58727
1570525873.6029
1570525873.61853
1570525873.63415
1570525873.64978
1570525873.6654
1570525873.68103
1570525873.69665
1570525873.71228
1570525873.72791
1570525873.74353
1570525873.75916
1570525873.77478
1570525873.79041
1570525873.80603
1570525873.82166
1570525873.83729
1570525873.85291
1570525873.86854
1570525873.88416
1570525873.89979
1570525873.91541
1570525873.93104
1570525873.94667
1570525873.96229
1570525873.97792
1570525873.99354
1570525874.00917
1570525874.02479
1570525874.04042
1570525874.05605
1570525874.07167
1570525874.0873
1570525874.10292
1570525874.11855
1570525874.13417
1570525874.1498
1570525874.16543
1570525874.18105
1570525874.19668
1570525874.2123
1570525874.22793
1570525874.24355
1570525874.25918
1570525874.27481
1570525874.29043
1570525874.30606
1570525874.32168
1570525874.33731
1570525874.35293
1570525874.36856
1570525874.38419
1570525874.39981
1570525874.41544
1570525874.43106
1570525874.44669
1570525874.46231
1570525874.47794
1570525874.49357
1570525874.50919
1570525874.52482
1570525874.54044
1570525874.55607
1570525874.57169
1570525874.58732
1570525874.60295
1570525874.61857
1570525874.6342
1570525874.64982
1570525874.66545
1570525874.68107
1570525874.6967
1570525874.71233
1570525874.72795
1570525874.74358
1570525874.7592
1570525874.77483
1570525874.79045
1570525874.80608
1570525874.82171
1570525874.83733
1570525874.85296
1570525874.86858
1570525874.88421
1570525874.89983
1570525874.91546
1570525874.93109
1570525874.94671
1570525874.96234
1570525874.97796
1570525874.99359
1570525875.00921
1570525875.02484
1570525875.04047
1570525875.05609
1570525875.07172
1570525875.08734
1570525875.10297
1570525875.1186
1570525875.13422
1570525875.14985
1570525875.16547
1570525875.1811
1570525875.19672
1570525875.21235
1570525875.22798
1570525875.2436
1570525875.25923
1570525875.27485
1570525875.29048
1570525875.3061
1570525875.32173
1570525875.33736
1570525875.35298
1570525875.36861
1570525875.38423
1570525875.39986
1570525875.41548
1570525875.43111
1570525875.44674
1570525875.46236
1570525875.47799
1570525875.49361
1570525875.50924
1570525875.52486
1570525875.54049
1570525875.55612
1570525875.57174
1570525875.58737
1570525875.60299
1570525875.61862
1570525875.63424
1570525875.64987
1570525875.6655
1570525875.68112
1570525875.69675
1570525875.71237
1570525875.728
1570525875.74362
1570525875.75925
1570525875.77488
1570525875.7905
1570525875.80613
1570525875.82175
1570525875.83738
1570525875.853
1570525875.86863
1570525875.88426
1570525875.89988
1570525875.91551
1570525875.93113
1570525875.94676
1570525875.96238
1570525875.97801
1570525875.99364
1570525876.00926
1570525876.02489
1570525876.04051
1570525876.05614
1570525876.07176
1570525876.08739
1570525876.10302
1570525876.11864
1570525876.13427
1570525876.14989
1570525876.16552
1570525876.18114
1570525876.19677
1570525876.2124
1570525876.22802
1570525876.24365
1570525876.25927
1570525876.2749
1570525876.29052
1570525876.30615
1570525876.32178
1570525876.3374
1570525876.35303
1570525876.36865
1570525876.38428
1570525876.3999
1570525876.41553
1570525876.43116
1570525876.44678
1570525876.46241
1570525876.47803
1570525876.49366
1570525876.50928
1570525876.52491
1570525876.54054
1570525876.55616
1570525876.57179
1570525876.58741
1570525876.60304
1570525876.61866
1570525876.63429
1570525876.64992
1570525876.66554
1570525876.68117
1570525876.69679
1570525876.71242
1570525876.72804
1570525876.74367
1570525876.7593
1570525876.77492
1570525876.79055
1570525876.80617
1570525876.8218
1570525876.83742
1570525876.85305
1570525876.86868
1570525876.8843
1570525876.89993
1570525876.91555
1570525876.93118
1570525876.9468
1570525876.96243
1570525876.97806
1570525876.99368
1570525877.00931
1570525877.02493
1570525877.04056
1570525877.05618
1570525877.07181
1570525877.08744
1570525877.10306
1570525877.11869
1570525877.13431
1570525877.14994
1570525877.16556
1570525877.18119
1570525877.19682
1570525877.21244
1570525877.22807
1570525877.24369
1570525877.25932
1570525877.27494
1570525877.29057
1570525877.3062
1570525877.32182
1570525877.33745
1570525877.35307
1570525877.3687
1570525877.38433
1570525877.39995
1570525877.41558
1570525877.4312
1570525877.44683
1570525877.46245
1570525877.47808
1570525877.49371
1570525877.50933
1570525877.52496
1570525877.54058
1570525877.55621
1570525877.57183
1570525877.58746
1570525877.60309
1570525877.61871
1570525877.63434
1570525877.64996
1570525877.66559
1570525877.68121
1570525877.69684
1570525877.71247
1570525877.72809
1570525877.74372
1570525877.75934
1570525877.77497
1570525877.79059
1570525877.80622
1570525877.82185
1570525877.83747
1570525877.8531
1570525877.86872
1570525877.88435
1570525877.89997
1570525877.9156
1570525877.93123
1570525877.94685
1570525877.96248
1570525877.9781
1570525877.99373
1570525878.00935
1570525878.02498
1570525878.04061
1570525878.05623
1570525878.07186
1570525878.08748
1570525878.10311
1570525878.11873
1570525878.13436
1570525878.14999
1570525878.16561
1570525878.18124
1570525878.19686
1570525878.21249
1570525878.22811
1570525878.24374
1570525878.25937
1570525878.27499
1570525878.29062
1570525878.30624
1570525878.32187
1570525878.33749
1570525878.35312
1570525878.36875
1570525878.38437
1570525878.4
1570525878.41562
1570525878.43125
1570525878.44687
1570525878.4625
1570525878.47813
1570525878.49375
1570525878.50938
1570525878.525
1570525878.54063
1570525878.55625
1570525878.57188
1570525878.58751
1570525878.60313
1570525878.61876
1570525878.63438
1570525878.65001
1570525878.66563
1570525878.68126
1570525878.69689
1570525878.71251
1570525878.72814
1570525878.74376
1570525878.75939
1570525878.77501
1570525878.79064
1570525878.80627
1570525878.82189
1570525878.83752
1570525878.85314
1570525878.86877
1570525878.88439
1570525878.90002
1570525878.91565
1570525878.93127
1570525878.9469
1570525878.96252
1570525878.97815
1570525878.99377
1570525879.0094
1570525879.02503
1570525879.04065
1570525879.05628
1570525879.0719
1570525879.08753
1570525879.10315
1570525879.11878
1570525879.13441
1570525879.15003
1570525879.16566
1570525879.18128
1570525879.19691
1570525879.21253
1570525879.22816
1570525879.24379
1570525879.25941
1570525879.27504
1570525879.29066
1570525879.30629
1570525879.32191
1570525879.33754
1570525879.35317
1570525879.36879
1570525879.38442
1570525879.40004
1570525879.41567
1570525879.43129
1570525879.44692
1570525879.46255
1570525879.47817
1570525879.4938
1570525879.50942
1570525879.52505
1570525879.54067
1570525879.5563
1570525879.57193
1570525879.58755
1570525879.60318
1570525879.6188
1570525879.63443
1570525879.65005
1570525879.66568
1570525879.68131
1570525879.69693
1570525879.71256
1570525879.72818
1570525879.74381
1570525879.75943
1570525879.77506
1570525879.79069
1570525879.80631
1570525879.82194
1570525879.83756
1570525879.85319
1570525879.86881
1570525879.88444
1570525879.90007
1570525879.91569
1570525879.93132
1570525879.94694
1570525879.96257
1570525879.9782
1570525879.99382
1570525880.00945
1570525880.02507
1570525880.0407
1570525880.05632
1570525880.07195
1570525880.08758
1570525880.1032
1570525880.11883
1570525880.13445
1570525880.15008
1570525880.1657
1570525880.18133
1570525880.19696
1570525880.21258
1570525880.22821
1570525880.24383
1570525880.25946
1570525880.27508
1570525880.29071
1570525880.30634
1570525880.32196
1570525880.33759
1570525880.35321
1570525880.36884
1570525880.38446
1570525880.40009
1570525880.41572
1570525880.43134
1570525880.44697
1570525880.46259
1570525880.47822
1570525880.49384
1570525880.50947
1570525880.5251
1570525880.54072
1570525880.55635
1570525880.57197
1570525880.5876
1570525880.60322
1570525880.61885
1570525880.63448
1570525880.6501
1570525880.66573
1570525880.68135
1570525880.69698
1570525880.7126
1570525880.72823
1570525880.74386
1570525880.75948
1570525880.77511
1570525880.79073
1570525880.80636
1570525880.82198
1570525880.83761
1570525880.85324
1570525880.86886
1570525880.88449
1570525880.90011
1570525880.91574
1570525880.93136
1570525880.94699
1570525880.96262
1570525880.97824
1570525880.99387
1570525881.00949
1570525881.02512
1570525881.04074
1570525881.05637
1570525881.072
1570525881.08762
1570525881.10325
1570525881.11887
1570525881.1345
1570525881.15012
1570525881.16575
1570525881.18138
1570525881.197
1570525881.21263
1570525881.22825
1570525881.24388
1570525881.2595
1570525881.27513
1570525881.29076
1570525881.30638
1570525881.32201
1570525881.33763
1570525881.35326
1570525881.36888
1570525881.38451
1570525881.40014
1570525881.41576
1570525881.43139
1570525881.44701
1570525881.46264
1570525881.47826
1570525881.49389
1570525881.50952
1570525881.52514
1570525881.54077
1570525881.55639
1570525881.57202
1570525881.58764
1570525881.60327
1570525881.6189
1570525881.63452
1570525881.65015
1570525881.66577
1570525881.6814
1570525881.69702
1570525881.71265
1570525881.72828
1570525881.7439
1570525881.75953
1570525881.77515
1570525881.79078
1570525881.8064
1570525881.82203
1570525881.83766
1570525881.85328
1570525881.86891
1570525881.88453
1570525881.90016
1570525881.91578
1570525881.93141
1570525881.94704
1570525881.96266
1570525881.97829
1570525881.99391
1570525882.00954
1570525882.02516
1570525882.04079
1570525882.05642
1570525882.07204
1570525882.08767
1570525882.10329
1570525882.11892
1570525882.13454
1570525882.15017
1570525882.1658
1570525882.18142
1570525882.19705
1570525882.21267
1570525882.2283
1570525882.24393
1570525882.25955
1570525882.27518
1570525882.2908
1570525882.30643
1570525882.32205
1570525882.33768
1570525882.35331
1570525882.36893
1570525882.38456
1570525882.40018
1570525882.41581
1570525882.43143
1570525882.44706
1570525882.46269
1570525882.47831
1570525882.49394
1570525882.50956
1570525882.52519
1570525882.54081
1570525882.55644
1570525882.57207
1570525882.58769
1570525882.60332
1570525882.61894
1570525882.63457
1570525882.65019
1570525882.66582
1570525882.68145
1570525882.69707
1570525882.7127
1570525882.72832
1570525882.74395
1570525882.75957
1570525882.7752
1570525882.79083
1570525882.80645
1570525882.82208
1570525882.8377
1570525882.85333
1570525882.86895
1570525882.88458
1570525882.90021
1570525882.91583
1570525882.93146
1570525882.94708
1570525882.96271
1570525882.97833
1570525882.99396
1570525883.00959
1570525883.02521
1570525883.04084
1570525883.05646
1570525883.07209
1570525883.08771
1570525883.10334
1570525883.11897
1570525883.13459
1570525883.15022
1570525883.16584
1570525883.18147
1570525883.19709
1570525883.21272
1570525883.22835
1570525883.24397
1570525883.2596
1570525883.27522
1570525883.29085
1570525883.30647
1570525883.3221
1570525883.33773
1570525883.35335
1570525883.36898
1570525883.3846
1570525883.40023
1570525883.41585
1570525883.43148
1570525883.44711
1570525883.46273
1570525883.47836
1570525883.49398
1570525883.50961
1570525883.52523
1570525883.54086
1570525883.55649
1570525883.57211
1570525883.58774
1570525883.60336
1570525883.61899
1570525883.63461
1570525883.65024
1570525883.66587
1570525883.68149
1570525883.69712
1570525883.71274
1570525883.72837
1570525883.74399
1570525883.75962
1570525883.77525
1570525883.79087
1570525883.8065
1570525883.82212
1570525883.83775
1570525883.85337
1570525883.869
1570525883.88463
1570525883.90025
1570525883.91588
1570525883.9315
1570525883.94713
1570525883.96275
1570525883.97838
1570525883.99401
1570525884.00963
1570525884.02526
1570525884.04088
1570525884.05651
1570525884.07213
1570525884.08776
1570525884.10339
1570525884.11901
1570525884.13464
1570525884.15026
1570525884.16589
1570525884.18151
1570525884.19714
1570525884.21277
1570525884.22839
1570525884.24402
1570525884.25964
1570525884.27527
1570525884.29089
1570525884.30652
1570525884.32215
1570525884.33777
1570525884.3534
1570525884.36902
1570525884.38465
1570525884.40027
1570525884.4159
1570525884.43153
1570525884.44715
1570525884.46278
1570525884.4784
1570525884.49403
1570525884.50966
1570525884.52528
1570525884.54091
1570525884.55653
1570525884.57216
1570525884.58778
1570525884.60341
1570525884.61904
1570525884.63466
1570525884.65029
1570525884.66591
1570525884.68154
1570525884.69716
1570525884.71279
1570525884.72842
1570525884.74404
1570525884.75967
1570525884.77529
1570525884.79092
1570525884.80654
1570525884.82217
1570525884.8378
1570525884.85342
1570525884.86905
1570525884.88467
1570525884.9003
1570525884.91592
1570525884.93155
1570525884.94718
1570525884.9628
1570525884.97843
1570525884.99405
1570525885.00968
1570525885.0253
1570525885.04093
1570525885.05656
1570525885.07218
1570525885.08781
1570525885.10343
1570525885.11906
1570525885.13468
1570525885.15031
1570525885.16594
1570525885.18156
1570525885.19719
1570525885.21281
1570525885.22844
1570525885.24406
1570525885.25969
1570525885.27532
1570525885.29094
1570525885.30657
1570525885.32219
1570525885.33782
1570525885.35344
1570525885.36907
1570525885.3847
1570525885.40032
1570525885.41595
1570525885.43157
1570525885.4472
1570525885.46282
1570525885.47845
1570525885.49408
1570525885.5097
1570525885.52533
1570525885.54095
1570525885.55658
1570525885.5722
1570525885.58783
1570525885.60346
1570525885.61908
1570525885.63471
1570525885.65033
1570525885.66596
1570525885.68158
1570525885.69721
1570525885.71284
1570525885.72846
1570525885.74409
1570525885.75971
1570525885.77534
1570525885.79096
1570525885.80659
1570525885.82222
1570525885.83784
1570525885.85347
1570525885.86909
1570525885.88472
1570525885.90034
1570525885.91597
1570525885.9316
1570525885.94722
1570525885.96285
1570525885.97847
1570525885.9941
1570525886.00972
1570525886.02535
1570525886.04098
1570525886.0566
1570525886.07223
1570525886.08785
1570525886.10348
1570525886.1191
1570525886.13473
1570525886.15036
1570525886.16598
1570525886.18161
1570525886.19723
1570525886.21286
1570525886.22848
1570525886.24411
1570525886.25974
1570525886.27536
1570525886.29099
1570525886.30661
1570525886.32224
1570525886.33786
1570525886.35349
1570525886.36912
1570525886.38474
1570525886.40037
1570525886.41599
1570525886.43162
1570525886.44724
1570525886.46287
1570525886.4785
1570525886.49412
1570525886.50975
1570525886.52537
1570525886.541
1570525886.55662
1570525886.57225
1570525886.58788
1570525886.6035
1570525886.61913
1570525886.63475
1570525886.65038
1570525886.666
1570525886.68163
1570525886.69726
1570525886.71288
1570525886.72851
1570525886.74413
1570525886.75976
1570525886.77538
1570525886.79101
1570525886.80664
1570525886.82226
1570525886.83789
1570525886.85351
1570525886.86914
1570525886.88476
1570525886.90039
1570525886.91602
1570525886.93164
1570525886.94727
1570525886.96289
1570525886.97852
1570525886.99414
1570525887.00977
1570525887.0254
1570525887.04102
1570525887.05665
1570525887.07227
1570525887.0879
1570525887.10353
1570525887.11915
1570525887.13478
1570525887.1504
1570525887.16603
1570525887.18165
1570525887.19728
1570525887.21291
1570525887.22853
1570525887.24416
1570525887.25978
1570525887.27541
1570525887.29103
1570525887.30666
1570525887.32229
1570525887.33791
1570525887.35354
1570525887.36916
1570525887.38479
1570525887.40041
1570525887.41604
1570525887.43167
1570525887.44729
1570525887.46292
1570525887.47854
1570525887.49417
1570525887.50979
1570525887.52542
1570525887.54105
1570525887.55667
1570525887.5723
1570525887.58792
1570525887.60355
1570525887.61917
1570525887.6348
1570525887.65043
1570525887.66605
1570525887.68168
1570525887.6973
1570525887.71293
1570525887.72855
1570525887.74418
1570525887.75981
1570525887.77543
1570525887.79106
1570525887.80668
1570525887.82231
1570525887.83793
1570525887.85356
1570525887.86919
1570525887.88481
1570525887.90044
1570525887.91606
1570525887.93169
1570525887.94731
1570525887.96294
1570525887.97857
1570525887.99419
1570525888.00982
1570525888.02544
1570525888.04107
1570525888.05669
1570525888.07232
1570525888.08795
1570525888.10357
1570525888.1192
1570525888.13482
1570525888.15045
1570525888.16607
1570525888.1817
1570525888.19733
1570525888.21295
1570525888.22858
1570525888.2442
1570525888.25983
1570525888.27545
1570525888.29108
1570525888.30671
1570525888.32233
1570525888.33796
1570525888.35358
1570525888.36921
1570525888.38483
1570525888.40046
1570525888.41609
1570525888.43171
1570525888.44734
1570525888.46296
1570525888.47859
1570525888.49421
1570525888.50984
1570525888.52547
1570525888.54109
1570525888.55672
1570525888.57234
1570525888.58797
1570525888.60359
1570525888.61922
1570525888.63485
1570525888.65047
1570525888.6661
1570525888.68172
1570525888.69735
1570525888.71297
1570525888.7286
1570525888.74423
1570525888.75985
1570525888.77548
1570525888.7911
1570525888.80673
1570525888.82235
1570525888.83798
1570525888.85361
1570525888.86923
1570525888.88486
1570525888.90048
1570525888.91611
1570525888.93173
1570525888.94736
1570525888.96299
1570525888.97861
1570525888.99424
1570525889.00986
1570525889.02549
1570525889.04111
1570525889.05674
1570525889.07237
1570525889.08799
1570525889.10362
1570525889.11924
1570525889.13487
1570525889.15049
1570525889.16612
1570525889.18175
1570525889.19737
1570525889.213
1570525889.22862
1570525889.24425
1570525889.25987
1570525889.2755
1570525889.29113
1570525889.30675
1570525889.32238
1570525889.338
1570525889.35363
1570525889.36926
1570525889.38488
1570525889.40051
1570525889.41613
1570525889.43176
1570525889.44738
1570525889.46301
1570525889.47864
1570525889.49426
1570525889.50989
1570525889.52551
1570525889.54114
1570525889.55676
1570525889.57239
1570525889.58802
1570525889.60364
1570525889.61927
1570525889.63489
1570525889.65052
1570525889.66614
1570525889.68177
1570525889.6974
1570525889.71302
1570525889.72865
1570525889.74427
1570525889.7599
1570525889.77552
1570525889.79115
1570525889.80678
1570525889.8224
1570525889.83803
1570525889.85365
1570525889.86928
1570525889.8849
1570525889.90053
1570525889.91616
1570525889.93178
1570525889.94741
1570525889.96303
1570525889.97866
1570525889.99428
1570525890.00991
1570525890.02554
1570525890.04116
1570525890.05679
1570525890.07241
1570525890.08804
1570525890.10366
1570525890.11929
1570525890.13492
1570525890.15054
1570525890.16617
1570525890.18179
1570525890.19742
1570525890.21304
1570525890.22867
1570525890.2443
1570525890.25992
1570525890.27555
1570525890.29117
1570525890.3068
1570525890.32242
1570525890.33805
1570525890.35368
1570525890.3693
1570525890.38493
1570525890.40055
1570525890.41618
1570525890.4318
1570525890.44743
1570525890.46306
1570525890.47868
1570525890.49431
1570525890.50993
1570525890.52556
1570525890.54118
1570525890.55681
1570525890.57244
1570525890.58806
1570525890.60369
1570525890.61931
1570525890.63494
1570525890.65056
1570525890.66619
1570525890.68182
1570525890.69744
1570525890.71307
1570525890.72869
1570525890.74432
1570525890.75994
1570525890.77557
1570525890.7912
1570525890.80682
1570525890.82245
1570525890.83807
1570525890.8537
1570525890.86932
1570525890.88495
1570525890.90058
1570525890.9162
1570525890.93183
1570525890.94745
1570525890.96308
1570525890.9787
1570525890.99433
1570525891.00996
1570525891.02558
1570525891.04121
1570525891.05683
1570525891.07246
1570525891.08808
1570525891.10371
1570525891.11934
1570525891.13496
1570525891.15059
1570525891.16621
1570525891.18184
1570525891.19746
1570525891.21309
1570525891.22872
1570525891.24434
1570525891.25997
1570525891.27559
1570525891.29122
1570525891.30684
1570525891.32247
1570525891.3381
1570525891.35372
1570525891.36935
1570525891.38497
1570525891.4006
1570525891.41622
1570525891.43185
1570525891.44748
1570525891.4631
1570525891.47873
1570525891.49435
1570525891.50998
1570525891.5256
1570525891.54123
1570525891.55686
1570525891.57248
1570525891.58811
1570525891.60373
1570525891.61936
1570525891.63498
1570525891.65061
1570525891.66624
1570525891.68186
1570525891.69749
1570525891.71311
1570525891.72874
1570525891.74436
1570525891.75999
1570525891.77562
1570525891.79124
1570525891.80687
1570525891.82249
1570525891.83812
1570525891.85374
1570525891.86937
1570525891.885
1570525891.90062
1570525891.91625
1570525891.93187
1570525891.9475
1570525891.96313
1570525891.97875
1570525891.99438
1570525892.01
1570525892.02563
1570525892.04125
1570525892.05688
1570525892.07251
1570525892.08813
1570525892.10376
1570525892.11938
1570525892.13501
1570525892.15063
1570525892.16626
1570525892.18189
1570525892.19751
1570525892.21314
1570525892.22876
1570525892.24439
1570525892.26001
1570525892.27564
1570525892.29127
1570525892.30689
1570525892.32252
1570525892.33814
1570525892.35377
1570525892.36939
1570525892.38502
1570525892.40065
1570525892.41627
1570525892.4319
1570525892.44752
1570525892.46315
1570525892.47877
1570525892.4944
1570525892.51003
1570525892.52565
1570525892.54128
1570525892.5569
1570525892.57253
1570525892.58815
1570525892.60378
1570525892.61941
1570525892.63503
1570525892.65066
1570525892.66628
1570525892.68191
1570525892.69753
1570525892.71316
1570525892.72879
1570525892.74441
1570525892.76004
1570525892.77566
1570525892.79129
1570525892.80691
1570525892.82254
1570525892.83817
1570525892.85379
1570525892.86942
1570525892.88504
1570525892.90067
1570525892.91629
1570525892.93192
1570525892.94755
1570525892.96317
1570525892.9788
1570525892.99442
1570525893.01005
1570525893.02567
1570525893.0413
1570525893.05693
1570525893.07255
1570525893.08818
1570525893.1038
1570525893.11943
1570525893.13505
1570525893.15068
1570525893.16631
1570525893.18193
1570525893.19756
1570525893.21318
1570525893.22881
1570525893.24443
1570525893.26006
1570525893.27569
1570525893.29131
1570525893.30694
1570525893.32256
1570525893.33819
1570525893.35381
1570525893.36944
1570525893.38507
1570525893.40069
1570525893.41632
1570525893.43194
1570525893.44757
1570525893.46319
1570525893.47882
1570525893.49445
1570525893.51007
1570525893.5257
1570525893.54132
1570525893.55695
1570525893.57257
1570525893.5882
1570525893.60383
1570525893.61945
1570525893.63508
1570525893.6507
1570525893.66633
1570525893.68195
1570525893.69758
1570525893.71321
1570525893.72883
1570525893.74446
1570525893.76008
1570525893.77571
1570525893.79133
1570525893.80696
1570525893.82259
1570525893.83821
1570525893.85384
1570525893.86946
1570525893.88509
1570525893.90071
1570525893.91634
1570525893.93197
1570525893.94759
1570525893.96322
1570525893.97884
1570525893.99447
1570525894.01009
1570525894.02572
1570525894.04135
1570525894.05697
1570525894.0726
1570525894.08822
1570525894.10385
1570525894.11947
1570525894.1351
1570525894.15073
1570525894.16635
1570525894.18198
1570525894.1976
1570525894.21323
1570525894.22886
1570525894.24448
1570525894.26011
1570525894.27573
1570525894.29136
1570525894.30698
1570525894.32261
1570525894.33824
1570525894.35386
1570525894.36949
1570525894.38511
1570525894.40074
1570525894.41636
1570525894.43199
1570525894.44762
1570525894.46324
1570525894.47887
1570525894.49449
1570525894.51012
1570525894.52574
1570525894.54137
1570525894.557
1570525894.57262
1570525894.58825
1570525894.60387
1570525894.6195
1570525894.63512
1570525894.65075
1570525894.66638
1570525894.682
1570525894.69763
1570525894.71325
1570525894.72888
1570525894.7445
1570525894.76013
1570525894.77576
1570525894.79138
1570525894.80701
1570525894.82263
1570525894.83826
1570525894.85388
1570525894.86951
1570525894.88514
1570525894.90076
1570525894.91639
1570525894.93201
1570525894.94764
1570525894.96326
1570525894.97889
1570525894.99452
1570525895.01014
1570525895.02577
1570525895.04139
1570525895.05702
1570525895.07264
1570525895.08827
1570525895.1039
1570525895.11952
1570525895.13515
1570525895.15077
1570525895.1664
1570525895.18202
1570525895.19765
1570525895.21328
1570525895.2289
1570525895.24453
1570525895.26015
1570525895.27578
1570525895.2914
1570525895.30703
1570525895.32266
1570525895.33828
1570525895.35391
1570525895.36953
1570525895.38516
1570525895.40078
1570525895.41641
1570525895.43204
1570525895.44766
1570525895.46329
1570525895.47891
1570525895.49454
1570525895.51016
1570525895.52579
1570525895.54142
1570525895.55704
1570525895.57267
1570525895.58829
1570525895.60392
1570525895.61954
1570525895.63517
1570525895.6508
1570525895.66642
1570525895.68205
1570525895.69767
1570525895.7133
1570525895.72892
1570525895.74455
1570525895.76018
1570525895.7758
1570525895.79143
1570525895.80705
1570525895.82268
1570525895.8383
1570525895.85393
1570525895.86956
1570525895.88518
1570525895.90081
1570525895.91643
1570525895.93206
1570525895.94768
1570525895.96331
1570525895.97894
1570525895.99456
1570525896.01019
1570525896.02581
1570525896.04144
1570525896.05706
1570525896.07269
1570525896.08832
1570525896.10394
1570525896.11957
1570525896.13519
1570525896.15082
1570525896.16644
1570525896.18207
1570525896.1977
1570525896.21332
1570525896.22895
1570525896.24457
1570525896.2602
1570525896.27582
1570525896.29145
1570525896.30708
1570525896.3227
1570525896.33833
1570525896.35395
1570525896.36958
1570525896.38521
1570525896.40083
1570525896.41646
1570525896.43208
1570525896.44771
1570525896.46333
1570525896.47896
1570525896.49459
1570525896.51021
1570525896.52584
1570525896.54146
1570525896.55709
1570525896.57271
1570525896.58834
1570525896.60397
1570525896.61959
1570525896.63522
1570525896.65084
1570525896.66647
1570525896.68209
1570525896.69772
1570525896.71335
1570525896.72897
1570525896.7446
1570525896.76022
1570525896.77585
1570525896.79147
1570525896.8071
1570525896.82273
1570525896.83835
1570525896.85398
1570525896.8696
1570525896.88523
1570525896.90085
1570525896.91648
1570525896.93211
1570525896.94773
1570525896.96336
1570525896.97898
1570525896.99461
1570525897.01023
1570525897.02586
1570525897.04149
1570525897.05711
1570525897.07274
1570525897.08836
1570525897.10399
1570525897.11961
1570525897.13524
1570525897.15087
1570525897.16649
1570525897.18212
1570525897.19774
1570525897.21337
1570525897.22899
1570525897.24462
1570525897.26025
1570525897.27587
1570525897.2915
1570525897.30712
1570525897.32275
1570525897.33837
1570525897.354
1570525897.36963
1570525897.38525
1570525897.40088
1570525897.4165
1570525897.43213
1570525897.44775
1570525897.46338
1570525897.47901
1570525897.49463
1570525897.51026
1570525897.52588
1570525897.54151
1570525897.55713
1570525897.57276
1570525897.58839
1570525897.60401
1570525897.61964
1570525897.63526
1570525897.65089
1570525897.66651
1570525897.68214
1570525897.69777
1570525897.71339
1570525897.72902
1570525897.74464
1570525897.76027
1570525897.77589
1570525897.79152
1570525897.80715
1570525897.82277
1570525897.8384
1570525897.85402
1570525897.86965
1570525897.88527
1570525897.9009
1570525897.91653
1570525897.93215
1570525897.94778
1570525897.9634
1570525897.97903
1570525897.99465
1570525898.01028
1570525898.02591
1570525898.04153
1570525898.05716
1570525898.07278
1570525898.08841
1570525898.10403
1570525898.11966
1570525898.13529
1570525898.15091
1570525898.16654
1570525898.18216
1570525898.19779
1570525898.21341
1570525898.22904
1570525898.24467
1570525898.26029
1570525898.27592
1570525898.29154
1570525898.30717
1570525898.32279
1570525898.33842
1570525898.35405
1570525898.36967
1570525898.3853
1570525898.40092
1570525898.41655
1570525898.43217
1570525898.4478
1570525898.46343
1570525898.47905
1570525898.49468
1570525898.5103
1570525898.52593
1570525898.54155
1570525898.55718
1570525898.57281
1570525898.58843
1570525898.60406
1570525898.61968
1570525898.63531
1570525898.65093
1570525898.66656
1570525898.68219
1570525898.69781
1570525898.71344
1570525898.72906
1570525898.74469
1570525898.76031
1570525898.77594
1570525898.79157
1570525898.80719
1570525898.82282
1570525898.83844
1570525898.85407
1570525898.86969
1570525898.88532
1570525898.90095
1570525898.91657
1570525898.9322
1570525898.94782
1570525898.96345
1570525898.97907
1570525898.9947
1570525899.01033
1570525899.02595
1570525899.04158
1570525899.0572
1570525899.07283
1570525899.08846
1570525899.10408
1570525899.11971
1570525899.13533
1570525899.15096
1570525899.16658
1570525899.18221
1570525899.19784
1570525899.21346
1570525899.22909
1570525899.24471
1570525899.26034
1570525899.27596
1570525899.29159
1570525899.30722
1570525899.32284
1570525899.33847
1570525899.35409
1570525899.36972
1570525899.38534
1570525899.40097
1570525899.4166
1570525899.43222
1570525899.44785
1570525899.46347
1570525899.4791
1570525899.49472
1570525899.51035
1570525899.52598
1570525899.5416
1570525899.55723
1570525899.57285
1570525899.58848
1570525899.6041
1570525899.61973
1570525899.63536
1570525899.65098
1570525899.66661
1570525899.68223
1570525899.69786
1570525899.71348
1570525899.72911
1570525899.74474
1570525899.76036
1570525899.77599
1570525899.79161
1570525899.80724
1570525899.82286
1570525899.83849
1570525899.85412
1570525899.86974
1570525899.88537
1570525899.90099
1570525899.91662
1570525899.93224
1570525899.94787
1570525899.9635
1570525899.97912
1570525899.99475
1570525900.01037
1570525900.026
1570525900.04162
1570525900.05725
1570525900.07288
1570525900.0885
1570525900.10413
1570525900.11975
1570525900.13538
1570525900.151
1570525900.16663
1570525900.18226
1570525900.19788
1570525900.21351
1570525900.22913
1570525900.24476
1570525900.26038
1570525900.27601
1570525900.29164
1570525900.30726
1570525900.32289
1570525900.33851
1570525900.35414
1570525900.36976
1570525900.38539
1570525900.40102
1570525900.41664
1570525900.43227
1570525900.44789
1570525900.46352
1570525900.47914
1570525900.49477
1570525900.5104
1570525900.52602
1570525900.54165
1570525900.55727
1570525900.5729
1570525900.58852
1570525900.60415
1570525900.61978
1570525900.6354
1570525900.65103
1570525900.66665
1570525900.68228
1570525900.6979
1570525900.71353
1570525900.72916
1570525900.74478
1570525900.76041
1570525900.77603
1570525900.79166
1570525900.80728
1570525900.82291
1570525900.83854
1570525900.85416
1570525900.86979
1570525900.88541
1570525900.90104
1570525900.91666
1570525900.93229
1570525900.94792
1570525900.96354
1570525900.97917
1570525900.99479
1570525901.01042
1570525901.02604
1570525901.04167
1570525901.0573
1570525901.07292
1570525901.08855
1570525901.10417
1570525901.1198
1570525901.13542
1570525901.15105
1570525901.16668
1570525901.1823
1570525901.19793
1570525901.21355
1570525901.22918
1570525901.24481
1570525901.26043
1570525901.27606
1570525901.29168
1570525901.30731
1570525901.32293
1570525901.33856
1570525901.35419
1570525901.36981
1570525901.38544
1570525901.40106
1570525901.41669
1570525901.43231
1570525901.44794
1570525901.46357
1570525901.47919
1570525901.49482
1570525901.51044
1570525901.52607
1570525901.54169
1570525901.55732
1570525901.57295
1570525901.58857
1570525901.6042
1570525901.61982
1570525901.63545
1570525901.65107
1570525901.6667
1570525901.68233
1570525901.69795
1570525901.71358
1570525901.7292
1570525901.74483
1570525901.76045
1570525901.77608
1570525901.79171
1570525901.80733
1570525901.82296
1570525901.83858
1570525901.85421
1570525901.86983
1570525901.88546
1570525901.90109
1570525901.91671
1570525901.93234
1570525901.94796
1570525901.96359
1570525901.97921
1570525901.99484
1570525902.01047
1570525902.02609
1570525902.04172
1570525902.05734
1570525902.07297
1570525902.08859
1570525902.10422
1570525902.11985
1570525902.13547
1570525902.1511
1570525902.16672
1570525902.18235
1570525902.19797
1570525902.2136
1570525902.22923
1570525902.24485
1570525902.26048
1570525902.2761
1570525902.29173
1570525902.30735
1570525902.32298
1570525902.33861
1570525902.35423
1570525902.36986
1570525902.38548
1570525902.40111
1570525902.41673
1570525902.43236
1570525902.44799
1570525902.46361
1570525902.47924
1570525902.49486
1570525902.51049
1570525902.52611
1570525902.54174
1570525902.55737
1570525902.57299
1570525902.58862
1570525902.60424
1570525902.61987
1570525902.63549
1570525902.65112
1570525902.66675
1570525902.68237
1570525902.698
1570525902.71362
1570525902.72925
1570525902.74487
1570525902.7605
1570525902.77613
1570525902.79175
1570525902.80738
1570525902.823
1570525902.83863
1570525902.85425
1570525902.86988
1570525902.88551
1570525902.90113
1570525902.91676
1570525902.93238
1570525902.94801
1570525902.96363
1570525902.97926
1570525902.99489
1570525903.01051
1570525903.02614
1570525903.04176
1570525903.05739
1570525903.07301
1570525903.08864
1570525903.10427
1570525903.11989
1570525903.13552
1570525903.15114
1570525903.16677
1570525903.18239
1570525903.19802
1570525903.21365
1570525903.22927
1570525903.2449
1570525903.26052
1570525903.27615
1570525903.29177
1570525903.3074
1570525903.32303
1570525903.33865
1570525903.35428
1570525903.3699
1570525903.38553
1570525903.40115
1570525903.41678
1570525903.43241
1570525903.44803
1570525903.46366
1570525903.47928
1570525903.49491
1570525903.51054
1570525903.52616
1570525903.54179
1570525903.55741
1570525903.57304
1570525903.58866
1570525903.60429
1570525903.61992
1570525903.63554
1570525903.65117
1570525903.66679
1570525903.68242
1570525903.69804
1570525903.71367
1570525903.7293
1570525903.74492
1570525903.76055
1570525903.77617
1570525903.7918
1570525903.80742
1570525903.82305
1570525903.83868
1570525903.8543
1570525903.86993
1570525903.88555
1570525903.90118
1570525903.9168
1570525903.93243
1570525903.94806
1570525903.96368
1570525903.97931
1570525903.99493
1570525904.01056
1570525904.02618
1570525904.04181
1570525904.05744
1570525904.07306
1570525904.08869
1570525904.10431
1570525904.11994
1570525904.13556
1570525904.15119
1570525904.16682
1570525904.18244
1570525904.19807
1570525904.21369
1570525904.22932
1570525904.24494
1570525904.26057
1570525904.2762
1570525904.29182
1570525904.30745
1570525904.32307
1570525904.3387
1570525904.35432
1570525904.36995
1570525904.38558
1570525904.4012
1570525904.41683
1570525904.43245
1570525904.44808
1570525904.4637
1570525904.47933
1570525904.49496
1570525904.51058
1570525904.52621
1570525904.54183
1570525904.55746
1570525904.57308
1570525904.58871
1570525904.60434
1570525904.61996
1570525904.63559
1570525904.65121
1570525904.66684
1570525904.68246
1570525904.69809
1570525904.71372
1570525904.72934
1570525904.74497
1570525904.76059
1570525904.77622
1570525904.79184
1570525904.80747
1570525904.8231
1570525904.83872
1570525904.85435
1570525904.86997
1570525904.8856
1570525904.90122
1570525904.91685
1570525904.93248
1570525904.9481
1570525904.96373
1570525904.97935
1570525904.99498
1570525905.0106
1570525905.02623
1570525905.04186
1570525905.05748
1570525905.07311
1570525905.08873
1570525905.10436
1570525905.11998
1570525905.13561
1570525905.15124
1570525905.16686
1570525905.18249
1570525905.19811
1570525905.21374
1570525905.22936
1570525905.24499
1570525905.26062
1570525905.27624
1570525905.29187
1570525905.30749
1570525905.32312
1570525905.33874
1570525905.35437
1570525905.37
1570525905.38562
1570525905.40125
1570525905.41687
1570525905.4325
1570525905.44812
1570525905.46375
1570525905.47938
1570525905.495
1570525905.51063
1570525905.52625
1570525905.54188
1570525905.5575
1570525905.57313
1570525905.58876
1570525905.60438
1570525905.62001
1570525905.63563
1570525905.65126
1570525905.66688
1570525905.68251
1570525905.69814
1570525905.71376
1570525905.72939
1570525905.74501
1570525905.76064
1570525905.77626
1570525905.79189
1570525905.80752
1570525905.82314
1570525905.83877
1570525905.85439
1570525905.87002
1570525905.88564
1570525905.90127
1570525905.9169
1570525905.93252
1570525905.94815
1570525905.96377
1570525905.9794
1570525905.99502
1570525906.01065
1570525906.02628
1570525906.0419
1570525906.05753
1570525906.07315
1570525906.08878
1570525906.10441
1570525906.12003
1570525906.13566
1570525906.15128
1570525906.16691
1570525906.18253
1570525906.19816
1570525906.21379
1570525906.22941
1570525906.24504
1570525906.26066
1570525906.27629
1570525906.29191
1570525906.30754
1570525906.32317
1570525906.33879
1570525906.35442
1570525906.37004
1570525906.38567
1570525906.40129
1570525906.41692
1570525906.43255
1570525906.44817
1570525906.4638
1570525906.47942
1570525906.49505
1570525906.51067
1570525906.5263
1570525906.54193
1570525906.55755
1570525906.57318
1570525906.5888
1570525906.60443
1570525906.62005
1570525906.63568
1570525906.65131
1570525906.66693
1570525906.68256
1570525906.69818
1570525906.71381
1570525906.72943
1570525906.74506
1570525906.76069
1570525906.77631
1570525906.79194
1570525906.80756
1570525906.82319
1570525906.83881
1570525906.85444
1570525906.87007
1570525906.88569
1570525906.90132
1570525906.91694
1570525906.93257
1570525906.94819
1570525906.96382
1570525906.97945
1570525906.99507
1570525907.0107
1570525907.02632
1570525907.04195
1570525907.05757
1570525907.0732
1570525907.08883
1570525907.10445
1570525907.12008
1570525907.1357
1570525907.15133
1570525907.16695
1570525907.18258
1570525907.19821
1570525907.21383
1570525907.22946
1570525907.24508
1570525907.26071
1570525907.27633
1570525907.29196
1570525907.30759
1570525907.32321
1570525907.33884
1570525907.35446
1570525907.37009
1570525907.38571
1570525907.40134
1570525907.41697
1570525907.43259
1570525907.44822
1570525907.46384
1570525907.47947
1570525907.49509
1570525907.51072
1570525907.52635
1570525907.54197
1570525907.5576
1570525907.57322
1570525907.58885
1570525907.60447
1570525907.6201
1570525907.63573
1570525907.65135
1570525907.66698
1570525907.6826
1570525907.69823
1570525907.71385
1570525907.72948
1570525907.74511
1570525907.76073
1570525907.77636
1570525907.79198
1570525907.80761
1570525907.82323
1570525907.83886
1570525907.85449
1570525907.87011
1570525907.88574
1570525907.90136
1570525907.91699
1570525907.93261
1570525907.94824
1570525907.96387
1570525907.97949
1570525907.99512
1570525908.01074
1570525908.02637
1570525908.04199
1570525908.05762
1570525908.07325
1570525908.08887
1570525908.1045
1570525908.12012
1570525908.13575
1570525908.15137
1570525908.167
1570525908.18263
1570525908.19825
1570525908.21388
1570525908.2295
1570525908.24513
1570525908.26075
1570525908.27638
1570525908.29201
1570525908.30763
1570525908.32326
1570525908.33888
1570525908.35451
1570525908.37014
1570525908.38576
1570525908.40139
1570525908.41701
1570525908.43264
1570525908.44826
1570525908.46389
1570525908.47952
1570525908.49514
1570525908.51077
1570525908.52639
1570525908.54202
1570525908.55764
1570525908.57327
1570525908.5889
1570525908.60452
1570525908.62015
1570525908.63577
1570525908.6514
1570525908.66702
1570525908.68265
1570525908.69828
1570525908.7139
1570525908.72953
1570525908.74515
1570525908.76078
1570525908.7764
1570525908.79203
1570525908.80766
1570525908.82328
1570525908.83891
1570525908.85453
1570525908.87016
1570525908.88578
1570525908.90141
1570525908.91704
1570525908.93266
1570525908.94829
1570525908.96391
1570525908.97954
1570525908.99516
1570525909.01079
1570525909.02642
1570525909.04204
1570525909.05767
1570525909.07329
1570525909.08892
1570525909.10454
1570525909.12017
1570525909.1358
1570525909.15142
1570525909.16705
1570525909.18267
1570525909.1983
1570525909.21392
1570525909.22955
1570525909.24518
1570525909.2608
1570525909.27643
1570525909.29205
1570525909.30768
1570525909.3233
1570525909.33893
1570525909.35456
1570525909.37018
1570525909.38581
1570525909.40143
1570525909.41706
1570525909.43268
1570525909.44831
1570525909.46394
1570525909.47956
1570525909.49519
1570525909.51081
1570525909.52644
1570525909.54206
1570525909.55769
1570525909.57332
1570525909.58894
1570525909.60457
1570525909.62019
1570525909.63582
1570525909.65144
1570525909.66707
1570525909.6827
1570525909.69832
1570525909.71395
1570525909.72957
1570525909.7452
1570525909.76082
1570525909.77645
1570525909.79208
1570525909.8077
1570525909.82333
1570525909.83895
1570525909.85458
1570525909.8702
1570525909.88583
1570525909.90146
1570525909.91708
1570525909.93271
1570525909.94833
1570525909.96396
1570525909.97958
1570525909.99521
1570525910.01084
1570525910.02646
1570525910.04209
1570525910.05771
1570525910.07334
1570525910.08896
1570525910.10459
1570525910.12022
1570525910.13584
1570525910.15147
1570525910.16709
1570525910.18272
1570525910.19834
1570525910.21397
1570525910.2296
1570525910.24522
1570525910.26085
1570525910.27647
1570525910.2921
1570525910.30772
1570525910.32335
1570525910.33898
1570525910.3546
1570525910.37023
1570525910.38585
1570525910.40148
1570525910.4171
1570525910.43273
1570525910.44836
1570525910.46398
1570525910.47961
1570525910.49523
1570525910.51086
1570525910.52648
1570525910.54211
1570525910.55774
1570525910.57336
1570525910.58899
1570525910.60461
1570525910.62024
1570525910.63586
1570525910.65149
1570525910.66712
1570525910.68274
1570525910.69837
1570525910.71399
1570525910.72962
1570525910.74524
1570525910.76087
1570525910.7765
1570525910.79212
1570525910.80775
1570525910.82337
1570525910.839
1570525910.85462
1570525910.87025
1570525910.88588
1570525910.9015
1570525910.91713
1570525910.93275
1570525910.94838
1570525910.96401
1570525910.97963
1570525910.99526
1570525911.01088
1570525911.02651
1570525911.04213
1570525911.05776
1570525911.07339
1570525911.08901
1570525911.10464
1570525911.12026
1570525911.13589
1570525911.15151
1570525911.16714
1570525911.18277
1570525911.19839
1570525911.21402
1570525911.22964
1570525911.24527
1570525911.26089
1570525911.27652
1570525911.29215
1570525911.30777
1570525911.3234
1570525911.33902
1570525911.35465
1570525911.37027
1570525911.3859
1570525911.40153
1570525911.41715
1570525911.43278
1570525911.4484
1570525911.46403
1570525911.47965
1570525911.49528
1570525911.51091
1570525911.52653
1570525911.54216
1570525911.55778
1570525911.57341
1570525911.58903
1570525911.60466
1570525911.62029
1570525911.63591
1570525911.65154
1570525911.66716
1570525911.68279
1570525911.69841
1570525911.71404
1570525911.72967
1570525911.74529
1570525911.76092
1570525911.77654
1570525911.79217
1570525911.80779
1570525911.82342
1570525911.83905
1570525911.85467
1570525911.8703
1570525911.88592
1570525911.90155
1570525911.91717
1570525911.9328
1570525911.94843
1570525911.96405
1570525911.97968
1570525911.9953
1570525912.01093
1570525912.02655
1570525912.04218
1570525912.05781
1570525912.07343
1570525912.08906
1570525912.10468
1570525912.12031
1570525912.13593
1570525912.15156
1570525912.16719
1570525912.18281
1570525912.19844
1570525912.21406
1570525912.22969
1570525912.24531
1570525912.26094
1570525912.27657
1570525912.29219
1570525912.30782
1570525912.32344
1570525912.33907
1570525912.35469
1570525912.37032
1570525912.38595
1570525912.40157
1570525912.4172
1570525912.43282
1570525912.44845
1570525912.46407
1570525912.4797
1570525912.49533
1570525912.51095
1570525912.52658
1570525912.5422
1570525912.55783
1570525912.57345
1570525912.58908
1570525912.60471
1570525912.62033
1570525912.63596
1570525912.65158
1570525912.66721
1570525912.68283
1570525912.69846
1570525912.71409
1570525912.72971
1570525912.74534
1570525912.76096
1570525912.77659
1570525912.79221
1570525912.80784
1570525912.82347
1570525912.83909
1570525912.85472
1570525912.87034
1570525912.88597
1570525912.90159
1570525912.91722
1570525912.93285
1570525912.94847
1570525912.9641
1570525912.97972
1570525912.99535
1570525913.01097
1570525913.0266
1570525913.04223
1570525913.05785
1570525913.07348
1570525913.0891
1570525913.10473
1570525913.12035
1570525913.13598
1570525913.15161
1570525913.16723
1570525913.18286
1570525913.19848
1570525913.21411
1570525913.22974
1570525913.24536
1570525913.26099
1570525913.27661
1570525913.29224
1570525913.30786
1570525913.32349
1570525913.33912
1570525913.35474
1570525913.37037
1570525913.38599
1570525913.40162
1570525913.41724
1570525913.43287
1570525913.4485
1570525913.46412
1570525913.47975
1570525913.49537
1570525913.511
1570525913.52662
1570525913.54225
1570525913.55788
1570525913.5735
1570525913.58913
1570525913.60475
1570525913.62038
1570525913.636
1570525913.65163
1570525913.66726
1570525913.68288
1570525913.69851
1570525913.71413
1570525913.72976
1570525913.74538
1570525913.76101
1570525913.77664
1570525913.79226
1570525913.80789
1570525913.82351
1570525913.83914
1570525913.85476
1570525913.87039
1570525913.88602
1570525913.90164
1570525913.91727
1570525913.93289
1570525913.94852
1570525913.96414
1570525913.97977
1570525913.9954
1570525914.01102
1570525914.02665
1570525914.04227
1570525914.0579
1570525914.07352
1570525914.08915
1570525914.10478
1570525914.1204
1570525914.13603
1570525914.15165
1570525914.16728
1570525914.1829
1570525914.19853
1570525914.21416
1570525914.22978
1570525914.24541
1570525914.26103
1570525914.27666
1570525914.29228
1570525914.30791
1570525914.32354
1570525914.33916
1570525914.35479
1570525914.37041
1570525914.38604
1570525914.40166
1570525914.41729
1570525914.43292
1570525914.44854
1570525914.46417
1570525914.47979
1570525914.49542
1570525914.51104
1570525914.52667
1570525914.5423
1570525914.55792
1570525914.57355
1570525914.58917
1570525914.6048
1570525914.62042
1570525914.63605
1570525914.65168
1570525914.6673
1570525914.68293
1570525914.69855
1570525914.71418
1570525914.7298
1570525914.74543
1570525914.76106
1570525914.77668
1570525914.79231
1570525914.80793
1570525914.82356
1570525914.83918
1570525914.85481
1570525914.87044
1570525914.88606
1570525914.90169
1570525914.91731
1570525914.93294
1570525914.94856
1570525914.96419
1570525914.97982
1570525914.99544
1570525915.01107
1570525915.02669
1570525915.04232
1570525915.05794
1570525915.07357
1570525915.0892
1570525915.10482
1570525915.12045
1570525915.13607
1570525915.1517
1570525915.16732
1570525915.18295
1570525915.19858
1570525915.2142
1570525915.22983
1570525915.24545
1570525915.26108
1570525915.2767
1570525915.29233
1570525915.30796
1570525915.32358
1570525915.33921
1570525915.35483
1570525915.37046
1570525915.38609
1570525915.40171
1570525915.41734
1570525915.43296
1570525915.44859
1570525915.46421
1570525915.47984
1570525915.49547
1570525915.51109
1570525915.52672
1570525915.54234
1570525915.55797
1570525915.57359
1570525915.58922
1570525915.60485
1570525915.62047
1570525915.6361
1570525915.65172
1570525915.66735
1570525915.68297
1570525915.6986
1570525915.71423
1570525915.72985
1570525915.74548
1570525915.7611
1570525915.77673
1570525915.79235
1570525915.80798
1570525915.82361
1570525915.83923
1570525915.85486
1570525915.87048
1570525915.88611
1570525915.90173
1570525915.91736
1570525915.93299
1570525915.94861
1570525915.96424
1570525915.97986
1570525915.99549
1570525916.01111
1570525916.02674
1570525916.04237
1570525916.05799
1570525916.07362
1570525916.08924
1570525916.10487
1570525916.12049
1570525916.13612
1570525916.15175
1570525916.16737
1570525916.183
1570525916.19862
1570525916.21425
1570525916.22987
1570525916.2455
1570525916.26113
1570525916.27675
1570525916.29238
1570525916.308
1570525916.32363
1570525916.33925
1570525916.35488
1570525916.37051
1570525916.38613
1570525916.40176
1570525916.41738
1570525916.43301
1570525916.44863
1570525916.46426
1570525916.47989
1570525916.49551
1570525916.51114
1570525916.52676
1570525916.54239
1570525916.55801
1570525916.57364
1570525916.58927
1570525916.60489
1570525916.62052
1570525916.63614
1570525916.65177
