1570528007.74861
1570528007.76424
1570528007.77986
1570528007.79549
1570528007.81112
1570528007.82674
1570528007.84237
1570528007.85799
1570528007.87362
1570528007.88924
1570528007.90487
1570528007.9205
1570528007.93612
1570528007.95175
1570528007.96737
1570528007.983
1570528007.99862
1570528008.01425
1570528008.02988
1570528008.0455
1570528008.06113
1570528008.07675
1570528008.09238
1570528008.108
1570528008.12363
1570528008.13926
1570528008.15488
1570528008.17051
1570528008.18613
1570528008.20176
1570528008.21738
1570528008.23301
1570528008.24864
1570528008.26426
1570528008.27989
1570528008.29551
1570528008.31114
1570528008.32676
1570528008.34239
1570528008.35802
1570528008.37364
1570528008.38927
1570528008.40489
1570528008.42052
1570528008.43614
1570528008.45177
1570528008.4674
1570528008.48302
1570528008.49865
1570528008.51427
1570528008.5299
1570528008.54553
1570528008.56115
1570528008.57678
1570528008.5924
1570528008.60803
1570528008.62365
1570528008.63928
1570528008.65491
1570528008.67053
1570528008.68616
1570528008.70178
1570528008.71741
1570528008.73303
1570528008.74866
1570528008.76429
1570528008.77991
1570528008.79554
1570528008.81116
1570528008.82679
1570528008.84241
1570528008.85804
1570528008.87367
1570528008.88929
1570528008.90492
1570528008.92054
1570528008.93617
1570528008.95179
1570528008.96742
1570528008.98305
1570528008.99867
1570528009.0143
1570528009.02992
1570528009.04555
1570528009.06117
1570528009.0768
1570528009.09243
1570528009.10805
1570528009.12368
1570528009.1393
1570528009.15493
1570528009.17055
1570528009.18618
1570528009.20181
1570528009.21743
1570528009.23306
1570528009.24868
1570528009.26431
1570528009.27993
1570528009.29556
1570528009.31119
1570528009.32681
1570528009.34244
1570528009.35806
1570528009.37369
1570528009.38931
1570528009.40494
1570528009.42057
1570528009.43619
1570528009.45182
1570528009.46744
1570528009.48307
1570528009.49869
1570528009.51432
1570528009.52995
1570528009.54557
1570528009.5612
1570528009.57682
1570528009.59245
1570528009.60807
1570528009.6237
1570528009.63933
1570528009.65495
1570528009.67058
1570528009.6862
1570528009.70183
1570528009.71745
1570528009.73308
1570528009.74871
1570528009.76433
1570528009.77996
1570528009.79558
1570528009.81121
1570528009.82683
1570528009.84246
1570528009.85809
1570528009.87371
1570528009.88934
1570528009.90496
1570528009.92059
1570528009.93621
1570528009.95184
1570528009.96747
1570528009.98309
1570528009.99872
1570528010.01434
1570528010.02997
1570528010.04559
1570528010.06122
1570528010.07685
1570528010.09247
1570528010.1081
1570528010.12372
1570528010.13935
1570528010.15497
1570528010.1706
1570528010.18623
1570528010.20185
1570528010.21748
1570528010.2331
1570528010.24873
1570528010.26435
1570528010.27998
1570528010.29561
1570528010.31123
1570528010.32686
1570528010.34248
1570528010.35811
1570528010.37373
1570528010.38936
1570528010.40499
1570528010.42061
1570528010.43624
1570528010.45186
1570528010.46749
1570528010.48311
1570528010.49874
1570528010.51437
1570528010.52999
1570528010.54562
1570528010.56124
1570528010.57687
1570528010.59249
1570528010.60812
1570528010.62375
1570528010.63937
1570528010.655
1570528010.67062
1570528010.68625
1570528010.70187
1570528010.7175
1570528010.73313
1570528010.74875
1570528010.76438
1570528010.78
1570528010.79563
1570528010.81125
1570528010.82688
1570528010.84251
1570528010.85813
1570528010.87376
1570528010.88938
1570528010.90501
1570528010.92063
1570528010.93626
1570528010.95189
1570528010.96751
1570528010.98314
1570528010.99876
1570528011.01439
1570528011.03001
1570528011.04564
1570528011.06127
1570528011.07689
1570528011.09252
1570528011.10814
1570528011.12377
1570528011.1394
1570528011.15502
1570528011.17065
1570528011.18627
1570528011.2019
1570528011.21752
1570528011.23315
1570528011.24878
1570528011.2644
1570528011.28003
1570528011.29565
1570528011.31128
1570528011.3269
1570528011.34253
1570528011.35816
1570528011.37378
1570528011.38941
1570528011.40503
1570528011.42066
1570528011.43628
1570528011.45191
1570528011.46754
1570528011.48316
1570528011.49879
1570528011.51441
1570528011.53004
1570528011.54566
1570528011.56129
1570528011.57692
1570528011.59254
1570528011.60817
1570528011.62379
1570528011.63942
1570528011.65504
1570528011.67067
1570528011.6863
1570528011.70192
1570528011.71755
1570528011.73317
1570528011.7488
1570528011.76442
1570528011.78005
1570528011.79568
1570528011.8113
1570528011.82693
1570528011.84255
1570528011.85818
1570528011.8738
1570528011.88943
1570528011.90506
1570528011.92068
1570528011.93631
1570528011.95193
1570528011.96756
1570528011.98318
1570528011.99881
1570528012.01444
1570528012.03006
1570528012.04569
1570528012.06131
1570528012.07694
1570528012.09256
1570528012.10819
1570528012.12382
1570528012.13944
1570528012.15507
1570528012.17069
1570528012.18632
1570528012.20194
1570528012.21757
1570528012.2332
1570528012.24882
1570528012.26445
1570528012.28007
1570528012.2957
1570528012.31132
1570528012.32695
1570528012.34258
1570528012.3582
1570528012.37383
1570528012.38945
1570528012.40508
1570528012.4207
1570528012.43633
1570528012.45196
1570528012.46758
1570528012.48321
1570528012.49883
1570528012.51446
1570528012.53008
1570528012.54571
1570528012.56134
1570528012.57696
1570528012.59259
1570528012.60821
1570528012.62384
1570528012.63946
1570528012.65509
1570528012.67072
1570528012.68634
1570528012.70197
1570528012.71759
1570528012.73322
1570528012.74884
1570528012.76447
1570528012.7801
1570528012.79572
1570528012.81135
1570528012.82697
1570528012.8426
1570528012.85822
1570528012.87385
1570528012.88948
1570528012.9051
1570528012.92073
1570528012.93635
1570528012.95198
1570528012.9676
1570528012.98323
1570528012.99886
1570528013.01448
1570528013.03011
1570528013.04573
1570528013.06136
1570528013.07698
1570528013.09261
1570528013.10824
1570528013.12386
1570528013.13949
1570528013.15511
1570528013.17074
1570528013.18636
1570528013.20199
1570528013.21762
1570528013.23324
1570528013.24887
1570528013.26449
1570528013.28012
1570528013.29574
1570528013.31137
1570528013.327
1570528013.34262
1570528013.35825
1570528013.37387
1570528013.3895
1570528013.40513
1570528013.42075
1570528013.43638
1570528013.452
1570528013.46763
1570528013.48325
1570528013.49888
1570528013.51451
1570528013.53013
1570528013.54576
1570528013.56138
1570528013.57701
1570528013.59263
1570528013.60826
1570528013.62389
1570528013.63951
1570528013.65514
1570528013.67076
1570528013.68639
1570528013.70201
1570528013.71764
1570528013.73327
1570528013.74889
1570528013.76452
1570528013.78014
1570528013.79577
1570528013.81139
1570528013.82702
1570528013.84265
1570528013.85827
1570528013.8739
1570528013.88952
1570528013.90515
1570528013.92077
1570528013.9364
1570528013.95203
1570528013.96765
1570528013.98328
1570528013.9989
1570528014.01453
1570528014.03015
1570528014.04578
1570528014.06141
1570528014.07703
1570528014.09266
1570528014.10828
1570528014.12391
1570528014.13953
1570528014.15516
1570528014.17079
1570528014.18641
1570528014.20204
1570528014.21766
1570528014.23329
1570528014.24891
1570528014.26454
1570528014.28017
1570528014.29579
1570528014.31142
1570528014.32704
1570528014.34267
1570528014.35829
1570528014.37392
1570528014.38955
1570528014.40517
1570528014.4208
1570528014.43642
1570528014.45205
1570528014.46767
1570528014.4833
1570528014.49893
1570528014.51455
1570528014.53018
1570528014.5458
1570528014.56143
1570528014.57705
1570528014.59268
1570528014.60831
1570528014.62393
1570528014.63956
1570528014.65518
1570528014.67081
1570528014.68643
1570528014.70206
1570528014.71769
1570528014.73331
1570528014.74894
1570528014.76456
1570528014.78019
1570528014.79581
1570528014.81144
1570528014.82707
1570528014.84269
1570528014.85832
1570528014.87394
1570528014.88957
1570528014.90519
1570528014.92082
1570528014.93645
1570528014.95207
1570528014.9677
1570528014.98332
1570528014.99895
1570528015.01457
1570528015.0302
1570528015.04583
1570528015.06145
1570528015.07708
1570528015.0927
1570528015.10833
1570528015.12395
1570528015.13958
1570528015.15521
1570528015.17083
1570528015.18646
1570528015.20208
1570528015.21771
1570528015.23333
1570528015.24896
1570528015.26459
1570528015.28021
1570528015.29584
1570528015.31146
1570528015.32709
1570528015.34271
1570528015.35834
1570528015.37397
1570528015.38959
1570528015.40522
1570528015.42084
1570528015.43647
1570528015.45209
1570528015.46772
1570528015.48335
1570528015.49897
1570528015.5146
1570528015.53022
1570528015.54585
1570528015.56148
1570528015.5771
1570528015.59273
1570528015.60835
1570528015.62398
1570528015.6396
1570528015.65523
1570528015.67086
1570528015.68648
1570528015.70211
1570528015.71773
1570528015.73336
1570528015.74898
1570528015.76461
1570528015.78024
1570528015.79586
1570528015.81149
1570528015.82711
1570528015.84274
1570528015.85836
1570528015.87399
1570528015.88962
1570528015.90524
1570528015.92087
1570528015.93649
1570528015.95212
1570528015.96774
1570528015.98337
1570528015.999
1570528016.01462
1570528016.03025
1570528016.04587
1570528016.0615
1570528016.07712
1570528016.09275
1570528016.10838
1570528016.124
1570528016.13963
1570528016.15525
1570528016.17088
1570528016.1865
1570528016.20213
1570528016.21776
1570528016.23338
1570528016.24901
1570528016.26463
1570528016.28026
1570528016.29588
1570528016.31151
1570528016.32714
1570528016.34276
1570528016.35839
1570528016.37401
1570528016.38964
1570528016.40526
1570528016.42089
1570528016.43652
1570528016.45214
1570528016.46777
1570528016.48339
1570528016.49902
1570528016.51464
1570528016.53027
1570528016.5459
1570528016.56152
1570528016.57715
1570528016.59277
1570528016.6084
1570528016.62402
1570528016.63965
1570528016.65528
1570528016.6709
1570528016.68653
1570528016.70215
1570528016.71778
1570528016.7334
1570528016.74903
1570528016.76466
1570528016.78028
1570528016.79591
1570528016.81153
1570528016.82716
1570528016.84278
1570528016.85841
1570528016.87404
1570528016.88966
1570528016.90529
1570528016.92091
1570528016.93654
1570528016.95216
1570528016.96779
1570528016.98342
1570528016.99904
1570528017.01467
1570528017.03029
1570528017.04592
1570528017.06154
1570528017.07717
1570528017.0928
1570528017.10842
1570528017.12405
1570528017.13967
1570528017.1553
1570528017.17092
1570528017.18655
1570528017.20218
1570528017.2178
1570528017.23343
1570528017.24905
1570528017.26468
1570528017.2803
1570528017.29593
1570528017.31156
1570528017.32718
1570528017.34281
1570528017.35843
1570528017.37406
1570528017.38968
1570528017.40531
1570528017.42094
1570528017.43656
1570528017.45219
1570528017.46781
1570528017.48344
1570528017.49906
1570528017.51469
1570528017.53032
1570528017.54594
1570528017.56157
1570528017.57719
1570528017.59282
1570528017.60844
1570528017.62407
1570528017.6397
1570528017.65532
1570528017.67095
1570528017.68657
1570528017.7022
1570528017.71782
1570528017.73345
1570528017.74908
1570528017.7647
1570528017.78033
1570528017.79595
1570528017.81158
1570528017.8272
1570528017.84283
1570528017.85846
1570528017.87408
1570528017.88971
1570528017.90533
1570528017.92096
1570528017.93658
1570528017.95221
1570528017.96784
1570528017.98346
1570528017.99909
1570528018.01471
1570528018.03034
1570528018.04596
1570528018.06159
1570528018.07722
1570528018.09284
1570528018.10847
1570528018.12409
1570528018.13972
1570528018.15534
1570528018.17097
1570528018.1866
1570528018.20222
1570528018.21785
1570528018.23347
1570528018.2491
1570528018.26473
1570528018.28035
1570528018.29598
1570528018.3116
1570528018.32723
1570528018.34285
1570528018.35848
1570528018.37411
1570528018.38973
1570528018.40536
1570528018.42098
1570528018.43661
1570528018.45223
1570528018.46786
1570528018.48349
1570528018.49911
1570528018.51474
1570528018.53036
1570528018.54599
1570528018.56161
1570528018.57724
1570528018.59287
1570528018.60849
1570528018.62412
1570528018.63974
1570528018.65537
1570528018.67099
1570528018.68662
1570528018.70225
1570528018.71787
1570528018.7335
1570528018.74912
1570528018.76475
1570528018.78037
1570528018.796
1570528018.81163
1570528018.82725
1570528018.84288
1570528018.8585
1570528018.87413
1570528018.88975
1570528018.90538
1570528018.92101
1570528018.93663
1570528018.95226
1570528018.96788
1570528018.98351
1570528018.99913
1570528019.01476
1570528019.03039
1570528019.04601
1570528019.06164
1570528019.07726
1570528019.09289
1570528019.10851
1570528019.12414
1570528019.13977
1570528019.15539
1570528019.17102
1570528019.18664
1570528019.20227
1570528019.21789
1570528019.23352
1570528019.24915
1570528019.26477
1570528019.2804
1570528019.29602
1570528019.31165
1570528019.32727
1570528019.3429
1570528019.35853
1570528019.37415
1570528019.38978
1570528019.4054
1570528019.42103
1570528019.43665
1570528019.45228
1570528019.46791
1570528019.48353
1570528019.49916
1570528019.51478
1570528019.53041
1570528019.54603
1570528019.56166
1570528019.57729
1570528019.59291
1570528019.60854
1570528019.62416
1570528019.63979
1570528019.65541
1570528019.67104
1570528019.68667
1570528019.70229
1570528019.71792
1570528019.73354
1570528019.74917
1570528019.76479
1570528019.78042
1570528019.79605
1570528019.81167
1570528019.8273
1570528019.84292
1570528019.85855
1570528019.87417
1570528019.8898
1570528019.90543
1570528019.92105
1570528019.93668
1570528019.9523
1570528019.96793
1570528019.98355
1570528019.99918
1570528020.01481
1570528020.03043
1570528020.04606
1570528020.06168
1570528020.07731
1570528020.09293
1570528020.10856
1570528020.12419
1570528020.13981
1570528020.15544
1570528020.17106
1570528020.18669
1570528020.20231
1570528020.21794
1570528020.23357
1570528020.24919
1570528020.26482
1570528020.28044
1570528020.29607
1570528020.31169
1570528020.32732
1570528020.34295
1570528020.35857
1570528020.3742
1570528020.38982
1570528020.40545
1570528020.42108
1570528020.4367
1570528020.45233
1570528020.46795
1570528020.48358
1570528020.4992
1570528020.51483
1570528020.53046
1570528020.54608
1570528020.56171
1570528020.57733
1570528020.59296
1570528020.60858
1570528020.62421
1570528020.63984
1570528020.65546
1570528020.67109
1570528020.68671
1570528020.70234
1570528020.71796
1570528020.73359
1570528020.74922
1570528020.76484
1570528020.78047
1570528020.79609
1570528020.81172
1570528020.82734
1570528020.84297
1570528020.8586
1570528020.87422
1570528020.88985
1570528020.90547
1570528020.9211
1570528020.93672
1570528020.95235
1570528020.96798
1570528020.9836
1570528020.99923
1570528021.01485
1570528021.03048
1570528021.0461
1570528021.06173
1570528021.07736
1570528021.09298
1570528021.10861
1570528021.12423
1570528021.13986
1570528021.15548
1570528021.17111
1570528021.18674
1570528021.20236
1570528021.21799
1570528021.23361
1570528021.24924
1570528021.26486
1570528021.28049
1570528021.29612
1570528021.31174
1570528021.32737
1570528021.34299
1570528021.35862
1570528021.37424
1570528021.38987
1570528021.4055
1570528021.42112
1570528021.43675
1570528021.45237
1570528021.468
1570528021.48362
1570528021.49925
1570528021.51488
1570528021.5305
1570528021.54613
1570528021.56175
1570528021.57738
1570528021.593
1570528021.60863
1570528021.62426
1570528021.63988
1570528021.65551
1570528021.67113
1570528021.68676
1570528021.70238
1570528021.71801
1570528021.73364
1570528021.74926
1570528021.76489
1570528021.78051
1570528021.79614
1570528021.81176
1570528021.82739
1570528021.84302
1570528021.85864
1570528021.87427
1570528021.88989
1570528021.90552
1570528021.92114
1570528021.93677
1570528021.9524
1570528021.96802
1570528021.98365
1570528021.99927
1570528022.0149
1570528022.03052
1570528022.04615
1570528022.06178
1570528022.0774
1570528022.09303
1570528022.10865
1570528022.12428
1570528022.1399
1570528022.15553
1570528022.17116
1570528022.18678
1570528022.20241
1570528022.21803
1570528022.23366
1570528022.24928
1570528022.26491
1570528022.28054
1570528022.29616
1570528022.31179
1570528022.32741
1570528022.34304
1570528022.35866
1570528022.37429
1570528022.38992
1570528022.40554
1570528022.42117
1570528022.43679
1570528022.45242
1570528022.46804
1570528022.48367
1570528022.4993
1570528022.51492
1570528022.53055
1570528022.54617
1570528022.5618
1570528022.57742
1570528022.59305
1570528022.60868
1570528022.6243
1570528022.63993
1570528022.65555
1570528022.67118
1570528022.68681
1570528022.70243
1570528022.71806
1570528022.73368
1570528022.74931
1570528022.76493
1570528022.78056
1570528022.79619
1570528022.81181
1570528022.82744
1570528022.84306
1570528022.85869
1570528022.87431
1570528022.88994
1570528022.90557
1570528022.92119
1570528022.93682
1570528022.95244
1570528022.96807
1570528022.98369
1570528022.99932
1570528023.01495
1570528023.03057
1570528023.0462
1570528023.06182
1570528023.07745
1570528023.09307
1570528023.1087
1570528023.12433
1570528023.13995
1570528023.15558
1570528023.1712
1570528023.18683
1570528023.20245
1570528023.21808
1570528023.23371
1570528023.24933
1570528023.26496
1570528023.28058
1570528023.29621
1570528023.31183
1570528023.32746
1570528023.34309
1570528023.35871
1570528023.37434
1570528023.38996
1570528023.40559
1570528023.42121
1570528023.43684
1570528023.45247
1570528023.46809
1570528023.48372
1570528023.49934
1570528023.51497
1570528023.53059
1570528023.54622
1570528023.56185
1570528023.57747
1570528023.5931
1570528023.60872
1570528023.62435
1570528023.63997
1570528023.6556
1570528023.67123
1570528023.68685
1570528023.70248
1570528023.7181
1570528023.73373
1570528023.74935
1570528023.76498
1570528023.78061
1570528023.79623
1570528023.81186
1570528023.82748
1570528023.84311
1570528023.85873
1570528023.87436
1570528023.88999
1570528023.90561
1570528023.92124
1570528023.93686
1570528023.95249
1570528023.96811
1570528023.98374
1570528023.99937
1570528024.01499
1570528024.03062
1570528024.04624
1570528024.06187
1570528024.07749
1570528024.09312
1570528024.10875
1570528024.12437
1570528024.14
1570528024.15562
1570528024.17125
1570528024.18687
1570528024.2025
1570528024.21813
1570528024.23375
1570528024.24938
1570528024.265
1570528024.28063
1570528024.29625
1570528024.31188
1570528024.32751
1570528024.34313
1570528024.35876
1570528024.37438
1570528024.39001
1570528024.40563
1570528024.42126
1570528024.43689
1570528024.45251
1570528024.46814
1570528024.48376
1570528024.49939
1570528024.51501
1570528024.53064
1570528024.54627
1570528024.56189
1570528024.57752
1570528024.59314
1570528024.60877
1570528024.62439
1570528024.64002
1570528024.65565
1570528024.67127
1570528024.6869
1570528024.70252
1570528024.71815
1570528024.73377
1570528024.7494
1570528024.76503
1570528024.78065
1570528024.79628
1570528024.8119
1570528024.82753
1570528024.84315
1570528024.85878
1570528024.87441
1570528024.89003
1570528024.90566
1570528024.92128
1570528024.93691
1570528024.95253
1570528024.96816
1570528024.98379
1570528024.99941
1570528025.01504
1570528025.03066
1570528025.04629
1570528025.06191
1570528025.07754
1570528025.09317
1570528025.10879
1570528025.12442
1570528025.14004
1570528025.15567
1570528025.17129
1570528025.18692
1570528025.20255
1570528025.21817
1570528025.2338
1570528025.24942
1570528025.26505
1570528025.28068
1570528025.2963
1570528025.31193
1570528025.32755
1570528025.34318
1570528025.3588
1570528025.37443
1570528025.39006
1570528025.40568
1570528025.42131
1570528025.43693
1570528025.45256
1570528025.46818
1570528025.48381
1570528025.49944
1570528025.51506
1570528025.53069
1570528025.54631
1570528025.56194
1570528025.57756
1570528025.59319
1570528025.60882
1570528025.62444
1570528025.64007
1570528025.65569
1570528025.67132
1570528025.68694
1570528025.70257
1570528025.7182
1570528025.73382
1570528025.74945
1570528025.76507
1570528025.7807
1570528025.79632
1570528025.81195
1570528025.82758
1570528025.8432
1570528025.85883
1570528025.87445
1570528025.89008
1570528025.9057
1570528025.92133
1570528025.93696
1570528025.95258
1570528025.96821
1570528025.98383
1570528025.99946
1570528026.01508
1570528026.03071
1570528026.04634
1570528026.06196
1570528026.07759
1570528026.09321
1570528026.10884
1570528026.12446
1570528026.14009
1570528026.15572
1570528026.17134
1570528026.18697
1570528026.20259
1570528026.21822
1570528026.23384
1570528026.24947
1570528026.2651
1570528026.28072
1570528026.29635
1570528026.31197
1570528026.3276
1570528026.34322
1570528026.35885
1570528026.37448
1570528026.3901
1570528026.40573
1570528026.42135
1570528026.43698
1570528026.4526
1570528026.46823
1570528026.48386
1570528026.49948
1570528026.51511
1570528026.53073
1570528026.54636
1570528026.56198
1570528026.57761
1570528026.59324
1570528026.60886
1570528026.62449
1570528026.64011
1570528026.65574
1570528026.67136
1570528026.68699
1570528026.70262
1570528026.71824
1570528026.73387
1570528026.74949
1570528026.76512
1570528026.78074
1570528026.79637
1570528026.812
1570528026.82762
1570528026.84325
1570528026.85887
1570528026.8745
1570528026.89012
1570528026.90575
1570528026.92138
1570528026.937
1570528026.95263
1570528026.96825
1570528026.98388
1570528026.9995
1570528027.01513
1570528027.03076
1570528027.04638
1570528027.06201
1570528027.07763
1570528027.09326
1570528027.10888
1570528027.12451
1570528027.14014
1570528027.15576
1570528027.17139
1570528027.18701
1570528027.20264
1570528027.21826
1570528027.23389
1570528027.24952
1570528027.26514
1570528027.28077
1570528027.29639
1570528027.31202
1570528027.32764
1570528027.34327
1570528027.3589
1570528027.37452
1570528027.39015
1570528027.40577
1570528027.4214
1570528027.43702
1570528027.45265
1570528027.46828
1570528027.4839
1570528027.49953
1570528027.51515
1570528027.53078
1570528027.54641
1570528027.56203
1570528027.57766
1570528027.59328
1570528027.60891
1570528027.62453
1570528027.64016
1570528027.65579
1570528027.67141
1570528027.68704
1570528027.70266
1570528027.71829
1570528027.73391
1570528027.74954
1570528027.76517
1570528027.78079
1570528027.79642
1570528027.81204
1570528027.82767
1570528027.84329
1570528027.85892
1570528027.87455
1570528027.89017
1570528027.9058
1570528027.92142
1570528027.93705
1570528027.95267
1570528027.9683
1570528027.98393
1570528027.99955
1570528028.01518
1570528028.0308
1570528028.04643
1570528028.06205
1570528028.07768
1570528028.09331
1570528028.10893
1570528028.12456
1570528028.14018
1570528028.15581
1570528028.17143
1570528028.18706
1570528028.20269
1570528028.21831
1570528028.23394
1570528028.24956
1570528028.26519
1570528028.28081
1570528028.29644
1570528028.31207
1570528028.32769
1570528028.34332
1570528028.35894
1570528028.37457
1570528028.39019
1570528028.40582
1570528028.42145
1570528028.43707
1570528028.4527
1570528028.46832
1570528028.48395
1570528028.49957
1570528028.5152
1570528028.53083
1570528028.54645
1570528028.56208
1570528028.5777
1570528028.59333
1570528028.60895
1570528028.62458
1570528028.64021
1570528028.65583
1570528028.67146
1570528028.68708
1570528028.70271
1570528028.71833
1570528028.73396
1570528028.74959
1570528028.76521
1570528028.78084
1570528028.79646
1570528028.81209
1570528028.82771
1570528028.84334
1570528028.85897
1570528028.87459
1570528028.89022
1570528028.90584
1570528028.92147
1570528028.93709
1570528028.95272
1570528028.96835
1570528028.98397
1570528028.9996
1570528029.01522
1570528029.03085
1570528029.04647
1570528029.0621
1570528029.07773
1570528029.09335
1570528029.10898
1570528029.1246
1570528029.14023
1570528029.15585
1570528029.17148
1570528029.18711
1570528029.20273
1570528029.21836
1570528029.23398
1570528029.24961
1570528029.26523
1570528029.28086
1570528029.29649
1570528029.31211
1570528029.32774
1570528029.34336
1570528029.35899
1570528029.37461
1570528029.39024
1570528029.40587
1570528029.42149
1570528029.43712
1570528029.45274
1570528029.46837
1570528029.48399
1570528029.49962
1570528029.51525
1570528029.53087
1570528029.5465
1570528029.56212
1570528029.57775
1570528029.59337
1570528029.609
1570528029.62463
1570528029.64025
1570528029.65588
1570528029.6715
1570528029.68713
1570528029.70275
1570528029.71838
1570528029.73401
1570528029.74963
1570528029.76526
1570528029.78088
1570528029.79651
1570528029.81213
1570528029.82776
1570528029.84339
1570528029.85901
1570528029.87464
1570528029.89026
1570528029.90589
1570528029.92151
1570528029.93714
1570528029.95277
1570528029.96839
1570528029.98402
1570528029.99964
1570528030.01527
1570528030.03089
1570528030.04652
1570528030.06215
1570528030.07777
1570528030.0934
1570528030.10902
1570528030.12465
1570528030.14028
1570528030.1559
1570528030.17153
1570528030.18715
1570528030.20278
1570528030.2184
1570528030.23403
1570528030.24966
1570528030.26528
1570528030.28091
1570528030.29653
1570528030.31216
1570528030.32778
1570528030.34341
1570528030.35904
1570528030.37466
1570528030.39029
1570528030.40591
1570528030.42154
1570528030.43716
1570528030.45279
1570528030.46842
1570528030.48404
1570528030.49967
1570528030.51529
1570528030.53092
1570528030.54654
1570528030.56217
1570528030.5778
1570528030.59342
1570528030.60905
1570528030.62467
1570528030.6403
1570528030.65592
1570528030.67155
1570528030.68718
1570528030.7028
1570528030.71843
1570528030.73405
1570528030.74968
1570528030.7653
1570528030.78093
1570528030.79656
1570528030.81218
1570528030.82781
1570528030.84343
1570528030.85906
1570528030.87468
1570528030.89031
1570528030.90594
1570528030.92156
1570528030.93719
1570528030.95281
1570528030.96844
1570528030.98406
1570528030.99969
1570528031.01532
1570528031.03094
1570528031.04657
1570528031.06219
1570528031.07782
1570528031.09344
1570528031.10907
1570528031.1247
1570528031.14032
1570528031.15595
1570528031.17157
1570528031.1872
1570528031.20282
1570528031.21845
1570528031.23408
1570528031.2497
1570528031.26533
1570528031.28095
1570528031.29658
1570528031.3122
1570528031.32783
1570528031.34346
1570528031.35908
1570528031.37471
1570528031.39033
1570528031.40596
1570528031.42158
1570528031.43721
1570528031.45284
1570528031.46846
1570528031.48409
1570528031.49971
1570528031.51534
1570528031.53096
1570528031.54659
1570528031.56222
1570528031.57784
1570528031.59347
1570528031.60909
1570528031.62472
1570528031.64034
1570528031.65597
1570528031.6716
1570528031.68722
1570528031.70285
1570528031.71847
1570528031.7341
1570528031.74972
1570528031.76535
1570528031.78098
1570528031.7966
1570528031.81223
1570528031.82785
1570528031.84348
1570528031.8591
1570528031.87473
1570528031.89036
1570528031.90598
1570528031.92161
1570528031.93723
1570528031.95286
1570528031.96848
1570528031.98411
1570528031.99974
1570528032.01536
1570528032.03099
1570528032.04661
1570528032.06224
1570528032.07786
1570528032.09349
1570528032.10912
1570528032.12474
1570528032.14037
1570528032.15599
1570528032.17162
1570528032.18724
1570528032.20287
1570528032.2185
1570528032.23412
1570528032.24975
1570528032.26537
1570528032.281
1570528032.29662
1570528032.31225
1570528032.32788
1570528032.3435
1570528032.35913
1570528032.37475
1570528032.39038
1570528032.40601
1570528032.42163
1570528032.43726
1570528032.45288
1570528032.46851
1570528032.48413
1570528032.49976
1570528032.51539
1570528032.53101
1570528032.54664
1570528032.56226
1570528032.57789
1570528032.59351
1570528032.60914
1570528032.62477
1570528032.64039
1570528032.65602
1570528032.67164
1570528032.68727
1570528032.70289
1570528032.71852
1570528032.73415
1570528032.74977
1570528032.7654
1570528032.78102
1570528032.79665
1570528032.81227
1570528032.8279
1570528032.84353
1570528032.85915
1570528032.87478
1570528032.8904
1570528032.90603
1570528032.92165
1570528032.93728
1570528032.95291
1570528032.96853
1570528032.98416
1570528032.99978
1570528033.01541
1570528033.03103
1570528033.04666
1570528033.06229
1570528033.07791
1570528033.09354
1570528033.10916
1570528033.12479
1570528033.14041
1570528033.15604
1570528033.17167
1570528033.18729
1570528033.20292
1570528033.21854
1570528033.23417
1570528033.24979
1570528033.26542
1570528033.28105
1570528033.29667
1570528033.3123
1570528033.32792
1570528033.34355
1570528033.35917
1570528033.3748
1570528033.39043
1570528033.40605
1570528033.42168
1570528033.4373
1570528033.45293
1570528033.46855
1570528033.48418
1570528033.49981
1570528033.51543
1570528033.53106
1570528033.54668
1570528033.56231
1570528033.57793
1570528033.59356
1570528033.60919
1570528033.62481
1570528033.64044
1570528033.65606
1570528033.67169
1570528033.68731
1570528033.70294
1570528033.71857
1570528033.73419
1570528033.74982
1570528033.76544
1570528033.78107
1570528033.79669
1570528033.81232
1570528033.82795
1570528033.84357
1570528033.8592
1570528033.87482
1570528033.89045
1570528033.90607
1570528033.9217
1570528033.93733
1570528033.95295
1570528033.96858
1570528033.9842
1570528033.99983
1570528034.01545
1570528034.03108
1570528034.04671
1570528034.06233
1570528034.07796
1570528034.09358
1570528034.10921
1570528034.12483
1570528034.14046
1570528034.15609
1570528034.17171
1570528034.18734
1570528034.20296
1570528034.21859
1570528034.23421
1570528034.24984
1570528034.26547
1570528034.28109
1570528034.29672
1570528034.31234
1570528034.32797
1570528034.34359
1570528034.35922
1570528034.37485
1570528034.39047
1570528034.4061
1570528034.42172
1570528034.43735
1570528034.45297
1570528034.4686
1570528034.48423
1570528034.49985
1570528034.51548
1570528034.5311
1570528034.54673
1570528034.56235
1570528034.57798
1570528034.59361
1570528034.60923
1570528034.62486
1570528034.64048
1570528034.65611
1570528034.67174
1570528034.68736
1570528034.70299
1570528034.71861
1570528034.73424
1570528034.74986
1570528034.76549
1570528034.78112
1570528034.79674
1570528034.81237
1570528034.82799
1570528034.84362
1570528034.85924
1570528034.87487
1570528034.8905
1570528034.90612
1570528034.92175
1570528034.93737
1570528034.953
1570528034.96862
1570528034.98425
1570528034.99988
1570528035.0155
1570528035.03113
1570528035.04675
1570528035.06238
1570528035.078
1570528035.09363
1570528035.10926
1570528035.12488
1570528035.14051
1570528035.15613
1570528035.17176
1570528035.18738
1570528035.20301
1570528035.21864
1570528035.23426
1570528035.24989
1570528035.26551
1570528035.28114
1570528035.29676
1570528035.31239
1570528035.32802
1570528035.34364
1570528035.35927
1570528035.37489
1570528035.39052
1570528035.40614
1570528035.42177
1570528035.4374
1570528035.45302
1570528035.46865
1570528035.48427
1570528035.4999
1570528035.51552
1570528035.53115
1570528035.54678
1570528035.5624
1570528035.57803
1570528035.59365
1570528035.60928
1570528035.6249
1570528035.64053
1570528035.65616
1570528035.67178
1570528035.68741
1570528035.70303
1570528035.71866
1570528035.73428
1570528035.74991
1570528035.76554
1570528035.78116
1570528035.79679
1570528035.81241
1570528035.82804
1570528035.84366
1570528035.85929
1570528035.87492
1570528035.89054
1570528035.90617
1570528035.92179
1570528035.93742
1570528035.95304
1570528035.96867
1570528035.9843
1570528035.99992
1570528036.01555
1570528036.03117
1570528036.0468
1570528036.06242
1570528036.07805
1570528036.09368
1570528036.1093
1570528036.12493
1570528036.14055
1570528036.15618
1570528036.1718
1570528036.18743
1570528036.20306
1570528036.21868
1570528036.23431
1570528036.24993
1570528036.26556
1570528036.28118
1570528036.29681
1570528036.31244
1570528036.32806
1570528036.34369
1570528036.35931
1570528036.37494
1570528036.39056
1570528036.40619
1570528036.42182
1570528036.43744
1570528036.45307
1570528036.46869
1570528036.48432
1570528036.49994
1570528036.51557
1570528036.5312
1570528036.54682
1570528036.56245
1570528036.57807
1570528036.5937
1570528036.60932
1570528036.62495
1570528036.64058
1570528036.6562
1570528036.67183
1570528036.68745
1570528036.70308
1570528036.7187
1570528036.73433
1570528036.74996
1570528036.76558
1570528036.78121
1570528036.79683
1570528036.81246
1570528036.82808
1570528036.84371
1570528036.85934
1570528036.87496
1570528036.89059
1570528036.90621
1570528036.92184
1570528036.93746
1570528036.95309
1570528036.96872
1570528036.98434
1570528036.99997
1570528037.01559
1570528037.03122
1570528037.04684
1570528037.06247
1570528037.0781
1570528037.09372
1570528037.10935
1570528037.12497
1570528037.1406
1570528037.15622
1570528037.17185
1570528037.18748
1570528037.2031
1570528037.21873
1570528037.23435
1570528037.24998
1570528037.26561
1570528037.28123
1570528037.29686
1570528037.31248
1570528037.32811
1570528037.34373
1570528037.35936
1570528037.37499
1570528037.39061
1570528037.40624
1570528037.42186
1570528037.43749
1570528037.45311
1570528037.46874
1570528037.48437
1570528037.49999
1570528037.51562
1570528037.53124
1570528037.54687
1570528037.56249
1570528037.57812
1570528037.59375
1570528037.60937
1570528037.625
1570528037.64062
1570528037.65625
1570528037.67187
1570528037.6875
1570528037.70313
1570528037.71875
1570528037.73438
1570528037.75
1570528037.76563
1570528037.78125
1570528037.79688
1570528037.81251
1570528037.82813
1570528037.84376
1570528037.85938
1570528037.87501
1570528037.89063
1570528037.90626
1570528037.92189
1570528037.93751
1570528037.95314
1570528037.96876
1570528037.98439
1570528038.00001
1570528038.01564
1570528038.03127
1570528038.04689
1570528038.06252
1570528038.07814
1570528038.09377
1570528038.10939
1570528038.12502
1570528038.14065
1570528038.15627
1570528038.1719
1570528038.18752
1570528038.20315
1570528038.21877
1570528038.2344
1570528038.25003
1570528038.26565
1570528038.28128
1570528038.2969
1570528038.31253
1570528038.32815
1570528038.34378
1570528038.35941
1570528038.37503
1570528038.39066
1570528038.40628
1570528038.42191
1570528038.43753
1570528038.45316
1570528038.46879
1570528038.48441
1570528038.50004
1570528038.51566
1570528038.53129
1570528038.54691
1570528038.56254
1570528038.57817
1570528038.59379
1570528038.60942
1570528038.62504
1570528038.64067
1570528038.65629
1570528038.67192
1570528038.68755
1570528038.70317
1570528038.7188
1570528038.73442
1570528038.75005
1570528038.76567
1570528038.7813
1570528038.79693
1570528038.81255
1570528038.82818
1570528038.8438
1570528038.85943
1570528038.87505
1570528038.89068
1570528038.90631
1570528038.92193
1570528038.93756
1570528038.95318
1570528038.96881
1570528038.98443
1570528039.00006
1570528039.01569
1570528039.03131
1570528039.04694
1570528039.06256
1570528039.07819
1570528039.09381
1570528039.10944
1570528039.12507
1570528039.14069
1570528039.15632
1570528039.17194
1570528039.18757
1570528039.20319
1570528039.21882
1570528039.23445
1570528039.25007
1570528039.2657
1570528039.28132
1570528039.29695
1570528039.31257
1570528039.3282
1570528039.34383
1570528039.35945
1570528039.37508
1570528039.3907
1570528039.40633
1570528039.42195
1570528039.43758
1570528039.45321
1570528039.46883
1570528039.48446
1570528039.50008
1570528039.51571
1570528039.53134
1570528039.54696
1570528039.56259
1570528039.57821
1570528039.59384
1570528039.60946
1570528039.62509
1570528039.64072
1570528039.65634
1570528039.67197
1570528039.68759
1570528039.70322
1570528039.71884
1570528039.73447
1570528039.7501
1570528039.76572
1570528039.78135
1570528039.79697
1570528039.8126
1570528039.82822
1570528039.84385
1570528039.85948
1570528039.8751
1570528039.89073
1570528039.90635
1570528039.92198
1570528039.9376
1570528039.95323
1570528039.96886
1570528039.98448
1570528040.00011
1570528040.01573
1570528040.03136
1570528040.04698
1570528040.06261
1570528040.07824
1570528040.09386
1570528040.10949
1570528040.12511
1570528040.14074
1570528040.15636
1570528040.17199
1570528040.18762
1570528040.20324
1570528040.21887
1570528040.23449
1570528040.25012
1570528040.26574
1570528040.28137
1570528040.297
1570528040.31262
1570528040.32825
1570528040.34387
1570528040.3595
1570528040.37512
1570528040.39075
1570528040.40638
1570528040.422
1570528040.43763
1570528040.45325
1570528040.46888
1570528040.4845
1570528040.50013
1570528040.51576
1570528040.53138
1570528040.54701
1570528040.56263
1570528040.57826
1570528040.59388
1570528040.60951
1570528040.62514
1570528040.64076
1570528040.65639
1570528040.67201
1570528040.68764
1570528040.70326
1570528040.71889
1570528040.73452
1570528040.75014
1570528040.76577
1570528040.78139
1570528040.79702
1570528040.81264
1570528040.82827
1570528040.8439
1570528040.85952
1570528040.87515
1570528040.89077
1570528040.9064
1570528040.92202
1570528040.93765
1570528040.95328
1570528040.9689
1570528040.98453
1570528041.00015
1570528041.01578
1570528041.0314
1570528041.04703
1570528041.06266
1570528041.07828
1570528041.09391
1570528041.10953
1570528041.12516
1570528041.14078
1570528041.15641
1570528041.17204
1570528041.18766
1570528041.20329
1570528041.21891
1570528041.23454
1570528041.25016
1570528041.26579
1570528041.28142
1570528041.29704
1570528041.31267
1570528041.32829
1570528041.34392
1570528041.35954
1570528041.37517
1570528041.3908
1570528041.40642
1570528041.42205
1570528041.43767
1570528041.4533
1570528041.46892
1570528041.48455
1570528041.50018
1570528041.5158
1570528041.53143
1570528041.54705
1570528041.56268
1570528041.5783
1570528041.59393
1570528041.60956
1570528041.62518
1570528041.64081
1570528041.65643
1570528041.67206
1570528041.68769
1570528041.70331
1570528041.71894
1570528041.73456
1570528041.75019
1570528041.76581
1570528041.78144
1570528041.79707
1570528041.81269
1570528041.82832
1570528041.84394
1570528041.85957
1570528041.87519
1570528041.89082
1570528041.90645
1570528041.92207
1570528041.9377
1570528041.95332
1570528041.96895
1570528041.98457
1570528042.0002
1570528042.01583
1570528042.03145
1570528042.04708
1570528042.0627
1570528042.07833
1570528042.09395
1570528042.10958
1570528042.12521
1570528042.14083
1570528042.15646
1570528042.17208
1570528042.18771
1570528042.20333
1570528042.21896
1570528042.23459
1570528042.25021
1570528042.26584
1570528042.28146
1570528042.29709
1570528042.31271
1570528042.32834
1570528042.34397
1570528042.35959
1570528042.37522
1570528042.39084
1570528042.40647
1570528042.42209
1570528042.43772
1570528042.45335
1570528042.46897
1570528042.4846
1570528042.50022
1570528042.51585
1570528042.53147
1570528042.5471
1570528042.56273
1570528042.57835
1570528042.59398
1570528042.6096
1570528042.62523
1570528042.64085
1570528042.65648
1570528042.67211
1570528042.68773
1570528042.70336
1570528042.71898
1570528042.73461
1570528042.75023
1570528042.76586
1570528042.78149
1570528042.79711
1570528042.81274
1570528042.82836
1570528042.84399
1570528042.85961
1570528042.87524
1570528042.89087
1570528042.90649
1570528042.92212
1570528042.93774
1570528042.95337
1570528042.96899
1570528042.98462
1570528043.00025
1570528043.01587
1570528043.0315
1570528043.04712
1570528043.06275
1570528043.07837
1570528043.094
1570528043.10963
1570528043.12525
1570528043.14088
1570528043.1565
1570528043.17213
1570528043.18775
1570528043.20338
1570528043.21901
1570528043.23463
1570528043.25026
1570528043.26588
1570528043.28151
1570528043.29713
1570528043.31276
1570528043.32839
1570528043.34401
1570528043.35964
1570528043.37526
1570528043.39089
1570528043.40651
1570528043.42214
1570528043.43777
1570528043.45339
1570528043.46902
1570528043.48464
1570528043.50027
1570528043.51589
1570528043.53152
1570528043.54715
1570528043.56277
1570528043.5784
1570528043.59402
1570528043.60965
1570528043.62527
1570528043.6409
1570528043.65653
1570528043.67215
1570528043.68778
1570528043.7034
1570528043.71903
1570528043.73465
1570528043.75028
1570528043.76591
1570528043.78153
1570528043.79716
1570528043.81278
1570528043.82841
1570528043.84403
1570528043.85966
1570528043.87529
1570528043.89091
1570528043.90654
1570528043.92216
1570528043.93779
1570528043.95341
1570528043.96904
1570528043.98467
1570528044.00029
1570528044.01592
1570528044.03154
1570528044.04717
1570528044.06279
1570528044.07842
1570528044.09405
1570528044.10967
1570528044.1253
1570528044.14092
1570528044.15655
1570528044.17217
1570528044.1878
1570528044.20343
1570528044.21905
1570528044.23468
1570528044.2503
1570528044.26593
1570528044.28155
1570528044.29718
1570528044.31281
1570528044.32843
1570528044.34406
1570528044.35968
1570528044.37531
1570528044.39094
1570528044.40656
1570528044.42219
1570528044.43781
1570528044.45344
1570528044.46906
1570528044.48469
1570528044.50032
1570528044.51594
1570528044.53157
1570528044.54719
1570528044.56282
1570528044.57844
1570528044.59407
1570528044.6097
1570528044.62532
1570528044.64095
1570528044.65657
1570528044.6722
1570528044.68782
1570528044.70345
1570528044.71908
1570528044.7347
1570528044.75033
1570528044.76595
1570528044.78158
1570528044.7972
1570528044.81283
1570528044.82846
1570528044.84408
1570528044.85971
1570528044.87533
1570528044.89096
1570528044.90658
1570528044.92221
1570528044.93784
1570528044.95346
1570528044.96909
1570528044.98471
1570528045.00034
1570528045.01596
1570528045.03159
1570528045.04722
1570528045.06284
1570528045.07847
1570528045.09409
1570528045.10972
1570528045.12534
1570528045.14097
1570528045.1566
1570528045.17222
1570528045.18785
1570528045.20347
1570528045.2191
1570528045.23472
1570528045.25035
1570528045.26598
1570528045.2816
1570528045.29723
1570528045.31285
1570528045.32848
1570528045.3441
1570528045.35973
1570528045.37536
1570528045.39098
1570528045.40661
1570528045.42223
1570528045.43786
1570528045.45348
1570528045.46911
1570528045.48474
1570528045.50036
1570528045.51599
1570528045.53161
1570528045.54724
1570528045.56286
1570528045.57849
1570528045.59412
1570528045.60974
1570528045.62537
1570528045.64099
1570528045.65662
1570528045.67224
1570528045.68787
1570528045.7035
1570528045.71912
1570528045.73475
1570528045.75037
1570528045.766
1570528045.78162
1570528045.79725
1570528045.81288
1570528045.8285
1570528045.84413
1570528045.85975
1570528045.87538
1570528045.891
1570528045.90663
1570528045.92226
1570528045.93788
1570528045.95351
1570528045.96913
1570528045.98476
1570528046.00038
1570528046.01601
1570528046.03164
1570528046.04726
1570528046.06289
1570528046.07851
1570528046.09414
1570528046.10976
1570528046.12539
1570528046.14102
1570528046.15664
1570528046.17227
1570528046.18789
1570528046.20352
1570528046.21914
1570528046.23477
1570528046.2504
1570528046.26602
1570528046.28165
1570528046.29727
1570528046.3129
1570528046.32852
1570528046.34415
1570528046.35978
1570528046.3754
1570528046.39103
1570528046.40665
1570528046.42228
1570528046.4379
1570528046.45353
1570528046.46916
1570528046.48478
1570528046.50041
1570528046.51603
1570528046.53166
1570528046.54729
1570528046.56291
1570528046.57854
1570528046.59416
1570528046.60979
1570528046.62541
1570528046.64104
1570528046.65667
1570528046.67229
1570528046.68792
1570528046.70354
1570528046.71917
1570528046.73479
1570528046.75042
1570528046.76605
1570528046.78167
1570528046.7973
1570528046.81292
1570528046.82855
1570528046.84417
1570528046.8598
1570528046.87543
1570528046.89105
1570528046.90668
1570528046.9223
1570528046.93793
1570528046.95355
1570528046.96918
1570528046.98481
1570528047.00043
1570528047.01606
1570528047.03168
1570528047.04731
1570528047.06293
1570528047.07856
1570528047.09419
1570528047.10981
1570528047.12544
1570528047.14106
1570528047.15669
1570528047.17231
1570528047.18794
1570528047.20357
1570528047.21919
1570528047.23482
1570528047.25044
1570528047.26607
1570528047.28169
1570528047.29732
1570528047.31295
1570528047.32857
1570528047.3442
1570528047.35982
1570528047.37545
1570528047.39107
1570528047.4067
1570528047.42233
1570528047.43795
1570528047.45358
1570528047.4692
1570528047.48483
1570528047.50045
1570528047.51608
1570528047.53171
1570528047.54733
1570528047.56296
1570528047.57858
1570528047.59421
1570528047.60983
1570528047.62546
1570528047.64109
1570528047.65671
1570528047.67234
1570528047.68796
1570528047.70359
1570528047.71921
1570528047.73484
1570528047.75047
1570528047.76609
1570528047.78172
1570528047.79734
1570528047.81297
1570528047.82859
1570528047.84422
1570528047.85985
1570528047.87547
1570528047.8911
1570528047.90672
1570528047.92235
1570528047.93797
1570528047.9536
1570528047.96923
1570528047.98485
1570528048.00048
1570528048.0161
1570528048.03173
1570528048.04735
1570528048.06298
1570528048.07861
1570528048.09423
1570528048.10986
1570528048.12548
1570528048.14111
1570528048.15673
1570528048.17236
1570528048.18799
1570528048.20361
1570528048.21924
1570528048.23486
1570528048.25049
1570528048.26611
1570528048.28174
1570528048.29737
1570528048.31299
1570528048.32862
1570528048.34424
1570528048.35987
1570528048.37549
1570528048.39112
1570528048.40675
1570528048.42237
1570528048.438
1570528048.45362
1570528048.46925
1570528048.48487
1570528048.5005
1570528048.51613
1570528048.53175
1570528048.54738
1570528048.563
1570528048.57863
1570528048.59425
1570528048.60988
1570528048.62551
1570528048.64113
1570528048.65676
1570528048.67238
1570528048.68801
1570528048.70363
1570528048.71926
1570528048.73489
1570528048.75051
1570528048.76614
1570528048.78176
1570528048.79739
1570528048.81301
1570528048.82864
1570528048.84427
1570528048.85989
1570528048.87552
1570528048.89114
1570528048.90677
1570528048.92239
1570528048.93802
1570528048.95365
1570528048.96927
1570528048.9849
1570528049.00052
1570528049.01615
1570528049.03178
1570528049.0474
1570528049.06303
1570528049.07865
1570528049.09428
1570528049.1099
1570528049.12553
1570528049.14116
1570528049.15678
1570528049.17241
1570528049.18803
1570528049.20366
1570528049.21928
1570528049.23491
1570528049.25054
1570528049.26616
1570528049.28179
1570528049.29741
1570528049.31304
1570528049.32866
1570528049.34429
1570528049.35992
1570528049.37554
1570528049.39117
1570528049.40679
1570528049.42242
1570528049.43804
1570528049.45367
1570528049.4693
1570528049.48492
1570528049.50055
1570528049.51617
1570528049.5318
1570528049.54742
1570528049.56305
1570528049.57868
1570528049.5943
1570528049.60993
1570528049.62555
1570528049.64118
1570528049.6568
1570528049.67243
1570528049.68806
1570528049.70368
1570528049.71931
1570528049.73493
1570528049.75056
1570528049.76618
1570528049.78181
1570528049.79744
1570528049.81306
1570528049.82869
1570528049.84431
1570528049.85994
1570528049.87556
1570528049.89119
1570528049.90682
1570528049.92244
1570528049.93807
1570528049.95369
1570528049.96932
1570528049.98494
1570528050.00057
1570528050.0162
1570528050.03182
1570528050.04745
1570528050.06307
1570528050.0787
1570528050.09432
1570528050.10995
1570528050.12558
1570528050.1412
1570528050.15683
1570528050.17245
1570528050.18808
1570528050.2037
1570528050.21933
1570528050.23496
1570528050.25058
1570528050.26621
1570528050.28183
1570528050.29746
1570528050.31308
1570528050.32871
1570528050.34434
1570528050.35996
1570528050.37559
1570528050.39121
1570528050.40684
1570528050.42246
1570528050.43809
1570528050.45372
1570528050.46934
1570528050.48497
1570528050.50059
1570528050.51622
1570528050.53184
1570528050.54747
1570528050.5631
1570528050.57872
1570528050.59435
1570528050.60997
1570528050.6256
1570528050.64122
1570528050.65685
1570528050.67248
1570528050.6881
1570528050.70373
1570528050.71935
1570528050.73498
1570528050.7506
1570528050.76623
1570528050.78186
1570528050.79748
1570528050.81311
1570528050.82873
1570528050.84436
1570528050.85998
1570528050.87561
1570528050.89124
1570528050.90686
1570528050.92249
1570528050.93811
1570528050.95374
1570528050.96936
1570528050.98499
1570528051.00062
1570528051.01624
1570528051.03187
1570528051.04749
1570528051.06312
1570528051.07874
1570528051.09437
1570528051.11
1570528051.12562
1570528051.14125
1570528051.15687
1570528051.1725
1570528051.18812
1570528051.20375
1570528051.21938
1570528051.235
1570528051.25063
1570528051.26625
1570528051.28188
1570528051.2975
1570528051.31313
1570528051.32876
1570528051.34438
1570528051.36001
1570528051.37563
1570528051.39126
1570528051.40689
1570528051.42251
1570528051.43814
1570528051.45376
1570528051.46939
1570528051.48501
1570528051.50064
1570528051.51627
1570528051.53189
1570528051.54752
1570528051.56314
1570528051.57877
1570528051.59439
1570528051.61002
1570528051.62565
1570528051.64127
1570528051.6569
1570528051.67252
1570528051.68815
1570528051.70377
1570528051.7194
1570528051.73503
1570528051.75065
1570528051.76628
1570528051.7819
1570528051.79753
1570528051.81315
1570528051.82878
1570528051.84441
1570528051.86003
1570528051.87566
1570528051.89128
1570528051.90691
1570528051.92253
1570528051.93816
1570528051.95379
1570528051.96941
1570528051.98504
1570528052.00066
1570528052.01629
1570528052.03191
1570528052.04754
1570528052.06317
1570528052.07879
1570528052.09442
1570528052.11004
1570528052.12567
1570528052.14129
1570528052.15692
1570528052.17255
1570528052.18817
1570528052.2038
1570528052.21942
1570528052.23505
1570528052.25067
1570528052.2663
1570528052.28193
1570528052.29755
1570528052.31318
1570528052.3288
1570528052.34443
1570528052.36005
1570528052.37568
1570528052.39131
1570528052.40693
1570528052.42256
1570528052.43818
1570528052.45381
1570528052.46943
1570528052.48506
1570528052.50069
1570528052.51631
1570528052.53194
1570528052.54756
1570528052.56319
1570528052.57881
1570528052.59444
1570528052.61007
1570528052.62569
1570528052.64132
1570528052.65694
1570528052.67257
1570528052.68819
1570528052.70382
1570528052.71945
1570528052.73507
1570528052.7507
1570528052.76632
1570528052.78195
1570528052.79757
1570528052.8132
1570528052.82883
1570528052.84445
1570528052.86008
1570528052.8757
1570528052.89133
1570528052.90695
1570528052.92258
1570528052.93821
1570528052.95383
1570528052.96946
1570528052.98508
1570528053.00071
1570528053.01633
1570528053.03196
1570528053.04759
1570528053.06321
1570528053.07884
1570528053.09446
1570528053.11009
1570528053.12571
1570528053.14134
1570528053.15697
1570528053.17259
1570528053.18822
1570528053.20384
1570528053.21947
1570528053.23509
1570528053.25072
1570528053.26635
1570528053.28197
1570528053.2976
1570528053.31322
1570528053.32885
1570528053.34447
1570528053.3601
1570528053.37573
1570528053.39135
1570528053.40698
1570528053.4226
1570528053.43823
1570528053.45385
1570528053.46948
1570528053.48511
1570528053.50073
1570528053.51636
1570528053.53198
1570528053.54761
1570528053.56323
1570528053.57886
1570528053.59449
1570528053.61011
1570528053.62574
1570528053.64136
1570528053.65699
1570528053.67262
1570528053.68824
1570528053.70387
1570528053.71949
1570528053.73512
1570528053.75074
1570528053.76637
1570528053.782
1570528053.79762
1570528053.81325
1570528053.82887
1570528053.8445
1570528053.86012
1570528053.87575
1570528053.89138
1570528053.907
1570528053.92263
1570528053.93825
1570528053.95388
1570528053.9695
1570528053.98513
1570528054.00076
1570528054.01638
1570528054.03201
1570528054.04763
1570528054.06326
1570528054.07888
1570528054.09451
1570528054.11014
1570528054.12576
1570528054.14139
1570528054.15701
1570528054.17264
1570528054.18826
1570528054.20389
1570528054.21952
1570528054.23514
1570528054.25077
1570528054.26639
1570528054.28202
1570528054.29764
1570528054.31327
1570528054.3289
1570528054.34452
1570528054.36015
1570528054.37577
1570528054.3914
1570528054.40702
1570528054.42265
1570528054.43828
1570528054.4539
1570528054.46953
1570528054.48515
1570528054.50078
1570528054.5164
1570528054.53203
1570528054.54766
1570528054.56328
1570528054.57891
1570528054.59453
1570528054.61016
1570528054.62578
1570528054.64141
1570528054.65704
1570528054.67266
1570528054.68829
1570528054.70391
1570528054.71954
1570528054.73516
1570528054.75079
1570528054.76642
1570528054.78204
1570528054.79767
1570528054.81329
1570528054.82892
1570528054.84454
1570528054.86017
1570528054.8758
1570528054.89142
1570528054.90705
1570528054.92267
1570528054.9383
1570528054.95392
1570528054.96955
1570528054.98518
1570528055.0008
1570528055.01643
1570528055.03205
1570528055.04768
1570528055.0633
1570528055.07893
1570528055.09456
1570528055.11018
1570528055.12581
1570528055.14143
1570528055.15706
1570528055.17268
1570528055.18831
1570528055.20394
1570528055.21956
1570528055.23519
1570528055.25081
1570528055.26644
1570528055.28206
1570528055.29769
1570528055.31332
1570528055.32894
1570528055.34457
1570528055.36019
1570528055.37582
1570528055.39144
1570528055.40707
1570528055.4227
1570528055.43832
1570528055.45395
1570528055.46957
1570528055.4852
1570528055.50082
1570528055.51645
1570528055.53208
1570528055.5477
1570528055.56333
1570528055.57895
1570528055.59458
1570528055.6102
1570528055.62583
1570528055.64146
1570528055.65708
1570528055.67271
1570528055.68833
1570528055.70396
1570528055.71958
1570528055.73521
1570528055.75084
1570528055.76646
1570528055.78209
1570528055.79771
1570528055.81334
1570528055.82896
1570528055.84459
1570528055.86022
1570528055.87584
1570528055.89147
1570528055.90709
1570528055.92272
1570528055.93834
1570528055.95397
1570528055.9696
1570528055.98522
1570528056.00085
1570528056.01647
1570528056.0321
1570528056.04772
1570528056.06335
1570528056.07898
1570528056.0946
1570528056.11023
1570528056.12585
1570528056.14148
1570528056.1571
1570528056.17273
1570528056.18836
1570528056.20398
1570528056.21961
1570528056.23523
1570528056.25086
1570528056.26649
1570528056.28211
1570528056.29774
1570528056.31336
1570528056.32899
1570528056.34461
1570528056.36024
1570528056.37587
1570528056.39149
1570528056.40712
1570528056.42274
1570528056.43837
1570528056.45399
1570528056.46962
1570528056.48525
1570528056.50087
1570528056.5165
1570528056.53212
1570528056.54775
1570528056.56337
1570528056.579
1570528056.59463
1570528056.61025
1570528056.62588
1570528056.6415
1570528056.65713
1570528056.67275
1570528056.68838
1570528056.70401
1570528056.71963
1570528056.73526
1570528056.75088
1570528056.76651
1570528056.78213
1570528056.79776
1570528056.81339
1570528056.82901
1570528056.84464
1570528056.86026
1570528056.87589
1570528056.89151
1570528056.90714
1570528056.92277
1570528056.93839
1570528056.95402
1570528056.96964
1570528056.98527
1570528057.00089
1570528057.01652
1570528057.03215
1570528057.04777
1570528057.0634
1570528057.07902
1570528057.09465
1570528057.11027
1570528057.1259
1570528057.14153
1570528057.15715
1570528057.17278
1570528057.1884
1570528057.20403
1570528057.21965
1570528057.23528
1570528057.25091
1570528057.26653
1570528057.28216
1570528057.29778
1570528057.31341
1570528057.32903
1570528057.34466
1570528057.36029
1570528057.37591
1570528057.39154
1570528057.40716
1570528057.42279
1570528057.43841
1570528057.45404
1570528057.46967
1570528057.48529
1570528057.50092
1570528057.51654
1570528057.53217
1570528057.54779
1570528057.56342
1570528057.57905
1570528057.59467
1570528057.6103
1570528057.62592
1570528057.64155
1570528057.65717
1570528057.6728
1570528057.68843
1570528057.70405
1570528057.71968
1570528057.7353
1570528057.75093
1570528057.76655
1570528057.78218
1570528057.79781
1570528057.81343
1570528057.82906
1570528057.84468
1570528057.86031
1570528057.87593
1570528057.89156
1570528057.90719
1570528057.92281
1570528057.93844
1570528057.95406
1570528057.96969
1570528057.98531
1570528058.00094
1570528058.01657
1570528058.03219
1570528058.04782
1570528058.06344
1570528058.07907
1570528058.09469
1570528058.11032
1570528058.12595
1570528058.14157
1570528058.1572
1570528058.17282
1570528058.18845
1570528058.20407
1570528058.2197
1570528058.23533
1570528058.25095
1570528058.26658
1570528058.2822
1570528058.29783
1570528058.31345
1570528058.32908
1570528058.34471
1570528058.36033
1570528058.37596
1570528058.39158
1570528058.40721
1570528058.42283
1570528058.43846
1570528058.45409
1570528058.46971
1570528058.48534
1570528058.50096
1570528058.51659
1570528058.53222
1570528058.54784
1570528058.56347
1570528058.57909
1570528058.59472
1570528058.61034
1570528058.62597
1570528058.6416
1570528058.65722
1570528058.67285
1570528058.68847
1570528058.7041
1570528058.71972
1570528058.73535
1570528058.75098
1570528058.7666
1570528058.78223
1570528058.79785
1570528058.81348
1570528058.8291
1570528058.84473
1570528058.86036
1570528058.87598
1570528058.89161
1570528058.90723
1570528058.92286
1570528058.93848
1570528058.95411
1570528058.96974
1570528058.98536
1570528059.00099
1570528059.01661
1570528059.03224
1570528059.04786
1570528059.06349
1570528059.07912
1570528059.09474
1570528059.11037
1570528059.12599
1570528059.14162
1570528059.15724
1570528059.17287
1570528059.1885
1570528059.20412
1570528059.21975
1570528059.23537
1570528059.251
1570528059.26662
1570528059.28225
1570528059.29788
1570528059.3135
1570528059.32913
1570528059.34475
1570528059.36038
1570528059.376
1570528059.39163
1570528059.40726
1570528059.42288
1570528059.43851
1570528059.45413
1570528059.46976
1570528059.48538
1570528059.50101
1570528059.51664
1570528059.53226
1570528059.54789
1570528059.56351
1570528059.57914
1570528059.59476
1570528059.61039
1570528059.62602
1570528059.64164
1570528059.65727
1570528059.67289
1570528059.68852
1570528059.70414
1570528059.71977
1570528059.7354
1570528059.75102
1570528059.76665
1570528059.78227
1570528059.7979
1570528059.81352
1570528059.82915
1570528059.84478
1570528059.8604
1570528059.87603
1570528059.89165
1570528059.90728
1570528059.9229
1570528059.93853
1570528059.95416
1570528059.96978
1570528059.98541
1570528060.00103
1570528060.01666
1570528060.03228
1570528060.04791
1570528060.06354
1570528060.07916
1570528060.09479
1570528060.11041
1570528060.12604
1570528060.14166
1570528060.15729
1570528060.17292
1570528060.18854
1570528060.20417
1570528060.21979
1570528060.23542
1570528060.25104
1570528060.26667
1570528060.2823
1570528060.29792
1570528060.31355
1570528060.32917
1570528060.3448
1570528060.36042
1570528060.37605
1570528060.39168
1570528060.4073
1570528060.42293
1570528060.43855
1570528060.45418
1570528060.4698
1570528060.48543
1570528060.50106
1570528060.51668
1570528060.53231
1570528060.54793
1570528060.56356
1570528060.57918
1570528060.59481
1570528060.61044
1570528060.62606
1570528060.64169
1570528060.65731
1570528060.67294
1570528060.68857
1570528060.70419
1570528060.71982
1570528060.73544
1570528060.75107
1570528060.76669
1570528060.78232
1570528060.79795
1570528060.81357
1570528060.8292
1570528060.84482
1570528060.86045
1570528060.87607
1570528060.8917
1570528060.90733
1570528060.92295
1570528060.93858
1570528060.9542
1570528060.96983
1570528060.98545
1570528061.00108
1570528061.01671
1570528061.03233
1570528061.04796
1570528061.06358
1570528061.07921
1570528061.09483
1570528061.11046
1570528061.12609
1570528061.14171
1570528061.15734
1570528061.17296
1570528061.18859
1570528061.20421
1570528061.21984
1570528061.23547
1570528061.25109
1570528061.26672
1570528061.28234
1570528061.29797
1570528061.31359
1570528061.32922
1570528061.34485
1570528061.36047
1570528061.3761
1570528061.39172
1570528061.40735
1570528061.42297
1570528061.4386
1570528061.45423
1570528061.46985
1570528061.48548
1570528061.5011
1570528061.51673
1570528061.53235
1570528061.54798
1570528061.56361
1570528061.57923
1570528061.59486
1570528061.61048
1570528061.62611
1570528061.64173
1570528061.65736
1570528061.67299
1570528061.68861
1570528061.70424
1570528061.71986
1570528061.73549
1570528061.75111
1570528061.76674
1570528061.78237
1570528061.79799
1570528061.81362
1570528061.82924
1570528061.84487
1570528061.86049
1570528061.87612
1570528061.89175
1570528061.90737
1570528061.923
1570528061.93862
1570528061.95425
1570528061.96987
1570528061.9855
1570528062.00113
1570528062.01675
1570528062.03238
1570528062.048
1570528062.06363
1570528062.07925
1570528062.09488
1570528062.11051
1570528062.12613
1570528062.14176
1570528062.15738
1570528062.17301
1570528062.18863
1570528062.20426
1570528062.21989
1570528062.23551
1570528062.25114
1570528062.26676
1570528062.28239
1570528062.29801
1570528062.31364
1570528062.32927
1570528062.34489
1570528062.36052
1570528062.37614
1570528062.39177
1570528062.40739
1570528062.42302
1570528062.43865
1570528062.45427
1570528062.4699
1570528062.48552
1570528062.50115
1570528062.51677
1570528062.5324
1570528062.54803
1570528062.56365
1570528062.57928
1570528062.5949
1570528062.61053
1570528062.62615
1570528062.64178
1570528062.65741
1570528062.67303
1570528062.68866
1570528062.70428
1570528062.71991
1570528062.73553
1570528062.75116
1570528062.76679
1570528062.78241
1570528062.79804
1570528062.81366
1570528062.82929
1570528062.84491
1570528062.86054
1570528062.87617
1570528062.89179
1570528062.90742
1570528062.92304
1570528062.93867
1570528062.95429
1570528062.96992
1570528062.98555
1570528063.00117
1570528063.0168
1570528063.03242
1570528063.04805
1570528063.06367
1570528063.0793
1570528063.09493
1570528063.11055
1570528063.12618
1570528063.1418
1570528063.15743
1570528063.17305
1570528063.18868
1570528063.20431
1570528063.21993
1570528063.23556
1570528063.25118
1570528063.26681
1570528063.28243
1570528063.29806
1570528063.31369
1570528063.32931
1570528063.34494
1570528063.36056
1570528063.37619
1570528063.39182
1570528063.40744
1570528063.42307
1570528063.43869
1570528063.45432
1570528063.46994
1570528063.48557
1570528063.5012
1570528063.51682
1570528063.53245
1570528063.54807
1570528063.5637
1570528063.57932
1570528063.59495
1570528063.61058
1570528063.6262
1570528063.64183
1570528063.65745
1570528063.67308
1570528063.6887
1570528063.70433
1570528063.71996
1570528063.73558
1570528063.75121
1570528063.76683
1570528063.78246
1570528063.79808
1570528063.81371
1570528063.82934
1570528063.84496
1570528063.86059
1570528063.87621
1570528063.89184
1570528063.90746
1570528063.92309
1570528063.93872
1570528063.95434
1570528063.96997
1570528063.98559
1570528064.00122
1570528064.01684
1570528064.03247
1570528064.0481
1570528064.06372
1570528064.07935
1570528064.09497
1570528064.1106
1570528064.12622
1570528064.14185
1570528064.15748
1570528064.1731
1570528064.18873
1570528064.20435
1570528064.21998
1570528064.2356
1570528064.25123
1570528064.26686
1570528064.28248
1570528064.29811
1570528064.31373
1570528064.32936
1570528064.34498
1570528064.36061
1570528064.37624
1570528064.39186
1570528064.40749
1570528064.42311
1570528064.43874
1570528064.45436
1570528064.46999
1570528064.48562
1570528064.50124
1570528064.51687
1570528064.53249
1570528064.54812
1570528064.56374
1570528064.57937
1570528064.595
1570528064.61062
1570528064.62625
1570528064.64187
1570528064.6575
1570528064.67312
1570528064.68875
1570528064.70438
1570528064.72
1570528064.73563
1570528064.75125
1570528064.76688
1570528064.7825
1570528064.79813
1570528064.81376
1570528064.82938
1570528064.84501
1570528064.86063
1570528064.87626
1570528064.89188
1570528064.90751
1570528064.92314
1570528064.93876
1570528064.95439
1570528064.97001
1570528064.98564
1570528065.00126
1570528065.01689
1570528065.03252
1570528065.04814
1570528065.06377
1570528065.07939
1570528065.09502
1570528065.11064
1570528065.12627
1570528065.1419
1570528065.15752
1570528065.17315
1570528065.18877
1570528065.2044
1570528065.22002
1570528065.23565
1570528065.25128
1570528065.2669
1570528065.28253
1570528065.29815
1570528065.31378
1570528065.3294
1570528065.34503
1570528065.36066
1570528065.37628
1570528065.39191
1570528065.40753
1570528065.42316
1570528065.43878
1570528065.45441
1570528065.47004
1570528065.48566
1570528065.50129
1570528065.51691
1570528065.53254
1570528065.54816
1570528065.56379
1570528065.57942
1570528065.59504
1570528065.61067
1570528065.62629
1570528065.64192
1570528065.65755
1570528065.67317
1570528065.6888
1570528065.70442
1570528065.72005
1570528065.73567
1570528065.7513
1570528065.76693
1570528065.78255
1570528065.79818
1570528065.8138
1570528065.82943
1570528065.84505
1570528065.86068
1570528065.87631
1570528065.89193
1570528065.90756
1570528065.92318
1570528065.93881
1570528065.95443
1570528065.97006
1570528065.98569
1570528066.00131
1570528066.01694
1570528066.03256
1570528066.04819
1570528066.06381
1570528066.07944
1570528066.09507
1570528066.11069
1570528066.12632
1570528066.14194
1570528066.15757
1570528066.17319
1570528066.18882
1570528066.20445
1570528066.22007
1570528066.2357
1570528066.25132
1570528066.26695
1570528066.28257
1570528066.2982
1570528066.31383
1570528066.32945
1570528066.34508
1570528066.3607
1570528066.37633
1570528066.39195
1570528066.40758
1570528066.42321
1570528066.43883
1570528066.45446
1570528066.47008
1570528066.48571
1570528066.50133
1570528066.51696
1570528066.53259
1570528066.54821
1570528066.56384
1570528066.57946
1570528066.59509
1570528066.61071
1570528066.62634
1570528066.64197
1570528066.65759
1570528066.67322
1570528066.68884
1570528066.70447
1570528066.72009
1570528066.73572
1570528066.75135
1570528066.76697
1570528066.7826
1570528066.79822
1570528066.81385
1570528066.82947
1570528066.8451
1570528066.86073
1570528066.87635
1570528066.89198
1570528066.9076
1570528066.92323
1570528066.93885
1570528066.95448
1570528066.97011
1570528066.98573
1570528067.00136
1570528067.01698
1570528067.03261
1570528067.04823
1570528067.06386
1570528067.07949
1570528067.09511
1570528067.11074
1570528067.12636
1570528067.14199
1570528067.15761
1570528067.17324
1570528067.18887
1570528067.20449
1570528067.22012
1570528067.23574
1570528067.25137
1570528067.26699
1570528067.28262
1570528067.29825
1570528067.31387
1570528067.3295
1570528067.34512
1570528067.36075
1570528067.37637
1570528067.392
1570528067.40763
1570528067.42325
1570528067.43888
1570528067.4545
1570528067.47013
1570528067.48575
1570528067.50138
1570528067.51701
1570528067.53263
1570528067.54826
1570528067.56388
1570528067.57951
1570528067.59513
1570528067.61076
1570528067.62639
1570528067.64201
1570528067.65764
1570528067.67326
1570528067.68889
1570528067.70451
1570528067.72014
1570528067.73577
1570528067.75139
1570528067.76702
1570528067.78264
1570528067.79827
1570528067.81389
1570528067.82952
1570528067.84515
1570528067.86077
1570528067.8764
1570528067.89202
1570528067.90765
1570528067.92327
1570528067.9389
1570528067.95453
1570528067.97015
1570528067.98578
1570528068.0014
1570528068.01703
1570528068.03266
1570528068.04828
1570528068.06391
1570528068.07953
1570528068.09516
1570528068.11078
1570528068.12641
1570528068.14204
1570528068.15766
1570528068.17329
1570528068.18891
1570528068.20454
1570528068.22016
1570528068.23579
1570528068.25142
1570528068.26704
1570528068.28267
1570528068.29829
1570528068.31392
1570528068.32954
1570528068.34517
1570528068.3608
1570528068.37642
1570528068.39205
1570528068.40767
1570528068.4233
1570528068.43892
1570528068.45455
1570528068.47018
1570528068.4858
1570528068.50143
1570528068.51705
1570528068.53268
1570528068.5483
1570528068.56393
1570528068.57956
1570528068.59518
1570528068.61081
1570528068.62643
1570528068.64206
1570528068.65768
1570528068.67331
1570528068.68894
1570528068.70456
1570528068.72019
1570528068.73581
1570528068.75144
1570528068.76706
1570528068.78269
1570528068.79832
1570528068.81394
1570528068.82957
1570528068.84519
1570528068.86082
1570528068.87644
1570528068.89207
1570528068.9077
1570528068.92332
1570528068.93895
1570528068.95457
1570528068.9702
1570528068.98582
1570528069.00145
1570528069.01708
1570528069.0327
1570528069.04833
1570528069.06395
1570528069.07958
1570528069.0952
1570528069.11083
1570528069.12646
1570528069.14208
1570528069.15771
1570528069.17333
1570528069.18896
1570528069.20458
1570528069.22021
1570528069.23584
1570528069.25146
1570528069.26709
1570528069.28271
1570528069.29834
1570528069.31396
1570528069.32959
1570528069.34522
1570528069.36084
1570528069.37647
1570528069.39209
1570528069.40772
1570528069.42334
1570528069.43897
1570528069.4546
1570528069.47022
1570528069.48585
1570528069.50147
1570528069.5171
1570528069.53272
1570528069.54835
1570528069.56398
1570528069.5796
1570528069.59523
1570528069.61085
1570528069.62648
1570528069.6421
1570528069.65773
1570528069.67336
1570528069.68898
1570528069.70461
1570528069.72023
1570528069.73586
1570528069.75148
1570528069.76711
1570528069.78274
1570528069.79836
1570528069.81399
1570528069.82961
1570528069.84524
1570528069.86086
1570528069.87649
1570528069.89212
1570528069.90774
1570528069.92337
1570528069.93899
1570528069.95462
1570528069.97024
1570528069.98587
1570528070.0015
1570528070.01712
1570528070.03275
1570528070.04837
1570528070.064
1570528070.07962
1570528070.09525
1570528070.11088
1570528070.1265
1570528070.14213
1570528070.15775
1570528070.17338
1570528070.189
1570528070.20463
1570528070.22026
1570528070.23588
1570528070.25151
1570528070.26713
1570528070.28276
1570528070.29838
1570528070.31401
1570528070.32964
1570528070.34526
1570528070.36089
1570528070.37651
1570528070.39214
1570528070.40776
1570528070.42339
1570528070.43902
1570528070.45464
1570528070.47027
1570528070.48589
1570528070.50152
1570528070.51715
1570528070.53277
1570528070.5484
1570528070.56402
1570528070.57965
1570528070.59527
1570528070.6109
1570528070.62653
1570528070.64215
1570528070.65778
1570528070.6734
1570528070.68903
1570528070.70465
1570528070.72028
1570528070.73591
1570528070.75153
1570528070.76716
1570528070.78278
1570528070.79841
1570528070.81403
1570528070.82966
1570528070.84529
1570528070.86091
1570528070.87654
1570528070.89216
1570528070.90779
1570528070.92341
1570528070.93904
1570528070.95467
1570528070.97029
1570528070.98592
1570528071.00154
1570528071.01717
1570528071.03279
1570528071.04842
1570528071.06405
1570528071.07967
1570528071.0953
1570528071.11092
1570528071.12655
1570528071.14217
1570528071.1578
1570528071.17343
1570528071.18905
1570528071.20468
1570528071.2203
1570528071.23593
1570528071.25155
1570528071.26718
1570528071.28281
1570528071.29843
1570528071.31406
1570528071.32968
1570528071.34531
1570528071.36093
1570528071.37656
1570528071.39219
1570528071.40781
1570528071.42344
1570528071.43906
1570528071.45469
1570528071.47031
1570528071.48594
1570528071.50157
1570528071.51719
1570528071.53282
1570528071.54844
1570528071.56407
1570528071.57969
1570528071.59532
1570528071.61095
1570528071.62657
1570528071.6422
1570528071.65782
1570528071.67345
1570528071.68907
1570528071.7047
1570528071.72033
1570528071.73595
1570528071.75158
1570528071.7672
1570528071.78283
1570528071.79845
1570528071.81408
1570528071.82971
1570528071.84533
1570528071.86096
1570528071.87658
1570528071.89221
1570528071.90783
1570528071.92346
1570528071.93909
1570528071.95471
1570528071.97034
1570528071.98596
1570528072.00159
1570528072.01721
1570528072.03284
1570528072.04847
1570528072.06409
1570528072.07972
1570528072.09534
1570528072.11097
1570528072.12659
1570528072.14222
1570528072.15785
1570528072.17347
1570528072.1891
1570528072.20472
1570528072.22035
1570528072.23597
1570528072.2516
1570528072.26723
1570528072.28285
1570528072.29848
1570528072.3141
1570528072.32973
1570528072.34535
1570528072.36098
1570528072.37661
1570528072.39223
1570528072.40786
1570528072.42348
1570528072.43911
1570528072.45473
1570528072.47036
1570528072.48599
1570528072.50161
1570528072.51724
1570528072.53286
1570528072.54849
1570528072.56411
1570528072.57974
1570528072.59537
1570528072.61099
1570528072.62662
1570528072.64224
1570528072.65787
1570528072.6735
1570528072.68912
1570528072.70475
1570528072.72037
1570528072.736
1570528072.75162
1570528072.76725
1570528072.78288
1570528072.7985
1570528072.81413
1570528072.82975
1570528072.84538
1570528072.861
1570528072.87663
1570528072.89226
1570528072.90788
1570528072.92351
1570528072.93913
1570528072.95476
1570528072.97038
1570528072.98601
1570528073.00164
1570528073.01726
1570528073.03289
1570528073.04851
1570528073.06414
1570528073.07976
1570528073.09539
1570528073.11102
1570528073.12664
1570528073.14227
1570528073.15789
1570528073.17352
1570528073.18914
1570528073.20477
1570528073.2204
1570528073.23602
1570528073.25165
1570528073.26727
1570528073.2829
1570528073.29852
1570528073.31415
1570528073.32978
1570528073.3454
1570528073.36103
1570528073.37665
1570528073.39228
1570528073.4079
1570528073.42353
1570528073.43916
1570528073.45478
1570528073.47041
1570528073.48603
1570528073.50166
1570528073.51728
1570528073.53291
1570528073.54854
1570528073.56416
1570528073.57979
1570528073.59541
1570528073.61104
1570528073.62666
1570528073.64229
1570528073.65792
1570528073.67354
1570528073.68917
1570528073.70479
1570528073.72042
1570528073.73604
1570528073.75167
1570528073.7673
1570528073.78292
1570528073.79855
1570528073.81417
1570528073.8298
1570528073.84542
1570528073.86105
1570528073.87668
1570528073.8923
1570528073.90793
1570528073.92355
1570528073.93918
1570528073.9548
1570528073.97043
1570528073.98606
1570528074.00168
1570528074.01731
1570528074.03293
1570528074.04856
1570528074.06418
1570528074.07981
1570528074.09544
1570528074.11106
1570528074.12669
1570528074.14231
1570528074.15794
1570528074.17356
1570528074.18919
1570528074.20482
1570528074.22044
1570528074.23607
1570528074.25169
1570528074.26732
1570528074.28294
1570528074.29857
1570528074.3142
1570528074.32982
1570528074.34545
1570528074.36107
1570528074.3767
1570528074.39232
1570528074.40795
1570528074.42358
1570528074.4392
1570528074.45483
1570528074.47045
1570528074.48608
1570528074.5017
1570528074.51733
1570528074.53296
1570528074.54858
1570528074.56421
1570528074.57983
1570528074.59546
1570528074.61108
1570528074.62671
1570528074.64234
1570528074.65796
1570528074.67359
1570528074.68921
1570528074.70484
1570528074.72046
1570528074.73609
1570528074.75172
1570528074.76734
1570528074.78297
1570528074.79859
1570528074.81422
1570528074.82984
1570528074.84547
1570528074.8611
1570528074.87672
1570528074.89235
1570528074.90797
1570528074.9236
1570528074.93922
1570528074.95485
1570528074.97048
1570528074.9861
1570528075.00173
1570528075.01735
1570528075.03298
1570528075.0486
1570528075.06423
1570528075.07986
1570528075.09548
1570528075.11111
1570528075.12673
1570528075.14236
1570528075.15798
1570528075.17361
1570528075.18924
1570528075.20486
1570528075.22049
1570528075.23611
1570528075.25174
1570528075.26736
1570528075.28299
1570528075.29862
1570528075.31424
1570528075.32987
1570528075.34549
1570528075.36112
1570528075.37675
1570528075.39237
1570528075.408
1570528075.42362
1570528075.43925
1570528075.45487
1570528075.4705
1570528075.48613
1570528075.50175
1570528075.51738
1570528075.533
1570528075.54863
1570528075.56425
1570528075.57988
1570528075.59551
1570528075.61113
1570528075.62676
1570528075.64238
1570528075.65801
1570528075.67363
1570528075.68926
1570528075.70489
1570528075.72051
1570528075.73614
1570528075.75176
1570528075.76739
1570528075.78301
1570528075.79864
1570528075.81427
1570528075.82989
1570528075.84552
1570528075.86114
1570528075.87677
1570528075.89239
1570528075.90802
1570528075.92365
1570528075.93927
1570528075.9549
1570528075.97052
1570528075.98615
1570528076.00177
1570528076.0174
1570528076.03303
1570528076.04865
1570528076.06428
1570528076.0799
1570528076.09553
1570528076.11115
1570528076.12678
1570528076.14241
1570528076.15803
1570528076.17366
1570528076.18928
1570528076.20491
1570528076.22053
1570528076.23616
1570528076.25179
1570528076.26741
1570528076.28304
1570528076.29866
1570528076.31429
1570528076.32991
1570528076.34554
1570528076.36117
1570528076.37679
1570528076.39242
1570528076.40804
1570528076.42367
1570528076.43929
1570528076.45492
1570528076.47055
1570528076.48617
1570528076.5018
1570528076.51742
1570528076.53305
1570528076.54867
1570528076.5643
1570528076.57993
1570528076.59555
1570528076.61118
1570528076.6268
1570528076.64243
1570528076.65805
1570528076.67368
1570528076.68931
1570528076.70493
1570528076.72056
1570528076.73618
1570528076.75181
1570528076.76743
1570528076.78306
1570528076.79869
1570528076.81431
1570528076.82994
1570528076.84556
1570528076.86119
1570528076.87681
1570528076.89244
1570528076.90807
1570528076.92369
1570528076.93932
1570528076.95494
1570528076.97057
1570528076.98619
1570528077.00182
1570528077.01745
1570528077.03307
1570528077.0487
1570528077.06432
1570528077.07995
1570528077.09557
1570528077.1112
1570528077.12683
1570528077.14245
1570528077.15808
1570528077.1737
1570528077.18933
1570528077.20495
1570528077.22058
1570528077.23621
1570528077.25183
1570528077.26746
1570528077.28308
1570528077.29871
1570528077.31433
1570528077.32996
1570528077.34559
1570528077.36121
1570528077.37684
1570528077.39246
1570528077.40809
1570528077.42371
1570528077.43934
1570528077.45497
1570528077.47059
1570528077.48622
1570528077.50184
1570528077.51747
1570528077.5331
1570528077.54872
1570528077.56435
1570528077.57997
1570528077.5956
1570528077.61122
1570528077.62685
1570528077.64248
1570528077.6581
1570528077.67373
1570528077.68935
1570528077.70498
1570528077.7206
1570528077.73623
1570528077.75186
1570528077.76748
1570528077.78311
1570528077.79873
1570528077.81436
1570528077.82998
1570528077.84561
1570528077.86124
1570528077.87686
1570528077.89249
1570528077.90811
1570528077.92374
1570528077.93936
1570528077.95499
1570528077.97062
1570528077.98624
1570528078.00187
1570528078.01749
1570528078.03312
1570528078.04874
1570528078.06437
1570528078.08
1570528078.09562
1570528078.11125
1570528078.12687
1570528078.1425
1570528078.15812
1570528078.17375
1570528078.18938
1570528078.205
1570528078.22063
1570528078.23625
1570528078.25188
1570528078.2675
1570528078.28313
1570528078.29876
1570528078.31438
1570528078.33001
1570528078.34563
1570528078.36126
1570528078.37688
1570528078.39251
1570528078.40814
1570528078.42376
1570528078.43939
1570528078.45501
1570528078.47064
1570528078.48626
1570528078.50189
1570528078.51752
1570528078.53314
1570528078.54877
1570528078.56439
1570528078.58002
1570528078.59564
1570528078.61127
1570528078.6269
1570528078.64252
1570528078.65815
1570528078.67377
1570528078.6894
1570528078.70502
1570528078.72065
1570528078.73628
1570528078.7519
1570528078.76753
1570528078.78315
1570528078.79878
1570528078.8144
1570528078.83003
1570528078.84566
1570528078.86128
1570528078.87691
1570528078.89253
1570528078.90816
1570528078.92378
1570528078.93941
1570528078.95504
1570528078.97066
1570528078.98629
1570528079.00191
1570528079.01754
1570528079.03316
1570528079.04879
1570528079.06442
1570528079.08004
1570528079.09567
1570528079.11129
1570528079.12692
1570528079.14254
1570528079.15817
1570528079.1738
1570528079.18942
1570528079.20505
1570528079.22067
1570528079.2363
1570528079.25192
1570528079.26755
1570528079.28318
1570528079.2988
1570528079.31443
1570528079.33005
1570528079.34568
1570528079.3613
1570528079.37693
1570528079.39256
1570528079.40818
1570528079.42381
1570528079.43943
1570528079.45506
1570528079.47068
1570528079.48631
1570528079.50194
1570528079.51756
1570528079.53319
1570528079.54881
1570528079.56444
1570528079.58006
1570528079.59569
1570528079.61132
1570528079.62694
1570528079.64257
1570528079.65819
1570528079.67382
1570528079.68944
1570528079.70507
1570528079.7207
1570528079.73632
1570528079.75195
1570528079.76757
1570528079.7832
1570528079.79883
1570528079.81445
1570528079.83008
1570528079.8457
1570528079.86133
1570528079.87695
1570528079.89258
1570528079.90821
1570528079.92383
1570528079.93946
1570528079.95508
1570528079.97071
1570528079.98633
1570528080.00196
1570528080.01759
1570528080.03321
1570528080.04884
1570528080.06446
1570528080.08009
1570528080.09571
1570528080.11134
1570528080.12697
1570528080.14259
1570528080.15822
1570528080.17384
1570528080.18947
1570528080.20509
1570528080.22072
1570528080.23635
1570528080.25197
1570528080.2676
1570528080.28322
1570528080.29885
1570528080.31447
1570528080.3301
1570528080.34573
1570528080.36135
1570528080.37698
1570528080.3926
1570528080.40823
1570528080.42385
1570528080.43948
1570528080.45511
1570528080.47073
1570528080.48636
1570528080.50198
1570528080.51761
1570528080.53323
1570528080.54886
1570528080.56449
1570528080.58011
1570528080.59574
1570528080.61136
1570528080.62699
1570528080.64261
1570528080.65824
1570528080.67387
1570528080.68949
1570528080.70512
1570528080.72074
1570528080.73637
1570528080.75199
1570528080.76762
1570528080.78325
1570528080.79887
1570528080.8145
1570528080.83012
1570528080.84575
1570528080.86137
1570528080.877
1570528080.89263
1570528080.90825
1570528080.92388
1570528080.9395
1570528080.95513
1570528080.97075
1570528080.98638
1570528081.00201
1570528081.01763
1570528081.03326
1570528081.04888
1570528081.06451
1570528081.08013
1570528081.09576
1570528081.11139
1570528081.12701
1570528081.14264
1570528081.15826
1570528081.17389
1570528081.18951
1570528081.20514
1570528081.22077
1570528081.23639
1570528081.25202
1570528081.26764
1570528081.28327
1570528081.29889
1570528081.31452
1570528081.33015
1570528081.34577
1570528081.3614
1570528081.37702
1570528081.39265
1570528081.40827
1570528081.4239
1570528081.43953
1570528081.45515
1570528081.47078
1570528081.4864
1570528081.50203
1570528081.51765
1570528081.53328
1570528081.54891
1570528081.56453
1570528081.58016
1570528081.59578
1570528081.61141
1570528081.62703
1570528081.64266
1570528081.65829
1570528081.67391
1570528081.68954
1570528081.70516
1570528081.72079
1570528081.73641
1570528081.75204
1570528081.76767
1570528081.78329
1570528081.79892
1570528081.81454
1570528081.83017
1570528081.84579
1570528081.86142
1570528081.87705
1570528081.89267
1570528081.9083
1570528081.92392
1570528081.93955
1570528081.95517
1570528081.9708
1570528081.98643
1570528082.00205
1570528082.01768
1570528082.0333
1570528082.04893
1570528082.06455
1570528082.08018
1570528082.09581
1570528082.11143
1570528082.12706
1570528082.14268
1570528082.15831
1570528082.17393
1570528082.18956
1570528082.20519
1570528082.22081
1570528082.23644
1570528082.25206
1570528082.26769
1570528082.28331
1570528082.29894
1570528082.31457
1570528082.33019
1570528082.34582
1570528082.36144
1570528082.37707
1570528082.3927
1570528082.40832
1570528082.42395
1570528082.43957
1570528082.4552
1570528082.47082
1570528082.48645
1570528082.50208
1570528082.5177
1570528082.53333
1570528082.54895
1570528082.56458
1570528082.5802
1570528082.59583
1570528082.61146
1570528082.62708
1570528082.64271
1570528082.65833
1570528082.67396
1570528082.68958
1570528082.70521
1570528082.72084
1570528082.73646
1570528082.75209
1570528082.76771
1570528082.78334
1570528082.79896
1570528082.81459
1570528082.83022
1570528082.84584
1570528082.86147
1570528082.87709
1570528082.89272
1570528082.90834
1570528082.92397
1570528082.9396
1570528082.95522
1570528082.97085
1570528082.98647
1570528083.0021
1570528083.01772
1570528083.03335
1570528083.04898
1570528083.0646
1570528083.08023
1570528083.09585
1570528083.11148
1570528083.1271
1570528083.14273
1570528083.15836
1570528083.17398
1570528083.18961
1570528083.20523
1570528083.22086
1570528083.23648
1570528083.25211
1570528083.26774
1570528083.28336
1570528083.29899
1570528083.31461
1570528083.33024
1570528083.34586
1570528083.36149
1570528083.37712
1570528083.39274
1570528083.40837
1570528083.42399
1570528083.43962
1570528083.45524
1570528083.47087
1570528083.4865
1570528083.50212
1570528083.51775
1570528083.53337
1570528083.549
1570528083.56462
1570528083.58025
1570528083.59588
1570528083.6115
1570528083.62713
1570528083.64275
1570528083.65838
1570528083.674
1570528083.68963
1570528083.70526
1570528083.72088
1570528083.73651
1570528083.75213
1570528083.76776
1570528083.78338
1570528083.79901
1570528083.81464
1570528083.83026
1570528083.84589
1570528083.86151
1570528083.87714
1570528083.89276
1570528083.90839
1570528083.92402
1570528083.93964
1570528083.95527
1570528083.97089
1570528083.98652
1570528084.00214
1570528084.01777
1570528084.0334
1570528084.04902
1570528084.06465
1570528084.08027
1570528084.0959
1570528084.11152
1570528084.12715
1570528084.14278
1570528084.1584
1570528084.17403
1570528084.18965
1570528084.20528
1570528084.2209
1570528084.23653
1570528084.25216
1570528084.26778
1570528084.28341
1570528084.29903
1570528084.31466
1570528084.33028
1570528084.34591
1570528084.36154
1570528084.37716
1570528084.39279
1570528084.40841
1570528084.42404
1570528084.43966
1570528084.45529
1570528084.47092
1570528084.48654
1570528084.50217
1570528084.51779
1570528084.53342
1570528084.54904
1570528084.56467
1570528084.5803
1570528084.59592
1570528084.61155
1570528084.62717
1570528084.6428
1570528084.65843
1570528084.67405
1570528084.68968
1570528084.7053
1570528084.72093
1570528084.73655
1570528084.75218
1570528084.76781
1570528084.78343
1570528084.79906
1570528084.81468
1570528084.83031
1570528084.84593
1570528084.86156
1570528084.87719
1570528084.89281
1570528084.90844
1570528084.92406
1570528084.93969
1570528084.95531
1570528084.97094
1570528084.98657
1570528085.00219
1570528085.01782
1570528085.03344
1570528085.04907
1570528085.06469
1570528085.08032
1570528085.09595
1570528085.11157
1570528085.1272
1570528085.14282
1570528085.15845
1570528085.17407
1570528085.1897
1570528085.20533
1570528085.22095
1570528085.23658
1570528085.2522
1570528085.26783
1570528085.28345
1570528085.29908
1570528085.31471
1570528085.33033
1570528085.34596
1570528085.36158
1570528085.37721
1570528085.39283
1570528085.40846
1570528085.42409
1570528085.43971
1570528085.45534
1570528085.47096
1570528085.48659
1570528085.50221
1570528085.51784
1570528085.53347
1570528085.54909
1570528085.56472
1570528085.58034
1570528085.59597
1570528085.61159
1570528085.62722
1570528085.64285
1570528085.65847
1570528085.6741
1570528085.68972
1570528085.70535
1570528085.72097
1570528085.7366
1570528085.75223
1570528085.76785
1570528085.78348
1570528085.7991
1570528085.81473
1570528085.83035
1570528085.84598
1570528085.86161
1570528085.87723
1570528085.89286
1570528085.90848
1570528085.92411
1570528085.93973
1570528085.95536
1570528085.97099
1570528085.98661
1570528086.00224
1570528086.01786
1570528086.03349
1570528086.04911
1570528086.06474
1570528086.08037
1570528086.09599
1570528086.11162
1570528086.12724
1570528086.14287
1570528086.15849
1570528086.17412
1570528086.18975
1570528086.20537
1570528086.221
1570528086.23662
1570528086.25225
1570528086.26787
1570528086.2835
1570528086.29913
1570528086.31475
1570528086.33038
1570528086.346
1570528086.36163
1570528086.37725
1570528086.39288
1570528086.40851
1570528086.42413
1570528086.43976
1570528086.45538
1570528086.47101
1570528086.48663
1570528086.50226
1570528086.51789
1570528086.53351
1570528086.54914
1570528086.56476
1570528086.58039
1570528086.59601
1570528086.61164
1570528086.62727
1570528086.64289
1570528086.65852
1570528086.67414
1570528086.68977
1570528086.70539
1570528086.72102
1570528086.73665
1570528086.75227
1570528086.7679
1570528086.78352
1570528086.79915
1570528086.81477
1570528086.8304
1570528086.84603
1570528086.86165
1570528086.87728
1570528086.8929
1570528086.90853
1570528086.92416
1570528086.93978
1570528086.95541
1570528086.97103
1570528086.98666
1570528087.00228
1570528087.01791
1570528087.03354
1570528087.04916
1570528087.06479
1570528087.08041
1570528087.09604
1570528087.11166
1570528087.12729
1570528087.14292
1570528087.15854
1570528087.17417
1570528087.18979
1570528087.20542
1570528087.22104
1570528087.23667
1570528087.2523
1570528087.26792
1570528087.28355
1570528087.29917
1570528087.3148
1570528087.33042
1570528087.34605
1570528087.36168
1570528087.3773
1570528087.39293
1570528087.40855
1570528087.42418
1570528087.4398
1570528087.45543
1570528087.47106
1570528087.48668
1570528087.50231
1570528087.51793
1570528087.53356
1570528087.54918
1570528087.56481
1570528087.58044
1570528087.59606
1570528087.61169
1570528087.62731
1570528087.64294
1570528087.65856
1570528087.67419
1570528087.68982
1570528087.70544
1570528087.72107
1570528087.73669
1570528087.75232
1570528087.76794
1570528087.78357
1570528087.7992
1570528087.81482
1570528087.83045
1570528087.84607
1570528087.8617
1570528087.87732
1570528087.89295
1570528087.90858
1570528087.9242
1570528087.93983
1570528087.95545
1570528087.97108
1570528087.9867
1570528088.00233
1570528088.01796
1570528088.03358
1570528088.04921
1570528088.06483
1570528088.08046
1570528088.09608
1570528088.11171
1570528088.12734
1570528088.14296
1570528088.15859
1570528088.17421
1570528088.18984
1570528088.20546
1570528088.22109
1570528088.23672
1570528088.25234
1570528088.26797
1570528088.28359
1570528088.29922
1570528088.31484
1570528088.33047
1570528088.3461
1570528088.36172
1570528088.37735
1570528088.39297
1570528088.4086
1570528088.42422
1570528088.43985
1570528088.45548
1570528088.4711
1570528088.48673
1570528088.50235
1570528088.51798
1570528088.5336
1570528088.54923
1570528088.56486
1570528088.58048
1570528088.59611
1570528088.61173
1570528088.62736
1570528088.64298
1570528088.65861
1570528088.67424
1570528088.68986
1570528088.70549
1570528088.72111
1570528088.73674
1570528088.75236
1570528088.76799
1570528088.78362
1570528088.79924
1570528088.81487
1570528088.83049
1570528088.84612
1570528088.86174
1570528088.87737
1570528088.893
1570528088.90862
1570528088.92425
1570528088.93987
1570528088.9555
1570528088.97112
1570528088.98675
1570528089.00238
1570528089.018
1570528089.03363
1570528089.04925
1570528089.06488
1570528089.0805
1570528089.09613
1570528089.11176
1570528089.12738
1570528089.14301
1570528089.15863
1570528089.17426
1570528089.18988
1570528089.20551
1570528089.22114
1570528089.23676
1570528089.25239
1570528089.26801
1570528089.28364
1570528089.29926
1570528089.31489
1570528089.33052
1570528089.34614
1570528089.36177
1570528089.37739
1570528089.39302
1570528089.40864
1570528089.42427
1570528089.4399
1570528089.45552
1570528089.47115
1570528089.48677
1570528089.5024
1570528089.51803
1570528089.53365
1570528089.54928
1570528089.5649
1570528089.58053
1570528089.59615
1570528089.61178
1570528089.62741
1570528089.64303
1570528089.65866
1570528089.67428
1570528089.68991
1570528089.70553
1570528089.72116
1570528089.73679
1570528089.75241
1570528089.76804
1570528089.78366
1570528089.79929
1570528089.81491
1570528089.83054
1570528089.84617
1570528089.86179
1570528089.87742
1570528089.89304
1570528089.90867
1570528089.92429
1570528089.93992
1570528089.95555
1570528089.97117
1570528089.9868
1570528090.00242
1570528090.01805
1570528090.03367
1570528090.0493
1570528090.06493
1570528090.08055
1570528090.09618
1570528090.1118
1570528090.12743
1570528090.14305
1570528090.15868
1570528090.17431
1570528090.18993
1570528090.20556
1570528090.22118
1570528090.23681
1570528090.25243
1570528090.26806
1570528090.28369
1570528090.29931
1570528090.31494
1570528090.33056
1570528090.34619
1570528090.36181
1570528090.37744
1570528090.39307
1570528090.40869
1570528090.42432
1570528090.43994
1570528090.45557
1570528090.47119
1570528090.48682
1570528090.50245
1570528090.51807
1570528090.5337
1570528090.54932
1570528090.56495
1570528090.58057
1570528090.5962
1570528090.61183
1570528090.62745
1570528090.64308
1570528090.6587
1570528090.67433
1570528090.68995
1570528090.70558
1570528090.72121
1570528090.73683
1570528090.75246
1570528090.76808
1570528090.78371
1570528090.79933
1570528090.81496
1570528090.83059
1570528090.84621
1570528090.86184
1570528090.87746
1570528090.89309
1570528090.90871
1570528090.92434
1570528090.93997
1570528090.95559
1570528090.97122
1570528090.98684
1570528091.00247
1570528091.01809
1570528091.03372
1570528091.04935
1570528091.06497
1570528091.0806
1570528091.09622
1570528091.11185
1570528091.12747
1570528091.1431
1570528091.15873
1570528091.17435
1570528091.18998
1570528091.2056
1570528091.22123
1570528091.23685
1570528091.25248
1570528091.26811
1570528091.28373
1570528091.29936
1570528091.31498
1570528091.33061
1570528091.34623
1570528091.36186
1570528091.37749
1570528091.39311
1570528091.40874
1570528091.42436
1570528091.43999
1570528091.45561
1570528091.47124
1570528091.48687
1570528091.50249
1570528091.51812
1570528091.53374
1570528091.54937
1570528091.56499
1570528091.58062
1570528091.59625
1570528091.61187
1570528091.6275
1570528091.64312
1570528091.65875
1570528091.67438
1570528091.69
1570528091.70563
1570528091.72125
1570528091.73688
1570528091.7525
1570528091.76813
1570528091.78376
1570528091.79938
1570528091.81501
1570528091.83063
1570528091.84626
1570528091.86188
1570528091.87751
1570528091.89314
1570528091.90876
1570528091.92439
1570528091.94001
1570528091.95564
1570528091.97126
1570528091.98689
1570528092.00252
1570528092.01814
1570528092.03377
1570528092.04939
1570528092.06502
1570528092.08064
1570528092.09627
1570528092.1119
1570528092.12752
1570528092.14315
1570528092.15877
1570528092.1744
1570528092.19002
1570528092.20565
1570528092.22128
1570528092.2369
1570528092.25253
1570528092.26815
1570528092.28378
1570528092.2994
1570528092.31503
1570528092.33066
1570528092.34628
1570528092.36191
1570528092.37753
1570528092.39316
1570528092.40878
1570528092.42441
1570528092.44004
1570528092.45566
1570528092.47129
1570528092.48691
1570528092.50254
1570528092.51816
1570528092.53379
1570528092.54942
1570528092.56504
1570528092.58067
1570528092.59629
1570528092.61192
1570528092.62754
1570528092.64317
1570528092.6588
1570528092.67442
1570528092.69005
1570528092.70567
1570528092.7213
1570528092.73692
1570528092.75255
1570528092.76818
1570528092.7838
1570528092.79943
1570528092.81505
1570528092.83068
1570528092.8463
1570528092.86193
1570528092.87756
1570528092.89318
1570528092.90881
1570528092.92443
1570528092.94006
1570528092.95568
1570528092.97131
1570528092.98694
1570528093.00256
1570528093.01819
1570528093.03381
1570528093.04944
1570528093.06506
1570528093.08069
1570528093.09632
1570528093.11194
1570528093.12757
1570528093.14319
1570528093.15882
1570528093.17444
1570528093.19007
1570528093.2057
1570528093.22132
1570528093.23695
1570528093.25257
1570528093.2682
1570528093.28382
1570528093.29945
1570528093.31508
1570528093.3307
1570528093.34633
1570528093.36195
1570528093.37758
1570528093.3932
1570528093.40883
1570528093.42446
1570528093.44008
1570528093.45571
1570528093.47133
1570528093.48696
1570528093.50258
1570528093.51821
1570528093.53384
1570528093.54946
1570528093.56509
1570528093.58071
1570528093.59634
1570528093.61196
1570528093.62759
1570528093.64322
1570528093.65884
1570528093.67447
1570528093.69009
1570528093.70572
1570528093.72134
1570528093.73697
1570528093.7526
1570528093.76822
1570528093.78385
1570528093.79947
1570528093.8151
1570528093.83072
1570528093.84635
1570528093.86198
1570528093.8776
1570528093.89323
1570528093.90885
1570528093.92448
1570528093.9401
1570528093.95573
1570528093.97136
1570528093.98698
1570528094.00261
1570528094.01823
1570528094.03386
1570528094.04948
1570528094.06511
1570528094.08074
1570528094.09636
1570528094.11199
1570528094.12761
1570528094.14324
1570528094.15886
1570528094.17449
1570528094.19012
1570528094.20574
1570528094.22137
1570528094.23699
1570528094.25262
1570528094.26824
1570528094.28387
1570528094.2995
1570528094.31512
1570528094.33075
1570528094.34637
1570528094.362
1570528094.37763
1570528094.39325
1570528094.40888
1570528094.4245
1570528094.44013
1570528094.45575
1570528094.47138
1570528094.48701
1570528094.50263
1570528094.51826
1570528094.53388
1570528094.54951
1570528094.56513
1570528094.58076
1570528094.59639
1570528094.61201
1570528094.62764
1570528094.64326
1570528094.65889
1570528094.67451
1570528094.69014
1570528094.70577
1570528094.72139
1570528094.73702
1570528094.75264
1570528094.76827
1570528094.78389
1570528094.79952
1570528094.81515
1570528094.83077
1570528094.8464
1570528094.86202
1570528094.87765
1570528094.89327
1570528094.9089
1570528094.92453
1570528094.94015
1570528094.95578
1570528094.9714
1570528094.98703
1570528095.00265
1570528095.01828
1570528095.03391
1570528095.04953
1570528095.06516
1570528095.08078
1570528095.09641
1570528095.11203
1570528095.12766
1570528095.14329
1570528095.15891
1570528095.17454
1570528095.19016
1570528095.20579
1570528095.22141
1570528095.23704
1570528095.25267
1570528095.26829
1570528095.28392
1570528095.29954
1570528095.31517
1570528095.33079
1570528095.34642
1570528095.36205
1570528095.37767
1570528095.3933
1570528095.40892
1570528095.42455
1570528095.44017
1570528095.4558
1570528095.47143
1570528095.48705
1570528095.50268
1570528095.5183
1570528095.53393
1570528095.54955
1570528095.56518
1570528095.58081
1570528095.59643
1570528095.61206
1570528095.62768
1570528095.64331
1570528095.65893
1570528095.67456
1570528095.69019
1570528095.70581
1570528095.72144
1570528095.73706
1570528095.75269
1570528095.76831
1570528095.78394
1570528095.79957
1570528095.81519
1570528095.83082
1570528095.84644
1570528095.86207
1570528095.87769
1570528095.89332
1570528095.90895
1570528095.92457
1570528095.9402
1570528095.95582
1570528095.97145
1570528095.98707
1570528096.0027
1570528096.01833
1570528096.03395
1570528096.04958
1570528096.0652
1570528096.08083
1570528096.09645
1570528096.11208
1570528096.12771
1570528096.14333
1570528096.15896
1570528096.17458
1570528096.19021
1570528096.20583
1570528096.22146
1570528096.23709
1570528096.25271
1570528096.26834
1570528096.28396
1570528096.29959
1570528096.31521
1570528096.33084
1570528096.34647
1570528096.36209
1570528096.37772
1570528096.39334
1570528096.40897
1570528096.42459
1570528096.44022
1570528096.45585
1570528096.47147
1570528096.4871
1570528096.50272
1570528096.51835
1570528096.53397
1570528096.5496
1570528096.56523
1570528096.58085
1570528096.59648
1570528096.6121
1570528096.62773
1570528096.64336
1570528096.65898
1570528096.67461
1570528096.69023
1570528096.70586
1570528096.72148
1570528096.73711
1570528096.75274
1570528096.76836
1570528096.78399
1570528096.79961
1570528096.81524
1570528096.83086
1570528096.84649
1570528096.86212
1570528096.87774
1570528096.89337
1570528096.90899
1570528096.92462
1570528096.94024
1570528096.95587
1570528096.9715
1570528096.98712
1570528097.00275
1570528097.01837
1570528097.034
1570528097.04962
1570528097.06525
1570528097.08088
1570528097.0965
1570528097.11213
1570528097.12775
1570528097.14338
1570528097.159
1570528097.17463
1570528097.19026
1570528097.20588
1570528097.22151
1570528097.23713
1570528097.25276
1570528097.26838
1570528097.28401
1570528097.29964
1570528097.31526
1570528097.33089
1570528097.34651
1570528097.36214
1570528097.37776
1570528097.39339
1570528097.40902
1570528097.42464
1570528097.44027
1570528097.45589
1570528097.47152
1570528097.48714
1570528097.50277
1570528097.5184
1570528097.53402
1570528097.54965
1570528097.56527
1570528097.5809
1570528097.59652
1570528097.61215
1570528097.62778
1570528097.6434
1570528097.65903
1570528097.67465
1570528097.69028
1570528097.7059
1570528097.72153
1570528097.73716
1570528097.75278
1570528097.76841
1570528097.78403
1570528097.79966
1570528097.81528
1570528097.83091
1570528097.84654
1570528097.86216
1570528097.87779
1570528097.89341
1570528097.90904
1570528097.92466
1570528097.94029
1570528097.95592
1570528097.97154
1570528097.98717
1570528098.00279
1570528098.01842
1570528098.03404
1570528098.04967
1570528098.0653
1570528098.08092
1570528098.09655
1570528098.11217
1570528098.1278
1570528098.14342
1570528098.15905
1570528098.17468
1570528098.1903
1570528098.20593
1570528098.22155
1570528098.23718
1570528098.2528
1570528098.26843
1570528098.28406
1570528098.29968
1570528098.31531
1570528098.33093
1570528098.34656
1570528098.36218
1570528098.37781
1570528098.39344
1570528098.40906
1570528098.42469
1570528098.44031
1570528098.45594
1570528098.47156
1570528098.48719
1570528098.50282
1570528098.51844
1570528098.53407
1570528098.54969
1570528098.56532
1570528098.58094
1570528098.59657
1570528098.6122
1570528098.62782
1570528098.64345
1570528098.65907
1570528098.6747
1570528098.69032
1570528098.70595
1570528098.72158
1570528098.7372
1570528098.75283
1570528098.76845
1570528098.78408
1570528098.79971
1570528098.81533
1570528098.83096
1570528098.84658
1570528098.86221
1570528098.87783
1570528098.89346
1570528098.90909
1570528098.92471
1570528098.94034
1570528098.95596
1570528098.97159
1570528098.98721
1570528099.00284
1570528099.01847
1570528099.03409
1570528099.04972
1570528099.06534
1570528099.08097
1570528099.09659
1570528099.11222
1570528099.12785
1570528099.14347
1570528099.1591
1570528099.17472
1570528099.19035
1570528099.20597
1570528099.2216
1570528099.23723
1570528099.25285
1570528099.26848
1570528099.2841
1570528099.29973
1570528099.31535
1570528099.33098
1570528099.34661
1570528099.36223
1570528099.37786
1570528099.39348
1570528099.40911
1570528099.42473
1570528099.44036
1570528099.45599
1570528099.47161
1570528099.48724
1570528099.50286
1570528099.51849
1570528099.53411
1570528099.54974
1570528099.56537
1570528099.58099
1570528099.59662
1570528099.61224
1570528099.62787
1570528099.64349
1570528099.65912
1570528099.67475
1570528099.69037
1570528099.706
1570528099.72162
1570528099.73725
1570528099.75287
1570528099.7685
1570528099.78413
1570528099.79975
1570528099.81538
1570528099.831
1570528099.84663
1570528099.86225
1570528099.87788
1570528099.89351
1570528099.90913
1570528099.92476
1570528099.94038
1570528099.95601
1570528099.97163
1570528099.98726
1570528100.00289
1570528100.01851
1570528100.03414
1570528100.04976
1570528100.06539
1570528100.08101
1570528100.09664
1570528100.11227
1570528100.12789
1570528100.14352
1570528100.15914
1570528100.17477
1570528100.19039
1570528100.20602
1570528100.22165
1570528100.23727
1570528100.2529
1570528100.26852
1570528100.28415
1570528100.29977
1570528100.3154
1570528100.33103
1570528100.34665
1570528100.36228
1570528100.3779
1570528100.39353
1570528100.40915
1570528100.42478
1570528100.44041
1570528100.45603
1570528100.47166
1570528100.48728
1570528100.50291
1570528100.51853
1570528100.53416
1570528100.54979
1570528100.56541
1570528100.58104
1570528100.59666
1570528100.61229
1570528100.62791
1570528100.64354
1570528100.65917
1570528100.67479
1570528100.69042
1570528100.70604
1570528100.72167
1570528100.73729
1570528100.75292
1570528100.76855
1570528100.78417
1570528100.7998
1570528100.81542
1570528100.83105
1570528100.84667
1570528100.8623
1570528100.87793
1570528100.89355
1570528100.90918
1570528100.9248
1570528100.94043
1570528100.95605
1570528100.97168
1570528100.98731
1570528101.00293
1570528101.01856
1570528101.03418
1570528101.04981
1570528101.06543
1570528101.08106
1570528101.09669
1570528101.11231
1570528101.12794
1570528101.14356
1570528101.15919
1570528101.17481
1570528101.19044
1570528101.20607
1570528101.22169
1570528101.23732
1570528101.25294
1570528101.26857
1570528101.28419
1570528101.29982
1570528101.31545
1570528101.33107
1570528101.3467
1570528101.36232
1570528101.37795
1570528101.39357
1570528101.4092
1570528101.42483
1570528101.44045
1570528101.45608
1570528101.4717
1570528101.48733
1570528101.50296
1570528101.51858
1570528101.53421
1570528101.54983
1570528101.56546
1570528101.58108
1570528101.59671
1570528101.61234
1570528101.62796
1570528101.64359
1570528101.65921
1570528101.67484
1570528101.69046
1570528101.70609
1570528101.72172
1570528101.73734
1570528101.75297
1570528101.76859
1570528101.78422
1570528101.79984
1570528101.81547
1570528101.8311
1570528101.84672
1570528101.86235
1570528101.87797
1570528101.8936
1570528101.90922
1570528101.92485
1570528101.94048
1570528101.9561
1570528101.97173
1570528101.98735
1570528102.00298
1570528102.0186
1570528102.03423
1570528102.04986
1570528102.06548
1570528102.08111
1570528102.09673
1570528102.11236
1570528102.12798
1570528102.14361
1570528102.15924
1570528102.17486
1570528102.19049
1570528102.20611
1570528102.22174
1570528102.23736
1570528102.25299
1570528102.26862
1570528102.28424
1570528102.29987
1570528102.31549
1570528102.33112
1570528102.34674
1570528102.36237
1570528102.378
1570528102.39362
1570528102.40925
1570528102.42487
1570528102.4405
1570528102.45612
1570528102.47175
1570528102.48738
1570528102.503
1570528102.51863
1570528102.53425
1570528102.54988
1570528102.5655
1570528102.58113
1570528102.59676
1570528102.61238
1570528102.62801
1570528102.64363
1570528102.65926
1570528102.67488
1570528102.69051
1570528102.70614
1570528102.72176
1570528102.73739
1570528102.75301
1570528102.76864
1570528102.78426
1570528102.79989
1570528102.81552
1570528102.83114
1570528102.84677
1570528102.86239
1570528102.87802
1570528102.89364
1570528102.90927
1570528102.9249
1570528102.94052
1570528102.95615
1570528102.97177
1570528102.9874
1570528103.00302
1570528103.01865
1570528103.03428
1570528103.0499
1570528103.06553
1570528103.08115
1570528103.09678
1570528103.1124
1570528103.12803
1570528103.14366
1570528103.15928
1570528103.17491
1570528103.19053
1570528103.20616
1570528103.22178
1570528103.23741
1570528103.25304
1570528103.26866
1570528103.28429
1570528103.29991
1570528103.31554
1570528103.33116
1570528103.34679
1570528103.36242
1570528103.37804
1570528103.39367
1570528103.40929
1570528103.42492
1570528103.44054
1570528103.45617
1570528103.4718
1570528103.48742
1570528103.50305
1570528103.51867
1570528103.5343
1570528103.54992
1570528103.56555
1570528103.58118
1570528103.5968
1570528103.61243
1570528103.62805
1570528103.64368
1570528103.65931
1570528103.67493
1570528103.69056
1570528103.70618
1570528103.72181
1570528103.73743
1570528103.75306
1570528103.76869
1570528103.78431
1570528103.79994
1570528103.81556
1570528103.83119
1570528103.84681
1570528103.86244
1570528103.87807
1570528103.89369
1570528103.90932
1570528103.92494
1570528103.94057
1570528103.95619
1570528103.97182
1570528103.98745
1570528104.00307
1570528104.0187
1570528104.03432
1570528104.04995
1570528104.06557
1570528104.0812
1570528104.09683
1570528104.11245
1570528104.12808
1570528104.1437
1570528104.15933
1570528104.17495
1570528104.19058
1570528104.20621
1570528104.22183
1570528104.23746
1570528104.25308
1570528104.26871
1570528104.28433
1570528104.29996
1570528104.31559
1570528104.33121
1570528104.34684
1570528104.36246
1570528104.37809
1570528104.39371
1570528104.40934
1570528104.42497
1570528104.44059
1570528104.45622
1570528104.47184
1570528104.48747
1570528104.50309
1570528104.51872
1570528104.53435
1570528104.54997
1570528104.5656
1570528104.58122
1570528104.59685
1570528104.61247
1570528104.6281
1570528104.64373
1570528104.65935
1570528104.67498
1570528104.6906
1570528104.70623
1570528104.72185
1570528104.73748
1570528104.75311
1570528104.76873
1570528104.78436
1570528104.79998
1570528104.81561
1570528104.83123
1570528104.84686
1570528104.86249
1570528104.87811
1570528104.89374
1570528104.90936
1570528104.92499
1570528104.94061
1570528104.95624
1570528104.97187
1570528104.98749
1570528105.00312
1570528105.01874
1570528105.03437
1570528105.04999
1570528105.06562
1570528105.08125
1570528105.09687
1570528105.1125
1570528105.12812
1570528105.14375
1570528105.15937
1570528105.175
1570528105.19063
1570528105.20625
1570528105.22188
1570528105.2375
1570528105.25313
1570528105.26875
1570528105.28438
1570528105.30001
1570528105.31563
1570528105.33126
1570528105.34688
1570528105.36251
1570528105.37813
1570528105.39376
1570528105.40939
1570528105.42501
1570528105.44064
1570528105.45626
1570528105.47189
1570528105.48751
1570528105.50314
1570528105.51877
1570528105.53439
1570528105.55002
1570528105.56564
1570528105.58127
1570528105.59689
1570528105.61252
1570528105.62815
1570528105.64377
1570528105.6594
1570528105.67502
1570528105.69065
1570528105.70627
1570528105.7219
1570528105.73753
1570528105.75315
1570528105.76878
1570528105.7844
1570528105.80003
1570528105.81565
1570528105.83128
1570528105.84691
1570528105.86253
1570528105.87816
1570528105.89378
1570528105.90941
1570528105.92504
1570528105.94066
1570528105.95629
1570528105.97191
1570528105.98754
1570528106.00316
1570528106.01879
1570528106.03442
1570528106.05004
1570528106.06567
1570528106.08129
1570528106.09692
1570528106.11254
1570528106.12817
1570528106.1438
1570528106.15942
1570528106.17505
1570528106.19067
1570528106.2063
1570528106.22192
1570528106.23755
1570528106.25318
1570528106.2688
1570528106.28443
1570528106.30005
1570528106.31568
1570528106.3313
1570528106.34693
1570528106.36256
1570528106.37818
1570528106.39381
1570528106.40943
1570528106.42506
1570528106.44068
1570528106.45631
1570528106.47194
1570528106.48756
1570528106.50319
1570528106.51881
1570528106.53444
1570528106.55006
1570528106.56569
1570528106.58132
1570528106.59694
1570528106.61257
1570528106.62819
1570528106.64382
1570528106.65944
1570528106.67507
1570528106.6907
1570528106.70632
1570528106.72195
1570528106.73757
1570528106.7532
1570528106.76882
1570528106.78445
1570528106.80008
1570528106.8157
1570528106.83133
1570528106.84695
1570528106.86258
1570528106.8782
1570528106.89383
1570528106.90946
1570528106.92508
1570528106.94071
1570528106.95633
1570528106.97196
1570528106.98758
1570528107.00321
1570528107.01884
1570528107.03446
1570528107.05009
1570528107.06571
1570528107.08134
1570528107.09696
1570528107.11259
1570528107.12822
1570528107.14384
1570528107.15947
1570528107.17509
1570528107.19072
1570528107.20634
1570528107.22197
1570528107.2376
1570528107.25322
1570528107.26885
1570528107.28447
1570528107.3001
1570528107.31572
1570528107.33135
1570528107.34698
1570528107.3626
1570528107.37823
1570528107.39385
1570528107.40948
1570528107.4251
1570528107.44073
1570528107.45636
1570528107.47198
1570528107.48761
1570528107.50323
1570528107.51886
1570528107.53448
1570528107.55011
1570528107.56574
1570528107.58136
1570528107.59699
1570528107.61261
1570528107.62824
1570528107.64386
1570528107.65949
1570528107.67512
1570528107.69074
1570528107.70637
1570528107.72199
1570528107.73762
1570528107.75324
1570528107.76887
1570528107.7845
1570528107.80012
1570528107.81575
1570528107.83137
1570528107.847
1570528107.86262
1570528107.87825
1570528107.89388
1570528107.9095
1570528107.92513
1570528107.94075
1570528107.95638
1570528107.972
1570528107.98763
1570528108.00326
1570528108.01888
1570528108.03451
1570528108.05013
1570528108.06576
1570528108.08138
1570528108.09701
1570528108.11264
1570528108.12826
1570528108.14389
1570528108.15951
1570528108.17514
1570528108.19076
1570528108.20639
1570528108.22202
1570528108.23764
1570528108.25327
1570528108.26889
1570528108.28452
1570528108.30014
1570528108.31577
1570528108.3314
1570528108.34702
1570528108.36265
1570528108.37827
1570528108.3939
1570528108.40952
1570528108.42515
1570528108.44078
1570528108.4564
1570528108.47203
1570528108.48765
1570528108.50328
1570528108.51891
1570528108.53453
1570528108.55016
1570528108.56578
1570528108.58141
1570528108.59703
1570528108.61266
1570528108.62829
1570528108.64391
1570528108.65954
1570528108.67516
1570528108.69079
1570528108.70641
1570528108.72204
1570528108.73767
1570528108.75329
1570528108.76892
1570528108.78454
1570528108.80017
1570528108.81579
1570528108.83142
1570528108.84705
1570528108.86267
1570528108.8783
1570528108.89392
1570528108.90955
1570528108.92517
1570528108.9408
1570528108.95643
1570528108.97205
1570528108.98768
1570528109.0033
1570528109.01893
1570528109.03455
1570528109.05018
1570528109.06581
1570528109.08143
1570528109.09706
1570528109.11268
1570528109.12831
1570528109.14393
1570528109.15956
1570528109.17519
1570528109.19081
1570528109.20644
1570528109.22206
1570528109.23769
1570528109.25331
1570528109.26894
1570528109.28457
1570528109.30019
1570528109.31582
1570528109.33144
1570528109.34707
1570528109.36269
1570528109.37832
1570528109.39395
1570528109.40957
1570528109.4252
1570528109.44082
1570528109.45645
1570528109.47207
1570528109.4877
1570528109.50333
1570528109.51895
1570528109.53458
1570528109.5502
1570528109.56583
1570528109.58145
1570528109.59708
1570528109.61271
1570528109.62833
1570528109.64396
1570528109.65958
1570528109.67521
1570528109.69083
1570528109.70646
1570528109.72209
1570528109.73771
1570528109.75334
1570528109.76896
1570528109.78459
1570528109.80021
1570528109.81584
1570528109.83147
1570528109.84709
1570528109.86272
1570528109.87834
1570528109.89397
1570528109.90959
1570528109.92522
1570528109.94085
1570528109.95647
1570528109.9721
1570528109.98772
1570528110.00335
1570528110.01897
1570528110.0346
1570528110.05023
1570528110.06585
1570528110.08148
1570528110.0971
1570528110.11273
1570528110.12835
1570528110.14398
1570528110.15961
1570528110.17523
1570528110.19086
1570528110.20648
1570528110.22211
1570528110.23773
1570528110.25336
1570528110.26899
1570528110.28461
1570528110.30024
1570528110.31586
1570528110.33149
1570528110.34711
1570528110.36274
1570528110.37837
1570528110.39399
1570528110.40962
1570528110.42524
1570528110.44087
1570528110.45649
1570528110.47212
1570528110.48775
1570528110.50337
1570528110.519
1570528110.53462
1570528110.55025
1570528110.56587
1570528110.5815
1570528110.59713
1570528110.61275
1570528110.62838
1570528110.644
1570528110.65963
1570528110.67525
1570528110.69088
1570528110.70651
1570528110.72213
1570528110.73776
1570528110.75338
1570528110.76901
1570528110.78464
1570528110.80026
1570528110.81589
1570528110.83151
1570528110.84714
1570528110.86276
1570528110.87839
1570528110.89402
1570528110.90964
1570528110.92527
1570528110.94089
1570528110.95652
1570528110.97214
1570528110.98777
1570528111.0034
1570528111.01902
1570528111.03465
1570528111.05027
1570528111.0659
1570528111.08152
1570528111.09715
1570528111.11278
1570528111.1284
1570528111.14403
1570528111.15965
1570528111.17528
1570528111.1909
1570528111.20653
1570528111.22216
1570528111.23778
1570528111.25341
1570528111.26903
1570528111.28466
1570528111.30028
1570528111.31591
1570528111.33154
1570528111.34716
1570528111.36279
1570528111.37841
1570528111.39404
1570528111.40966
1570528111.42529
1570528111.44092
1570528111.45654
1570528111.47217
1570528111.48779
1570528111.50342
1570528111.51904
1570528111.53467
1570528111.5503
1570528111.56592
1570528111.58155
1570528111.59717
1570528111.6128
1570528111.62842
1570528111.64405
1570528111.65968
1570528111.6753
1570528111.69093
1570528111.70655
1570528111.72218
1570528111.7378
1570528111.75343
1570528111.76906
1570528111.78468
1570528111.80031
1570528111.81593
1570528111.83156
1570528111.84718
1570528111.86281
1570528111.87844
1570528111.89406
1570528111.90969
1570528111.92531
1570528111.94094
1570528111.95656
1570528111.97219
1570528111.98782
1570528112.00344
1570528112.01907
1570528112.03469
1570528112.05032
1570528112.06594
1570528112.08157
1570528112.0972
1570528112.11282
1570528112.12845
1570528112.14407
1570528112.1597
1570528112.17532
1570528112.19095
1570528112.20658
1570528112.2222
1570528112.23783
1570528112.25345
1570528112.26908
1570528112.2847
1570528112.30033
1570528112.31596
1570528112.33158
1570528112.34721
1570528112.36283
1570528112.37846
1570528112.39408
1570528112.40971
1570528112.42534
1570528112.44096
1570528112.45659
1570528112.47221
1570528112.48784
1570528112.50346
1570528112.51909
1570528112.53472
1570528112.55034
1570528112.56597
1570528112.58159
1570528112.59722
1570528112.61284
1570528112.62847
1570528112.6441
1570528112.65972
1570528112.67535
1570528112.69097
1570528112.7066
1570528112.72222
1570528112.73785
1570528112.75348
1570528112.7691
1570528112.78473
1570528112.80035
1570528112.81598
1570528112.8316
1570528112.84723
1570528112.86286
1570528112.87848
1570528112.89411
1570528112.90973
1570528112.92536
1570528112.94098
1570528112.95661
1570528112.97224
1570528112.98786
1570528113.00349
1570528113.01911
1570528113.03474
1570528113.05036
1570528113.06599
1570528113.08162
1570528113.09724
1570528113.11287
1570528113.12849
1570528113.14412
1570528113.15974
1570528113.17537
1570528113.191
1570528113.20662
1570528113.22225
1570528113.23787
1570528113.2535
1570528113.26912
1570528113.28475
1570528113.30038
1570528113.316
1570528113.33163
1570528113.34725
1570528113.36288
1570528113.37851
1570528113.39413
1570528113.40976
1570528113.42538
1570528113.44101
1570528113.45663
1570528113.47226
1570528113.48789
1570528113.50351
1570528113.51914
1570528113.53476
1570528113.55039
1570528113.56601
1570528113.58164
1570528113.59727
1570528113.61289
1570528113.62852
1570528113.64414
1570528113.65977
1570528113.67539
1570528113.69102
1570528113.70665
1570528113.72227
1570528113.7379
1570528113.75352
1570528113.76915
1570528113.78477
1570528113.8004
1570528113.81603
1570528113.83165
1570528113.84728
1570528113.8629
1570528113.87853
1570528113.89415
1570528113.90978
1570528113.92541
1570528113.94103
1570528113.95666
1570528113.97228
1570528113.98791
1570528114.00353
1570528114.01916
1570528114.03479
1570528114.05041
1570528114.06604
1570528114.08166
1570528114.09729
1570528114.11291
1570528114.12854
1570528114.14417
1570528114.15979
1570528114.17542
1570528114.19104
1570528114.20667
1570528114.22229
1570528114.23792
1570528114.25355
1570528114.26917
1570528114.2848
1570528114.30042
1570528114.31605
1570528114.33167
1570528114.3473
1570528114.36293
1570528114.37855
1570528114.39418
1570528114.4098
1570528114.42543
1570528114.44105
1570528114.45668
1570528114.47231
1570528114.48793
1570528114.50356
1570528114.51918
1570528114.53481
1570528114.55043
1570528114.56606
1570528114.58169
1570528114.59731
1570528114.61294
1570528114.62856
1570528114.64419
1570528114.65981
1570528114.67544
1570528114.69107
1570528114.70669
1570528114.72232
1570528114.73794
1570528114.75357
1570528114.76919
1570528114.78482
1570528114.80045
1570528114.81607
1570528114.8317
1570528114.84732
1570528114.86295
1570528114.87857
1570528114.8942
1570528114.90983
1570528114.92545
1570528114.94108
1570528114.9567
1570528114.97233
1570528114.98795
1570528115.00358
1570528115.01921
1570528115.03483
1570528115.05046
1570528115.06608
1570528115.08171
1570528115.09733
1570528115.11296
1570528115.12859
1570528115.14421
1570528115.15984
1570528115.17546
1570528115.19109
1570528115.20671
1570528115.22234
1570528115.23797
1570528115.25359
1570528115.26922
1570528115.28484
1570528115.30047
1570528115.31609
1570528115.33172
1570528115.34735
1570528115.36297
1570528115.3786
1570528115.39422
1570528115.40985
1570528115.42547
1570528115.4411
1570528115.45673
1570528115.47235
1570528115.48798
1570528115.5036
1570528115.51923
1570528115.53485
1570528115.55048
1570528115.56611
1570528115.58173
1570528115.59736
1570528115.61298
1570528115.62861
1570528115.64424
1570528115.65986
1570528115.67549
1570528115.69111
1570528115.70674
1570528115.72236
1570528115.73799
1570528115.75362
1570528115.76924
1570528115.78487
1570528115.80049
1570528115.81612
1570528115.83174
1570528115.84737
1570528115.863
1570528115.87862
1570528115.89425
1570528115.90987
1570528115.9255
1570528115.94112
1570528115.95675
1570528115.97238
1570528115.988
1570528116.00363
1570528116.01925
1570528116.03488
1570528116.0505
1570528116.06613
1570528116.08176
1570528116.09738
1570528116.11301
1570528116.12863
1570528116.14426
1570528116.15988
1570528116.17551
1570528116.19114
1570528116.20676
1570528116.22239
1570528116.23801
1570528116.25364
1570528116.26926
1570528116.28489
1570528116.30052
1570528116.31614
1570528116.33177
1570528116.34739
1570528116.36302
1570528116.37864
1570528116.39427
1570528116.4099
1570528116.42552
1570528116.44115
1570528116.45677
1570528116.4724
1570528116.48802
1570528116.50365
1570528116.51928
1570528116.5349
1570528116.55053
1570528116.56615
1570528116.58178
1570528116.5974
1570528116.61303
1570528116.62866
1570528116.64428
1570528116.65991
1570528116.67553
1570528116.69116
1570528116.70678
1570528116.72241
1570528116.73804
1570528116.75366
1570528116.76929
1570528116.78491
1570528116.80054
1570528116.81616
1570528116.83179
1570528116.84742
1570528116.86304
1570528116.87867
1570528116.89429
1570528116.90992
1570528116.92554
1570528116.94117
1570528116.9568
1570528116.97242
1570528116.98805
1570528117.00367
1570528117.0193
1570528117.03492
1570528117.05055
1570528117.06618
1570528117.0818
1570528117.09743
1570528117.11305
1570528117.12868
1570528117.1443
1570528117.15993
1570528117.17556
1570528117.19118
1570528117.20681
1570528117.22243
1570528117.23806
1570528117.25368
1570528117.26931
1570528117.28494
1570528117.30056
1570528117.31619
1570528117.33181
1570528117.34744
1570528117.36306
1570528117.37869
1570528117.39432
1570528117.40994
1570528117.42557
1570528117.44119
1570528117.45682
1570528117.47244
1570528117.48807
1570528117.5037
1570528117.51932
1570528117.53495
1570528117.55057
1570528117.5662
1570528117.58182
1570528117.59745
1570528117.61308
1570528117.6287
1570528117.64433
1570528117.65995
1570528117.67558
1570528117.6912
1570528117.70683
1570528117.72246
1570528117.73808
1570528117.75371
1570528117.76933
1570528117.78496
1570528117.80059
1570528117.81621
1570528117.83184
1570528117.84746
1570528117.86309
1570528117.87871
1570528117.89434
1570528117.90997
1570528117.92559
1570528117.94122
1570528117.95684
1570528117.97247
1570528117.98809
1570528118.00372
1570528118.01935
1570528118.03497
1570528118.0506
1570528118.06622
1570528118.08185
1570528118.09747
1570528118.1131
1570528118.12873
1570528118.14435
1570528118.15998
1570528118.1756
1570528118.19123
1570528118.20685
1570528118.22248
1570528118.23811
1570528118.25373
1570528118.26936
1570528118.28498
1570528118.30061
1570528118.31623
1570528118.33186
1570528118.34749
1570528118.36311
1570528118.37874
1570528118.39436
1570528118.40999
1570528118.42561
1570528118.44124
1570528118.45687
1570528118.47249
1570528118.48812
1570528118.50374
1570528118.51937
1570528118.53499
1570528118.55062
1570528118.56625
1570528118.58187
1570528118.5975
1570528118.61312
1570528118.62875
1570528118.64437
1570528118.66
1570528118.67563
1570528118.69125
1570528118.70688
1570528118.7225
1570528118.73813
1570528118.75375
