16.96301
33.59389
45.68831
53.37054
57.34958
58.44438
57.26608
54.25751
49.85616
44.63023
39.28818
34.51599
30.76099
28.1566
26.48438
25.33154
24.27534
23.02454
21.46906
19.6188
17.51675
15.1575
12.50591
9.497803
6.09462
2.325638
-1.76387
-6.138031
-10.87428
-16.22697
-22.60146
-30.33394
-39.33222
-48.76482
-56.97402
-61.78239
-61.18361
-54.07417
-40.79372
-23.11895
-3.699242
14.74786
30.20169
41.71886
49.29145
53.46597
54.8936
54.11448
51.56578
47.6933
43.03754
38.21841
33.77323
30.04206
27.1185
24.9006
23.20595
21.87545
20.74014
19.57481
18.03646
15.72141
12.31041
7.75034
2.306728
-3.561665
-9.381561
-14.89835
-20.16594
-25.50255
-31.42877
-38.51284
-47.17301
-57.41645
-68.51044
-78.84108
-86.08761
-87.78965
-82.24
-69.1825
-50.10272
-27.82022
-5.530752
14.1413
29.77755
41.14313
48.75605
53.31219
55.29856
55.03175
52.83995
49.3406
45.40918
41.98902
39.72461
38.70664
38.43972
38.07873
36.85425
34.43398
31.05284
27.38098
24.12009
21.61958
19.65106
17.49761
14.29374
9.455074
2.994858
-4.48801
-12.0792
-18.90305
-24.52386
-29.09486
-33.24851
-37.90172
-43.93935
-51.97475
-62.04009
-73.4261
-84.57333
-93.27379
-97.11253
-94.17487
-83.75007
-66.68153
-45.19327
-22.22473
-0.5380707
18.02534
32.80361
44.0633
52.44859
58.48929
62.43987
64.39297
64.56139
63.47459
61.91602
60.68594
60.28495
60.74654
61.61935
62.24519
62.03618
60.69046
58.29256
55.19605
51.80428
48.35215
44.76968
40.74957
35.92425
30.12502
23.56023
16.79364
10.51795
5.259216
1.074867
-2.475174
-6.170868
-10.77682
-16.69532
-23.78664
-31.41582
-38.77897
-45.23615
-50.57812
-55.13013
-59.60859
-64.86131
-71.64764
-80.3953
-91.01825
-102.7169
-113.8641
-122.1653
-125.1083
-120.7316
-108.3665
-89.05106
-65.27064
-40.18314
-16.65845
3.521561
19.8013
32.57001
42.52347
50.20163
55.8196
59.40556
61.10153
61.33119
60.78778
60.19324
60.05675
60.50696
61.31419
62.1046
62.60921
62.82791
62.96979
63.30463
63.89952
64.47874
64.52647
63.51709
61.21663
57.78722
53.71007
49.51279
45.51375
41.63776
37.53212
32.80586
27.28178
21.15546
14.89783
9.033356
3.837677
-0.8110504
-5.416336
-10.59909
-16.80948
-24.07864
-32.01373
-39.95851
-47.31799
-53.8056
-59.57486
-65.16786
-71.38818
-79.03593
-88.61917
-100.0549
-112.3983
-123.7813
-131.6687
-133.4564
-127.3116
-112.8778
-91.56215
-66.13493
-39.88962
-15.64864
4.931152
21.46164
34.43013
44.57458
52.45216
58.27942
62.12119
64.18434
64.96321
65.15483
65.4294
66.12749
67.18796
68.21532
68.80666
68.79355
68.37216
68.01224
68.16885
68.95712
70.02286
70.64142
70.02405
67.68317
63.65225
58.47339
52.91769
47.6553
43.01395
38.88361
34.87009
30.46313
25.31439
19.36145
12.87756
6.375885
0.4041443
-4.670959
-8.830566
-12.44569
-16.12175
-20.48596
-25.90239
-32.32901
-39.35631
-46.38673
-52.89766
-58.65028
-63.75891
-68.64178
-73.89395
-80.17836
-88.03966
-97.69788
-108.7054
-119.7442
-128.6254
-132.743
-129.8308
-118.8088
-100.2816
-76.45467
-50.44032
-25.28825
-3.15802
15.01025
29.28055
40.23715
48.48239
54.40262
58.2858
60.45831
61.45834
61.94794
62.53809
63.59317
65.11108
66.80743
68.32669
69.45325
70.20856
70.81152
71.51147
72.41714
73.41617
74.1915
74.31534
73.41635
71.34415
68.21552
64.42087
60.51691
56.99237
54.1116
51.76923
49.51215
46.76443
43.09003
38.41614
33.10971
27.77875
22.98132
18.95218
15.46936
11.98065
7.866119
2.715393
-3.469528
-10.34064
-17.36894
-24.10832
-30.35175
-36.21359
-42.05711
-48.36514
-55.64464
-64.25238
-74.24118
-85.11952
-95.69293
-104.0807
-108.0457
-105.5929
-95.68022
-78.74733
-56.71185
-32.49854
-9.153412
11.01202
26.90121
38.56931
46.77254
52.38054
56.00893
57.99034
58.58272
58.19154
57.46515
57.1088
57.65199
59.25453
61.66174
64.38371
66.93851
69.05676
70.75021
72.22041
73.6321
74.91127
75.63762
75.17057
72.89414
68.53893
62.34
55.01078
47.41586
40.2072
33.53615
27.03866
20.07539
12.09399
2.930626
-7.100395
-17.35376
-27.08345
-35.73508
-43.10517
-49.39485
-55.13603
-60.98209
-67.45942
-74.73679
-82.50814
-90.11285
-96.76353
-101.9538
-105.6399
-108.3471
-111.0236
-114.7565
-120.4456
-128.5229
-138.6531
-149.5691
-159.0396
-164.2207
-162.3641
-151.761
-132.4585
-106.4227
-77.02699
-47.94102
-22.05865
-0.8138485
15.8099
28.72073
39.00035
47.40088
54.23701
59.60796
63.66351
66.75277
69.31762
71.66052
73.8808
75.8336
77.3366
78.32304
78.96326
79.56321
80.43738
81.70261
83.18203
84.4552
85.01287
84.44997
82.618
79.68184
76.00764
72.01732
68.01687
64.12196
60.25847
56.27306
52.00737
47.36724
42.32843
36.88607
31.02774
24.78606
18.26721
11.73816
5.548161
0.02925491
-4.690918
-8.844421
-13.03524
-18.05144
-24.57402
-32.86075
-42.56724
-52.82413
-62.574
-71.01508
-77.97561
-83.99476
-90.12939
-97.56292
-107.1871
-119.2445
-133.1126
-147.2163
-159.1293
-165.9967
-165.1841
-155.1272
-136.0143
-109.9437
-80.42669
-51.31779
-25.70975
-5.158638
10.34824
21.87267
30.66962
37.60938
43.02843
46.94234
49.43715
50.92408
52.04401
53.41412
55.30341
57.54006
59.63705
61.16003
61.97709
62.39102
62.96141
64.1101
65.82828
67.55952
68.43845
67.68719
65.00021
60.6603
55.39907
50.06407
45.25727
41.17766
37.66836
34.38498
30.99121
27.29273
23.26775
18.98434
14.58304
10.20586
5.962738
1.902702
-2.011131
-5.89505
-9.930473
-14.28168
-19.03651
-24.15111
-29.47255
-34.75783
-39.7548
-44.28017
-48.298
-51.91982
-55.41198
-59.20158
-63.77494
-69.5266
-76.51041
-84.18936
-91.33581
-96.21738
-97.06277
-92.67552
-82.85317
-68.47452
-51.22921
-33.01353
-15.44463
0.423233
14.06247
25.28689
34.04878
40.3354
44.25777
46.09799
46.38904
45.7658
44.86417
44.11968
43.76653
43.8098
44.16981
44.77534
45.604
46.69662
48.09163
49.77035
51.5758
53.25252
54.48924
54.99817
54.63441
53.42365
51.60175
49.52147
47.4861
45.65144
43.91125
41.99772
39.61162
36.62349
33.08295
29.16696
25.03313
20.65369
15.8111
10.2155
3.684525
-3.755463
-11.80473
-20.07321
-28.18022
-35.93781
-43.33826
-50.48453
-57.53708
-64.69974
-72.24907
-80.49403
-89.62454
-99.3459
-108.6758
-115.96
-119.3051
-117.2521
-109.383
-96.47234
-80.16632
-62.336
-44.47377
-27.46321
-11.70679
2.58226
15.15408
25.75853
34.27664
40.87666
45.94533
49.90823
53.02182
55.33221
56.77155
57.32045
57.16091
56.63229
56.12606
55.91851
56.0872
56.48093
56.78331
56.65957
55.85395
54.25314
51.85539
48.73347
45.0233
40.88438
36.49387
32.0058
27.48558
22.8748
18.01962
12.74422
6.97525
0.8248138
-5.41095
-11.36784
-16.79092
-21.68849
-26.37213
-31.32179
-36.98453
-43.56325
-50.9678
-58.84883
-66.78114
-74.40898
-81.57335
-88.39186
-95.21802
-102.6436
-111.2786
-121.4878
-133.0148
-144.7522
-154.804
-160.9256
-161.1405
-154.3336
-140.5185
-120.7534
-96.76848
-70.59042
-44.2196
-19.39258
2.589401
21.04802
36.01746
48.08489
58.12789
66.89331
74.71823
81.4999
86.93024
90.78644
93.12502
94.31976
94.88338
95.34404
96.06853
97.20271
98.67638
100.2861
101.7627
102.8801
103.4966
103.5725
103.1239
102.1237
100.4881
98.06213
94.73981
90.5107
85.55157
80.20796
74.94623
70.20164
66.32869
63.47247
61.52442
60.08121
58.45088
55.77242
51.19041
44.11958
34.40137
22.34544
8.609802
-6.032967
-20.93369
-35.68094
-50.06581
-63.97276
-77.25844
-89.71623
-101.1592
-111.5532
-121.1167
-130.3747
-140.0585
-150.8635
-163.0937
-176.2441
-188.7864
-198.394
-202.5322
-199.2929
-188.0401
-169.7084
-146.4373
-120.9147
-95.59383
-72.20798
-51.62346
-33.97723
-18.96461
-6.040443
5.391396
15.85461
25.70444
35.06567
43.88689
51.99124
59.24606
65.56944
70.98452
75.5462
79.34125
82.4927
85.0985
87.25691
88.95695
90.09196
90.44592
89.80115
88.01376
85.11299
81.29381
76.8929
72.31429
67.90862
63.86498
60.18031
56.67091
53.02827
48.9352
44.1785
38.69864
32.64355
26.32019
20.09657
14.28111
8.985568
4.089628
-0.7605963
-6.027736
-12.14159
-19.32556
-27.54248
-36.49374
-45.71272
-54.74603
-63.27541
-71.26991
-79.03947
-87.20695
-96.52224
-107.4551
-119.8272
-132.5493
-143.7535
-151.1828
-152.8406
-147.467
-134.8654
-115.8429
-92.06024
-65.68514
-39.02908
-14.19297
7.341488
24.89069
38.61304
49.19891
57.47919
64.08152
69.28506
73.19529
75.93281
77.83443
79.36205
80.93947
82.74374
84.71396
86.62832
88.28912
89.60811
90.60078
91.29478
91.64112
91.53227
90.77814
89.23521
86.79763
83.42621
79.15521
74.07994
68.39426
62.36369
56.28121
50.35452
44.63718
39.00269
33.16322
26.82653
19.84675
12.28492
4.470184
-3.160629
-10.27857
-16.79911
-23.01107
-29.45004
-36.68709
-45.04971
-54.47553
-64.47998
-74.36076
-83.50447
-91.61572
-98.86264
-105.827
-113.3342
-122.2125
-133.0193
-145.6837
-159.2505
-171.7453
-180.3419
-181.9616
-174.1606
-156.0361
-128.7167
-95.28352
-59.87847
-26.54686
1.837036
24.15004
40.82071
53.22377
62.85777
70.77586
77.4239
82.85536
87.03439
90.08879
92.31975
94.02823
95.37566
96.29808
96.61238
96.2011
95.20622
94.02168
93.15251
92.93793
93.31329
93.78702
93.62935
92.22775
89.31912
85.14075
80.2189
75.11935
70.17401
65.37564
60.45767
55.1105
49.1792
42.80322
36.38562
30.40894
25.24695
20.98065
17.30737
13.67186
9.468018
4.36467
-1.554794
-7.799377
-13.72133
-18.86598
-23.24089
-27.3811
-32.1235
-38.22459
-46.00575
-55.18753
-64.97433
-74.43137
-82.84222
-90.01276
-96.37473
-102.8379
-110.5618
-120.6006
-133.4558
-148.6281
-164.2773
-177.2493
-183.6676
-180.0552
-164.5807
-137.9169
-103.2699
-65.4024
-29.16444
1.938293
26.44037
44.76691
58.38687
68.88123
77.29681
84.01965
89.04166
92.35657
94.14151
94.78763
94.74539
94.34531
93.7088
92.81262
91.64914
90.36023
89.27283
88.77921
89.09683
90.1568
91.50601
92.465
92.37366
90.85968
87.95099
84.04102
79.68005
75.33081
71.21875
67.26468
63.23706
58.88647
54.11743
49.00174
43.72879
38.48199
33.37561
28.40158
23.51746
18.70987
14.04016
9.555481
5.207306
0.8261719
-3.883881
-9.167877
-15.10867
-21.57594
-28.2773
-34.88695
-41.21484
-47.23901
-53.09024
-59.0134
-65.35806
-72.51445
-80.85783
-90.48148
-100.9444
-111.1208
-119.2404
-123.2655
-121.4367
-112.776
-97.43669
-76.70201
-52.69484
-27.88661
-4.544632
15.66396
31.87762
44.01309
52.5508
58.22514
61.76932
63.78412
64.69667
64.85551
64.58481
64.16975
63.82289
63.64059
63.60567
63.6147
63.54605
63.30858
62.86121
62.25468
61.53403
60.71887
59.70599
58.29047
56.18788
53.22307
49.33063
44.65314
39.48806
34.17847
28.98006
24.02217
19.27036
14.55814
9.66288
4.381432
-1.353226
-7.427338
-13.53153
-19.26573
-24.31874
-28.65358
-32.56693
-36.60594
-41.35063
-47.17156
-54.05128
-61.62222
-69.32191
-76.62631
-83.26233
-89.29828
-95.12691
-101.4324
-109.0283
-118.562
-130.2127
-143.2712
-156.0564
-166.0502
-170.4998
-167.1376
-154.9296
-134.4769
-107.8752
-78.2024
-48.71036
-22.06766
0.1536179
17.56055
30.73996
40.79562
48.85978
55.74357
61.804
67.04401
71.33579
74.6545
77.11433
78.94031
80.37206
81.54532
82.51244
83.29447
83.95718
84.58475
85.22887
85.7868
85.97953
85.40009
83.70219
80.77122
76.80783
72.2419
67.54712
63.03634
58.76107
54.56245
50.20965
45.53435
40.50387
35.21956
29.79777
24.35154
18.92271
13.52292
8.13755
2.724748
-2.746307
-8.30268
-13.89128
-19.42923
-24.81041
-29.98448
-35.02473
-40.12427
-45.54299
-51.46061
-57.8997
-64.64833
-71.32651
-77.53884
-83.08594
-88.13055
-93.28027
-99.41234
-107.301
-117.1702
-128.2609
-138.8328
-146.4962
-148.8478
-144.2161
-132.1357
-113.4661
-90.04286
-64.19757
-38.20996
-14.01089
6.989826
23.91511
36.37732
44.47043
48.71654
49.95271
49.15067
47.25043
45.00362
42.90211
41.22331
40.04321
39.34019
39.06227
39.2025
39.75833
40.76015
42.1799
43.88382
45.64849
47.17161
48.20967
48.61623
48.38632
47.60383
46.4026
44.91214
43.24715
41.52409
39.80917
38.10707
36.26891
34.04925
31.20103
27.63996
23.54819
19.36618
15.64053
12.77582
10.82804
9.455198
8.073036
6.069129
3.084717
-0.8634901
-5.409588
-10.01409
-14.24231
-17.94795
-21.33018
-24.84957
-29.06861
-34.45595
-41.23611
-49.25227
-57.82093
-65.70669
-71.23087
-72.64186
-68.64457
-58.92503
-44.37139
-26.91025
-8.944346
7.376926
20.73992
30.7909
37.93357
42.86899
46.19547
48.23601
49.14455
49.04789
48.24557
47.15955
46.23724
45.74911
45.66804
45.75504
45.694
45.3255
44.72065
44.16462
43.96414
44.24636
44.82189
45.22759
44.89355
43.35912
40.46908
36.4643
31.89833
27.41666
23.50698
20.31285
17.59538
14.88681
11.69275
7.763992
3.163933
-1.789284
-6.702736
-11.31571
-15.60046
-19.81171
-24.29516
-29.38938
-35.23605
-41.76833
-48.72504
-55.74374
-62.50314
-68.81422
-74.66956
-80.25095
-85.90387
-92.11458
-99.43764
-108.2775
-118.5987
-129.5956
-139.5812
-146.2832
-147.4784
-141.7384
-128.9616
-110.3829
-88.13724
-64.55528
-41.59348
-20.54905
-2.111923
13.4715
26.24764
36.51559
44.8482
51.91629
58.30722
64.2524
69.56506
73.79894
76.541
77.69048
77.52694
76.60263
75.50988
74.70229
74.35992
74.4456
74.79205
75.1474
75.22408
74.73366
73.40836
71.09812
67.85925
63.94145
59.70567
55.4787
51.42219
47.4706
43.42148
39.06262
34.32192
29.34341
24.39788
19.77371
15.61564
11.8233
8.080566
3.998306
-0.7202759
-6.150909
-12.12869
-18.36536
-24.61156
-30.75204
-36.87133
-43.19051
-49.96957
-57.36835
-65.40461
-73.91946
-82.63354
-91.20099
-99.38599
-107.1535
-114.7746
-122.8407
-132.0626
-142.9717
-155.4611
-168.5255
-180.2413
-188.0679
-189.4686
-182.5508
-166.6613
-142.6306
-112.6315
-79.72707
-47.15427
-17.65581
7.076973
26.57735
41.45987
52.97372
62.4089
70.68317
78.14632
84.68467
89.99467
93.89925
96.46114
97.922
98.61057
98.78653
98.60083
98.15567
97.55164
96.87568
96.15637
95.27649
94.01935
92.10934
89.35125
85.72668
81.39613
76.66012
71.8162
67.07442
62.51598
58.11302
53.80275
49.52874
45.2997
41.17013
37.2467
33.59599
30.20013
26.93911
23.59555
19.96371
15.97488
11.7513
7.583572
3.768883
0.4137039
-2.671143
-5.925049
-9.831085
-14.66024
-20.30864
-26.34204
-32.20562
-37.47641
-42.01148
-45.99065
-49.81114
-53.98345
-59.04004
-65.39373
-73.13615
-81.78819
-90.09155
-96.13725
-97.84256
-93.62755
-83.04045
-66.94533
-47.27093
-26.34185
-6.213646
11.74816
26.95162
39.34688
49.12677
56.52576
61.74514
64.99182
66.54227
66.78281
66.16954
65.17355
64.18374
63.43788
62.97161
62.69054
62.43945
62.12247
61.75103
61.43705
61.31185
61.39859
61.60444
61.71157
61.45555
60.58691
58.92696
56.39149
52.9845
48.84551
44.20241
39.38868
34.74124
30.50461
26.76178
23.40787
20.17772
16.78989
13.0538
9.009239
4.929623
1.2626
-1.585495
-3.512123
-4.991459
-7.098782
-11.32449
-19.06753
-31.08169
-47.06654
-65.70015
-85.00557
-103.0266
-118.4449
-130.9264
-141.0257
-149.915
-158.7931
-168.3757
-178.4707
-187.8467
-194.42
-195.8379
-190.1353
-176.4235
-155.1818
-128.1165
-97.69251
-66.50941
-36.78401
-10.07132
12.82027
31.74996
47.10442
59.58833
70.01638
79.03262
86.99081
93.90522
99.5591
103.6826
106.097
106.8213
106.0993
104.3449
102.0961
99.8288
97.87939
96.34331
95.08549
93.79083
92.10057
89.75356
86.61331
82.68388
78.09794
73.05765
67.80621
62.6001
57.57974
52.72633
47.85526
42.68812
37.00845
30.80738
24.2948
17.83348
11.7459
6.112629
0.7751694
-4.628979
-10.50058
-17.09242
-24.43815
-32.30079
-40.29536
-48.02728
-55.27738
-62.10798
-68.90849
-76.2285
-84.54807
-94.05412
-104.4981
-115.2736
-125.6635
-135.1881
-143.782
-151.9413
-160.5827
-170.6705
-182.8497
-196.9914
-211.9323
-225.4196
-234.4626
-235.8898
-227.2308
-207.4556
-177.4427
-139.9176
-98.78421
-58.17162
-21.41543
9.5721
34.44891
54.06155
69.79263
82.96028
94.43599
104.6032
113.5149
121.1359
127.4385
132.4383
136.1124
138.4212
139.3343
138.9551
137.5979
135.7523
133.9215
132.424
131.2467
129.9927
128.0335
124.775
119.8722
113.3986
105.81
97.77617
89.93903
82.69948
76.11745
69.97121
63.91399
57.67325
51.15746
44.51048
37.97128
31.76103
25.97664
20.54022
15.28194
10.04279
4.771927
-0.4339905
-5.349503
-9.710999
-13.4059
-16.49222
-19.24213
-22.03283
-25.1845
-28.84209
-32.90169
-37.07723
-41.02524
-44.54877
-47.65162
-50.57272
-53.76018
-57.77491
-63.17208
-70.21622
-78.61577
-87.24037
-94.21415
-97.27744
-94.53266
-85.13031
-69.62783
-49.88374
-28.42127
-7.666023
10.65118
25.71384
37.44788
46.1693
52.27339
56.11806
58.07634
58.56042
58.07457
57.13639
56.15799
55.40726
54.96124
54.74987
54.69444
54.72807
54.82632
54.99203
55.16473
55.22399
54.98458
54.26392
52.92598
50.9615
48.46456
45.60358
42.54364
39.39116
36.19901
32.97449
29.72063
26.43298
23.1181
19.76582
16.33008
12.77951
9.069832
5.216064
1.221684
-2.900761
-7.13306
-11.47226
-15.89818
-20.38653
-24.88756
-29.45919
-34.18605
-39.23265
-44.72798
-50.68943
-56.98092
-63.35925
-69.577
-75.50915
-81.28178
-87.29127
-94.15649
-102.4644
-112.4001
-123.3484
-133.737
-141.3037
-143.645
-139.0556
-127.0872
-108.7024
-85.88138
-61.02899
-36.35323
-13.52983
6.362777
22.76872
35.58465
45.15762
52.14724
57.43396
61.84509
65.90106
69.73615
73.10358
75.62894
77.00657
77.16765
76.32912
74.91524
73.4185
72.22649
71.53393
71.24185
71.07951
70.65121
69.62227
67.79834
65.18046
61.93162
58.30796
54.58156
50.95107
47.47142
44.02367
40.39838
36.40931
32.0288
27.44916
23.01145
19.05408
15.72974
12.89573
10.16987
7.091476
3.334282
-1.158798
-6.146931
-11.25708
-16.18156
-20.82979
-25.38945
-30.15632
-35.39563
-41.16936
-47.34791
-53.63655
-59.79489
-65.68639
-71.37172
-76.98967
-82.72072
-88.75069
-95.35074
-102.883
-111.6629
-121.6288
-131.9506
-140.9074
-146.1943
-145.5614
-137.6461
-122.4685
-101.4539
-76.97221
-51.5802
-27.41669
-5.892391
12.25132
26.77472
37.73286
45.46796
50.58821
53.88903
56.20855
58.15546
59.96828
61.52867
62.5498
62.78008
62.21313
61.11988
59.90909
59.0149
58.66063
58.81611
59.22871
59.54988
59.41497
58.56099
56.87276
54.38725
51.33054
48.00149
44.69672
41.56997
38.58929
35.57008
32.35253
28.93664
25.51397
22.38884
19.82184
17.83302
16.16936
14.41816
12.17305
9.225033
5.621737
1.586973
-2.539524
-6.453293
-9.953402
-12.98683
-15.70555
-18.40856
-21.44729
-25.06625
-29.27854
-33.79718
-38.134
-41.84588
-44.72364
-46.96842
-49.15974
-52.11122
-56.61192
-63.08067
-71.2516
-79.92949
-87.07414
-90.24728
-87.35999
-77.46365
-61.18129
-40.60342
-18.60193
2.081562
19.59815
33.20466
43.0773
49.84245
54.16209
56.56021
57.4269
57.15961
56.18098
54.93024
53.78292
52.9629
52.54508
52.43686
52.47202
52.47517
52.33778
52.07041
51.80904
51.69872
51.8086
52.0232
52.04854
51.52746
50.15886
47.82643
44.62096
40.81572
36.75786
32.78525
29.11523
25.78313
22.66952
19.53922
16.13484
12.29012
8.021126
3.510193
-0.9542389
-5.092453
-8.768692
-12.13125
-15.55664
-19.55355
-24.51614
-30.55633
-37.38562
-44.4485
-51.10175
-56.8785
-61.69766
-65.86005
-69.98837
-74.81049
-81.02718
-89.05389
-98.77252
-109.2788
-118.8087
-124.9993
-125.518
-118.88
-105.0755
-85.67262
-63.31998
-40.87862
-20.56889
-3.541168
10.02689
20.56325
28.62128
34.69274
39.18597
42.50195
45.06503
47.26453
49.30302
51.13607
52.55364
53.30791
53.30457
52.68351
51.77628
50.96822
50.55879
50.6796
51.21339
51.86958
52.28844
52.13677
51.23326
49.60664
47.45129
45.09017
42.82227
40.82298
39.07581
37.37115
35.38146
32.85262
29.7244
26.22102
22.72685
19.62428
17.11324
15.09743
13.21243
10.99068
8.075348
4.356918
0.02908325
-4.554337
-9.060867
-13.35815
-17.55273
-21.92096
-26.74062
-32.16107
-38.16615
-44.62836
-51.38651
-58.29779
-65.26135
-72.18974
-79.07576
-86.08881
-93.67911
-102.5111
-113.1021
-125.3437
-138.1052
-149.2695
-156.1998
-156.5436
-149.0239
-133.8928
-112.8865
-88.6788
-64.14659
-41.64603
-22.59409
-7.409882
4.28302
13.23335
20.19111
25.64077
29.76202
32.52817
33.8964
33.92877
32.81486
30.74853
27.84763
24.12133
19.57413
14.31346
8.614578
2.896111
-2.362747
-6.768875
-10.09913
-12.30341
-13.46607
-13.71716
-13.1903
-11.99539
-10.27338
-8.211377
-6.074008
-4.182564
-2.855193
-2.380568
-2.988823
-4.799257
-7.784283
-11.73086
-16.23348
-20.76723
-24.81307
-28.01863
-30.26533
-31.65715
-32.43062
-32.82021
-32.93475
-32.72631
-32.09552
-30.96364
-29.41773
-27.76052
-26.43411
-25.88441
-26.34023
-27.70975
-29.53279
-31.17604
-32.09834
-32.11185
-31.42334
-30.5825
-30.25301
-30.99017
-32.98926
-35.89526
-38.76047
-40.09422
-38.22589
-31.78513
-20.21835
-4.13855
14.80197
34.34979
52.36829
67.38095
78.86746
87.08765
92.71826
96.47473
98.87082
100.2158
100.6932
100.4574
99.70471
98.68372
97.63541
96.76575
96.19217
95.91751
95.87973
95.98145
96.1449
96.30658
96.40305
96.3248
95.84821
94.6687
92.49197
89.19049
84.92621
80.18665
75.62143
71.81113
68.99609
66.96646
65.14526
62.86417
59.66602
55.46991
50.55923
45.319
40.069
34.92743
29.82321
24.60571
19.1326
13.25671
6.8302
-0.2868347
-8.141632
-16.56311
-25.14288
-33.32373
-40.61206
-46.7807
-51.99451
-56.71066
-61.55051
-67.14951
-74.01944
-82.40054
-92.06317
-102.0758
-110.7519
-115.9453
-115.6263
-108.6447
-95.24924
-77.11685
-56.81531
-37.00644
-19.63544
-5.571259
5.271057
13.55994
20.03574
25.24402
29.50668
33.00638
35.89481
38.33286
40.48938
42.44171
44.16122
45.51172
46.3262
46.55948
46.31873
45.88907
45.59799
45.68906
46.13651
46.67191
46.85489
46.29749
44.8414
42.6236
39.99622
37.34644
34.88892
32.56625
30.1593
27.41122
24.22531
20.72971
17.20874
13.97034
11.2063
8.892365
6.824219
4.717194
2.288818
-0.6263123
-4.034241
-7.779755
-11.55792
-15.04895
-18.06506
-20.64008
-23.08859
-25.90714
-29.54617
-34.18954
-39.64767
-45.4158
-50.88538
-55.63651
-59.57706
-63.00427
-66.46829
-70.63477
-76.0881
-83.08929
-91.3273
-99.73141
-106.5511
-109.6791
-107.3359
-98.73566
-84.4642
-66.38089
-47.00604
-28.70596
-13.0419
-0.554718
9.019226
16.30154
21.9097
26.29218
29.77954
32.66934
35.25168
37.75269
40.23401
42.57553
44.57272
46.02426
46.85547
47.14139
47.08508
46.92493
46.86099
47.00589
47.34485
47.72598
47.90268
47.61859
46.70901
45.21371
43.36179
41.51846
39.99188
38.90683
38.12326
37.32239
36.19189
34.59311
32.62128
30.56546
28.73221
27.2822
26.16248
25.12189
23.8378
22.06512
19.73676
16.96829
13.99713
11.07394
8.374908
5.922272
3.575378
1.052948
-1.960815
-5.693298
-10.14786
-15.08243
-20.06769
-24.66019
-28.6044
-31.9483
-35.10849
-38.71243
-43.40726
-49.59167
-57.12253
-65.19012
-72.34869
-76.81055
-76.90063
-71.59213
-60.89114
-45.94135
-28.74545
-11.59644
3.537384
15.47253
23.94116
29.41702
32.73386
34.70645
35.87564
36.48785
36.63721
36.42358
36.05887
35.82242
35.95792
36.53455
37.42935
38.40414
39.24435
39.8728
40.32599
40.66806
40.91931
40.94818
40.57419
39.6459
38.14984
36.24417
34.18283
32.14539
30.15784
28.06677
25.61743
22.63889
19.1861
15.56519
12.1962
9.429138
7.34317
5.690704
4.049072
2.019928
-0.5414124
-3.516876
-6.57959
-9.437622
-11.99255
-14.42374
-17.06577
-20.25293
-24.15793
-28.70071
-33.60626
-38.49451
-43.04117
-47.09816
-50.71992
-54.17461
-57.88428
-62.37057
-68.11977
-75.4045
-84.00125
-92.97702
-100.6464
-104.914
-103.8977
-96.66437
-83.68158
-66.75722
-48.43433
-31.14763
-16.49741
-4.965302
3.851715
10.73062
16.37027
21.17355
25.32736
28.93839
32.14322
35.06015
37.72327
40.01181
41.71198
42.62463
42.70193
42.09015
41.11588
40.18552
39.64896
39.70016
40.28174
41.10757
41.72192
41.64371
40.52939
38.33585
35.31064
31.90942
28.63525
25.8349
23.61826
21.80539
20.05231
18.01973
15.53093
12.67314
9.735718
7.0793
4.939423
3.324554
2.017944
0.697525
-0.9098969
-2.916519
-5.287064
-7.881485
-10.55136
-13.20879
-15.81471
-18.41776
-21.10951
-24.02147
-27.28043
-30.96497
-35.03151
-39.32224
-43.59727
-47.60788
-51.22635
-54.54141
-57.86847
-61.73997
-66.73889
-73.2683
-81.18192
-89.56781
-96.7719
-100.7618
-99.76923
-92.91774
-80.53635
-64.10225
-45.7028
-27.43825
-10.93231
2.884964
13.72519
21.75349
27.4014
31.23398
33.83527
35.7623
37.4267
39.07428
40.79669
42.55377
44.25299
45.74701
46.90982
47.65756
48.02899
48.20493
48.46011
49.04483
50.07248
51.40729
52.71777
53.60815
53.7919
53.17404
51.87436
50.12766
48.18066
46.16046
44.10333
41.93933
39.59329
37.05206
34.36761
31.69687
29.17731
26.87589
24.70245
22.4483
19.88892
16.93097
13.72162
10.53857
7.63623
5.057922
2.54306
-0.3203125
-3.887543
-8.227386
-13.07388
-17.97168
-22.53546
-26.62698
-30.42349
-34.27325
-38.5482
-43.54906
-49.49048
-56.4209
-64.15758
-72.03815
-78.85306
-82.95586
-82.73775
-77.17003
-66.29372
-51.28395
-34.13577
-17.06265
-1.912262
10.23044
19.08554
25.01431
28.692
30.88031
32.22122
33.18639
34.02812
34.85004
35.65923
36.42197
37.11313
37.70348
38.13377
38.31659
38.20137
37.81056
37.31683
36.99564
37.03552
37.43706
37.93069
38.06828
37.44016
35.882
33.54102
30.80707
28.11946
25.7494
23.67482
21.6973
19.55743
17.12804
14.49167
11.88083
9.514221
7.461044
5.583054
3.59346
1.191559
-1.78389
-5.233963
-8.842117
-12.23201
-15.17238
-17.74893
-20.33939
-23.44296
-27.44434
-32.39314
-37.97114
-43.66726
-48.97292
-53.61045
-57.63266
-61.353
-65.27823
-69.99339
-76.00833
-83.56447
-92.35677
-101.3128
-108.6541
-112.2892
-110.4778
-102.5424
-89.19354
-72.33004
-54.39108
-37.57599
-23.21969
-11.7029
-2.694977
4.375076
10.03719
14.64938
18.4977
21.86063
25.00121
28.08414
31.07072
33.74501
35.83101
37.14101
37.69881
37.72791
37.56837
37.57661
38.02231
39.02209
40.48903
42.12013
43.46059
44.04309
43.5717
42.05833
39.84596
37.44305
35.3112
33.65359
32.36749
31.11409
29.50792
27.30858
24.49666
21.29649
18.06863
15.19368
12.9342
11.3521
10.2542
9.264038
8.002396
6.20755
3.866333
1.197174
-1.494492
-3.973648
-6.21022
-8.375214
-10.73567
-13.51573
-16.77348
-20.37154
-24.05383
-27.57553
-30.80034
-33.793
-36.7795
-40.13722
-44.26389
-49.48579
-55.86046
-62.97696
-69.79335
-74.72438
-75.98487
-72.14445
-62.69675
-48.36722
-30.99759
-12.94019
3.617661
17.29053
27.67938
35.15663
40.43381
44.11862
46.56171
47.88388
48.19879
47.7374
46.88322
46.06001
45.57303
45.53624
45.81348
46.14603
46.26186
46.02002
45.46362
44.81363
44.32518
44.15553
44.2469
44.27251
43.79422
42.44472
40.12854
37.08759
33.78552
30.6985
28.09146
25.948
24.06178
22.22743
20.36072
18.5387
16.88177
15.40361
13.92599
12.14377
9.76886
6.672241
3.014008
-0.8503723
-4.510269
-7.689545
-10.40012
-12.94211
-15.77551
-19.28644
-23.61269
-28.55531
-33.68185
-38.53132
-42.81806
-46.5762
-50.13
-53.97784
-58.63414
-64.48482
-71.65732
-79.82304
-88.05794
-94.81355
-98.19181
-96.45972
-88.69959
-75.27811
-57.84942
-38.86433
-20.84065
-5.579742
6.163559
14.6022
20.52779
24.83716
28.24095
31.15469
33.78499
36.20737
38.45572
40.47588
42.17792
43.44089
44.16867
44.36261
44.12871
43.69263
43.30568
43.18921
43.43564
43.99167
44.61647
44.97481
44.74312
43.72801
41.95677
39.67236
37.24686
35.00895
33.14127
31.58247
30.0933
28.36314
26.19676
23.59723
20.71336
17.77744
14.94976
12.28722
9.685844
6.978951
4.024979
0.7662277
-2.742599
-6.358444
-9.908379
-13.24936
-16.36628
-19.36094
-22.4426
-25.88014
-29.9075
-34.60121
-39.87352
-45.45242
-50.99129
-56.19491
-60.94078
-65.36913
-69.8431
-74.92337
-81.17183
-88.90757
-97.88567
-107.1212
-114.934
-119.2786
-118.4138
-111.5001
-99.00867
-82.60271
-64.6265
-47.33818
-32.26274
-19.91249
-9.964508
-1.717949
5.474968
11.95793
17.79224
22.93893
27.41953
31.36293
34.91298
38.10925
40.82864
42.84086
44.00291
44.3797
44.28493
44.18513
44.46366
45.2925
46.55592
47.87753
48.80571
48.9272
48.05075
46.24219
43.8063
41.14511
38.60683
36.37096
34.36574
32.39006
30.21989
27.75516
25.06158
22.34848
19.80946
17.53891
15.46983
13.41623
11.16994
8.590805
5.67157
2.544586
-0.5257568
-3.273605
-5.490997
-7.196503
-8.654221
-10.28177
-12.49768
-15.46431
-19.04561
-22.81361
-26.25758
-29.02695
-31.08675
-32.72237
-34.40914
-36.7148
-40.14839
-45.03791
-51.34015
-58.43964
-65.03427
-69.31868
-69.41704
-64.06145
-53.13506
-37.815
-20.26936
-2.894684
12.34651
24.40411
33.14299
39.03734
42.77643
44.93472
45.93535
46.07919
45.67479
45.05707
44.53929
44.35588
44.54604
44.99127
45.45049
45.74107
45.79544
45.71579
45.67912
45.81122
46.10574
46.37592
46.3598
45.78847
44.5087
42.51048
39.93213
37.03265
34.11935
31.46243
29.20499
27.3324
25.6324
23.83832
21.69806
19.09158
16.09709
12.90894
9.759476
6.856293
4.315033
2.152695
0.2808075
-1.53241
-3.68512
-6.636673
-10.78784
-16.25861
-22.82487
-29.91435
-36.82381
-43.02847
-48.38218
-53.21207
-58.19753
-64.13074
-71.5584
-80.46555
-90.05286
-98.7551
-104.5312
-105.4398
-100.2699
-89.00148
-72.91761
-54.22557
-35.38882
-18.43784
-4.524643
6.130783
13.97897
19.71314
23.98316
27.25089
29.87691
32.18668
34.50527
37.04166
39.78175
42.45135
44.59739
45.84526
46.12342
45.75646
45.3624
45.54656
46.63162
48.46743
50.52114
52.10088
52.66029
51.99846
50.30473
48.02696
45.64109
43.4458
41.45136
39.41925
37.01849
34.0339
30.47484
26.58585
22.74743
19.2806
16.32214
13.7692
11.33535
8.690613
5.598633
1.999657
-1.969498
-6.053177
-10.03212
-13.81461
-17.50217
-21.35684
-25.67462
-30.64191
-36.26128
-42.3497
-48.6281
-54.80832
-60.67068
-66.12376
-71.19505
-76.06235
-81.08427
-86.7463
-93.46227
-101.2456
-109.4267
-116.513
-120.5107
-119.5045
-112.4082
-99.43231
-82.11677
-62.83
-44.00706
-27.43541
-13.91423
-3.320313
5.016457
11.85081
17.74485
22.97993
27.65311
31.79697
35.43112
38.57952
41.21082
43.23441
44.54807
45.11063
45.04502
44.64416
44.29643
44.37047
45.06441
46.29758
47.74649
48.92589
49.3675
48.7981
47.21532
44.90039
42.3322
39.9915
38.18477
36.91405
35.86823
34.59468
32.73806
30.2457
27.41497
24.72128
22.56651
21.02484
19.80079
18.42428
16.48711
13.86677
10.7685
7.562798
4.59259
2.015221
-0.2252274
-2.323036
-4.504486
-6.966675
-9.796028
-12.98309
-16.36801
-19.71395
-22.76361
-25.3729
-27.62726
-29.83042
-32.47244
-36.05878
-40.99023
-47.31902
-54.60314
-61.77167
-67.1916
-69.04964
-65.90745
-57.26487
-43.87267
-27.56553
-10.68368
4.668755
17.19899
26.57112
33.16229
37.62168
40.48866
42.06549
42.52695
42.09337
41.1143
39.99664
39.08659
38.544
38.31721
38.25909
38.22697
38.17339
38.14364
38.24728
38.54153
39.02897
39.57796
39.96996
39.9317
39.23711
37.78026
35.65627
33.12453
30.54109
28.21085
26.26135
24.60899
23.03826
21.31086
19.24084
16.74329
13.79038
10.41493
6.721199
2.917751
-0.7286491
-3.976471
-6.744282
-9.190536
-11.69678
-14.69514
-18.47257
-23.00879
-27.96145
-32.83248
-37.19794
-40.90508
-44.16858
-47.44986
-51.2989
-56.21262
-62.47178
-70.05587
-78.50307
-86.80336
-93.42818
-96.60577
-94.81122
-87.34924
-74.72214
-58.5717
-41.23555
-24.96926
-11.31071
-0.7803001
6.950218
12.66879
17.18113
21.02551
24.48803
27.67238
30.61538
33.30534
35.67234
37.56689
38.80231
39.26159
38.97854
38.16436
37.16197
36.29456
35.78101
35.65407
35.76683
35.90855
35.84506
35.43551
34.57498
33.24461
31.47771
29.36559
27.06041
24.68641
22.29313
19.8378
17.19467
14.25787
11.06979
7.807036
4.733426
2.049049
-0.2658794
-2.459522
-4.893
-7.8157
-11.21129
-14.76509
-18.04958
-20.72622
-22.78383
-24.53713
-26.4765
-29.04784
-32.3996
-36.35836
-40.50744
-44.41618
-47.85839
-50.87366
-53.75571
-56.96391
-61.01731
-66.34811
-73.13441
-81.0636
-89.15369
-95.74781
-98.85774
-96.81153
-88.88974
-75.68272
-59.01607
-41.28688
-24.72871
-10.7637
0.1852741
8.471236
14.76012
19.68015
23.62392
26.82567
29.46458
31.73924
33.85502
35.93254
37.94779
39.74889
41.14661
42.06398
42.57906
42.95556
43.5049
44.44832
45.79028
47.28994
48.56268
49.22922
49.08801
48.19339
46.82325
45.34978
44.04726
43.00299
42.06948
40.98119
39.46519
37.41881
34.94692
32.33845
29.89315
27.80823
26.03641
24.3527
22.47278
20.18677
17.50964
14.61228
11.73379
9.03487
6.489483
3.87907
0.9013596
-2.682846
-6.942745
-11.72154
-16.6518
-21.316
-25.39738
-28.82877
-31.86755
-35.02054
-38.91071
-44.06212
-50.6846
-58.44424
-66.36818
-72.91376
-76.29499
-75.01053
-68.34725
-56.72542
-41.64601
-25.23865
-9.599602
3.770618
14.23258
21.90673
27.33364
31.08875
33.6023
35.17147
36.02395
36.41899
36.62151
36.85855
37.22571
37.67916
38.08622
38.34279
38.44344
38.51109
38.75911
39.38142
40.4171
41.68841
42.81664
43.35252
43.00243
41.71122
39.73578
37.49881
35.42633
33.73565
32.35832
30.97652
29.18439
26.74037
23.65752
20.24915
16.97671
14.24976
12.22834
10.80165
9.615924
8.247226
6.383051
3.93619
1.059038
-1.936829
-4.740749
-7.190748
-9.347851
-11.52332
-14.12993
-17.50999
-21.71979
-26.46931
-31.19112
-35.32889
-38.61936
-41.26995
-43.95306
-47.6328
-53.26966
-61.50027
-72.32318
-84.85785
-97.38421
-107.581
-113.1157
-112.3071
-104.6721
-91.13596
-73.72716
-54.9444
-37.05251
-21.60168
-9.26429
0.02233124
6.760712
11.63853
15.34135
18.47009
21.42896
24.43537
27.47756
30.37601
32.88305
34.77048
35.90272
36.29958
36.15318
35.76178
35.46789
35.54274
36.08853
36.96554
37.85886
38.36478
38.13934
37.03281
35.13479
32.72589
30.18199
27.80602
25.76881
24.04014
22.41782
20.63113
18.46525
15.86529
12.96269
10.03757
7.424301
5.348946
3.82914
2.668549
1.513802
-0.002746582
-2.103485
-4.768639
-7.747337
-10.68519
-13.28145
-15.44153
-17.33861
-19.36675
-21.97115
-25.46265
-29.80785
-34.64363
-39.38696
-43.53
-46.85244
-49.53949
-52.0999
-55.17922
-59.38464
-65.07368
-72.18698
-80.10492
-87.5889
-92.89793
-94.21396
-90.1706
-80.39354
-65.79343
-48.33336
-30.42919
-14.22777
-1.018559
8.906101
16.01982
21.15553
25.08863
28.32468
31.09271
33.43173
35.3362
36.83802
38.04772
39.09813
40.09643
41.10241
42.11976
43.15979
44.2765
45.57877
47.14997
48.96895
50.83034
52.38204
53.24238
53.15378
52.10742
50.33999
48.22731
46.14161
44.27467
42.6432
41.09241
39.44175
37.58586
35.54249
33.39839
31.21794
28.99413
26.63369
24.0048
21.03514
17.74847
14.26663
10.7684
7.388332
4.137241
0.8964386
-2.554834
-6.454666
-10.93777
-15.97118
-21.36724
-26.81664
-32.00654
-36.73114
-40.9839
-44.96204
-49.08448
-53.85067
-59.74261
-66.91928
-74.97456
-82.73764
-88.40236
-89.9946
-86.05289
-76.23146
-61.552
-44.10214
-26.33998
-10.33365
2.72649
12.62017
19.78375
24.89851
28.57447
31.25932
33.25167
34.81963
36.16713
37.40624
38.49251
39.26678
39.56186
39.33031
38.73939
38.10936
37.80444
38.08797
38.97047
40.22074
41.40845
42.0912
41.929
40.82739
38.89686
36.46019
33.85865
31.4216
29.31762
27.54263
25.93596
24.23421
22.20245
19.71661
16.8228
13.73036
10.72899
8.072887
5.874081
4.03384
2.27549
0.2857056
-2.149216
-5.036598
-8.201851
-11.4065
-14.54445
-17.71255
-21.16037
-25.15304
-29.76665
-34.80898
-39.89085
-44.62632
-48.81441
-52.52569
-56.09037
-59.93701
-64.5151
-70.20071
-77.20893
-85.39588
-94.05617
-101.8032
-106.7444
-106.9793
-101.2749
-89.65203
-73.48191
-55.07261
-36.91765
-20.91793
-7.999947
1.822701
9.081299
14.45533
18.55077
21.8477
24.73735
27.53359
30.40453
33.30327
35.99711
38.16094
39.55353
40.10822
39.96884
39.44411
38.8782
38.60297
38.85056
39.69544
40.99068
42.38596
43.4112
43.64469
42.87643
41.19169
38.9176
36.47925
34.25283
32.41151
30.92272
29.59203
28.17153
26.4358
24.27672
21.74347
19.03496
16.43914
14.21041
12.44539
11.02035
9.592073
7.762217
5.24649
2.033254
-1.593113
-5.206316
-8.427339
-11.11407
-13.41931
-15.71341
-18.39648
-21.72201
-25.6748
-30.02441
-34.42036
-38.56251
-42.28247
-45.61559
-48.79311
-52.22219
-56.39196
-61.72939
-68.31364
-75.60841
-82.31667
-86.60057
-86.56574
-80.9332
-69.57011
-53.65231
-35.2818
-16.8378
-0.2590809
13.36114
23.80641
31.44433
36.8886
40.71154
43.35295
45.14514
46.38739
47.32471
48.12523
48.84467
49.45433
49.9224
50.27911
50.6154
51.07523
51.72438
52.52141
53.30939
53.87332
54.00314
53.56355
52.50948
50.87867
48.78447
46.36527
43.79007
41.17939
38.59506
36.03424
33.43762
30.76525
28.02686
25.29122
22.62467
20.02313
17.41216
14.65754
11.6335
8.335714
4.897484
1.552711
-1.455917
-4.066378
-6.458138
-9.037457
-12.27613
-16.45214
-21.48872
-26.95357
-32.2616
-36.93114
-40.81867
-44.16171
-47.45734
-51.25052
-56.0377
-62.12227
-69.52182
-77.80207
-85.88949
-92.06432
-94.33698
-91.05109
-81.54359
-66.55798
-48.06336
-28.65556
-10.77448
3.949766
14.91926
22.40679
27.1749
30.10834
31.95035
33.22326
34.28802
35.35467
36.54582
37.90325
39.34763
40.71168
41.74494
42.21964
42.0818
41.54182
41.00379
40.93855
41.58455
42.80929
44.08218
44.72215
44.17223
42.29112
39.41148
36.1461
33.15535
30.80116
29.05011
27.5588
25.88905
23.72809
21.06337
18.12666
15.23015
12.61376
10.28783
8.068665
5.666845
2.860825
-0.4179688
-4.011955
-7.651287
-11.0737
-14.16072
-17.03809
-20.02676
-23.49889
-27.69563
-32.61351
-37.97613
-43.34999
-48.34129
-52.73719
-56.61421
-60.26408
-64.15441
-68.80278
-74.65502
-81.91951
-90.31258
-98.83439
-105.7941
-109.1336
-107.0545
-98.7084
-84.61351
-66.57765
-47.12151
-28.69138
-12.9784
-0.650341
8.463211
15.00932
19.66848
23.00666
25.44568
27.33628
29.01376
30.74169
32.65479
34.67731
36.58305
38.05141
38.87634
39.02423
38.6913
38.28184
38.21292
38.73188
39.80061
41.06681
42.00181
42.16432
41.35673
39.70846
37.56398
35.31283
33.21791
31.34838
29.63948
27.94481
26.17204
24.25352
22.1375
19.82764
17.36436
14.84671
12.43496
10.26677
8.358702
6.61091
4.806554
2.74951
0.3815823
-2.232434
-4.888195
-7.422997
-9.804178
-12.19716
-14.90783
-18.24316
-22.34208
-27.05041
-31.95179
-36.52241
-40.32472
-43.24759
-45.5364
-47.73576
-50.54483
-54.6049
-60.29361
-67.51312
-75.47334
-82.68124
-87.13261
-86.84085
-80.50877
-68.09813
-50.95955
-31.44453
-12.15636
4.851086
18.48617
28.60121
35.65062
40.2504
42.99677
44.38176
44.86752
44.9294
44.96758
45.22277
45.73674
46.41103
47.11012
47.77257
48.42773
49.16599
50.07348
51.16664
52.39265
53.59015
54.52309
54.90385
54.49435
53.18872
51.0802
48.41106
45.52898
42.69254
40.03764
37.55584
35.15047
32.73665
30.28535
27.80838
25.29248
22.67216
19.80691
16.52575
12.76928
8.622116
4.392311
0.4433441
-2.911049
-5.626049
-7.947079
-10.383
-13.46961
-17.50712
-22.4286
-27.80497
-33.06253
-37.76587
-41.83654
-45.57136
-49.51175
-54.23431
-60.1791
-67.55932
-76.19106
-85.35587
-93.68601
-99.2684
-100.0753
-94.64671
-82.75917
-65.66737
-45.82276
-26.08357
-8.81144
4.707993
14.37665
20.88501
25.22365
28.23368
30.48841
32.32849
34.00476
35.69082
37.42962
39.17377
40.73251
41.92194
42.6162
42.85588
42.82539
42.79668
43.06002
43.77729
44.90973
46.14363
46.98428
46.91131
45.61442
43.13271
39.89276
36.54224
33.65195
31.47263
29.83776
28.27823
26.29099
23.64223
20.45187
17.12628
14.14802
11.80128
10.03985
8.513693
6.756007
4.412518
1.360481
-2.213492
-5.958161
-9.512556
-12.68698
-15.55237
-18.39704
-21.61536
-25.51457
-30.1795
-35.43916
-40.95589
-46.35451
-51.34658
-55.8283
-59.88512
-63.81713
-68.1111
-73.37271
-80.14062
-88.52619
-97.85776
-106.5212
-112.1999
-112.5727
-106.1802
-93.05391
-74.83087
-54.19032
-33.9726
-16.3019
-2.166319
8.479656
16.2936
22.08429
26.52299
30.09731
33.17918
36.05576
38.8962
41.67662
44.1936
46.15562
47.31254
47.64277
47.34325
46.7851
46.36053
46.33434
46.74856
47.422
48.02132
48.17468
47.57351
46.07787
43.76864
40.91524
37.9188
35.1741
32.94592
31.28023
29.98671
28.69257
27.01819
24.71415
21.76223
18.41787
15.06517
12.07081
9.65815
7.818993
6.32925
4.84026
2.978504
0.4642944
-2.799622
-6.668152
-10.81528
-14.81208
-18.28324
-21.06898
-23.27699
-25.2819
-27.57739
-30.54772
-34.3174
-38.68847
-43.23458
-47.52832
-51.32568
-54.68569
-57.97604
-61.74147
-66.58704
-72.9702
-80.94145
-89.89713
-98.51352
-104.8305
-106.7316
-102.5915
-91.90849
-75.60121
-55.7984
-35.14616
-16.04231
-0.04457092
12.32748
21.35989
27.7317
32.16209
35.27151
37.53594
39.37526
41.12413
42.98722
45.0052
47.03268
48.83023
50.18521
51.05522
51.60676
52.17207
53.1113
54.63705
56.71034
58.97318
60.90009
61.96596
61.87509
60.68456
58.74399
56.5303
54.38887
52.41641
50.44402
48.22609
45.59569
42.60956
39.46907
36.40483
33.53571
30.83163
28.16219
25.3873
22.42966
19.24724
15.79384
12.03694
7.974777
3.727264
-0.5259857
-4.587448
-8.417557
-12.16236
-16.14566
-20.66468
-25.81932
-31.45386
-37.20795
-42.72488
-47.80003
-52.5339
-57.27239
-62.53769
-68.91122
-76.74335
-85.88564
-95.44398
-103.694
-108.416
-107.5289
-99.84394
-85.58683
-66.47021
-45.15668
-24.44443
-6.50914
7.5755
17.76421
24.70782
29.32832
32.48654
34.83847
36.80072
38.5909
40.24469
41.69554
42.81271
43.5141
43.78781
43.77438
43.70174
43.87483
44.54109
45.82814
47.69733
49.88773
52.01999
53.6237
54.30791
53.85689
52.31523
49.94963
47.17595
44.41556
41.92017
39.70366
37.56789
35.23405
32.47974
29.28662
25.82518
22.36406
19.13736
16.23917
13.57526
10.93085
8.043594
4.750931
1.027328
-2.96492
-6.966354
-10.74139
-14.21193
-17.51469
-20.95311
-24.84094
-29.34153
-34.38472
-39.69344
-44.94249
-49.89514
-54.5162
-58.97044
-63.5588
-68.66261
-74.69702
-82.04897
-90.82366
-100.5665
-110.0098
-117.1431
-119.6441
-115.6605
-104.5201
-87.10378
-65.66216
-43.09946
-22.11514
-4.505493
9.077271
18.95461
25.94688
30.96587
34.71962
37.67368
40.13699
42.32829
44.42554
46.50323
48.51353
50.25374
51.44824
51.89819
51.60104
50.81187
49.97537
49.55038
49.7854
50.61488
51.64825
52.37509
52.34421
51.34126
49.46057
46.94823
44.13445
41.25354
38.40399
35.55501
32.58704
29.37759
25.85416
22.05077
18.15581
14.46121
11.23378
8.604065
6.458145
4.468262
2.24614
-0.4748077
-3.705505
-7.23851
-10.78462
-14.14978
-17.32178
-20.46033
-23.82071
-27.62621
-31.99397
-36.89175
-42.15538
-47.48627
-52.59255
-57.24012
-61.37581
-65.21644
-69.23086
-74.07269
-80.34787
-88.28593
-97.44234
-106.4719
-113.297
-115.5885
-111.5672
-100.6501
-83.77723
-63.14301
-41.49887
-21.31761
-4.16391
9.41571
19.68503
27.25417
32.74564
36.61511
39.17787
40.75229
41.72054
42.49205
43.40714
44.62639
46.09851
47.62842
49.00122
50.15541
51.23438
52.51193
54.24457
56.47438
58.96544
61.2538
62.83041
63.33994
62.71991
61.1701
59.03088
56.63379
54.16504
51.66385
49.10239
46.47
43.82794
41.25879
38.74335
36.10675
33.04205
29.2973
24.84933
20.0134
15.36249
11.41739
8.417816
6.111786
3.902924
1.113464
-2.71344
-7.589661
-13.11992
-18.75191
-24.03732
-28.81729
-33.27698
-37.77612
-42.72473
-48.49242
-55.35808
-63.4426
-72.54962
-81.90633
-90.02457
-94.90146
-94.53732
-87.67792
-74.3958
-56.20303
-35.61258
-15.3557
2.415497
16.5899
27.03116
34.23724
38.91351
41.6767
43.03413
43.44418
43.34918
43.15543
43.1452
43.41254
43.87585
44.36993
44.74619
44.98225
45.17886
45.50926
46.1076
46.96823
47.9091
48.57675
48.61284
47.80632
46.17435
43.97827
41.5816
39.30052
37.22682
35.20932
32.96188
30.22681
26.91295
23.15524
19.23587
15.43617
11.92351
8.683395
5.562653
2.38269
-0.982193
-4.517822
-8.083389
-11.48497
-14.63362
-17.6149
-20.74049
-24.43884
-29.08429
-34.75082
-41.14801
-47.69754
-53.76547
-58.97151
-63.35821
-67.42189
-71.95171
-77.77827
-85.43934
-94.84063
-105.0046
-114.0923
-119.7277
-119.6684
-112.5693
-98.55613
-79.27307
-57.38178
-35.74854
-16.59981
-1.117111
10.56241
18.98941
24.96896
29.27565
32.548
35.27924
37.80511
40.29996
42.76244
45.04663
46.91866
48.18343
48.75117
48.70886
48.30423
47.88507
47.7682
48.12416
48.89992
49.78885
50.36206
50.21652
49.11894
47.08736
44.36818
41.31273
38.27798
35.4957
33.02791
30.76559
28.49249
25.96609
23.04707
19.76204
16.33658
13.09242
10.29126
7.996536
5.990616
3.89238
1.313705
-1.904816
-5.614594
-9.43605
-12.95706
-15.9697
-18.5576
-21.09631
-24.04333
-27.76573
-32.38853
-37.74672
-43.48517
-49.12456
-54.27095
-58.69125
-62.48555
-66.08943
-70.24678
-75.78557
-83.28535
-92.63335
-102.7293
-111.5635
-116.621
-115.6767
-107.5714
-92.68349
-72.88953
-50.95674
-29.74162
-11.358
3.153717
13.81213
21.32607
26.65067
30.64426
33.9062
36.80836
39.49844
42.06578
44.50745
46.82748
49.02609
51.04468
52.80455
54.20663
55.2345
55.96579
56.61026
57.3988
58.45914
59.73111
60.90137
61.55627
61.31668
60.00784
57.70731
54.71545
51.43771
48.22855
45.31281
42.7019
40.24915
37.72699
34.92471
31.75702
28.28311
24.69064
21.18677
17.92374
14.89096
11.94702
8.811615
5.189636
0.8605042
-4.222412
-9.864944
-15.71472
-21.33371
-26.39377
-30.77661
-34.67049
-38.54312
-43.03191
-48.8094
-56.36047
-65.7218
-76.19699
-86.29834
-93.91122
-96.8259
-93.48798
-83.56479
-68.18636
-49.55618
-30.27432
-12.51253
2.439316
14.24557
23.2291
29.92783
34.81038
38.18297
40.29105
41.39462
41.86295
42.08282
42.38623
42.96442
43.80623
44.76994
45.64471
46.25667
46.54469
46.54935
46.39326
46.21817
46.08745
45.94629
45.63853
44.93353
43.63353
41.64622
39.04013
36.00597
32.78424
29.55891
26.41313
23.30502
20.11949
16.7621
13.20062
9.506332
5.816162
2.266251
-1.039795
-4.120712
-7.094894
-10.1877
-13.63631
-17.63033
-22.20587
-27.21045
-32.3688
-37.39764
-42.12721
-46.56877
-50.9131
-55.44716
-60.53848
-66.58679
-73.98624
-82.99701
-93.42003
-104.3002
-113.8032
-119.553
-119.3214
-111.9052
-97.66614
-78.51067
-57.25064
-36.64258
-18.59767
-3.886002
7.651535
16.61374
23.59882
29.04099
33.27184
36.66684
39.63953
42.54271
45.49782
48.35983
50.79909
52.48387
53.29659
53.41075
53.2233
53.20508
53.72142
54.83601
56.30984
57.64128
58.26463
57.76378
56.01663
53.28313
50.04517
46.86641
44.10654
41.85312
39.86464
37.77904
35.27553
32.2041
28.65535
24.87044
21.12489
17.59686
14.30989
11.1403
7.873489
4.327682
0.434906
-3.691025
-7.824127
-11.687
-15.15193
-18.3111
-21.52838
-25.31367
-30.06203
-35.88022
-42.47783
-49.30881
-55.78413
-61.55922
-66.67036
-71.48671
-76.62448
-82.72519
-90.27649
-99.38165
-109.5208
-119.3808
-126.9438
-129.8989
-126.4049
-115.8069
-99.0238
-78.32042
-56.57854
-36.32823
-19.12146
-5.3871
5.273636
13.57304
20.15576
25.46274
29.79097
33.38638
36.46297
39.15916
41.4948
43.40303
44.7932
45.65674
46.11447
46.41559
46.8495
47.67868
49.0379
50.85904
52.90396
54.7673
56.01962
56.35641
55.69667
54.23352
52.33504
50.39246
48.64392
47.10272
45.55173
43.71811
41.42645
38.68552
35.72171
32.84052
30.28906
28.11435
26.15704
24.12851
21.75464
18.90143
15.64264
12.2453
9.058075
6.348358
4.176941
2.336578
0.4032898
-2.096283
-5.479279
-9.760086
-14.65723
-19.71503
-24.51155
-28.83229
-32.71492
-36.45546
-40.52776
-45.47375
-51.74101
-59.42056
-67.94223
-75.96053
-81.51396
-82.56503
-77.72653
-66.84091
-51.11671
-32.74109
-14.18896
2.546585
16.30916
26.82399
34.35353
39.36513
42.32091
43.61046
43.64293
42.88985
41.87242
41.04985
40.71027
40.91101
41.4704
42.09618
42.51456
42.645
42.60686
42.68845
43.14774
44.06583
45.25972
46.30086
46.71776
46.12773
44.40979
41.67523
38.24629
34.52611
30.89774
27.66605
24.96796
22.74617
20.7506
18.62132
15.99631
12.69864
8.782425
4.540543
0.3616943
-3.442184
-6.772491
-9.804871
-12.88084
-16.38966
-20.58965
-25.52788
-31.03067
-36.76137
-42.32643
-47.42882
-51.98776
-56.18407
-60.50276
-65.62833
-72.23117
-80.66548
-90.60387
-100.845
-109.4047
-113.9488
-112.5006
-104.1081
-89.25255
-69.79276
-48.40227
-27.79051
-9.991394
4.038956
14.36296
21.72879
27.13289
31.43694
35.2536
38.89381
42.45175
45.85693
48.94957
51.52443
53.38161
54.43459
54.72418
54.46234
53.96155
53.56058
53.50882
53.91376
54.68086
55.50433
55.96753
55.6662
54.37703
52.17195
49.38861
46.52246
43.98183
41.90921
40.11496
38.21469
35.83594
32.81854
29.28796
25.56317
22.00316
18.80435
15.94852
13.20914
10.32848
7.147552
3.703362
0.1829453
-3.203468
-6.373772
-9.499306
-12.93507
-17.1202
-22.3036
-28.46335
-35.2482
-42.1481
-48.69311
-54.62234
-59.95581
-64.92378
-69.89874
-75.3356
-81.70512
-89.36178
-98.24977
-107.5964
-115.8658
-120.9512
-120.841
-114.3582
-101.6431
-84.1895
-64.30981
-44.36703
-26.14439
-10.58047
2.09864
12.08602
19.73364
25.42785
29.63206
32.86968
35.68824
38.46611
41.31399
44.08015
46.42042
47.98582
48.59258
48.33792
47.53666
46.63686
46.04893
46.00716
46.50308
47.27833
47.91823
48.01301
47.28594
45.67668
43.31875
40.47409
37.40937
34.31738
31.26785
28.24848
25.18564
22.0659
18.85282
15.56802
12.21432
8.770889
5.253685
1.72686
-1.676193
-4.81723
-7.645569
-10.28854
-12.99995
-16.10026
-19.82703
-24.18192
-28.92258
-33.64706
-37.97535
-41.6908
-44.88647
-47.93049
-51.38406
-55.87482
-61.84302
-69.29691
-77.58014
-85.29792
-90.52927
-91.36562
-86.53452
-75.94726
-60.77507
-43.11911
-25.31985
-9.251808
4.060394
14.4243
22.17214
27.82811
31.84407
34.60712
36.48132
37.83846
39.03753
40.28271
41.60583
42.87499
43.93483
44.69639
45.25145
45.82552
46.67755
47.97488
49.73969
51.76194
53.65382
54.95169
55.22005
54.22332
52.04214
49.03962
45.76073
42.69085
40.0833
37.84649
35.63894
33.07444
29.93085
26.25964
22.33298
18.49353
14.97242
11.78071
8.710629
5.433887
1.657028
-2.789474
-7.879059
-13.39967
-19.0161
-24.37986
-29.22463
-33.49678
-37.3806
-41.34689
-46.01286
-51.96741
-59.41611
-67.87981
-76.07224
-82.08503
-83.91673
-80.17766
-70.63303
-56.33894
-39.32103
-21.91972
-6.121622
6.877447
16.7426
23.77845
28.59952
31.85065
34.05345
35.51097
36.4252
36.89018
37.0404
37.05919
37.17525
37.5799
38.31212
39.25769
40.2061
40.93615
41.34072
41.44155
41.32172
41.02473
40.49507
39.61006
38.22579
36.25968
33.73532
30.77594
27.57043
24.33235
21.23231
18.36513
15.68185
13.02967
10.19463
7.015766
3.454815
-0.3600349
-4.192898
-7.839088
-11.19463
-14.32387
-17.44254
-20.81542
-24.63326
-28.91521
-33.52426
-38.22151
-42.80861
-47.21101
-51.50887
-55.90925
-60.63187
-65.89141
-71.91289
-78.93675
-87.11966
-96.31067
-105.7567
-114.0005
-119.115
-119.2784
-113.456
-101.848
-85.82748
-67.46181
-48.79279
-31.3335
-15.8784
-2.665413
8.329002
17.21577
24.1713
29.52814
33.77202
37.40733
40.79893
44.01156
46.81577
48.85887
49.87474
49.82027
48.9292
47.63559
46.41772
45.65324
45.50167
45.87473
46.47375
46.90151
46.79704
45.95994
44.40157
42.31171
40.00398
37.74133
35.68225
33.80145
31.93549
29.8643
27.44019
24.65856
21.65321
18.68071
15.97617
13.66656
11.71811
9.905594
7.928299
5.503448
2.523682
-0.9338226
-4.579086
-8.047218
-11.06688
-13.58424
-15.81336
-18.14243
-20.95637
-24.46416
-28.63005
-33.19943
-37.81935
-42.20976
-46.25555
-50.02202
-53.73778
-57.7663
-62.53342
-68.38403
-75.35323
-82.90007
-89.76801
-94.13062
-94.09898
-88.35841
-76.75162
-60.42952
-41.52392
-22.47621
-5.301857
8.859711
19.80617
27.98769
34.09718
38.74934
42.3386
45.08424
47.13478
48.63216
49.75871
50.68473
51.52442
52.32598
53.1003
53.82368
54.52329
55.25521
56.10387
57.1422
58.32034
59.46951
60.24288
60.22245
59.05939
56.57571
52.89217
48.40969
43.64077
39.04191
34.85117
31.06516
27.52234
24.08169
20.7034
17.45302
14.37921
11.44716
8.517319
5.449936
2.196793
-1.122955
-4.320282
-7.294762
-10.16093
-13.27933
-17.07821
-21.80604
-27.37331
-33.31956
-39.03471
-44.00426
-48.07047
-51.45992
-54.72619
-58.55986
-63.59409
-70.2072
-78.36795
-87.40421
-95.9969
-102.3339
-104.5181
-101.1694
-91.9587
-77.79296
-60.57349
-42.59431
-25.84451
-11.54147
-0.03668976
8.984764
16.11058
21.89947
26.75024
30.85373
34.28166
37.03706
39.12972
40.56751
41.38505
41.6692
41.54419
41.219
40.92525
40.89941
41.31786
42.25347
43.61449
45.14165
46.47598
47.27288
47.29773
46.52084
45.11337
43.34243
41.46246
39.57781
37.63908
35.50739
33.06805
30.34242
27.46211
24.63068
22.01051
19.64259
17.43457
15.22172
12.83369
10.11835
7.001633
3.476974
-0.3875885
-4.474762
-8.647278
-12.8269
-17.04346
-21.43854
-26.21994
-31.51215
-37.28944
-43.33315
-49.34286
-55.05969
-60.40553
-65.51662
-70.7061
-76.40849
-83.05928
-90.93542
-99.8887
-109.1442
-117.1819
-122.0199
-121.8043
-115.4682
-103.1954
-86.42337
-67.35916
-48.23234
-30.68965
-15.55798
-2.966751
7.297363
15.53763
22.00906
26.99914
30.85222
33.95814
36.66241
39.18224
41.57268
43.77138
45.63281
47.00945
47.8077
48.05635
47.91277
47.66854
47.66302
48.12528
49.05544
50.16589
50.96077
50.94485
49.8505
47.75221
45.04346
42.24195
39.72443
37.61661
35.74218
33.8047
31.56887
28.97551
26.17519
23.42032
20.91294
18.70788
16.71159
14.72103
12.52742
10.02626
7.276398
4.466888
1.827034
-0.4959831
-2.555313
-4.612782
-7.049778
-10.15646
-14.02162
-18.46743
-23.15201
-27.7065
-31.86147
-35.51598
-38.715
-41.63423
-44.57888
-48.01811
-52.50883
-58.48773
-65.90548
-73.94835
-80.97549
-84.87128
-83.67523
-76.32336
-63.09599
-45.59543
-26.24323
-7.498064
8.822277
21.87366
31.70209
38.84253
43.93275
47.44565
49.63871
50.68046
50.78473
50.28942
49.57891
49.01783
48.81321
48.97399
49.35643
49.75624
50.02924
50.13152
50.17068
50.26143
50.47992
50.73914
50.8274
50.42254
49.2922
47.35532
44.78376
41.89921
39.0455
36.43525
34.06176
31.76507
29.32893
26.61625
23.60839
20.37191
17.00822
13.60484
10.26521
7.083824
4.163582
1.539364
-0.8924942
-3.390923
-6.308006
-9.931355
-14.37917
-19.51139
-25.00146
-30.46473
-35.58364
-40.20633
-44.39626
-48.41295
-52.72137
-57.90697
-64.46553
-72.53048
-81.5234
-90.03979
-96.07137
-97.57079
-93.15584
-82.68003
-67.34191
-49.27275
-30.87433
-14.07875
-0.003135681
11.0611
19.37151
25.42057
29.72203
32.75106
34.96918
36.79656
38.54887
40.35691
42.12003
43.61186
44.58753
44.89161
44.53247
43.68279
42.61839
41.62295
40.94101
40.67151
40.75785
41.00498
41.13634
40.92162
40.27049
39.26462
38.09529
36.94382
35.84366
34.618
32.91946
30.43188
27.02766
22.90291
18.53401
14.47748
11.12443
8.536926
6.401367
4.20929
1.505623
-1.918243
-5.94986
-10.24086
-14.40163
-18.2011
-21.66486
-25.07771
-28.84741
-33.28625
-38.46664
-44.18369
-50.01212
-55.48422
-60.27339
-64.29768
-67.75887
-71.12007
-75.04066
-80.25473
-87.29961
-96.12437
-105.7452
-114.1688
-118.8266
-117.4239
-108.8734
-93.81592
-74.47746
-53.83351
-34.58252
-18.38515
-5.692551
3.912979
11.1496
16.6335
20.78105
23.93156
26.46635
28.8279
31.34822
34.1123
36.93164
39.45544
41.34521
42.45336
42.90527
43.037
43.24966
43.85143
44.90549
46.2037
47.35115
47.92964
47.67206
46.55299
44.78348
42.6991
40.60062
38.61665
36.70935
34.72088
32.50729
30.02676
27.35329
24.66298
22.14129
19.91115
18.00261
16.311
14.60995
12.63783
10.15519
7.089058
3.573982
-0.06018829
-3.451828
-6.37188
-8.881607
-11.28641
-14.00504
-17.3465
-21.35989
-25.85104
-30.49285
-34.99097
-39.17283
-42.99168
-46.54151
-50.04779
-53.92632
-58.65846
-64.58115
-71.49956
-78.40655
-83.53756
-84.80378
-80.54578
-70.20696
-54.64902
-35.90092
-16.49493
1.319328
16.11524
27.40969
35.45148
40.81682
44.1281
45.87063
46.45594
46.26012
45.6925
45.10611
44.75323
44.73705
45.00901
45.45188
45.96481
46.50771
47.08313
47.68579
48.28053
48.75763
49.01603
48.93102
48.38472
47.28372
45.55697
43.19921
40.31179
37.10637
33.8614
30.82174
28.09032
25.58388
23.10424
20.41495
17.36872
13.97572
10.40545
6.908684
3.718376
0.9243546
-1.555519
-3.981476
-6.692947
-9.976784
-13.94505
-18.49478
-23.33967
-28.1429
-32.61947
-36.65446
-40.30353
-43.81339
-47.57606
-52.10622
-57.94418
-65.36062
-74.1118
-83.12645
-90.58485
-94.29479
-92.40808
-84.1437
-70.15913
-52.38831
-33.40104
-15.61619
-0.6511154
10.87972
19.19203
24.93899
28.85911
31.58217
33.57993
35.21633
36.75554
38.35361
39.9705
41.42996
42.47332
42.88902
42.65739
41.96577
41.1923
40.72724
40.8446
41.55213
42.59235
43.547
44.00867
43.74432
42.74351
41.18913
39.32314
37.32375
35.23313
32.97179
30.42242
27.53679
24.40546
21.21828
18.18285
15.37757
12.69984
9.90181
6.723915
3.046272
-1.04287
-5.293381
-9.411774
-13.2679
-16.94603
-20.74559
-25.01123
-29.99187
-35.66995
-41.77927
-47.9109
-53.67406
-58.84824
-63.46132
-67.7614
-72.16588
-77.23862
-83.50343
-91.23711
-100.14
-109.0583
-116.029
-118.7095
-115.1592
-104.6332
-88.01913
-67.63513
-46.45369
-27.13959
-11.32674
0.6041489
9.176483
15.30389
19.81285
23.24367
25.91882
28.09225
30.01243
31.89916
33.86521
35.82234
37.58126
38.88947
39.65517
39.96249
40.08241
40.32774
40.91279
41.87667
43.04031
44.12084
44.79353
44.8263
44.115
42.7134
40.76267
38.43784
35.89359
33.22369
30.47454
27.69205
24.95965
22.43227
20.25682
18.48707
17.0148
15.55647
13.76759
11.40545
8.429981
5.049091
1.592747
-1.649063
-4.569431
-7.278679
-10.04261
-13.15726
-16.82036
-21.03403
-25.59964
-30.20704
-34.50276
-38.29268
-41.58619
-44.66939
-48.0945
-52.4949
-58.37977
-65.80263
-74.10213
-81.808
-86.95117
-87.52248
-82.21003
-70.88057
-54.74104
-35.99897
-17.20915
-0.5283337
12.79308
22.45576
28.90765
32.9388
35.32851
36.74759
37.71318
38.66508
39.93969
41.73168
44.00957
46.56003
49.01994
51.01897
52.31892
52.87001
52.84142
52.54741
52.31917
52.4033
52.86323
53.51782
54.04394
54.08471
53.40588
51.97134
49.91942
47.43997
44.62468
41.42679
37.68265
33.2406
28.09967
22.4836
16.82528
11.6741
7.516002
4.609208
2.890066
1.91118
0.9206705
-0.9673977
-4.49511
-9.996182
-17.22277
-25.4166
-33.51878
-40.5848
-46.13169
-50.30739
-53.83941
-57.75401
-63.05367
-70.34416
-79.5561
-89.77766
-99.32553
-105.9928
-107.6057
-102.675
-90.98483
-73.79276
-53.52797
-33.08884
-14.9621
-0.5971584
9.771976
16.86847
21.82224
25.66246
29.05641
32.28084
35.37738
38.28742
40.96526
43.36555
45.39919
46.92663
47.80825
48.01849
47.66331
47.02327
46.41801
46.12352
46.24871
46.69598
47.18723
47.37419
46.94073
45.72553
43.74809
41.21397
38.42628
35.6706
33.09902
30.69497
28.2958
25.68634
22.71988
19.35241
15.64489
11.71505
7.682107
3.682052
-0.1691141
-3.808856
-7.273616
-10.74515
-14.49664
-18.80553
-23.78866
-29.29715
-34.97152
-40.40142
-45.31015
-49.70502
-53.82719
-58.09237
-62.98569
-68.97849
-76.4111
-85.26709
-94.9033
-103.9011
-110.2248
-111.7729
-107.1288
-96.1487
-80.10816
-61.27834
-42.10815
-24.48274
-9.325026
3.32922
13.92189
22.95276
30.71068
37.29242
42.68569
46.94536
50.23764
52.78862
54.81507
56.40772
57.54208
58.12347
58.12955
57.69256
57.08727
56.6583
56.60416
56.86493
57.12299
56.95162
56.02475
54.24915
51.79634
48.97609
46.06969
43.23114
40.4845
37.80861
35.19531
32.68819
30.31078
28.01206
25.62791
22.92678
19.70051
15.91492
11.70961
7.400539
3.334682
-0.2827339
-3.484695
-6.554188
-9.91169
-13.91655
-18.69308
-24.04611
-29.54741
-34.73872
-39.3623
-43.47272
-47.42574
-51.75253
-56.98589
-63.54076
-71.54265
-80.64678
-89.87334
-97.60844
-101.8513
-100.8154
-93.59083
-80.61588
-63.61079
-45.00591
-27.14427
-11.61074
0.9389648
10.61028
17.81891
23.0048
26.55019
28.85146
30.37283
31.55874
32.72045
33.91844
35.04493
35.9068
36.41415
36.61816
36.68137
36.83096
37.25402
38.09348
39.33227
40.80603
42.14193
42.89709
42.73979
41.60151
39.71765
37.5096
35.36679
33.45809
31.71616
29.92505
27.91273
25.69232
23.39393
21.18994
19.12847
17.11812
14.93734
12.3925
9.394402
6.024342
2.498981
-0.9703865
-4.232166
-7.333061
-10.45209
-13.85406
-17.71437
-22.06334
-26.7055
-31.32259
-35.6179
-39.40407
-42.71403
-45.75045
-48.8691
-52.48264
-57.00705
-62.68027
-69.34306
-76.25272
-81.97027
-84.71098
-82.82149
-75.41411
-62.77789
-46.39838
-28.45777
-11.16453
3.863884
15.89996
25.00286
31.68371
36.53244
39.96778
42.23099
43.48199
43.91426
43.81981
43.55798
43.44305
43.67398
44.26445
45.08931
45.94063
46.63673
47.0797
47.28568
47.33672
47.29411
47.11429
46.62041
45.56404
43.75824
41.18959
38.10427
34.92135
32.0829
29.78345
27.8885
25.92719
23.37033
19.85383
15.42108
10.51324
5.808552
1.865955
-1.099113
-3.351261
-5.479691
-8.122236
-11.68274
-16.147
-21.14533
-26.15148
-30.73144
-34.70597
-38.19663
-41.52906
-45.13141
-49.45834
-54.92749
-61.72823
-69.57918
-77.49821
-83.82378
-86.53983
-83.95013
-75.35649
-61.4277
-44.02505
-25.63039
-8.5226
5.82891
16.93251
25.05787
30.8089
34.77076
37.35643
38.86434
39.58424
39.86974
40.11866
40.64178
41.59532
42.9333
44.43128
45.78394
46.74184
47.16842
47.05447
46.47808
45.52017
44.22014
42.53371
40.39617
37.75711
34.64248
31.20219
27.68119
24.38461
21.56708
19.36128
17.64422
16.07853
14.19352
11.56794
8.036774
3.771673
-0.7613544
-4.988819
-8.484921
-11.15164
-13.22438
-15.17974
-17.55055
-20.6856
-24.67896
-29.33302
-34.2827
-39.10763
-43.49331
-47.3237
-50.71414
-54.01246
-57.74874
-62.58611
-69.05711
-77.24052
-86.43452
-95.02003
-100.7289
-101.3474
-95.49529
-83.21986
-66.01441
-46.31651
-26.6791
-9.059265
5.500015
16.77605
25.03377
30.7448
34.43125
36.69976
38.19622
39.55321
41.16309
43.09932
45.09862
46.76623
47.74413
47.91739
47.43506
46.64312
45.96889
45.71164
45.98072
46.60703
47.26914
47.56072
47.17071
45.95871
43.98754
41.44692
38.56378
35.53618
32.50633
29.54488
26.66745
23.83282
20.98148
18.01149
14.85439
11.49473
7.981369
4.388329
0.7483978
-2.940521
-6.687943
-10.44894
-14.14739
-17.71588
-21.22755
-24.90859
-29.08056
-33.9784
-39.55939
-45.50069
-51.31416
-56.58709
-61.17667
-65.3003
-69.43116
-74.14736
-79.99357
-87.33202
-96.12565
-105.7114
-114.6803
-120.9786
-122.4414
-117.5146
-105.9296
-88.94627
-68.96123
-48.68673
-30.26891
-14.77563
-2.211609
8.016411
16.57638
23.85037
29.8962
34.66998
38.23861
40.8514
42.86377
44.56122
46.05743
47.23687
47.89867
47.91234
47.38533
46.66118
46.20396
46.39787
47.32166
48.69674
49.95818
50.53132
50.05634
48.54891
46.31126
43.77431
41.2616
38.85163
36.40327
33.71039
30.65715
27.32031
23.93399
20.74143
17.89688
15.3531
12.94569
10.46148
7.779894
4.93219
2.075107
-0.6101255
-3.031099
-5.25563
-7.501112
-10.05686
-13.16754
-16.8944
-21.10433
-25.48025
-29.68467
-33.45367
-36.74067
-39.70743
-42.69433
-46.13153
-50.47758
-56.09055
-63.01139
-70.6842
-77.8559
-82.67804
-83.18122
-77.99284
-66.89453
-51.02908
-32.56254
-13.97452
2.69762
16.35427
26.80436
34.47591
39.97605
43.78552
46.20296
47.42874
47.71264
47.40164
46.90767
46.60134
46.69059
47.16732
47.8437
48.48016
48.91132
49.15537
49.35958
49.73515
50.37191
51.13145
51.67289
51.57196
50.50923
48.40872
45.5012
42.22236
39.04827
36.32119
34.14184
32.32999
30.50954
28.26917
25.31152
21.59675
17.32593
12.91897
8.80246
5.245804
2.227619
-0.5816574
-3.703564
-7.603348
-12.48439
-18.18646
-24.22517
-30.00979
-35.0857
-39.32892
-42.98705
-46.61748
-50.91024
-56.47369
-63.59917
-71.99747
-80.66088
-87.9293
-91.83543
-90.64915
-83.5069
-70.75433
-53.94016
-35.35714
-17.3389
-1.674366
10.73779
19.8564
26.19534
30.46489
33.34025
35.32612
36.765
37.87737
38.83617
39.76211
40.72731
41.72037
42.66467
43.45023
44.00967
44.37073
44.63882
44.93803
45.32624
45.73104
45.96287
45.79227
45.0305
43.6105
41.56424
38.99641
36.03802
32.83047
29.53758
26.31911
23.28287
20.45505
17.73358
14.90207
11.74373
8.129471
4.152388
0.09511566
-3.644535
-6.750273
-9.189436
-11.25062
-13.48159
-16.45345
-20.51855
-25.63993
-31.42907
-37.3152
-42.79716
-47.66224
-52.05416
-56.42647
-61.41483
-67.65691
-75.58984
-85.14014
-95.4956
-104.9954
-111.4335
-112.6411
-107.2463
-95.24849
-78.09331
-58.23552
-38.36327
-20.62206
-6.180222
4.751762
12.61938
18.14867
22.05418
24.93126
27.25239
29.35889
31.44657
33.55217
35.56635
37.3283
38.69981
39.62816
40.18121
40.49873
40.73192
40.97539
41.22987
41.40079
41.32441
40.81085
39.74294
38.10057
36.01569
33.69527
31.34469
29.0985
26.98656
24.94691
22.91807
20.85514
18.76335
16.66132
14.51806
12.27882
9.864597
7.235172
4.400913
1.418568
-1.633118
-4.664677
-7.604538
-10.43653
-13.23691
-16.21937
-19.66791
-23.80954
-28.6538
-33.93703
-39.17138
-43.88302
-47.81976
-51.09719
-54.16187
-57.68293
-62.32087
-68.54749
-76.4398
-85.41927
-94.16895
-100.7204
-102.8903
-99.00263
-88.56709
-72.58701
-53.32155
-33.551
-15.67777
-1.110552
9.891726
17.89038
23.73163
28.13005
31.51567
34.08088
35.94229
37.27132
38.28768
39.20313
40.14752
41.1432
42.11842
43.00322
43.77587
44.50031
45.35224
46.52533
48.14253
50.11572
52.1101
53.61522
54.12
53.3538
51.38659
48.61372
45.59527
42.84977
40.64553
38.94257
37.44552
35.77282
33.62299
30.87304
27.60919
24.07547
20.55451
17.28839
14.37386
11.752
9.167278
6.270496
2.698116
-1.750744
-7.001659
-12.67259
-18.21279
-23.12181
-27.16917
-30.52986
-33.73727
-37.48148
-42.39745
-48.87433
-56.8761
-65.78324
-74.35259
-80.78944
-83.15172
-79.92958
-70.62827
-56.07847
-38.26104
-19.69343
-2.671028
11.33392
21.85387
29.20861
34.08114
37.15659
38.94222
39.76704
39.85883
39.45716
38.84412
38.31745
38.12263
38.40081
39.11717
40.10149
41.13834
42.05843
42.81297
43.4458
44.0169
44.45937
44.61488
44.23642
43.12801
41.26057
38.77945
35.93186
32.96212
30.02264
27.17077
24.42428
21.79786
19.31115
16.9454
14.57975
12.01723
9.066286
5.656302
1.90399
-1.910403
-5.496716
-8.703881
-11.64458
-14.67202
-18.21295
-22.56773
-27.74102
-33.4561
-39.2874
-44.86341
-50.01328
-54.80887
-59.53757
-64.61011
-70.49605
-77.61321
-86.10634
-95.57534
-104.845
-112.0169
-114.8965
-111.7212
-101.8658
-86.22267
-66.93765
-46.73857
-28.02679
-12.29007
0.03199577
9.288177
16.12017
21.16956
24.90722
27.74033
30.03826
32.15836
34.36362
36.71198
39.05903
41.13542
42.67422
43.51141
43.69466
43.45122
43.14225
43.13176
43.63227
44.59113
45.6464
46.26987
45.9716
44.54034
42.13928
39.22752
36.33003
33.7973
31.61547
29.46949
26.94767
23.77519
20.02236
16.05122
12.35568
9.285916
6.900945
4.950743
3.031397
0.7817917
-1.950688
-5.090018
-8.413788
-11.70066
-14.86194
-17.96224
-21.1879
-24.74461
-28.76769
-33.30184
-38.26805
-43.50003
-48.75283
-53.76154
-58.32862
-62.45734
-66.41902
-70.78769
-76.26801
-83.37087
-92.01997
-101.2299
-109.1398
-113.4063
-111.9578
-103.7581
-89.23017
-70.14811
-49.04758
-28.46323
-10.2546
4.631153
16.0572
24.3815
30.17169
34.04768
36.65195
38.61878
40.49263
42.61486
45.0244
47.50308
49.71951
51.41322
52.51865
53.20112
53.76212
54.46647
55.48539
56.79031
58.18015
59.37206
60.0952
60.19077
59.63393
58.55849
57.14069
55.55454
53.85713
52.04905
50.0718
47.87634
45.4697
42.91722
40.30466
37.70581
35.10787
32.43279
29.55573
26.3438
22.7467
18.81137
14.70054
10.62036
6.706467
2.939957
-0.8913574
-5.091927
-9.893402
-15.30183
-21.07495
-26.84174
-32.3036
-37.3904
-42.3073
-47.47104
-53.37051
-60.44081
-68.89258
-78.49681
-88.38538
-96.97798
-102.2047
-102.0443
-95.23519
-81.82182
-63.30762
-42.21193
-21.32889
-2.905029
11.82652
22.69007
30.22829
35.25223
38.51448
40.54974
41.71088
42.30203
42.62209
42.9843
43.61577
44.60809
45.85686
47.12508
48.18292
48.9384
49.52513
50.2067
51.18039
52.42007
53.57544
54.15546
53.73824
52.21578
49.79956
46.91624
43.94658
41.0617
38.19473
35.16415
31.83589
28.23854
24.53664
20.91828
17.51096
14.31582
11.23127
8.107582
4.809189
1.277931
-2.431305
-6.169807
-9.741631
-13.03374
-16.13121
-19.29787
-22.90627
-27.23998
-32.30784
-37.8347
-43.40233
-48.63551
-53.42273
-57.95036
-62.59306
-67.77062
-73.91013
-81.36098
-90.28362
-100.3877
-110.6819
-119.3197
-123.9518
-122.3828
-113.4143
-97.44771
-76.4574
-53.37364
-31.15157
-11.92094
3.380341
14.83171
23.07435
28.84428
32.7757
35.3707
37.11111
38.4864
39.89942
41.56332
43.41228
45.16525
46.46337
47.06792
46.991
46.47534
45.90543
45.63851
45.85609
46.48256
47.21208
47.6265
47.33828
46.14085
44.08977
41.46125
38.66788
36.05499
33.78689
31.80125
29.83971
27.64131
25.06419
22.19657
19.27126
16.51603
14.03278
11.7272
9.359123
6.717773
3.658409
0.2064972
-3.534195
-7.391197
-11.18815
-14.80588
-18.21189
-21.51264
-24.96136
-28.8995
-33.54725
-38.90015
-44.64755
-50.2737
-55.32965
-59.64366
-63.47423
-67.43494
-72.34866
-78.92712
-87.45966
-97.49097
-107.6497
-115.8183
-119.5806
-117.0098
-107.347
-91.35338
-71.08867
-49.23383
-28.32944
-10.11909
4.552826
15.64545
23.54282
28.84314
32.19194
34.22687
35.50848
36.45502
37.30301
38.1201
38.93474
39.8024
40.78133
41.92038
43.21507
44.60895
46.05566
47.56419
49.19966
50.97609
52.73389
54.13837
54.75072
54.21101
52.46678
49.78806
46.71295
43.80969
41.44002
39.61397
38.0118
36.17418
33.69353
30.46497
26.70345
22.86287
19.407
16.59645
14.34483
12.27821
9.876389
6.685394
2.54837
-2.373108
-7.635818
-12.69931
-17.12288
-20.75143
-23.77478
-26.73413
-30.40462
-35.57494
-42.7596
-51.84673
-61.8575
-71.00031
-77.04259
-77.95815
-72.62238
-61.21666
-45.2124
-26.89799
-8.66333
7.65155
21.03864
31.3186
38.79166
43.93719
47.1752
48.85092
49.29181
48.88388
48.06345
47.22629
46.6767
46.54422
46.7879
47.28961
47.93161
48.67838
49.52576
50.45663
51.39246
52.14804
52.4621
52.08487
50.85947
48.80518
46.09131
42.95813
39.61334
36.15485
32.52457
28.59433
24.28683
19.61356
14.74799
9.933807
5.389801
1.155594
-2.923401
-7.17012
-11.93571
-17.39984
-23.48367
-29.84157
-35.97983
-41.50491
-46.30818
-50.66797
-55.23636
-60.83377
-68.20163
-77.67545
-88.83858
-100.3893
-110.2386
-115.9514
-115.4897
-107.9203
-93.82632
-75.19598
-54.83177
-35.44478
-18.91768
-5.96962
3.734467
11.1342
17.26831
22.89313
28.37971
33.7487
38.8076
43.30775
47.0498
49.9449
52.01239
53.37044
54.20767
54.74846
55.21614
55.79793
56.58714
57.53699
58.46468
59.08154
59.11076
58.37607
56.83287
54.59137
51.82097
48.70816
45.4306
42.12935
38.93878
35.92178
33.05984
30.23193
27.24646
23.9304
20.18336
16.04283
11.63399
7.157089
2.743286
-1.547897
-5.744049
-9.955322
-14.36368
-19.15901
-24.49846
-30.45627
-36.90512
-43.5569
-50.02318
-55.96942
-61.25671
-66.0567
-70.84081
-76.30252
-83.1709
-91.89171
-102.2722
-113.2059
-122.6834
-128.207
-127.5379
-119.4925
-104.4744
-84.40492
-62.12601
-40.49475
-21.61346
-6.433884
5.1241
13.80402
20.56906
26.26137
31.48775
36.54611
41.46252
46.04288
49.96481
52.92908
54.75723
55.4705
55.29071
54.57909
53.76338
53.23199
53.25845
53.89026
54.94299
55.99753
56.55275
56.1881
54.73477
52.31932
49.30032
46.1138
43.11893
40.47559
38.16507
36.075
34.05765
32.00163
29.83583
27.54083
25.14027
22.71564
20.38579
18.24257
16.31383
14.54311
12.76213
10.78297
8.438354
5.684067
2.582047
-0.6655579
-3.819901
-6.687637
-9.253433
-11.75826
-14.67549
-18.58397
-23.9399
-30.87526
-39.03241
-47.66835
-55.87289
-62.88507
-68.35336
-72.44795
-75.78989
-79.28419
-83.91135
-90.37311
-98.78464
-108.3727
-117.3994
-123.4447
-124.049
-117.5755
-103.8372
-84.29164
-61.55786
-38.62679
-17.93654
-0.8270111
12.46922
22.48152
30.00771
35.75848
40.216
43.73145
46.57396
48.98126
51.13367
53.07947
54.77438
56.11278
57.04146
57.60841
57.97934
58.36108
58.91898
59.71538
60.61549
61.36594
61.62204
61.093
59.66293
57.45222
54.78943
52.04852
49.53212
47.2894
45.18454
42.95174
40.38196
37.42049
34.2108
30.98784
27.981
25.32458
22.99951
20.87085
18.70503
16.20872
13.14516
9.400635
5.088852
0.5239105
-3.875931
-7.84404
-11.39395
-14.89818
-18.88565
-23.76222
-29.56935
-35.91847
-42.19289
-47.86417
-52.75072
-57.10922
-61.53146
-66.75311
-73.42017
-81.84653
-91.77238
-102.1576
-111.1805
-116.5422
-116.0782
-108.5358
-94.1179
-74.53708
-52.51436
-30.94284
-12.01665
3.163147
14.56305
22.8148
28.73717
33.05371
36.32379
38.98035
41.38565
43.7946
46.2868
48.70634
50.74168
52.06865
52.56262
52.36252
51.85223
51.4722
51.55701
52.17557
53.14978
54.15407
54.84323
54.96506
54.39796
53.14981
51.33794
49.14349
46.7821
44.43983
42.21013
40.01799
37.65373
34.85309
31.45302
27.54874
23.47589
19.73074
16.72099
14.582
13.06066
11.61195
9.642311
6.766754
3.00602
-1.248528
-5.446114
-9.165009
-12.38977
-15.5292
-19.22507
-23.99787
-29.9609
-36.731
-43.61753
-49.93228
-55.30494
-59.79956
-63.83964
-67.99593
-72.84758
-78.91458
-86.54057
-95.71555
-105.8052
-115.318
-122.0686
-123.6735
-118.4223
-105.9448
-87.50225
-65.57967
-43.08274
-22.48363
-5.269257
8.137581
18.07551
25.25955
30.46814
34.4045
37.66096
40.67158
43.67641
46.66041
49.4054
51.59136
52.95479
53.38105
53.00268
52.1629
51.31407
50.89972
51.17489
52.11304
53.41177
54.59612
55.1846
54.87205
53.59793
51.56009
49.06612
46.45245
43.96452
41.705
39.64944
37.65681
35.52018
33.05921
30.18898
26.97497
23.62943
20.43086
17.59735
15.15781
12.94032
10.58139
7.693855
3.995987
-0.5272598
-5.627197
-10.87281
-15.78777
-20.07713
-23.7013
-26.91415
-30.12518
-33.72888
-37.90673
-42.54952
-47.29963
-51.70995
-55.44466
-58.43798
-60.94698
-63.4822
-66.68517
-71.17014
-77.29202
-84.8963
-93.10893
-100.3115
-104.3706
-103.2318
-95.58731
-81.44473
-62.24107
-40.43202
-18.76664
0.5191154
16.18362
28.02456
36.52437
42.42918
46.39531
48.90981
50.36702
51.14015
51.58817
52.01478
52.58447
53.31291
54.14145
55.04037
56.0373
57.20407
58.58611
60.10663
61.60365
62.83704
63.56796
63.61216
62.82562
61.15796
58.66071
55.52373
52.03034
48.50303
45.14521
41.9668
38.81235
35.48101
31.87857
28.13208
24.48576
21.15218
18.17653
15.36009
12.37784
8.94241
4.943481
0.505764
-4.08728
-8.536814
-12.6592
-16.4422
-20.07469
-23.83687
-28.01673
-32.74662
-37.99324
-43.52493
-49.02413
-54.20609
-58.94801
-63.37646
-67.87691
-73.05163
-79.54936
-87.74632
-97.36725
-107.226
-115.2695
-119.0272
-116.4162
-106.5096
-89.97834
-68.92149
-46.23479
-24.65929
-6.121314
8.552958
19.46812
27.27102
32.73692
36.55578
39.2654
41.27782
42.9477
44.5566
46.24311
48.0145
49.71646
51.1327
52.09859
52.648
52.94287
53.25539
53.78294
54.53468
55.33139
55.85534
55.79429
54.9493
53.32077
51.06284
48.42477
45.65423
42.89288
40.17892
37.42589
34.50457
31.34303
27.99394
24.64313
21.5495
18.86178
16.51457
14.18314
11.38691
7.695938
2.898991
-2.861633
-9.136822
-15.32082
-20.88606
-25.60994
-29.6475
-33.48159
-37.64768
-42.5031
-48.04413
-53.9381
-59.68322
-64.86289
-69.33584
-73.29634
-77.25327
-81.8745
-87.84226
-95.60559
-105.0474
-115.1826
-124.1407
-129.454
-128.7835
-120.7722
-105.6222
-85.15145
-62.18512
-39.65297
-19.76878
-3.617935
8.73716
17.8404
24.42867
29.15622
32.57452
35.14905
37.25924
39.16412
40.93624
42.50937
43.73659
44.53318
44.94134
45.11459
45.2982
45.72475
46.53495
47.76614
49.26895
50.7042
51.60008
51.51078
50.16828
47.62254
44.28584
40.7496
37.54612
34.92741
32.74854
30.63083
28.19628
25.2985
22.10116
18.97007
16.20862
13.85922
11.69265
9.339902
6.549955
3.35584
0.08679104
-2.84876
-5.212603
-7.102079
-8.931953
-11.21692
-14.35563
-18.40072
-23.10092
-27.9775
-32.54591
-36.4926
-39.77199
-42.65332
-45.62395
-49.32584
-54.35664
-61.05933
-69.20111
-77.77781
-85.04018
-88.87099
-87.37292
-79.54185
-65.68461
-47.37992
-27.00671
-7.020096
10.68877
25.11368
36.06376
43.86877
49.04461
52.07975
53.4172
53.49619
52.77058
51.67721
50.58311
49.75186
49.31515
49.28877
49.62718
50.22976
51.05199
52.09064
53.36808
54.86742
56.42538
57.65319
58.00243
56.99165
54.41392
50.51595
45.91637
41.35381
37.3633
34.07748
31.18086
28.15403
24.55878
20.2305
15.33492
10.2549
5.417504
1.091962
-2.675435
-6.092582
-9.502621
-13.29048
-17.71954
-22.85984
-28.5433
-34.44285
-40.14958
-45.34708
-49.9411
-54.13819
-58.49637
-63.80229
-70.80981
-79.78474
-90.13991
-100.2053
-107.5423
-109.603
-104.6328
-92.40732
-74.39294
-53.26096
-32.03786
-13.14925
2.089212
13.49138
21.61808
27.2537
31.07588
33.56509
35.12191
36.14082
37.00614
37.96543
39.05044
40.0421
40.66124
40.74451
40.39682
39.95819
39.82224
40.25214
41.25129
42.569
43.83701
44.69654
44.9175
44.40192
43.17348
41.31356
38.90865
36.03962
32.75718
29.06453
24.95123
20.41359
15.54439
10.5408
5.684524
1.201897
-2.858422
-6.721974
-10.78913
-15.4648
-20.92834
-27.03384
-33.32013
-39.25585
-44.49728
-49.09108
-53.45776
-58.27516
-64.25687
-71.92417
-81.37863
-92.07054
-102.6371
-111.0419
-114.936
-112.4075
-102.6792
-86.51418
-66.06772
-44.2414
-23.74607
-6.384651
7.221204
17.41671
25.02517
30.87746
35.5796
39.45848
42.69932
45.42183
47.72321
49.65436
51.20129
52.25814
52.71663
52.54556
51.85708
50.93539
50.18361
49.96049
50.42971
51.43948
52.53821
53.07829
52.51903
50.58288
47.3944
43.41293
39.18312
35.15823
31.53054
28.25325
25.14199
22.02847
18.80933
15.43272
11.84146
7.95602
3.738705
-0.7297974
-5.217041
-9.440331
-13.23411
-16.71637
-20.27319
-24.38914
-29.38184
-35.1888
-41.39674
-47.43365
-52.85292
-57.54265
-61.76914
-66.05243
-71.0229
-77.26749
-85.10054
-94.38036
-104.2487
-113.0512
-118.6042
-118.745
-112.1014
-98.67799
-79.97623
-58.54435
-37.18112
-18.10228
-2.45295
9.677612
18.89334
26.00449
31.63699
36.12624
39.64098
42.33363
44.44988
46.29566
48.13528
50.03056
51.84274
53.31445
54.25672
54.70856
54.92535
55.27747
56.052
57.27629
58.70477
59.90205
60.44093
60.06329
58.74187
56.6445
54.04216
51.20219
48.34348
45.60197
43.01483
40.54686
38.08414
35.46312
32.50423
29.08759
25.21884
21.05386
16.83389
12.77203
8.915207
5.093369
0.9907379
-3.687607
-9.048859
-14.91577
-20.90239
-26.57536
-31.65329
-36.12531
-40.26054
-44.51917
-49.43712
-55.53206
-63.17735
-72.4269
-82.76163
-92.91246
-100.9373
-104.6334
-102.2082
-92.94992
-77.59267
-58.1664
-37.35802
-17.688
-0.848465
12.52455
22.64671
30.11176
35.46593
39.06085
41.12469
41.98099
42.17404
42.39909
43.26181
45.03281
47.51695
50.16487
52.36255
53.75468
54.39566
54.70349
55.19498
56.19249
57.60104
58.92946
59.50226
58.76956
56.57713
53.22861
49.33405
45.50049
42.05873
38.91093
35.61456
31.60419
26.47168
20.17159
13.07239
5.810516
-0.9201813
-6.645248
-11.27893
-15.15683
-18.89
-23.11343
-28.20883
-34.12872
-40.45792
-46.6002
-52.08568
-56.77036
-60.93114
-65.14488
-70.13995
-76.59097
-84.88297
-94.84819
-105.5449
-115.2086
-121.5257
-122.2453
-115.9271
-102.5412
-83.57689
-61.62181
-39.53023
-19.59224
-3.02034
10.03069
20.11971
28.01872
34.37599
39.59071
43.91414
47.53015
50.63687
53.38515
55.83484
57.92496
59.50293
60.44319
60.71805
60.47748
59.97072
59.4738
59.17326
59.07643
59.01985
58.72284
57.91624
56.45432
54.41866
52.0791
49.7818
47.75533
46.01039
44.31313
42.31549
39.76669
36.6384
33.12584
29.55193
26.18459
23.1391
20.33554
17.60052
14.71306
11.53496
7.990021
4.116043
0.04499817
-4.032242
-7.94104
-11.63655
-15.26825
-19.15564
-23.63716
-28.89449
-34.83534
-41.13541
-47.36082
-53.16228
-58.40596
-63.25142
-68.14027
-73.69565
-80.51544
-88.85252
-98.2049
-107.1558
-113.5494
-115.0673
-110.0777
-98.27748
-80.90019
-60.32912
-39.2971
-20.05542
-3.931458
8.751984
18.3456
25.49699
30.86447
34.99306
38.34512
41.29579
44.12099
46.9455
49.72191
52.25224
54.30652
55.72101
56.53061
56.97693
57.40497
58.12378
59.26509
60.71767
62.20805
63.35301
63.83044
63.45636
62.21793
60.27477
57.89952
55.38629
52.97174
50.77856
48.74634
46.73109
44.53853
42.04228
39.21324
36.12996
32.90236
29.59973
26.24063
22.79956
19.25854
15.66589
12.09508
8.572052
5.02092
1.246582
-3.024979
-8.008362
-13.73221
-19.97244
-26.28697
-32.22148
-37.46053
-41.99831
-46.14059
-50.40164
-55.38139
-61.56094
-69.10822
-77.67661
-86.28722
-93.35224
-97.01236
-95.62532
-88.34519
-75.46282
-58.42657
-39.42622
-20.76421
-4.270416
9.066689
19.08755
26.21351
31.10859
34.3917
36.53208
37.84703
38.60854
39.09726
39.58969
40.32561
41.38792
42.67635
43.9422
44.92109
45.4661
45.64135
45.69107
45.87357
46.30259
46.8502
47.18611
46.93407
45.87276
44.0213
41.62406
38.97911
36.28625
33.54401
30.6194
27.34342
23.69052
19.82269
16.04177
12.6423
9.788008
7.427284
5.301924
3.03484
0.2564468
-3.250656
-7.418385
-11.886
-16.05558
-19.36791
-21.52646
-22.71243
-23.54119
-24.85283
-27.35667
-31.38579
-36.78278
-43.02491
-49.49179
-55.70144
-61.51872
-67.20419
-73.31837
-80.50262
-89.12377
-98.88477
-108.5654
-116.1584
-119.3616
-116.3432
-106.4365
-90.44558
-70.41418
-48.96428
-28.54229
-10.84548
3.355553
14.06575
21.76959
27.13725
30.87486
33.62589
35.91912
38.13318
40.4444
42.82493
45.09222
46.97359
48.2074
48.65971
48.38712
47.66969
46.92186
46.54232
46.73011
47.39866
48.17696
48.55649
48.10928
46.65558
44.34091
41.54161
38.69647
36.14738
33.98973
32.09128
30.15079
27.85077
25.01215
21.66243
18.05093
14.49786
11.25237
8.354538
5.611786
2.75145
-0.4586334
-4.066254
-7.927582
-11.80798
-15.49222
-18.88657
-22.05948
-25.2148
-28.59657
-32.43756
-36.8582
-41.81802
-47.12178
-52.44885
-57.50671
-62.11763
-66.3427
-70.45558
-74.93678
-80.31862
-87.05438
-95.2368
-104.3446
-113.0746
-119.4234
-121.181
-116.5849
-105.0736
-87.58467
-66.35403
-44.24185
-23.813
-6.723022
6.492813
16.1548
22.99834
27.76765
31.03094
33.2235
34.71205
35.88512
37.06416
38.43445
39.95906
41.42708
42.56955
43.21011
43.42664
43.50153
43.84383
44.72523
46.16554
47.83058
49.17751
49.67766
49.0592
47.44885
45.24287
42.96031
40.96904
39.35156
37.92542
36.37109
34.43921
32.05551
29.37427
26.68074
24.28253
22.3007
20.66013
19.06032
17.18779
14.82417
11.9937
8.935623
5.970444
3.323059
1.01091
-1.155243
-3.472519
-6.194946
-9.432648
-13.15337
-17.17152
-21.26555
-25.2149
-28.87149
-32.24539
-35.54022
-39.15472
-43.62936
-49.45209
-56.7675
-65.1158
-73.28833
-79.44872
-81.6261
-78.30618
-69.01328
-54.51483
-36.64308
-17.69901
0.1980438
15.57938
27.80034
36.81564
42.91415
46.49471
47.97298
47.80588
46.53857
44.77444
43.09483
41.93871
41.53885
41.91919
42.91972
44.30527
45.87479
47.52678
49.23198
50.95175
52.50742
53.53069
53.53993
52.11198
49.09325
44.6855
39.39955
33.84373
28.52689
23.73862
19.55516
15.94614
12.87154
10.29465
8.161942
6.306793
4.470993
2.355637
-0.2415924
-3.357315
-6.830276
-10.3638
-13.66934
-16.62219
-19.34857
-22.20364
-25.64447
-29.98151
-35.22797
-41.07919
-47.00183
-52.50095
-57.35101
-61.69836
-66.01218
-70.95087
-77.12366
-84.86566
-93.98123
-103.5786
-112.0009
-117.1116
-116.8195
-109.7985
-96.04211
-76.99014
-55.13287
-33.23965
-13.58081
2.552521
14.85977
23.72482
29.80966
33.80035
36.31691
37.93944
39.22922
40.60408
42.22667
43.98106
45.53876
46.55856
46.89511
46.67451
46.21454
45.85657
45.81882
46.11932
46.60962
47.07999
47.32187
47.15984
46.44196
45.08286
43.02518
40.34782
37.21758
33.87685
30.53433
27.32436
24.24968
21.22916
18.16095
14.94916
11.57507
8.057922
4.463531
0.8288269
-2.796234
-6.362183
-9.84668
-13.23569
-16.58194
-20.04318
-23.86517
-28.28778
-33.45975
-39.29611
-45.50388
-51.6608
-57.39511
-62.54971
-67.26172
-71.95313
-77.24017
-83.74896
-91.84375
-101.3179
-111.1551
-119.5128
-124.0927
-122.8176
-114.5984
-99.7915
-80.2124
-58.53088
-37.44174
-18.96112
-4.039703
7.306992
15.64864
21.75684
26.31549
29.84483
32.72942
35.23505
37.53993
39.73694
41.83862
43.79347
45.4828
46.80299
47.70894
48.26299
48.65689
49.15823
49.97673
51.15759
52.47343
53.50055
53.78224
53.03677
51.2709
48.76454
45.901
43.01881
40.25951
37.57886
34.87199
32.03418
29.05412
25.9621
22.79176
19.52615
16.14522
12.65883
9.180191
5.881912
2.92598
0.3577576
-1.951813
-4.297531
-7.046158
-10.48019
-14.67535
-19.46349
-24.4425
-29.11423
-33.06529
-36.13239
-38.51114
-40.76186
-43.69351
-48.10864
-54.47478
-62.55107
-71.20276
-78.45116
-81.95692
-79.73309
-70.90367
-56.06311
-37.15871
-16.87006
2.259834
18.4896
31.12883
40.34786
46.7544
50.93543
53.26519
53.9492
53.1806
51.31693
48.90664
46.55832
44.76328
43.76345
43.49647
43.6824
44.03071
44.35703
44.69711
45.20755
46.03247
47.10914
48.16017
48.73892
48.37314
46.80969
44.0631
40.4807
36.5919
32.93963
29.88609
27.45935
25.37515
23.14049
20.30878
16.68572
12.41159
7.896111
3.613235
-0.1416016
-3.426659
-6.568375
-10.02331
-14.11909
-18.95062
-24.33382
-29.94852
-35.49641
-40.81785
-45.92061
-50.93717
-56.11857
-61.83286
-68.58186
-76.84415
-86.74767
-97.68487
-108.0869
-115.6237
-117.8505
-113.0969
-101.164
-83.45452
-62.5484
-41.29904
-22.01942
-5.968811
6.621666
16.19219
23.43196
28.98904
33.37541
36.95525
39.97693
42.59202
44.87229
46.8293
48.4557
49.72853
50.62507
51.14455
51.31651
51.27168
51.21468
51.36693
51.84907
52.6034
53.37399
53.7915
53.56309
52.54729
50.83456
48.64236
46.22255
43.72889
41.17576
38.45683
35.43714
32.03825
28.25862
24.21797
20.04428
15.84265
11.60668
7.306625
2.910301
-1.515366
-5.822784
-9.850616
-13.55898
-17.1348
-20.94699
-25.40518
-30.70502
-36.71474
-42.97144
-48.93917
-54.24664
-58.89298
-63.23299
-67.83255
-73.29979
-80.11791
-88.52044
-98.27061
-108.4656
-117.3994
-122.812
-122.4638
-114.9303
-100.3187
-80.37887
-57.98402
-36.18114
-17.24979
-2.207886
9.080078
17.37515
23.52773
28.13044
31.54877
34.09071
36.11707
38.02255
40.07046
42.28252
44.4071
46.09634
47.09326
47.42345
47.38551
47.43679
47.94526
49.03713
50.54084
52.01563
52.97645
53.03001
52.04214
50.16226
47.69298
44.99455
42.29804
39.66895
37.01245
34.20856
31.21944
28.14697
25.18134
22.47472
20.05738
17.73087
15.23701
12.35874
9.068941
5.546444
2.067234
-1.153342
-4.078006
-6.896928
-9.922491
-13.42067
-17.47532
-21.93002
-26.47388
-30.78312
-34.69872
-38.298
-41.85248
-45.74746
-50.37728
-56.08121
-63.01595
-70.97809
-79.2371
-86.40069
-90.56908
-89.8195
-82.86508
-69.60624
-51.34832
-30.44152
-9.548229
9.117966
24.30248
35.72108
43.76173
49.05729
52.18626
53.60261
53.69299
52.86923
51.56586
50.2249
49.18332
48.60868
48.50267
48.76599
49.26308
49.88618
50.56818
51.25638
51.89394
52.3652
52.55341
52.31944
51.5583
50.20348
48.23668
45.71113
42.76345
39.62347
36.53011
33.6321
30.90813
28.11498
24.94317
21.15532
16.75168
12.00662
7.368793
3.262125
-0.1255589
-2.922335
-5.544153
-8.505033
-12.24543
-16.95823
-22.52947
-28.61056
-34.71106
-40.38662
-45.37939
-49.69485
-53.61013
-57.65759
-62.50003
-68.8165
-76.96426
-86.65817
-96.70795
-105.0542
-109.2426
-107.1647
-97.91882
-82.17828
-62.0923
-40.58461
-20.4329
-3.479191
9.591669
19.10466
25.85927
30.71736
34.35156
37.18985
39.52112
41.57008
43.47027
45.24285
46.82014
48.06597
48.89539
49.28711
49.34132
49.22594
49.16322
49.34468
49.87346
50.69539
51.5836
52.17191
52.07732
51.0464
49.04324
46.30822
43.18978
40.03019
37.0273
34.18574
31.39463
28.52569
25.533
22.45995
19.36575
16.28389
13.16039
9.8638
6.265398
2.323886
-1.860542
-6.08575
-10.14993
-14.0212
-17.84321
-21.9176
-26.49181
-31.62479
-37.12125
-42.62461
-47.82437
-52.58076
-57.01078
-61.43083
-66.30456
-72.16767
-79.51149
-88.55647
-98.9286
-109.3577
-117.7261
-121.5767
-118.8814
-108.9134
-92.57645
-72.14293
-50.47008
-30.06316
-12.51531
1.614166
12.48969
20.60864
26.49124
30.61899
33.48903
35.57413
37.33063
39.05331
40.86126
42.69202
44.3906
45.77772
46.70831
47.16438
47.24605
47.20395
47.31593
47.76733
48.51777
49.2852
49.60545
49.05168
47.45151
44.9207
41.8964
38.90659
36.39468
34.51445
33.11414
31.7966
30.08564
27.69102
24.58886
21.0997
17.69904
14.80232
12.57358
10.77902
8.97604
6.705026
3.750016
0.2150009
-3.509675
-6.999305
-9.975163
-12.44556
-14.73488
-17.31306
-20.60548
-24.81466
-29.82319
-35.23464
-40.51155
-45.21856
-49.15971
-52.51294
-55.75526
-59.55739
-64.58842
-71.27041
-79.46411
-88.24552
-95.87941
-100.1383
-98.94057
-91.06922
-76.72783
-57.53317
-36.05984
-15.00949
3.541129
18.51612
29.78833
37.83715
43.33186
46.88668
48.98716
50.01353
50.29525
50.18166
49.98883
49.97135
50.28499
50.92767
51.76695
52.59681
53.24837
53.66896
53.94888
54.23515
54.64594
55.15754
55.58767
55.62759
54.96037
53.40355
50.95786
47.84901
44.40573
40.97732
37.76833
34.79736
31.90398
28.87972
25.57239
21.96902
18.18786
14.38763
10.69468
7.130176
3.638635
0.1523428
-3.362981
-6.91215
-10.53119
-14.33595
-18.52787
-23.27892
-28.61186
-34.35083
-40.10115
-45.44594
-50.12666
-54.1873
-58.01311
-62.25732
-67.69865
-74.94365
-84.10045
-94.46258
-104.3621
-111.4262
-113.1784
-107.8828
-95.26333
-76.71434
-54.88697
-32.7912
-12.89487
3.465378
16.04773
25.30828
31.9205
36.42289
39.24438
40.79544
41.58044
42.12135
42.82377
43.83499
45.03519
46.15797
46.96469
47.40723
47.62266
47.87216
48.38815
49.26208
50.38595
51.4867
52.19215
52.15932
51.18929
49.28851
46.67956
43.69849
40.67263
37.78198
35.03516
32.29172
29.36412
26.15155
22.6674
19.04177
15.43161
11.93183
8.496679
4.986959
1.258379
-2.692108
-6.683941
-10.46101
-13.83736
-16.88585
-19.97131
-23.61972
-28.26154
-33.99257
-40.51041
-47.23069
-53.57785
-59.24934
-64.31711
-69.17537
-74.37792
-80.50745
-88.01138
-97.04707
-107.1526
-117.0829
-124.7821
-127.853
-124.3067
-113.3578
-95.86481
-74.11208
-51.06443
-29.4342
-10.99961
3.583447
14.48634
22.26104
27.52372
30.83462
32.7967
34.06464
35.25545
36.78835
38.76845
40.97798
43.03724
44.57467
45.42157
45.6629
45.61016
45.65153
46.08855
47.03142
48.34116
49.68787
50.6642
50.92645
50.30323
48.81738
46.65664
44.09484
41.38359
38.67433
36.00032
33.34418
30.6821
28.04222
25.4729
22.99337
20.55492
17.99817
15.15953
11.94675
8.459316
4.95488
1.757473
-0.9499435
-3.235046
-5.412506
-7.942883
-11.20836
-15.34525
-20.15917
-25.198
-29.96726
-34.11788
-37.61977
-40.75489
-44.04618
-48.07888
-53.38063
-60.15635
-68.07216
-76.08481
-82.45172
-85.09978
-82.21329
-72.92848
-57.76482
-38.55963
-17.945
1.491016
17.87067
30.39023
39.14765
44.79484
48.11129
49.75553
50.18901
49.74824
48.7493
47.49496
46.29737
45.41152
44.9541
44.90395
45.10033
45.35741
45.55382
45.74618
46.09301
46.76335
47.75209
48.7763
49.32885
48.85314
47.01181
43.83967
39.79025
35.53468
31.71039
28.66045
26.29426
24.13102
21.5672
18.17899
13.90503
9.099098
4.352386
0.2087936
-3.115673
-5.831818
-8.482826
-11.69566
-15.88335
-21.12049
-27.09311
-33.29918
-39.20419
-44.4464
-48.93253
-52.85811
-56.67621
-61.04623
-66.70076
-74.2233
-83.72225
-94.50822
-104.9404
-112.659
-115.1796
-110.7257
-98.87413
-80.8495
-59.14355
-36.77335
-16.37421
0.4117413
13.13875
22.29923
28.80306
33.53894
37.09659
39.76438
41.7135
43.0923
44.11179
44.98573
45.84557
46.65644
47.28867
47.61165
47.64197
47.57088
47.68341
48.21442
49.19432
50.40995
51.46104
51.91976
51.47288
50.02322
47.68986
44.70368
41.3535
37.90585
34.50293
31.20444
27.99452
24.77645
21.43385
17.85938
13.97184
9.811172
5.499931
1.254269
-2.714008
-6.319304
-9.668478
-13.0654
-16.87755
-21.41504
-26.7447
-32.67826
-38.83567
-44.81002
-50.30127
-55.24606
-59.79582
-64.27457
-69.12785
-74.87485
-82.00333
-90.79672
-100.9656
-111.3891
-120.145
-124.8298
-123.3436
-114.6404
-99.18535
-78.86983
-56.45317
-34.66855
-15.55359
-0.1348
11.50188
19.86547
25.71075
29.8013
32.81858
35.28809
37.59647
39.957
42.40158
44.82659
47.02957
48.76518
49.87557
50.35425
50.40108
50.36237
50.60273
51.30457
52.36949
53.40491
53.92172
53.55988
52.25141
50.24639
47.9354
45.6256
43.39279
41.08205
38.45402
35.36776
31.93095
28.41293
25.12777
22.26967
19.81642
17.53841
15.14005
12.39452
9.252182
5.867599
2.483994
-0.6590881
-3.449219
-5.999924
-8.579147
-11.54552
-15.17857
-19.51917
-24.3385
-29.2233
-33.76998
-37.75452
-41.24483
-44.53296
-48.08458
-52.43304
-57.9962
-64.90532
-72.73154
-80.31463
-85.85323
-87.27952
-82.94917
-72.3028
-56.19563
-36.6938
-16.40508
2.325165
18.00606
30.1907
39.17497
45.58536
49.9734
52.66368
53.80528
53.58304
52.34697
50.6277
49.02522
47.99956
47.73524
48.11995
48.84636
49.6163
50.26802
50.80249
51.30859
51.8452
52.35025
52.60686
52.3347
51.29088
49.35904
46.59567
43.23685
39.62889
36.1124
32.91179
30.02464
27.25399
24.26994
20.78954
16.7141
12.19008
7.569969
3.250313
-0.503746
-3.686913
-6.594597
-9.726685
-13.57495
-18.41649
-24.1693
-30.4327
-36.63381
-42.29458
-47.21687
-51.56091
-55.79572
-60.56169
-66.50343
-74.11179
-83.41537
-93.74357
-103.5773
-110.7557
-112.9432
-108.4483
-96.8761
-79.37355
-58.31924
-36.5407
-16.48503
0.3384399
13.44831
23.12313
29.98065
34.70853
37.95547
40.30278
42.25466
44.17776
46.19223
48.19629
49.93575
51.13242
51.65038
51.57126
51.12354
50.63782
50.37329
50.46481
50.89346
51.49255
52.04135
52.29536
52.07564
51.21874
49.66406
47.40273
44.51812
41.19634
37.67052
34.18697
30.90655
27.86389
24.94045
21.93822
18.61658
14.8105
10.45433
5.651863
0.6472549
-4.206589
-8.58337
-12.33666
-15.61268
-18.81363
-22.47175
-27.01928
-32.58271
-38.9605
-45.68811
-52.22626
-58.20229
-63.51136
-68.34363
-73.2
-78.76442
-85.7368
-94.57565
-105.0717
-116.0672
-125.4376
-130.5702
-129.1427
-120.0559
-103.9277
-82.95118
-60.16412
-38.44366
-19.69413
-4.639843
6.93713
15.66451
22.1194
26.73004
29.87551
32.03091
33.80856
35.76262
38.15881
40.8743
43.48424
45.48292
46.61522
46.98708
47.02726
47.30966
48.24548
49.89844
51.96972
53.89743
55.07545
55.10872
53.91051
51.70151
48.87176
45.80481
42.74641
39.76066
36.80649
33.8332
30.86175
27.96571
25.20327
22.56898
19.95034
17.19985
14.17962
10.88309
7.399597
3.911835
0.5831223
-2.503273
-5.400322
-8.270943
-11.33768
-14.82657
-18.85963
-23.40357
-28.23469
-33.00972
-37.34644
-40.99096
-43.93172
-46.51728
-49.39119
-53.34688
-59.03857
-66.53246
-74.99731
-82.65231
-87.12302
-86.16013
-78.50185
-64.38457
-45.55452
-24.67731
-4.451469
13.11951
27.09422
37.44833
44.64875
49.27051
51.80034
52.66917
52.31192
51.25848
50.03552
49.0701
48.60609
48.67278
49.12051
49.68936
50.13737
50.33578
50.34657
50.38827
50.69169
51.34457
52.13238
52.58085
52.12431
50.36263
47.26923
43.23891
38.92895
34.99421
31.82663
29.41586
27.38853
25.16162
22.22932
18.34233
13.61219
8.491417
3.551987
-0.758522
-4.334602
-7.470634
-10.72083
-14.63893
-19.5558
-25.41601
-31.82579
-38.23398
-44.13904
-49.25164
-53.58318
-57.44212
-61.36549
-66.07298
-72.27364
-80.39616
-90.22563
-100.6194
-109.5419
-114.5045
-113.3506
-105.0276
-90.04693
-70.37596
-48.74964
-27.88255
-9.707279
4.903027
15.98155
24.11422
30.02834
34.35578
37.58359
40.09757
42.18113
44.04322
45.80599
47.48736
49.03892
50.36541
51.37245
52.0121
52.33234
52.45742
52.57571
52.84063
53.27605
53.71262
53.84182
53.32595
51.93678
49.66278
46.70608
43.38504
40.02364
36.82998
33.85968
31.04206
28.22947
25.23087
21.84661
17.9485
13.49947
8.614689
3.552586
-1.344685
-5.78545
-9.642393
-13.04526
-16.32022
-19.87418
-24.02597
-28.87477
-34.25367
-39.82095
-45.22448
-50.24134
-54.90059
-59.43517
-64.25941
-69.88281
-76.78819
-85.25692
-95.07514
-105.2778
-114.0669
-119.1027
-118.1862
-110.059
-94.97734
-74.77718
-52.28959
-30.44519
-11.43434
3.727575
15.09644
23.35724
29.36537
33.83261
37.26154
40.00353
42.32894
44.43815
46.41154
48.187
49.60897
50.50874
50.85711
50.78605
50.61671
50.71772
51.37061
52.63441
54.27986
55.8432
56.77106
56.64261
55.27542
52.82725
49.66387
46.18563
42.64482
39.05812
35.32822
31.34206
27.12591
22.87679
18.84558
15.18654
11.87952
8.712112
5.451172
1.967745
-1.696779
-5.398398
-9.00028
-12.4871
-15.99694
-19.7834
-24.08237
-29.02544
-34.55939
-40.43709
-46.30922
-51.8148
-56.73229
-61.0745
-65.10142
-69.26846
-74.18082
-80.40503
-88.23663
-97.37747
-106.709
-114.2959
-117.8198
-115.2405
-105.5917
-89.43581
-68.77092
-46.4072
-25.04095
-6.55201
8.301023
19.67006
28.16822
34.4615
39.03957
42.25267
44.40712
45.83841
46.91733
47.93658
49.0371
50.16164
51.06839
51.47351
51.20599
50.31161
49.09719
48.01295
47.45766
47.56945
48.17821
48.85287
49.09242
48.57262
47.2086
45.20013
42.87534
40.55007
38.39806
36.42857
34.51466
32.45739
30.09209
27.33576
24.19772
20.78881
17.30283
13.97018
10.98547
8.423096
6.178749
3.961037
1.382721
-1.896492
-6.002579
-10.78289
-15.86731
-20.84927
-25.46416
-29.67624
-33.7097
-37.94954
-42.9057
-49.07832
-56.8105
-65.95243
-75.63046
-84.15324
-89.29718
-88.9467
-81.89667
-68.37315
-50.08025
-29.66919
-9.874535
7.241852
20.67821
30.40931
36.97962
41.08068
43.25885
43.89875
43.29935
41.83766
40.01989
38.38779
37.39828
37.25212
37.8532
38.84521
39.84473
40.58831
41.07696
41.52335
42.16597
43.09215
44.12043
44.84847
44.84775
43.86256
41.89677
39.23844
36.26039
33.29704
30.50713
27.83976
25.08911
21.99965
18.37983
14.18998
9.573505
4.823381
0.2697487
-3.839542
-7.45565
-10.76191
-14.10699
-17.90587
-22.47495
-27.90563
-34.04633
-40.53405
-46.90967
-52.77882
-57.98896
-62.70445
-67.44596
-73.0117
-80.22208
-89.57307
-100.8596
-112.8795
-123.4734
-129.9375
-129.8194
-121.7584
-106.0176
-84.47536
-60.05471
-35.81115
-14.1548
3.584982
17.12971
26.93901
33.78697
38.50515
41.83667
44.39534
46.638
48.84813
51.09212
53.25865
55.15265
56.56052
57.35643
57.57409
57.4065
57.1937
57.30134
57.94797
59.06245
60.27373
61.036
60.8724
59.59542
57.37442
54.6194
51.73626
48.9452
46.21537
43.30592
40.0231
36.30466
32.30381
28.28434
24.52568
21.16215
18.13298
15.21532
12.11318
8.553352
4.446974
-0.08162689
-4.753578
-9.270414
-13.46379
-17.44933
-21.54537
-26.16611
-31.57556
-37.74133
-44.35356
-50.98547
-57.27232
-63.08498
-68.57124
-74.07506
-80.07682
-87.09422
-95.62194
-105.8825
-117.4924
-129.1675
-138.7069
-143.458
-141.1238
-130.6534
-112.713
-89.57738
-64.3943
-40.18499
-19.08342
-2.010769
11.1392
21.04631
28.53278
34.28402
38.80618
42.46471
45.53634
48.20317
50.52704
52.48029
53.98315
54.95853
55.42137
55.51624
55.50366
55.70777
56.41422
57.71778
59.44852
61.1523
62.22642
62.16093
60.73913
58.16688
54.94668
51.66142
48.69624
46.09579
43.59721
40.83366
37.58379
33.87119
29.95177
26.1506
22.68964
19.5817
16.64038
13.58763
10.18946
6.380363
2.275322
-1.863541
-5.792419
-9.398491
-12.77668
-16.20342
-19.99232
-24.33875
-29.17861
-34.27103
-39.25277
-43.83363
-47.91138
-51.61075
-55.28129
-59.41339
-64.56725
-71.16274
-79.27168
-88.27492
-96.74275
-102.5966
-103.5851
-98.05576
-85.58392
-67.2304
-45.23949
-22.37129
-1.09169
16.99471
31.28154
41.93872
49.51381
54.59129
57.63036
59.01668
59.15907
58.54523
57.7227
57.15065
57.118
57.634
58.50531
59.45323
60.26604
60.89571
61.44742
62.07132
62.83766
63.62137
64.09932
63.86343
62.56981
60.08194
56.57658
52.46877
48.2776
44.41997
41.0556
38.04605
35.05476
31.72206
27.81569
23.33
18.45955
13.5009
8.759781
4.44075
0.5754547
-2.961517
-6.454819
-10.25718
-14.65983
-19.80289
-25.60137
-31.75318
-37.84695
-43.53329
-48.68871
-53.52616
-58.5703
-64.55489
-72.17348
-81.71499
-92.75631
-103.9653
-113.2309
-118.1354
-116.6773
-107.9738
-92.59011
-72.44869
-50.19926
-28.47134
-9.216248
6.555054
18.70387
27.62863
33.93686
38.24553
41.10873
43.03793
44.48341
45.78845
47.14468
48.58001
49.99063
51.21992
52.14543
52.7531
53.1347
53.47161
53.93643
54.62378
55.47511
56.29685
56.79909
56.68235
55.68365
53.65919
50.61552
46.74287
42.38343
37.95147
33.7945
30.08537
26.73358
23.43911
19.82196
15.58442
10.64063
5.146431
-0.5624847
-6.09211
-11.14013
-15.63508
-19.77088
-23.95875
-28.69938
-34.34692
-40.9886
-48.36537
-55.97603
-63.25933
-69.79058
-75.43555
-80.39059
-85.16646
-90.51247
-97.22153
-105.7497
-115.8274
-126.1295
-134.3805
-137.8733
-134.3499
-122.8984
-104.3302
-80.98096
-55.94984
-32.16336
-11.65968
4.654831
16.85228
25.56548
31.63541
35.85896
38.89674
41.2854
43.39547
45.45831
47.54216
49.59734
51.48149
53.02275
54.06377
54.53644
54.49326
54.1134
53.68833
53.48421
53.63596
54.04272
54.3747
54.21452
53.22843
51.32357
48.6711
45.62753
42.53146
39.57294
36.749
33.9224
30.94767
27.75514
24.35612
20.79531
17.13364
13.42692
9.784004
6.36467
3.307251
0.6282272
-1.869942
-4.568115
-7.859154
-11.94813
-16.75629
-21.9201
-26.93742
-31.42469
-35.23318
-38.52053
-41.69331
-45.31789
-49.9922
-56.18064
-63.93214
-72.60554
-80.7429
-86.23737
-86.91022
-81.25315
-69.06703
-51.60079
-31.21185
-10.54572
8.186699
23.68771
35.60416
44.1952
49.97003
53.40515
54.91718
54.93643
53.96831
52.5696
51.26133
50.39402
50.07904
50.22964
50.65871
51.1989
51.75282
52.31033
52.87666
53.41461
53.78549
53.72985
52.96399
51.24412
48.49
44.83662
40.60463
36.22617
32.11478
28.52809
25.45513
22.63171
19.61986
16.01384
11.62888
6.62841
1.47789
-3.285782
-7.320091
-10.66283
-13.74628
-17.16312
-21.3885
-26.5198
-32.28062
-38.15603
-43.68121
-48.64082
-53.11285
-57.44838
-62.15201
-67.79953
-74.93486
-83.80515
-94.03036
-104.3318
-112.5983
-116.3402
-113.5371
-103.4136
-86.81995
-65.97464
-43.74984
-22.79436
-4.872288
9.341656
20.01981
27.81291
33.47771
37.65328
40.80318
43.2253
45.10229
46.58802
47.80151
48.84812
49.77536
50.5263
50.98977
51.08124
50.86361
50.5811
50.55782
51.01539
51.89502
52.85627
53.40896
53.14732
51.92984
49.89531
47.32323
44.45346
41.38527
38.08388
34.52102
30.76492
26.9828
23.37225
19.99232
16.70369
13.23437
9.338985
4.94212
0.2245731
-4.470129
-8.796991
-12.62702
-16.12398
-19.70199
-23.85564
-28.93877
-35.00219
-41.77374
-48.75803
-55.43703
-61.4682
-66.80164
-71.73224
-76.78292
-82.64665
-89.96307
-99.11524
-109.9109
-121.3048
-131.3566
-137.5834
-137.6506
-130.1998
-115.4249
-95.06613
-71.88139
-48.75246
-27.90131
-10.47858
3.356224
14.07986
22.37896
28.87377
34.04193
38.24133
41.77011
44.8784
47.73078
50.36636
52.70704
54.61522
55.96655
56.73861
57.06199
57.14905
57.20702
57.34917
57.53108
57.5943
57.32745
56.53842
55.10975
53.02084
50.3707
47.36649
44.26826
41.31029
38.59843
36.06569
33.53527
30.85545
28.03237
25.24841
22.75567
20.70573
19.03885
17.45358
15.56287
13.09897
10.05563
6.711609
3.470016
0.639183
-1.80542
-4.221878
-7.162819
-11.09112
-16.10812
-21.86687
-27.71415
-32.9993
-37.3637
-40.90578
-44.12971
-47.75692
-52.49849
-58.82767
-66.75647
-75.64277
-84.12881
-90.22805
-91.81166
-87.21159
-75.91992
-58.88123
-38.29971
-16.97379
2.588409
18.78297
31.1221
39.99782
46.19189
50.40335
53.05873
54.36864
54.48927
53.73005
52.56264
51.52332
51.00668
51.12828
51.69427
52.36318
52.83939
53.02312
53.07761
53.26129
53.74479
54.41601
54.90824
54.7418
53.54324
51.23315
48.02167
44.33083
40.61154
37.19975
34.19444
31.47277
28.76892
25.79243
22.33413
18.339
13.93271
9.335812
4.797394
0.4854317
-3.515274
-7.208845
-10.67953
-14.07454
-17.62264
-21.5876
-26.23378
-31.67184
-37.81565
-44.35255
-50.8337
-56.87656
-62.32043
-67.31514
-72.33768
-78.10278
-85.28835
-94.18771
-104.3623
-114.4259
-122.1743
-125.1304
-121.3413
-110.1067
-92.34364
-70.3262
-46.99943
-25.08008
-6.402433
8.30991
19.24847
27.08926
32.62337
36.52841
39.34735
41.50277
43.31602
45.01734
46.7075
48.36372
49.85312
51.02706
51.81184
52.26145
52.54955
52.92802
53.6147
54.66118
55.94287
57.14299
57.85339
57.72607
56.59423
54.51712
51.80189
48.82214
45.89585
43.16798
40.54724
37.80893
34.75453
31.36038
27.80882
24.41509
21.3877
18.67456
15.94613
12.74753
8.739273
3.913166
-1.367851
-6.595627
-11.36851
-15.63779
-19.75964
-24.28907
-29.71481
-36.15667
-43.31095
-50.59092
-57.4015
-63.38969
-68.5463
-73.19695
-77.83393
-83.05605
-89.42702
-97.33202
-106.6593
-116.5538
-125.2719
-130.4539
-129.7813
-121.803
-106.58
-85.79726
-62.21706
-38.82301
-17.97255
-0.9433441
12.03313
21.41418
27.94311
32.37173
35.36414
37.50201
39.24855
40.90392
42.5835
44.21772
45.65091
46.70542
47.29382
47.45486
47.36156
47.25162
47.37717
47.91236
48.83254
49.88878
50.6724
50.75881
49.8723
48.03032
45.51105
42.73646
40.07642
37.69616
35.52127
33.3502
30.99347
28.41567
25.75992
23.257
21.07985
19.21727
17.44642
15.47752
13.11768
10.37594
7.493497
4.796567
2.492495
0.535078
-1.38258
-3.696386
-6.722237
-10.51711
-14.83258
-19.2558
-23.39931
-27.0673
-30.33913
-33.48878
-36.94309
-41.16786
-46.65151
-53.73006
-62.31683
-71.6228
-79.99639
-85.17643
-84.95044
-77.9427
-64.28611
-45.69292
-24.9076
-4.819885
12.40163
25.75707
35.28129
41.60661
45.45689
47.38581
47.75613
46.90956
45.28048
43.38844
41.75594
40.74988
40.52772
40.99608
41.89335
42.93321
43.89233
44.67229
45.30351
45.85054
46.31339
46.58577
46.44152
45.61796
43.95621
41.45945
38.32238
34.86864
31.40797
28.14803
25.16756
22.42623
19.82867
17.26796
14.63715
11.8175
8.710999
5.265244
1.534752
-2.300674
-6.013123
-9.446999
-12.63718
-15.86186
-19.52829
-24.00283
-29.39458
-35.48466
-41.795
-47.82183
-53.22162
-57.9374
-62.24457
-66.65735
-71.80918
-78.33104
-86.55522
-96.21581
-106.1265
-114.2267
-117.9782
-115.1533
-104.7275
-87.35278
-65.2813
-41.63628
-19.41355
-0.6800079
13.75459
24.12081
31.2131
35.92317
38.97989
40.98061
42.37392
43.55222
44.75613
46.04488
47.29769
48.28033
48.81475
48.86768
48.58332
48.26028
48.19953
48.61458
49.51392
50.6909
51.72063
52.13983
51.58308
49.93147
47.34383
44.1762
40.81474
37.51411
34.34689
31.23335
28.1002
24.92299
21.76816
18.68223
15.63771
12.46257
8.966339
5.060257
0.8267975
-3.459824
-7.491486
-11.08553
-14.28194
-17.36867
-20.72862
-24.68945
-29.42513
-34.85725
-40.74016
-46.72125
-52.48364
-57.85225
-62.87422
-67.82602
-73.18221
-79.52075
-87.31654
-96.62987
-106.8481
-116.4778
-123.3682
-125.2396
-120.4243
-108.5389
-90.70132
-69.21698
-46.84506
-26.00879
-8.239517
5.865952
16.427
23.91238
28.89259
31.96023
33.76884
34.96875
36.10967
37.51369
39.23383
41.1025
42.85558
44.27259
45.25214
45.83861
46.17996
46.46074
46.79844
47.15663
47.38156
47.25675
46.63451
45.52373
44.08427
42.51462
40.94492
39.31087
37.42107
35.09657
32.32211
29.30077
26.34516
23.70775
21.40973
19.25594
16.93983
14.20185
11.00341
7.526726
4.096985
1.028206
-1.539734
-3.717621
-5.815773
-8.217621
-11.21501
-14.90968
-19.16188
-23.66325
-28.04023
-31.95119
-35.22518
-37.90676
-40.29379
-42.938
-46.54896
-51.78801
-58.89231
-67.32166
-75.60092
-81.54314
-82.84992
-77.90438
-66.41377
-49.55214
-29.64005
-9.356159
9.056549
24.23916
35.79619
43.99711
49.38761
52.52093
53.839
53.73916
52.63517
50.97184
49.18678
47.63701
46.57696
46.07597
46.06422
46.39544
46.87511
47.38036
47.85626
48.32618
48.81914
49.2664
49.48017
49.15452
47.97939
45.79618
42.7119
39.10147
35.49391
32.35499
29.87445
27.832
25.71617
22.91895
19.085
14.27164
8.953224
3.781845
-0.7348175
-4.435089
-7.562973
-10.59259
-13.99525
-18.0606
-22.80153
-28.01577
-33.38111
-38.5896
-43.43653
-47.90318
-52.18458
-56.6995
-62.04111
-68.82507
-77.39544
-87.52298
-98.11615
-107.2584
-112.5982
-112.0282
-104.4226
-90.11276
-70.84278
-49.24091
-27.98714
-9.135201
6.288582
18.15914
26.91696
33.1749
37.48781
40.3171
42.05067
43.08067
43.75639
44.33961
44.95712
45.5783
46.10926
46.46262
46.67712
46.89642
47.32687
48.08707
49.16133
50.35698
51.41809
52.09811
52.22511
51.77094
50.77268
49.31593
47.44843
45.23347
42.69499
39.90482
36.94296
33.88316
30.74762
27.45928
23.87828
19.83637
15.25424
10.18927
4.860229
-0.4069443
-5.318207
-9.760628
-13.86438
-17.95907
-22.44659
-27.58035
-33.38778
-39.6137
-45.84882
-51.71678
-57.01462
-61.8158
-66.46494
-71.52432
-77.6505
-85.40445
-94.95633
-105.7521
-116.3291
-124.4033
-127.45
-123.4956
-111.9513
-93.89015
-71.83061
-48.87434
-27.74214
-10.13001
3.459923
13.4268
20.54006
25.53726
28.98842
31.26169
32.72028
33.73837
34.67404
35.79593
37.17455
38.67786
40.02718
40.99841
41.5387
41.83668
42.25963
43.15278
44.60376
46.36469
47.8866
48.57962
48.09583
46.46964
44.0957
41.52177
39.173
37.20278
35.46941
33.65811
31.47723
28.8068
25.74265
22.55257
19.54595
16.90507
14.62527
12.50237
10.23552
7.542961
4.322678
0.676918
-3.124985
-6.754875
-10.0174
-12.90384
-15.61562
-18.47533
-21.80338
-25.7859
-30.40777
-35.43483
-40.51778
-45.35237
-49.76335
-53.831
-57.89389
-62.50543
-68.25892
-75.56759
-84.30509
-93.53827
-101.5198
-105.9703
-104.7961
-96.82358
-82.33163
-63.04765
-41.64835
-20.86078
-2.722412
11.79291
22.71121
30.62468
36.24685
40.1622
42.79996
44.50307
45.60788
46.44418
47.26742
48.22303
49.32733
50.52331
51.74882
53.00517
54.33365
55.82384
57.55482
59.51566
61.58908
63.49968
64.85626
65.25179
64.4093
62.27878
59.12719
55.41251
51.63723
48.15937
45.05976
42.1674
39.16972
35.77277
31.80862
27.29405
22.40055
17.37365
12.47127
7.865322
3.573401
-0.5750666
-4.8823
-9.671173
-15.12118
-21.16143
-27.49684
-33.6939
-39.38147
-44.39167
-48.81568
-52.96834
-57.39838
-62.74849
-69.59925
-78.24638
-88.30133
-98.47915
-106.6348
-110.2712
-107.3473
-97.05341
-80.22165
-59.08451
-36.57478
-15.42239
2.510763
16.47252
26.59915
33.53014
37.99718
40.63726
41.96998
42.45537
42.5172
42.52755
42.75768
43.30757
44.1421
45.11178
46.06726
46.90215
47.62278
48.31816
49.0783
49.9084
50.69464
51.21996
51.24124
50.593
49.23441
47.24788
44.78689
42.02007
39.11633
36.20776
33.40224
30.7524
28.22291
25.70956
23.03861
20.05637
16.67451
12.91216
8.877371
4.748966
0.6781673
-3.240578
-7.000906
-10.72744
-14.65694
-19.04715
-24.12191
-29.92103
-36.23111
-42.66783
-48.80414
-54.3684
-59.39311
-64.23589
-69.52068
-75.9902
-84.27666
-94.54573
-106.1745
-117.5217
-126.0993
-129.1963
-124.7793
-112.2974
-93.03348
-69.73711
-45.6996
-23.75556
-5.592997
8.374044
18.59164
25.86991
30.98274
34.54444
37.04424
38.93328
40.57022
42.18827
43.80888
45.29708
46.47683
47.24733
47.64491
47.85537
48.14573
48.73941
49.74309
51.07001
52.41959
53.35734
53.42815
52.33124
50.05249
46.90244
43.35941
39.93339
36.93053
34.32933
31.87252
29.19507
26.0599
22.45433
18.60238
14.80243
11.26441
8.017419
4.894541
1.619226
-2.033973
-6.123483
-10.52586
-14.97925
-19.23709
-23.22729
-27.1272
-31.3031
-36.16808
-41.95088
-48.59267
-55.76198
-62.97795
-69.79322
-75.97343
-81.56425
-86.94436
-92.78363
-99.93251
-109.0638
-120.2237
-132.3817
-143.3569
-150.2649
-150.4594
-142.5732
-127.1452
-106.5541
-84.257
-63.70704
-47.40061
-36.3283
-29.97169
-26.65308
-24.0787
-19.97543
-12.63852
-1.379524
13.37245
30.19324
47.1776
62.49173
74.84453
83.67757
89.14937
91.87703
92.66412
92.29475
91.39702
90.40439
89.56526
88.96733
88.60626
88.40573
88.23215
87.95523
87.51822
87.00656
86.67709
86.88
87.90079
89.76433
92.10605
94.20435
95.1364
94.08687
90.58418
84.66437
76.8596
68.01274
59.03592
50.64793
43.25916
36.97029
31.69254
27.28735
23.66075
20.78793
18.63539
17.10997
16.00526
15.08049
14.06502
12.75314
11.02716
8.87973
6.409485
3.775864
1.131836
-1.429565
-3.913879
-6.398911
-8.987167
-11.77373
-14.86751
-18.38615
-22.46767
-27.17459
-32.35411
-37.5589
-42.10719
-45.28302
-46.61098
-46.06677
-44.05719
-41.22887
-38.18817
-35.29205
-32.63954
-30.17921
-27.86729
-25.7258
-23.83913
-22.23866
-20.86432
-19.57822
-18.22231
-16.71187
-15.07881
-13.4426
-11.96129
-10.74989
-9.829628
-9.125786
-8.510513
-7.857094
-7.097916
-6.245323
-5.379021
-4.59951
-3.981216
-3.542473
-3.241089
-3.00074
-2.747246
-2.437691
-2.076859
-1.705078
-1.375031
-1.125771
-0.966011
-0.8772736
-0.8224182
-0.7664871
-0.687706
-0.5880966
-0.4816513
-0.3885193
-0.3252411
-0.2945633
-0.2921677
-0.3037033
-0.3189011
-0.3289108
-0.3321152
-0.3301315
-0.3268509
-0.32444
-0.323143
-0.3222733
-0.3215561
-0.3215561
-0.3201675
-0.319809
-0.3183212
-0.3173294
-0.3160095
-0.3150635
-0.3141098
-0.3130493
-0.3125076
-0.3108292
-0.309761
-0.3091431
-0.3076019
-0.3071976
-0.3055267
-0.3049088
-0.3038864
-0.3028107
-0.3019485
-0.301033
-0.3000565
-0.299408
-0.2977753
-0.2975235
-0.2966003
-0.2951584
-0.2945404
-0.293335
-0.2925491
-0.2912369
-0.2904816
-0.2897339
-0.2880096
-0.2881927
-0.2867813
-0.2865143
-0.2847824
-0.2845459
-0.2835159
-0.2824936
-0.2818604
-0.2804413
-0.2805328
-0.279068
-0.2786713
-0.2776947
-0.276413
-0.2762604
-0.275322
-0.274086
-0.2728043
-0.2726364
-0.2705841
-0.2702866
-0.268692
-0.2683716
-0.267746
-0.26651
-0.2653351
-0.264679
-0.264389
-0.2623367
-0.2623367
-0.2610321
-0.2602692
-0.2593765
-0.2590408
-0.2574539
-0.2570572
-0.2561722
-0.2551346
-0.2548828
-0.2542953
-0.2529755
-0.2521515
-0.2514954
-0.2508545
-0.2497635
-0.249794
-0.2480392
-0.2476578
-0.2469406
-0.2464218
-0.2453613
-0.2447586
-0.2440567
-0.2432785
-0.242691
-0.2412567
-0.2411652
-0.2399368
-0.2393723
-0.2380829
-0.2372513
-0.2366562
-0.2356949
-0.2352829
-0.2341614
-0.2338486
-0.2328033
-0.2324295
-0.2308655
-0.2297287
-0.2294159
-0.2287903
-0.2288132
-0.2273178
-0.226738
-0.2264481
-0.2253265
-0.2248306
-0.2232208
-0.22332
-0.2222595
-0.2211227
-0.2210388
-0.2196426
-0.2195511
-0.218399
-0.2175064
-0.2169571
-0.2164307
-0.2157211
-0.2150421
-0.2143021
-0.2139816
-0.2127609
-0.2129669
-0.2120743
-0.2112427
-0.2112274
-0.210556
-0.2100449
-0.2087936
-0.2067413
-0.205719
-0.2048187
-0.2053566
-0.2091904
-0.2115631
-0.2107964
-0.2036514
-0.1853676
-0.1555023
-0.1162071
-0.0701828
-0.02413559
0.01825333
0.05584717
0.09217453
0.1335869
0.1880455
0.2614937
0.354496
0.4596748
0.5621719
0.6433983
0.6875839
0.6928864
0.6659164
0.6291618
0.6052666
0.6107445
0.6473351
0.700428
0.7507782
0.7809219
0.7963371
0.8174248
0.8817024
1.019707
1.243927
1.532097
1.835567
2.098309
2.283104
2.396152
2.489841
2.651051
2.961777
3.462322
4.118073
4.823746
5.442608
5.857765
6.035423
6.048096
6.062275
6.268707
6.795639
7.652832
8.691902
9.656036
10.26859
10.35487
9.924637
9.222561
8.673328
8.72205
9.606564
11.13543
12.64525
13.13749
11.64063
7.575195
1.029751
-7.276657
-16.27094
-24.957
-32.74844
-39.62878
-46.09375
-52.95101
-61.07019
-71.05869
-82.91976
-95.74561
-107.656
-116.1043
-118.551
-113.3484
-100.3853
-81.19955
-58.49881
-35.34468
-14.25914
3.247429
16.72465
26.47995
33.18564
37.58873
40.40519
42.29453
43.83758
45.46793
47.38104
49.48962
51.51138
53.10113
54.05105
54.37585
54.30309
54.15913
54.21668
54.588
55.19703
55.81279
56.12521
55.84032
54.73937
52.75784
50.0192
46.82435
43.54334
40.51869
37.92795
35.71933
33.66603
31.4526
28.8274
25.67616
22.08851
18.31157
14.66452
11.39318
8.545128
5.962402
3.332291
0.3598709
-3.063866
-6.781029
-10.44602
-13.72008
-16.47582
-18.90376
-21.47352
-24.72359
-29.01898
-34.38538
-40.52084
-46.89312
-52.96858
-58.39608
-63.10371
-67.3222
-71.53859
-76.41158
-82.62336
-90.62549
-100.2891
-110.5822
-119.5105
-124.5068
-123.1934
-114.2616
-98.04847
-76.51189
-52.62157
-29.40131
-9.086281
7.282204
19.71353
28.84133
35.4239
40.06918
43.19269
45.12991
46.21676
46.83852
47.36704
48.10756
49.20784
50.68359
52.44383
54.35017
56.28561
58.18767
60.06699
61.95274
63.8318
65.57034
66.91011
67.51842
67.11092
65.61636
63.22693
60.35522
57.43996
54.78232
52.42293
50.22014
47.97235
45.56233
43.01877
40.41756
37.7748
34.96611
31.77773
28.02164
23.67461
18.942
14.1758
9.731003
5.758698
2.11322
-1.600739
-5.851044
-10.94598
-16.86861
-23.28696
-29.69841
-35.66682
-41.04713
-46.03447
-51.09562
-56.83904
-63.83935
-72.44183
-82.52328
-93.26424
-103.0457
-109.6817
-110.9475
-105.3034
-92.54981
-74.02145
-52.20091
-30.00002
-9.918839
6.487381
18.72614
27.11122
32.39587
35.44885
37.04747
37.83037
38.28281
38.7657
39.48552
40.52606
41.85133
43.34444
44.84794
46.21526
47.40856
48.48486
49.6099
50.95148
52.54222
54.19238
55.51024
56.02691
55.40501
53.60285
50.88661
47.71964
44.56886
41.68451
39.06837
36.52382
33.83597
30.88371
27.69114
24.32909
20.82035
17.11119
13.10286
8.742329
4.100552
-0.6400337
-5.325367
-9.916374
-14.60278
-19.73898
-25.68119
-32.61201
-40.3918
-48.55962
-56.4948
-63.59628
-69.50925
-74.24738
-78.2233
-82.12096
-86.81023
-93.0911
-101.3989
-111.4761
-122.1184
-131.2188
-136.205
-134.7693
-125.6793
-109.2839
-87.49191
-63.18079
-39.32907
-18.23239
-1.06979
12.03495
21.65558
28.62097
33.67664
37.39207
40.18308
42.40895
44.37098
46.29809
48.28043
50.23308
51.94926
53.23347
54.02057
54.42156
54.69498
55.11557
55.84317
56.80552
57.71755
58.15911
57.77538
56.37879
54.03923
51.06308
47.84941
44.7098
41.7342
38.81184
35.73743
32.36829
28.74739
25.07407
21.59015
18.41222
15.46741
12.5091
9.245178
5.497482
1.262127
-3.245804
-7.711342
-11.85046
-15.53054
-18.85855
-22.12212
-25.71836
-29.96539
-34.98297
-40.62592
-46.53992
-52.29758
-57.57196
-62.23569
-66.44154
-70.62453
-75.44666
-81.61931
-89.60573
-99.24664
-109.4113
-118.0372
-122.5543
-120.7159
-111.4203
-95.19859
-74.10637
-51.03486
-28.82323
-9.473785
6.11824
18.02894
26.90974
33.53349
38.5494
42.39616
45.32752
47.52074
49.10309
50.23872
51.13954
52.00768
52.98438
54.0777
55.2078
56.28049
57.30933
58.44455
59.87262
61.6514
63.57281
65.15345
65.82204
65.16263
63.125
60.04642
56.52992
53.17688
50.35881
48.10345
46.10869
43.89082
40.97006
37.06102
32.17596
26.6516
21.03949
15.89865
11.60887
8.187164
5.256622
2.202515
-1.592361
-6.478287
-12.39503
-18.91158
-25.44775
-31.5114
-36.93024
-41.91171
-46.98636
-52.84868
-60.13428
-69.12962
-79.51187
-90.16585
-99.21063
-104.3668
-103.5717
-95.73634
-81.21994
-61.8315
-40.29964
-19.4331
-1.353867
12.931
23.43707
30.82212
35.89533
39.32491
41.57019
42.97027
43.86142
44.56641
45.33089
46.2572
47.29312
48.30095
49.14662
49.81154
50.37161
50.96107
51.66779
52.48234
53.24866
53.73806
53.71079
52.97854
51.44286
49.08369
46.01093
42.44912
38.73068
35.21234
32.14029
29.56046
27.22856
24.71251
21.56485
17.52197
12.62925
7.268707
1.970062
-2.817856
-6.915276
-10.50539
-14.05022
-18.12166
-23.14955
-29.29682
-36.37204
-43.89358
-51.28291
-58.06296
-64.04952
-69.38567
-74.53001
-80.08533
-86.69519
-94.83044
-104.524
-115.116
-125.0836
-132.1994
-134.0289
-128.7538
-115.8963
-96.6451
-73.5892
-49.88713
-28.29296
-10.40413
3.455795
13.92354
21.98676
28.50658
34.00494
38.75223
42.90876
46.62064
50.03016
53.1711
55.94568
58.13448
59.54208
60.10136
59.97275
59.5349
59.20982
59.34051
59.98987
60.92712
61.68407
61.76149
60.80923
58.74585
55.80247
52.34194
48.74664
45.27901
42.03413
38.96101
35.93971
32.86448
29.6497
26.29173
22.78482
19.15089
15.37144
11.4026
7.166313
2.629158
-2.148567
-7.01432
-11.73431
-16.13416
-20.18171
-24.08294
-28.23093
-33.03123
-38.70656
-45.14514
-51.9129
-58.40992
-64.16908
-69.04649
-73.31953
-77.57545
-82.5497
-88.8876
-96.91003
-106.3785
-116.3268
-125.0213
-130.253
-129.8966
-122.6167
-108.4566
-88.95236
-66.70162
-44.55003
-24.76598
-8.509705
4.132309
13.7785
21.27126
27.31424
32.3577
36.66414
40.4281
43.8194
46.95828
49.82298
52.26126
54.0334
55.00243
55.23793
55.05479
54.92755
55.27534
56.30124
57.89261
59.66127
61.08954
61.70068
61.22417
59.64728
57.20187
54.28772
51.34027
48.73105
46.67113
45.15596
43.98724
42.84743
41.4001
39.38873
36.70285
33.41409
29.75172
26.03429
22.54443
19.42303
16.59793
13.7805
10.6102
6.797668
2.281281
-2.75412
-7.976151
-13.04985
-17.77586
-22.16983
-26.44357
-30.94014
-36.09691
-42.388
-50.15819
-59.34427
-69.17365
-78.04706
-83.81181
-84.37663
-78.48607
-66.2467
-49.19612
-29.7809
-10.56665
6.451813
20.23792
30.60217
37.90742
42.6853
45.45085
46.63696
46.68106
46.03534
45.15036
44.41609
44.07645
44.20366
44.67889
45.28397
45.81581
46.19562
46.50507
46.93436
47.63799
48.56802
49.41951
49.72954
49.04462
47.14244
44.10266
40.30608
36.2765
32.51482
29.32423
26.71405
24.44792
22.10101
19.27565
15.71497
11.427
6.645782
1.754684
-2.875397
-7.039001
-10.76947
-14.32571
-18.06946
-22.34575
-27.3392
-33.02043
-39.14275
-45.32191
-51.18314
-56.51773
-61.3894
-66.18253
-71.53371
-78.17902
-86.61159
-96.73944
-107.5972
-117.3053
-123.4228
-123.6319
-116.5503
-102.3068
-82.60601
-60.22364
-38.137
-18.64802
-2.921112
9.023254
17.91263
24.70136
30.22752
35.04816
39.46093
43.5902
47.45528
50.97408
54.00699
56.36875
57.92789
58.65999
58.72194
58.41605
58.1218
58.17642
58.76644
59.82377
61.03268
61.91179
61.96746
60.91654
58.77713
55.8764
52.67935
49.53945
46.57977
43.66801
40.56089
37.10237
33.32232
29.43383
25.6919
22.21859
18.96088
15.70751
12.21917
8.341171
4.074886
-0.4337616
-4.961819
-9.323887
-13.44904
-17.42374
-21.495
-25.95279
-31.02475
-36.79389
-43.13976
-49.78884
-56.40661
-62.68906
-68.49504
-73.91944
-79.33479
-85.38125
-92.78617
-102.0088
-112.8365
-124.0954
-133.6962
-139.1318
-138.2691
-130.0961
-115.1336
-95.26829
-73.10178
-51.16871
-31.31417
-14.42815
-0.5950279
10.56706
19.60078
26.96792
33.00242
37.97491
42.09547
45.54256
48.45192
50.88532
52.84071
54.29628
55.24981
55.77255
56.05065
56.32865
56.83745
57.68175
58.77325
59.82859
60.47816
60.393
59.40711
57.54806
55.01969
52.11587
49.10209
46.13598
43.24146
40.33272
37.2781
34.02454
30.6322
27.25837
24.09332
21.21696
18.53907
15.81896
12.80182
9.381432
5.658184
1.91507
-1.564987
-4.668896
-7.531136
-10.4778
-13.85741
-17.87087
-22.47107
-27.40453
-32.30179
-36.84346
-40.8466
-44.33147
-47.5371
-50.89367
-54.96611
-60.28499
-67.08016
-74.99462
-82.8725
-88.84183
-90.72606
-86.74162
-76.17926
-59.80223
-39.68265
-18.60571
0.7886734
16.69755
28.46136
36.37795
41.27576
44.06623
45.48191
46.03422
46.09185
45.9848
46.015
46.42124
47.3086
48.64786
50.29359
52.04905
53.74208
55.25311
56.53038
57.57215
58.38873
58.90013
58.97661
58.43248
57.09169
54.89958
51.92543
48.3493
44.40673
40.32275
36.26456
32.34875
28.60779
24.99656
21.39499
17.61866
13.50886
9.017902
4.27574
-0.4138184
-4.719597
-8.410131
-11.53015
-14.40685
-17.53501
-21.37164
-26.08221
-31.47519
-37.05556
-42.2557
-46.70493
-50.42165
-53.81039
-57.53328
-62.27891
-68.57555
-76.63248
-86.19096
-96.42909
-105.888
-112.5921
-114.4419
-109.8061
-98.16804
-80.46947
-58.94197
-36.50266
-15.88357
1.059769
13.62729
22.12467
27.45401
30.6323
32.55421
33.90585
35.20057
36.82063
39.03242
41.98212
45.6572
49.88048
54.24495
58.11944
60.71822
61.2727
59.32133
54.9294
48.71339
41.64325
34.73028
28.67197
23.74479
19.89052
16.91885
14.67621
13.08016
12.02911
11.3334
10.6885
9.835709
8.628975
7.139694
5.568504
4.151482
2.984505
1.986244
0.9264221
-0.4807587
-2.428528
-4.941528
-7.868027
-10.98618
-14.13235
-17.33017
-20.77701
-24.74988
-29.45813
-34.88692
-40.78772
-46.79202
-52.59186
-58.06039
-63.31244
-68.6431
-74.49544
-81.35614
-89.59654
-99.19286
-109.4111
-118.6957
-124.8543
-125.6564
-119.6026
-106.55
-87.86923
-66.00171
-43.6869
-23.15733
-5.709778
8.29818
19.12421
27.27085
33.26181
37.60169
40.78498
43.31982
45.60732
47.85242
50.01703
51.8642
53.11372
53.63129
53.52792
53.12994
52.88326
53.13868
54.0167
55.34265
56.69961
57.56234
57.52738
56.43967
54.45212
51.93688
49.31992
46.89058
44.68017
42.49875
40.06833
37.21783
33.97424
30.57924
27.36098
24.56384
22.23542
20.20547
18.14355
15.70953
12.67677
9.018761
4.936226
0.7729111
-3.111969
-6.486237
-9.348824
-11.97477
-14.7869
-18.17728
-22.33073
-27.12833
-32.17549
-36.99686
-41.23224
-44.83146
-48.07676
-51.55587
-55.99831
-61.98852
-69.66161
-78.41665
-86.82503
-92.81834
-94.21057
-89.38592
-77.87126
-60.60191
-39.68973
-17.81393
2.532074
19.63046
32.77637
42.12944
48.35517
52.22796
54.39189
55.29299
55.23899
54.48471
53.29798
51.96304
50.75108
49.81521
49.19913
48.85959
48.7405
48.78499
48.99657
49.35114
49.75842
50.05807
49.99754
49.36072
47.98753
45.85238
43.05621
39.81656
36.43477
33.20386
30.33173
27.86714
25.68423
23.46923
20.87992
17.63271
13.64955
9.089661
4.287758
-0.3649902
-4.55204
-8.131775
-11.18578
-13.96011
-16.79753
-20.03259
-23.90353
-28.48001
-33.65729
-39.19611
-44.78551
-50.17406
-55.20493
-59.93687
-64.7094
-70.09497
-76.76389
-85.05922
-94.61134
-104.0157
-111.0142
-113.0782
-108.3257
-96.30014
-78.21202
-56.60384
-34.44998
-14.27225
2.469513
15.41896
24.9752
31.80348
36.50964
39.5818
41.45126
42.60071
43.51399
44.57024
45.90874
47.42935
48.851
49.88049
50.36734
50.36554
50.1179
49.94069
50.07394
50.57135
51.26976
51.83098
51.89636
51.20709
49.69487
47.48842
44.79344
41.81561
38.67606
35.41641
32.08325
28.76775
25.59892
22.6436
19.82375
16.92911
13.70096
9.974365
5.779221
1.367737
-2.938263
-6.877914
-10.39355
-13.67451
-17.08026
-21.01556
-25.7682
-31.38972
-37.68231
-44.26628
-50.72548
-56.76006
-62.30664
-67.52029
-72.75023
-78.4832
-85.25415
-93.42464
-102.9002
-112.8209
-121.4809
-126.6081
-126.0068
-118.3766
-103.8737
-84.17152
-61.93909
-39.98181
-20.47864
-4.560547
7.595062
16.42737
22.58932
26.71683
29.35699
30.98648
32.03517
32.85388
33.69614
34.69766
35.8504
37.05501
38.14444
38.98759
39.54326
39.90692
40.30069
40.94048
41.89973
43.01222
43.91048
44.16812
43.48897
41.82155
39.37193
36.43555
33.28413
30.0843
26.89969
23.77206
20.734
17.84878
15.10892
12.43037
9.658501
6.664474
3.440315
0.1258774
-2.999901
-5.696144
-7.893761
-9.75209
-11.6607
-14.05588
-17.24963
-21.27232
-25.89009
-30.69019
-35.25166
-39.31419
-42.83923
-45.98399
-49.05311
-52.48826
-56.79861
-62.44872
-69.52988
-77.45734
-84.7894
-89.41292
-89.15924
-82.57895
-69.58779
-51.54832
-30.85908
-10.17054
8.400539
23.66993
35.3631
43.75887
49.36179
52.63103
53.98798
53.9189
52.97863
51.77866
50.85805
50.5777
51.04108
52.14019
53.62962
55.27438
56.91869
58.49867
60.00071
61.33479
62.33068
62.73505
62.30833
60.91562
58.57244
55.44627
51.76362
47.76248
43.61276
39.41238
35.20649
31.01804
26.88566
22.86124
19.00562
15.27558
11.52832
7.506399
2.952496
-2.238335
-7.925283
-13.75686
-19.32119
-24.35563
-28.91386
-33.33662
-38.17752
-44.00763
-51.2294
-59.86422
-69.33524
-78.39937
-85.23241
