1570527096.70642
1570527096.72205
1570527096.73767
1570527096.7533
1570527096.76892
1570527096.78455
1570527096.80017
1570527096.8158
1570527096.83143
1570527096.84705
1570527096.86268
1570527096.8783
1570527096.89393
1570527096.90955
1570527096.92518
1570527096.94081
1570527096.95643
1570527096.97206
1570527096.98768
1570527097.00331
1570527097.01893
1570527097.03456
1570527097.05019
1570527097.06581
1570527097.08144
1570527097.09706
1570527097.11269
1570527097.12831
1570527097.14394
1570527097.15957
1570527097.17519
1570527097.19082
1570527097.20644
1570527097.22207
1570527097.23769
1570527097.25332
1570527097.26895
1570527097.28457
1570527097.3002
1570527097.31582
1570527097.33145
1570527097.34707
1570527097.3627
1570527097.37833
1570527097.39395
1570527097.40958
1570527097.4252
1570527097.44083
1570527097.45645
1570527097.47208
1570527097.48771
1570527097.50333
1570527097.51896
1570527097.53458
1570527097.55021
1570527097.56584
1570527097.58146
1570527097.59709
1570527097.61271
1570527097.62834
1570527097.64396
1570527097.65959
1570527097.67522
1570527097.69084
1570527097.70647
1570527097.72209
1570527097.73772
1570527097.75334
1570527097.76897
1570527097.7846
1570527097.80022
1570527097.81585
1570527097.83147
1570527097.8471
1570527097.86272
1570527097.87835
1570527097.89398
1570527097.9096
1570527097.92523
1570527097.94085
1570527097.95648
1570527097.9721
1570527097.98773
1570527098.00336
1570527098.01898
1570527098.03461
1570527098.05023
1570527098.06586
1570527098.08148
1570527098.09711
1570527098.11274
1570527098.12836
1570527098.14399
1570527098.15961
1570527098.17524
1570527098.19086
1570527098.20649
1570527098.22212
1570527098.23774
1570527098.25337
1570527098.26899
1570527098.28462
1570527098.30024
1570527098.31587
1570527098.3315
1570527098.34712
1570527098.36275
1570527098.37837
1570527098.394
1570527098.40962
1570527098.42525
1570527098.44088
1570527098.4565
1570527098.47213
1570527098.48775
1570527098.50338
1570527098.519
1570527098.53463
1570527098.55026
1570527098.56588
1570527098.58151
1570527098.59713
1570527098.61276
1570527098.62838
1570527098.64401
1570527098.65964
1570527098.67526
1570527098.69089
1570527098.70651
1570527098.72214
1570527098.73776
1570527098.75339
1570527098.76902
1570527098.78464
1570527098.80027
1570527098.81589
1570527098.83152
1570527098.84714
1570527098.86277
1570527098.8784
1570527098.89402
1570527098.90965
1570527098.92527
1570527098.9409
1570527098.95652
1570527098.97215
1570527098.98778
1570527099.0034
1570527099.01903
1570527099.03465
1570527099.05028
1570527099.0659
1570527099.08153
1570527099.09716
1570527099.11278
1570527099.12841
1570527099.14403
1570527099.15966
1570527099.17528
1570527099.19091
1570527099.20654
1570527099.22216
1570527099.23779
1570527099.25341
1570527099.26904
1570527099.28466
1570527099.30029
1570527099.31592
1570527099.33154
1570527099.34717
1570527099.36279
1570527099.37842
1570527099.39404
1570527099.40967
1570527099.4253
1570527099.44092
1570527099.45655
1570527099.47217
1570527099.4878
1570527099.50342
1570527099.51905
1570527099.53468
1570527099.5503
1570527099.56593
1570527099.58155
1570527099.59718
1570527099.6128
1570527099.62843
1570527099.64406
1570527099.65968
1570527099.67531
1570527099.69093
1570527099.70656
1570527099.72218
1570527099.73781
1570527099.75344
1570527099.76906
1570527099.78469
1570527099.80031
1570527099.81594
1570527099.83156
1570527099.84719
1570527099.86282
1570527099.87844
1570527099.89407
1570527099.90969
1570527099.92532
1570527099.94094
1570527099.95657
1570527099.9722
1570527099.98782
1570527100.00345
1570527100.01907
1570527100.0347
1570527100.05033
1570527100.06595
1570527100.08158
1570527100.0972
1570527100.11283
1570527100.12845
1570527100.14408
1570527100.15971
1570527100.17533
1570527100.19096
1570527100.20658
1570527100.22221
1570527100.23783
1570527100.25346
1570527100.26909
1570527100.28471
1570527100.30034
1570527100.31596
1570527100.33159
1570527100.34721
1570527100.36284
1570527100.37847
1570527100.39409
1570527100.40972
1570527100.42534
1570527100.44097
1570527100.45659
1570527100.47222
1570527100.48785
1570527100.50347
1570527100.5191
1570527100.53472
1570527100.55035
1570527100.56597
1570527100.5816
1570527100.59723
1570527100.61285
1570527100.62848
1570527100.6441
1570527100.65973
1570527100.67535
1570527100.69098
1570527100.70661
1570527100.72223
1570527100.73786
1570527100.75348
1570527100.76911
1570527100.78473
1570527100.80036
1570527100.81599
1570527100.83161
1570527100.84724
1570527100.86286
1570527100.87849
1570527100.89411
1570527100.90974
1570527100.92537
1570527100.94099
1570527100.95662
1570527100.97224
1570527100.98787
1570527101.00349
1570527101.01912
1570527101.03475
1570527101.05037
1570527101.066
1570527101.08162
1570527101.09725
1570527101.11287
1570527101.1285
1570527101.14413
1570527101.15975
1570527101.17538
1570527101.191
1570527101.20663
1570527101.22225
1570527101.23788
1570527101.25351
1570527101.26913
1570527101.28476
1570527101.30038
1570527101.31601
1570527101.33163
1570527101.34726
1570527101.36289
1570527101.37851
1570527101.39414
1570527101.40976
1570527101.42539
1570527101.44101
1570527101.45664
1570527101.47227
1570527101.48789
1570527101.50352
1570527101.51914
1570527101.53477
1570527101.55039
1570527101.56602
1570527101.58165
1570527101.59727
1570527101.6129
1570527101.62852
1570527101.64415
1570527101.65977
1570527101.6754
1570527101.69103
1570527101.70665
1570527101.72228
1570527101.7379
1570527101.75353
1570527101.76915
1570527101.78478
1570527101.80041
1570527101.81603
1570527101.83166
1570527101.84728
1570527101.86291
1570527101.87853
1570527101.89416
1570527101.90979
1570527101.92541
1570527101.94104
1570527101.95666
1570527101.97229
1570527101.98791
1570527102.00354
1570527102.01917
1570527102.03479
1570527102.05042
1570527102.06604
1570527102.08167
1570527102.09729
1570527102.11292
1570527102.12855
1570527102.14417
1570527102.1598
1570527102.17542
1570527102.19105
1570527102.20667
1570527102.2223
1570527102.23793
1570527102.25355
1570527102.26918
1570527102.2848
1570527102.30043
1570527102.31606
1570527102.33168
1570527102.34731
1570527102.36293
1570527102.37856
1570527102.39418
1570527102.40981
1570527102.42544
1570527102.44106
1570527102.45669
1570527102.47231
1570527102.48794
1570527102.50356
1570527102.51919
1570527102.53482
1570527102.55044
1570527102.56607
1570527102.58169
1570527102.59732
1570527102.61294
1570527102.62857
1570527102.6442
1570527102.65982
1570527102.67545
1570527102.69107
1570527102.7067
1570527102.72232
1570527102.73795
1570527102.75358
1570527102.7692
1570527102.78483
1570527102.80045
1570527102.81608
1570527102.8317
1570527102.84733
1570527102.86296
1570527102.87858
1570527102.89421
1570527102.90983
1570527102.92546
1570527102.94108
1570527102.95671
1570527102.97234
1570527102.98796
1570527103.00359
1570527103.01921
1570527103.03484
1570527103.05046
1570527103.06609
1570527103.08172
1570527103.09734
1570527103.11297
1570527103.12859
1570527103.14422
1570527103.15984
1570527103.17547
1570527103.1911
1570527103.20672
1570527103.22235
1570527103.23797
1570527103.2536
1570527103.26922
1570527103.28485
1570527103.30048
1570527103.3161
1570527103.33173
1570527103.34735
1570527103.36298
1570527103.3786
1570527103.39423
1570527103.40986
1570527103.42548
1570527103.44111
1570527103.45673
1570527103.47236
1570527103.48798
1570527103.50361
1570527103.51924
1570527103.53486
1570527103.55049
1570527103.56611
1570527103.58174
1570527103.59736
1570527103.61299
1570527103.62862
1570527103.64424
1570527103.65987
1570527103.67549
1570527103.69112
1570527103.70674
1570527103.72237
1570527103.738
1570527103.75362
1570527103.76925
1570527103.78487
1570527103.8005
1570527103.81612
1570527103.83175
1570527103.84738
1570527103.863
1570527103.87863
1570527103.89425
1570527103.90988
1570527103.9255
1570527103.94113
1570527103.95676
1570527103.97238
1570527103.98801
1570527104.00363
1570527104.01926
1570527104.03488
1570527104.05051
1570527104.06614
1570527104.08176
1570527104.09739
1570527104.11301
1570527104.12864
1570527104.14426
1570527104.15989
1570527104.17552
1570527104.19114
1570527104.20677
1570527104.22239
1570527104.23802
1570527104.25364
1570527104.26927
1570527104.2849
1570527104.30052
1570527104.31615
1570527104.33177
1570527104.3474
1570527104.36302
1570527104.37865
1570527104.39428
1570527104.4099
1570527104.42553
1570527104.44115
1570527104.45678
1570527104.4724
1570527104.48803
1570527104.50366
1570527104.51928
1570527104.53491
1570527104.55053
1570527104.56616
1570527104.58178
1570527104.59741
1570527104.61304
1570527104.62866
1570527104.64429
1570527104.65991
1570527104.67554
1570527104.69116
1570527104.70679
1570527104.72242
1570527104.73804
1570527104.75367
1570527104.76929
1570527104.78492
1570527104.80054
1570527104.81617
1570527104.8318
1570527104.84742
1570527104.86305
1570527104.87867
1570527104.8943
1570527104.90993
1570527104.92555
1570527104.94118
1570527104.9568
1570527104.97243
1570527104.98805
1570527105.00368
1570527105.01931
1570527105.03493
1570527105.05056
1570527105.06618
1570527105.08181
1570527105.09743
1570527105.11306
1570527105.12869
1570527105.14431
1570527105.15994
1570527105.17556
1570527105.19119
1570527105.20681
1570527105.22244
1570527105.23807
1570527105.25369
1570527105.26932
1570527105.28494
1570527105.30057
1570527105.31619
1570527105.33182
1570527105.34745
1570527105.36307
1570527105.3787
1570527105.39432
1570527105.40995
1570527105.42557
1570527105.4412
1570527105.45683
1570527105.47245
1570527105.48808
1570527105.5037
1570527105.51933
1570527105.53495
1570527105.55058
1570527105.56621
1570527105.58183
1570527105.59746
1570527105.61308
1570527105.62871
1570527105.64433
1570527105.65996
1570527105.67559
1570527105.69121
1570527105.70684
1570527105.72246
1570527105.73809
1570527105.75371
1570527105.76934
1570527105.78497
1570527105.80059
1570527105.81622
1570527105.83184
1570527105.84747
1570527105.86309
1570527105.87872
1570527105.89435
1570527105.90997
1570527105.9256
1570527105.94122
1570527105.95685
1570527105.97247
1570527105.9881
1570527106.00373
1570527106.01935
1570527106.03498
1570527106.0506
1570527106.06623
1570527106.08185
1570527106.09748
1570527106.11311
1570527106.12873
1570527106.14436
1570527106.15998
1570527106.17561
1570527106.19123
1570527106.20686
1570527106.22249
1570527106.23811
1570527106.25374
1570527106.26936
1570527106.28499
1570527106.30061
1570527106.31624
1570527106.33187
1570527106.34749
1570527106.36312
1570527106.37874
1570527106.39437
1570527106.40999
1570527106.42562
1570527106.44125
1570527106.45687
1570527106.4725
1570527106.48812
1570527106.50375
1570527106.51937
1570527106.535
1570527106.55063
1570527106.56625
1570527106.58188
1570527106.5975
1570527106.61313
1570527106.62875
1570527106.64438
1570527106.66001
1570527106.67563
1570527106.69126
1570527106.70688
1570527106.72251
1570527106.73813
1570527106.75376
1570527106.76939
1570527106.78501
1570527106.80064
1570527106.81626
1570527106.83189
1570527106.84751
1570527106.86314
1570527106.87877
1570527106.89439
1570527106.91002
1570527106.92564
1570527106.94127
1570527106.95689
1570527106.97252
1570527106.98815
1570527107.00377
1570527107.0194
1570527107.03502
1570527107.05065
1570527107.06627
1570527107.0819
1570527107.09753
1570527107.11315
1570527107.12878
1570527107.1444
1570527107.16003
1570527107.17566
1570527107.19128
1570527107.20691
1570527107.22253
1570527107.23816
1570527107.25378
1570527107.26941
1570527107.28504
1570527107.30066
1570527107.31629
1570527107.33191
1570527107.34754
1570527107.36316
1570527107.37879
1570527107.39442
1570527107.41004
1570527107.42567
1570527107.44129
1570527107.45692
1570527107.47254
1570527107.48817
1570527107.5038
1570527107.51942
1570527107.53505
1570527107.55067
1570527107.5663
1570527107.58192
1570527107.59755
1570527107.61318
1570527107.6288
1570527107.64443
1570527107.66005
1570527107.67568
1570527107.6913
1570527107.70693
1570527107.72256
1570527107.73818
1570527107.75381
1570527107.76943
1570527107.78506
1570527107.80068
1570527107.81631
1570527107.83194
1570527107.84756
1570527107.86319
1570527107.87881
1570527107.89444
1570527107.91006
1570527107.92569
1570527107.94132
1570527107.95694
1570527107.97257
1570527107.98819
1570527108.00382
1570527108.01944
1570527108.03507
1570527108.0507
1570527108.06632
1570527108.08195
1570527108.09757
1570527108.1132
1570527108.12882
1570527108.14445
1570527108.16008
1570527108.1757
1570527108.19133
1570527108.20695
1570527108.22258
1570527108.2382
1570527108.25383
1570527108.26946
1570527108.28508
1570527108.30071
1570527108.31633
1570527108.33196
1570527108.34758
1570527108.36321
1570527108.37884
1570527108.39446
1570527108.41009
1570527108.42571
1570527108.44134
1570527108.45696
1570527108.47259
1570527108.48822
1570527108.50384
1570527108.51947
1570527108.53509
1570527108.55072
1570527108.56634
1570527108.58197
1570527108.5976
1570527108.61322
1570527108.62885
1570527108.64447
1570527108.6601
1570527108.67572
1570527108.69135
1570527108.70698
1570527108.7226
1570527108.73823
1570527108.75385
1570527108.76948
1570527108.7851
1570527108.80073
1570527108.81636
1570527108.83198
1570527108.84761
1570527108.86323
1570527108.87886
1570527108.89448
1570527108.91011
1570527108.92574
1570527108.94136
1570527108.95699
1570527108.97261
1570527108.98824
1570527109.00386
1570527109.01949
1570527109.03512
1570527109.05074
1570527109.06637
1570527109.08199
1570527109.09762
1570527109.11324
1570527109.12887
1570527109.1445
1570527109.16012
1570527109.17575
1570527109.19137
1570527109.207
1570527109.22262
1570527109.23825
1570527109.25388
1570527109.2695
1570527109.28513
1570527109.30075
1570527109.31638
1570527109.33201
1570527109.34763
1570527109.36326
1570527109.37888
1570527109.39451
1570527109.41013
1570527109.42576
1570527109.44139
1570527109.45701
1570527109.47264
1570527109.48826
1570527109.50389
1570527109.51951
1570527109.53514
1570527109.55077
1570527109.56639
1570527109.58202
1570527109.59764
1570527109.61327
1570527109.62889
1570527109.64452
1570527109.66015
1570527109.67577
1570527109.6914
1570527109.70702
1570527109.72265
1570527109.73827
1570527109.7539
1570527109.76953
1570527109.78515
1570527109.80078
1570527109.8164
1570527109.83203
1570527109.84765
1570527109.86328
1570527109.87891
1570527109.89453
1570527109.91016
1570527109.92578
1570527109.94141
1570527109.95703
1570527109.97266
1570527109.98829
1570527110.00391
1570527110.01954
1570527110.03516
1570527110.05079
1570527110.06641
1570527110.08204
1570527110.09767
1570527110.11329
1570527110.12892
1570527110.14454
1570527110.16017
1570527110.17579
1570527110.19142
1570527110.20705
1570527110.22267
1570527110.2383
1570527110.25392
1570527110.26955
1570527110.28517
1570527110.3008
1570527110.31643
1570527110.33205
1570527110.34768
1570527110.3633
1570527110.37893
1570527110.39455
1570527110.41018
1570527110.42581
1570527110.44143
1570527110.45706
1570527110.47268
1570527110.48831
1570527110.50393
1570527110.51956
1570527110.53519
1570527110.55081
1570527110.56644
1570527110.58206
1570527110.59769
1570527110.61331
1570527110.62894
1570527110.64457
1570527110.66019
1570527110.67582
1570527110.69144
1570527110.70707
1570527110.72269
1570527110.73832
1570527110.75395
1570527110.76957
1570527110.7852
1570527110.80082
1570527110.81645
1570527110.83207
1570527110.8477
1570527110.86333
1570527110.87895
1570527110.89458
1570527110.9102
1570527110.92583
1570527110.94145
1570527110.95708
1570527110.97271
1570527110.98833
1570527111.00396
1570527111.01958
1570527111.03521
1570527111.05083
1570527111.06646
1570527111.08209
1570527111.09771
1570527111.11334
1570527111.12896
1570527111.14459
1570527111.16021
1570527111.17584
1570527111.19147
1570527111.20709
1570527111.22272
1570527111.23834
1570527111.25397
1570527111.26959
1570527111.28522
1570527111.30085
1570527111.31647
1570527111.3321
1570527111.34772
1570527111.36335
1570527111.37897
1570527111.3946
1570527111.41023
1570527111.42585
1570527111.44148
1570527111.4571
1570527111.47273
1570527111.48835
1570527111.50398
1570527111.51961
1570527111.53523
1570527111.55086
1570527111.56648
1570527111.58211
1570527111.59773
1570527111.61336
1570527111.62899
1570527111.64461
1570527111.66024
1570527111.67586
1570527111.69149
1570527111.70711
1570527111.72274
1570527111.73837
1570527111.75399
1570527111.76962
1570527111.78524
1570527111.80087
1570527111.81649
1570527111.83212
1570527111.84775
1570527111.86337
1570527111.879
1570527111.89462
1570527111.91025
1570527111.92587
1570527111.9415
1570527111.95713
1570527111.97275
1570527111.98838
1570527112.004
1570527112.01963
1570527112.03526
1570527112.05088
1570527112.06651
1570527112.08213
1570527112.09776
1570527112.11338
1570527112.12901
1570527112.14464
1570527112.16026
1570527112.17589
1570527112.19151
1570527112.20714
1570527112.22276
1570527112.23839
1570527112.25402
1570527112.26964
1570527112.28527
1570527112.30089
1570527112.31652
1570527112.33214
1570527112.34777
1570527112.3634
1570527112.37902
1570527112.39465
1570527112.41027
1570527112.4259
1570527112.44152
1570527112.45715
1570527112.47278
1570527112.4884
1570527112.50403
1570527112.51965
1570527112.53528
1570527112.5509
1570527112.56653
1570527112.58216
1570527112.59778
1570527112.61341
1570527112.62903
1570527112.64466
1570527112.66028
1570527112.67591
1570527112.69154
1570527112.70716
1570527112.72279
1570527112.73841
1570527112.75404
1570527112.76966
1570527112.78529
1570527112.80092
1570527112.81654
1570527112.83217
1570527112.84779
1570527112.86342
1570527112.87904
1570527112.89467
1570527112.9103
1570527112.92592
1570527112.94155
1570527112.95717
1570527112.9728
1570527112.98842
1570527113.00405
1570527113.01968
1570527113.0353
1570527113.05093
1570527113.06655
1570527113.08218
1570527113.0978
1570527113.11343
1570527113.12906
1570527113.14468
1570527113.16031
1570527113.17593
1570527113.19156
1570527113.20718
1570527113.22281
1570527113.23844
1570527113.25406
1570527113.26969
1570527113.28531
1570527113.30094
1570527113.31656
1570527113.33219
1570527113.34782
1570527113.36344
1570527113.37907
1570527113.39469
1570527113.41032
1570527113.42594
1570527113.44157
1570527113.4572
1570527113.47282
1570527113.48845
1570527113.50407
1570527113.5197
1570527113.53532
1570527113.55095
1570527113.56658
1570527113.5822
1570527113.59783
1570527113.61345
1570527113.62908
1570527113.6447
1570527113.66033
1570527113.67596
1570527113.69158
1570527113.70721
1570527113.72283
1570527113.73846
1570527113.75408
1570527113.76971
1570527113.78534
1570527113.80096
1570527113.81659
1570527113.83221
1570527113.84784
1570527113.86346
1570527113.87909
1570527113.89472
1570527113.91034
1570527113.92597
1570527113.94159
1570527113.95722
1570527113.97284
1570527113.98847
1570527114.0041
1570527114.01972
1570527114.03535
1570527114.05097
1570527114.0666
1570527114.08222
1570527114.09785
1570527114.11348
1570527114.1291
1570527114.14473
1570527114.16035
1570527114.17598
1570527114.1916
1570527114.20723
1570527114.22286
1570527114.23848
1570527114.25411
1570527114.26973
1570527114.28536
1570527114.30099
1570527114.31661
1570527114.33224
1570527114.34786
1570527114.36349
1570527114.37911
1570527114.39474
1570527114.41037
1570527114.42599
1570527114.44162
1570527114.45724
1570527114.47287
1570527114.48849
1570527114.50412
1570527114.51975
1570527114.53537
1570527114.551
1570527114.56662
1570527114.58225
1570527114.59787
1570527114.6135
1570527114.62913
1570527114.64475
1570527114.66038
1570527114.676
1570527114.69163
1570527114.70725
1570527114.72288
1570527114.73851
1570527114.75413
1570527114.76976
1570527114.78538
1570527114.80101
1570527114.81663
1570527114.83226
1570527114.84789
1570527114.86351
1570527114.87914
1570527114.89476
1570527114.91039
1570527114.92601
1570527114.94164
1570527114.95727
1570527114.97289
1570527114.98852
1570527115.00414
1570527115.01977
1570527115.03539
1570527115.05102
1570527115.06665
1570527115.08227
1570527115.0979
1570527115.11352
1570527115.12915
1570527115.14477
1570527115.1604
1570527115.17603
1570527115.19165
1570527115.20728
1570527115.2229
1570527115.23853
1570527115.25415
1570527115.26978
1570527115.28541
1570527115.30103
1570527115.31666
1570527115.33228
1570527115.34791
1570527115.36353
1570527115.37916
1570527115.39479
1570527115.41041
1570527115.42604
1570527115.44166
1570527115.45729
1570527115.47291
1570527115.48854
1570527115.50417
1570527115.51979
1570527115.53542
1570527115.55104
1570527115.56667
1570527115.58229
1570527115.59792
1570527115.61355
1570527115.62917
1570527115.6448
1570527115.66042
1570527115.67605
1570527115.69167
1570527115.7073
1570527115.72293
1570527115.73855
1570527115.75418
1570527115.7698
1570527115.78543
1570527115.80105
1570527115.81668
1570527115.83231
1570527115.84793
1570527115.86356
1570527115.87918
1570527115.89481
1570527115.91043
1570527115.92606
1570527115.94169
1570527115.95731
1570527115.97294
1570527115.98856
1570527116.00419
1570527116.01981
1570527116.03544
1570527116.05107
1570527116.06669
1570527116.08232
1570527116.09794
1570527116.11357
1570527116.12919
1570527116.14482
1570527116.16045
1570527116.17607
1570527116.1917
1570527116.20732
1570527116.22295
1570527116.23857
1570527116.2542
1570527116.26983
1570527116.28545
1570527116.30108
1570527116.3167
1570527116.33233
1570527116.34795
1570527116.36358
1570527116.37921
1570527116.39483
1570527116.41046
1570527116.42608
1570527116.44171
1570527116.45734
1570527116.47296
1570527116.48859
1570527116.50421
1570527116.51984
1570527116.53546
1570527116.55109
1570527116.56672
1570527116.58234
1570527116.59797
1570527116.61359
1570527116.62922
1570527116.64484
1570527116.66047
1570527116.6761
1570527116.69172
1570527116.70735
1570527116.72297
1570527116.7386
1570527116.75422
1570527116.76985
1570527116.78548
1570527116.8011
1570527116.81673
1570527116.83235
1570527116.84798
1570527116.8636
1570527116.87923
1570527116.89486
1570527116.91048
1570527116.92611
1570527116.94173
1570527116.95736
1570527116.97298
1570527116.98861
1570527117.00424
1570527117.01986
1570527117.03549
1570527117.05111
1570527117.06674
1570527117.08236
1570527117.09799
1570527117.11362
1570527117.12924
1570527117.14487
1570527117.16049
1570527117.17612
1570527117.19174
1570527117.20737
1570527117.223
1570527117.23862
1570527117.25425
1570527117.26987
1570527117.2855
1570527117.30112
1570527117.31675
1570527117.33238
1570527117.348
1570527117.36363
1570527117.37925
1570527117.39488
1570527117.4105
1570527117.42613
1570527117.44176
1570527117.45738
1570527117.47301
1570527117.48863
1570527117.50426
1570527117.51988
1570527117.53551
1570527117.55114
1570527117.56676
1570527117.58239
1570527117.59801
1570527117.61364
1570527117.62926
1570527117.64489
1570527117.66052
1570527117.67614
1570527117.69177
1570527117.70739
1570527117.72302
1570527117.73864
1570527117.75427
1570527117.7699
1570527117.78552
1570527117.80115
1570527117.81677
1570527117.8324
1570527117.84802
1570527117.86365
1570527117.87928
1570527117.8949
1570527117.91053
1570527117.92615
1570527117.94178
1570527117.9574
1570527117.97303
1570527117.98866
1570527118.00428
1570527118.01991
1570527118.03553
1570527118.05116
1570527118.06678
1570527118.08241
1570527118.09804
1570527118.11366
1570527118.12929
1570527118.14491
1570527118.16054
1570527118.17616
1570527118.19179
1570527118.20742
1570527118.22304
1570527118.23867
1570527118.25429
1570527118.26992
1570527118.28554
1570527118.30117
1570527118.3168
1570527118.33242
1570527118.34805
1570527118.36367
1570527118.3793
1570527118.39492
1570527118.41055
1570527118.42618
1570527118.4418
1570527118.45743
1570527118.47305
1570527118.48868
1570527118.5043
1570527118.51993
1570527118.53556
1570527118.55118
1570527118.56681
1570527118.58243
1570527118.59806
1570527118.61368
1570527118.62931
1570527118.64494
1570527118.66056
1570527118.67619
1570527118.69181
1570527118.70744
1570527118.72306
1570527118.73869
1570527118.75432
1570527118.76994
1570527118.78557
1570527118.80119
1570527118.81682
1570527118.83244
1570527118.84807
1570527118.8637
1570527118.87932
1570527118.89495
1570527118.91057
1570527118.9262
1570527118.94182
1570527118.95745
1570527118.97308
1570527118.9887
1570527119.00433
1570527119.01995
1570527119.03558
1570527119.0512
1570527119.06683
1570527119.08246
1570527119.09808
1570527119.11371
1570527119.12933
1570527119.14496
1570527119.16059
1570527119.17621
1570527119.19184
1570527119.20746
1570527119.22309
1570527119.23871
1570527119.25434
1570527119.26997
1570527119.28559
1570527119.30122
1570527119.31684
1570527119.33247
1570527119.34809
1570527119.36372
1570527119.37935
1570527119.39497
1570527119.4106
1570527119.42622
1570527119.44185
1570527119.45747
1570527119.4731
1570527119.48873
1570527119.50435
1570527119.51998
1570527119.5356
1570527119.55123
1570527119.56685
1570527119.58248
1570527119.59811
1570527119.61373
1570527119.62936
1570527119.64498
1570527119.66061
1570527119.67623
1570527119.69186
1570527119.70749
1570527119.72311
1570527119.73874
1570527119.75436
1570527119.76999
1570527119.78561
1570527119.80124
1570527119.81687
1570527119.83249
1570527119.84812
1570527119.86374
1570527119.87937
1570527119.89499
1570527119.91062
1570527119.92625
1570527119.94187
1570527119.9575
1570527119.97312
1570527119.98875
1570527120.00437
1570527120.02
1570527120.03563
1570527120.05125
1570527120.06688
1570527120.0825
1570527120.09813
1570527120.11375
1570527120.12938
1570527120.14501
1570527120.16063
1570527120.17626
1570527120.19188
1570527120.20751
1570527120.22313
1570527120.23876
1570527120.25439
1570527120.27001
1570527120.28564
1570527120.30126
1570527120.31689
1570527120.33251
1570527120.34814
1570527120.36377
1570527120.37939
1570527120.39502
1570527120.41064
1570527120.42627
1570527120.44189
1570527120.45752
1570527120.47315
1570527120.48877
1570527120.5044
1570527120.52002
1570527120.53565
1570527120.55127
1570527120.5669
1570527120.58253
1570527120.59815
1570527120.61378
1570527120.6294
1570527120.64503
1570527120.66065
1570527120.67628
1570527120.69191
1570527120.70753
1570527120.72316
1570527120.73878
1570527120.75441
1570527120.77003
1570527120.78566
1570527120.80129
1570527120.81691
1570527120.83254
1570527120.84816
1570527120.86379
1570527120.87941
1570527120.89504
1570527120.91067
1570527120.92629
1570527120.94192
1570527120.95754
1570527120.97317
1570527120.98879
1570527121.00442
1570527121.02005
1570527121.03567
1570527121.0513
1570527121.06692
1570527121.08255
1570527121.09817
1570527121.1138
1570527121.12943
1570527121.14505
1570527121.16068
1570527121.1763
1570527121.19193
1570527121.20755
1570527121.22318
1570527121.23881
1570527121.25443
1570527121.27006
1570527121.28568
1570527121.30131
1570527121.31694
1570527121.33256
1570527121.34819
1570527121.36381
1570527121.37944
1570527121.39506
1570527121.41069
1570527121.42632
1570527121.44194
1570527121.45757
1570527121.47319
1570527121.48882
1570527121.50444
1570527121.52007
1570527121.5357
1570527121.55132
1570527121.56695
1570527121.58257
1570527121.5982
1570527121.61382
1570527121.62945
1570527121.64508
1570527121.6607
1570527121.67633
1570527121.69195
1570527121.70758
1570527121.7232
1570527121.73883
1570527121.75446
1570527121.77008
1570527121.78571
1570527121.80133
1570527121.81696
1570527121.83258
1570527121.84821
1570527121.86384
1570527121.87946
1570527121.89509
1570527121.91071
1570527121.92634
1570527121.94196
1570527121.95759
1570527121.97322
1570527121.98884
1570527122.00447
1570527122.02009
1570527122.03572
1570527122.05134
1570527122.06697
1570527122.0826
1570527122.09822
1570527122.11385
1570527122.12947
1570527122.1451
1570527122.16072
1570527122.17635
1570527122.19198
1570527122.2076
1570527122.22323
1570527122.23885
1570527122.25448
1570527122.2701
1570527122.28573
1570527122.30136
1570527122.31698
1570527122.33261
1570527122.34823
1570527122.36386
1570527122.37948
1570527122.39511
1570527122.41074
1570527122.42636
1570527122.44199
1570527122.45761
1570527122.47324
1570527122.48886
1570527122.50449
1570527122.52012
1570527122.53574
1570527122.55137
1570527122.56699
1570527122.58262
1570527122.59824
1570527122.61387
1570527122.6295
1570527122.64512
1570527122.66075
1570527122.67637
1570527122.692
1570527122.70762
1570527122.72325
1570527122.73888
1570527122.7545
1570527122.77013
1570527122.78575
1570527122.80138
1570527122.817
1570527122.83263
1570527122.84826
1570527122.86388
1570527122.87951
1570527122.89513
1570527122.91076
1570527122.92638
1570527122.94201
1570527122.95764
1570527122.97326
1570527122.98889
1570527123.00451
1570527123.02014
1570527123.03576
1570527123.05139
1570527123.06702
1570527123.08264
1570527123.09827
1570527123.11389
1570527123.12952
1570527123.14514
1570527123.16077
1570527123.1764
1570527123.19202
1570527123.20765
1570527123.22327
1570527123.2389
1570527123.25452
1570527123.27015
1570527123.28578
1570527123.3014
1570527123.31703
1570527123.33265
1570527123.34828
1570527123.3639
1570527123.37953
1570527123.39516
1570527123.41078
1570527123.42641
1570527123.44203
1570527123.45766
1570527123.47328
1570527123.48891
1570527123.50454
1570527123.52016
1570527123.53579
1570527123.55141
1570527123.56704
1570527123.58266
1570527123.59829
1570527123.61392
1570527123.62954
1570527123.64517
1570527123.66079
1570527123.67642
1570527123.69204
1570527123.70767
1570527123.7233
1570527123.73892
1570527123.75455
1570527123.77017
1570527123.7858
1570527123.80142
1570527123.81705
1570527123.83268
1570527123.8483
1570527123.86393
1570527123.87955
1570527123.89518
1570527123.9108
1570527123.92643
1570527123.94206
1570527123.95768
1570527123.97331
1570527123.98893
1570527124.00456
1570527124.02019
1570527124.03581
1570527124.05144
1570527124.06706
1570527124.08269
1570527124.09831
1570527124.11394
1570527124.12957
1570527124.14519
1570527124.16082
1570527124.17644
1570527124.19207
1570527124.20769
1570527124.22332
1570527124.23895
1570527124.25457
1570527124.2702
1570527124.28582
1570527124.30145
1570527124.31707
1570527124.3327
1570527124.34833
1570527124.36395
1570527124.37958
1570527124.3952
1570527124.41083
1570527124.42645
1570527124.44208
1570527124.45771
1570527124.47333
1570527124.48896
1570527124.50458
1570527124.52021
1570527124.53583
1570527124.55146
1570527124.56709
1570527124.58271
1570527124.59834
1570527124.61396
1570527124.62959
1570527124.64521
1570527124.66084
1570527124.67647
1570527124.69209
1570527124.70772
1570527124.72334
1570527124.73897
1570527124.75459
1570527124.77022
1570527124.78585
1570527124.80147
1570527124.8171
1570527124.83272
1570527124.84835
1570527124.86397
1570527124.8796
1570527124.89523
1570527124.91085
1570527124.92648
1570527124.9421
1570527124.95773
1570527124.97335
1570527124.98898
1570527125.00461
1570527125.02023
1570527125.03586
1570527125.05148
1570527125.06711
1570527125.08273
1570527125.09836
1570527125.11399
1570527125.12961
1570527125.14524
1570527125.16086
1570527125.17649
1570527125.19211
1570527125.20774
1570527125.22337
1570527125.23899
1570527125.25462
1570527125.27024
1570527125.28587
1570527125.30149
1570527125.31712
1570527125.33275
1570527125.34837
1570527125.364
1570527125.37962
1570527125.39525
1570527125.41087
1570527125.4265
1570527125.44213
1570527125.45775
1570527125.47338
1570527125.489
1570527125.50463
1570527125.52025
1570527125.53588
1570527125.55151
1570527125.56713
1570527125.58276
1570527125.59838
1570527125.61401
1570527125.62963
1570527125.64526
1570527125.66089
1570527125.67651
1570527125.69214
1570527125.70776
1570527125.72339
1570527125.73901
1570527125.75464
1570527125.77027
1570527125.78589
1570527125.80152
1570527125.81714
1570527125.83277
1570527125.84839
1570527125.86402
1570527125.87965
1570527125.89527
1570527125.9109
1570527125.92652
1570527125.94215
1570527125.95777
1570527125.9734
1570527125.98903
1570527126.00465
1570527126.02028
1570527126.0359
1570527126.05153
1570527126.06715
1570527126.08278
1570527126.09841
1570527126.11403
1570527126.12966
1570527126.14528
1570527126.16091
1570527126.17654
1570527126.19216
1570527126.20779
1570527126.22341
1570527126.23904
1570527126.25466
1570527126.27029
1570527126.28592
1570527126.30154
1570527126.31717
1570527126.33279
1570527126.34842
1570527126.36404
1570527126.37967
1570527126.3953
1570527126.41092
1570527126.42655
1570527126.44217
1570527126.4578
1570527126.47342
1570527126.48905
1570527126.50468
1570527126.5203
1570527126.53593
1570527126.55155
1570527126.56718
1570527126.5828
1570527126.59843
1570527126.61406
1570527126.62968
1570527126.64531
1570527126.66093
1570527126.67656
1570527126.69218
1570527126.70781
1570527126.72344
1570527126.73906
1570527126.75469
1570527126.77031
1570527126.78594
1570527126.80156
1570527126.81719
1570527126.83282
1570527126.84844
1570527126.86407
1570527126.87969
1570527126.89532
1570527126.91094
1570527126.92657
1570527126.9422
1570527126.95782
1570527126.97345
1570527126.98907
1570527127.0047
1570527127.02032
1570527127.03595
1570527127.05158
1570527127.0672
1570527127.08283
1570527127.09845
1570527127.11408
1570527127.1297
1570527127.14533
1570527127.16096
1570527127.17658
1570527127.19221
1570527127.20783
1570527127.22346
1570527127.23908
1570527127.25471
1570527127.27034
1570527127.28596
1570527127.30159
1570527127.31721
1570527127.33284
1570527127.34846
1570527127.36409
1570527127.37972
1570527127.39534
1570527127.41097
1570527127.42659
1570527127.44222
1570527127.45784
1570527127.47347
1570527127.4891
1570527127.50472
1570527127.52035
1570527127.53597
1570527127.5516
1570527127.56722
1570527127.58285
1570527127.59848
1570527127.6141
1570527127.62973
1570527127.64535
1570527127.66098
1570527127.6766
1570527127.69223
1570527127.70786
1570527127.72348
1570527127.73911
1570527127.75473
1570527127.77036
1570527127.78598
1570527127.80161
1570527127.81724
1570527127.83286
1570527127.84849
1570527127.86411
1570527127.87974
1570527127.89536
1570527127.91099
1570527127.92662
1570527127.94224
1570527127.95787
1570527127.97349
1570527127.98912
1570527128.00474
1570527128.02037
1570527128.036
1570527128.05162
1570527128.06725
1570527128.08287
1570527128.0985
1570527128.11412
1570527128.12975
1570527128.14538
1570527128.161
1570527128.17663
1570527128.19225
1570527128.20788
1570527128.2235
1570527128.23913
1570527128.25476
1570527128.27038
1570527128.28601
1570527128.30163
1570527128.31726
1570527128.33288
1570527128.34851
1570527128.36414
1570527128.37976
1570527128.39539
1570527128.41101
1570527128.42664
1570527128.44227
1570527128.45789
1570527128.47352
1570527128.48914
1570527128.50477
1570527128.52039
1570527128.53602
1570527128.55165
1570527128.56727
1570527128.5829
1570527128.59852
1570527128.61415
1570527128.62977
1570527128.6454
1570527128.66103
1570527128.67665
1570527128.69228
1570527128.7079
1570527128.72353
1570527128.73915
1570527128.75478
1570527128.77041
1570527128.78603
1570527128.80166
1570527128.81728
1570527128.83291
1570527128.84853
1570527128.86416
1570527128.87979
1570527128.89541
1570527128.91104
1570527128.92666
1570527128.94229
1570527128.95791
1570527128.97354
1570527128.98917
1570527129.00479
1570527129.02042
1570527129.03604
1570527129.05167
1570527129.06729
1570527129.08292
1570527129.09855
1570527129.11417
1570527129.1298
1570527129.14542
1570527129.16105
1570527129.17667
1570527129.1923
1570527129.20793
1570527129.22355
1570527129.23918
1570527129.2548
1570527129.27043
1570527129.28605
1570527129.30168
1570527129.31731
1570527129.33293
1570527129.34856
1570527129.36418
1570527129.37981
1570527129.39543
1570527129.41106
1570527129.42669
1570527129.44231
1570527129.45794
1570527129.47356
1570527129.48919
1570527129.50481
1570527129.52044
1570527129.53607
1570527129.55169
1570527129.56732
1570527129.58294
1570527129.59857
1570527129.61419
1570527129.62982
1570527129.64545
1570527129.66107
1570527129.6767
1570527129.69232
1570527129.70795
1570527129.72357
1570527129.7392
1570527129.75483
1570527129.77045
1570527129.78608
1570527129.8017
1570527129.81733
1570527129.83295
1570527129.84858
1570527129.86421
1570527129.87983
1570527129.89546
1570527129.91108
1570527129.92671
1570527129.94233
1570527129.95796
1570527129.97359
1570527129.98921
1570527130.00484
1570527130.02046
1570527130.03609
1570527130.05171
1570527130.06734
1570527130.08297
1570527130.09859
1570527130.11422
1570527130.12984
1570527130.14547
1570527130.16109
1570527130.17672
1570527130.19235
1570527130.20797
1570527130.2236
1570527130.23922
1570527130.25485
1570527130.27047
1570527130.2861
1570527130.30173
1570527130.31735
1570527130.33298
1570527130.3486
1570527130.36423
1570527130.37985
1570527130.39548
1570527130.41111
1570527130.42673
1570527130.44236
1570527130.45798
1570527130.47361
1570527130.48923
1570527130.50486
1570527130.52049
1570527130.53611
1570527130.55174
1570527130.56736
1570527130.58299
1570527130.59861
1570527130.61424
1570527130.62987
1570527130.64549
1570527130.66112
1570527130.67674
1570527130.69237
1570527130.70799
1570527130.72362
1570527130.73925
1570527130.75487
1570527130.7705
1570527130.78612
1570527130.80175
1570527130.81737
1570527130.833
1570527130.84863
1570527130.86425
1570527130.87988
1570527130.8955
1570527130.91113
1570527130.92675
1570527130.94238
1570527130.95801
1570527130.97363
1570527130.98926
1570527131.00488
1570527131.02051
1570527131.03614
1570527131.05176
1570527131.06739
1570527131.08301
1570527131.09864
1570527131.11426
1570527131.12989
1570527131.14552
1570527131.16114
1570527131.17677
1570527131.19239
1570527131.20802
1570527131.22364
1570527131.23927
1570527131.2549
1570527131.27052
1570527131.28615
1570527131.30177
1570527131.3174
1570527131.33302
1570527131.34865
1570527131.36428
1570527131.3799
1570527131.39553
1570527131.41115
1570527131.42678
1570527131.4424
1570527131.45803
1570527131.47366
1570527131.48928
1570527131.50491
1570527131.52053
1570527131.53616
1570527131.55178
1570527131.56741
1570527131.58304
1570527131.59866
1570527131.61429
1570527131.62991
1570527131.64554
1570527131.66116
1570527131.67679
1570527131.69242
1570527131.70804
1570527131.72367
1570527131.73929
1570527131.75492
1570527131.77054
1570527131.78617
1570527131.8018
1570527131.81742
1570527131.83305
1570527131.84867
1570527131.8643
1570527131.87992
1570527131.89555
1570527131.91118
1570527131.9268
1570527131.94243
1570527131.95805
1570527131.97368
1570527131.9893
1570527132.00493
1570527132.02056
1570527132.03618
1570527132.05181
1570527132.06743
1570527132.08306
1570527132.09868
1570527132.11431
1570527132.12994
1570527132.14556
1570527132.16119
1570527132.17681
1570527132.19244
1570527132.20806
1570527132.22369
1570527132.23932
1570527132.25494
1570527132.27057
1570527132.28619
1570527132.30182
1570527132.31744
1570527132.33307
1570527132.3487
1570527132.36432
1570527132.37995
1570527132.39557
1570527132.4112
1570527132.42682
1570527132.44245
1570527132.45808
1570527132.4737
1570527132.48933
1570527132.50495
1570527132.52058
1570527132.5362
1570527132.55183
1570527132.56746
1570527132.58308
1570527132.59871
1570527132.61433
1570527132.62996
1570527132.64558
1570527132.66121
1570527132.67684
1570527132.69246
1570527132.70809
1570527132.72371
1570527132.73934
1570527132.75496
1570527132.77059
1570527132.78622
1570527132.80184
1570527132.81747
1570527132.83309
1570527132.84872
1570527132.86434
1570527132.87997
1570527132.8956
1570527132.91122
1570527132.92685
1570527132.94247
1570527132.9581
1570527132.97372
1570527132.98935
1570527133.00498
1570527133.0206
1570527133.03623
1570527133.05185
1570527133.06748
1570527133.0831
1570527133.09873
1570527133.11436
1570527133.12998
1570527133.14561
1570527133.16123
1570527133.17686
1570527133.19248
1570527133.20811
1570527133.22374
1570527133.23936
1570527133.25499
1570527133.27061
1570527133.28624
1570527133.30187
1570527133.31749
1570527133.33312
1570527133.34874
1570527133.36437
1570527133.37999
1570527133.39562
1570527133.41125
1570527133.42687
1570527133.4425
1570527133.45812
1570527133.47375
1570527133.48937
1570527133.505
1570527133.52063
1570527133.53625
1570527133.55188
1570527133.5675
1570527133.58313
1570527133.59875
1570527133.61438
1570527133.63001
1570527133.64563
1570527133.66126
1570527133.67688
1570527133.69251
1570527133.70813
1570527133.72376
1570527133.73939
1570527133.75501
1570527133.77064
1570527133.78626
1570527133.80189
1570527133.81751
1570527133.83314
1570527133.84877
1570527133.86439
1570527133.88002
1570527133.89564
1570527133.91127
1570527133.92689
1570527133.94252
1570527133.95815
1570527133.97377
1570527133.9894
1570527134.00502
1570527134.02065
1570527134.03627
1570527134.0519
1570527134.06753
1570527134.08315
1570527134.09878
1570527134.1144
1570527134.13003
1570527134.14565
1570527134.16128
1570527134.17691
1570527134.19253
1570527134.20816
1570527134.22378
1570527134.23941
1570527134.25503
1570527134.27066
1570527134.28629
1570527134.30191
1570527134.31754
1570527134.33316
1570527134.34879
1570527134.36441
1570527134.38004
1570527134.39567
1570527134.41129
1570527134.42692
1570527134.44254
1570527134.45817
1570527134.47379
1570527134.48942
1570527134.50505
1570527134.52067
1570527134.5363
1570527134.55192
1570527134.56755
1570527134.58317
1570527134.5988
1570527134.61443
1570527134.63005
1570527134.64568
1570527134.6613
1570527134.67693
1570527134.69255
1570527134.70818
1570527134.72381
1570527134.73943
1570527134.75506
1570527134.77068
1570527134.78631
1570527134.80193
1570527134.81756
1570527134.83319
1570527134.84881
1570527134.86444
1570527134.88006
1570527134.89569
1570527134.91131
1570527134.92694
1570527134.94257
1570527134.95819
1570527134.97382
1570527134.98944
1570527135.00507
1570527135.02069
1570527135.03632
1570527135.05195
1570527135.06757
1570527135.0832
1570527135.09882
1570527135.11445
1570527135.13007
1570527135.1457
1570527135.16133
1570527135.17695
1570527135.19258
1570527135.2082
1570527135.22383
1570527135.23945
1570527135.25508
1570527135.27071
1570527135.28633
1570527135.30196
1570527135.31758
1570527135.33321
1570527135.34883
1570527135.36446
1570527135.38009
1570527135.39571
1570527135.41134
1570527135.42696
1570527135.44259
1570527135.45822
1570527135.47384
1570527135.48947
1570527135.50509
1570527135.52072
1570527135.53634
1570527135.55197
1570527135.5676
1570527135.58322
1570527135.59885
1570527135.61447
1570527135.6301
1570527135.64572
1570527135.66135
1570527135.67698
1570527135.6926
1570527135.70823
1570527135.72385
1570527135.73948
1570527135.7551
1570527135.77073
1570527135.78636
1570527135.80198
1570527135.81761
1570527135.83323
1570527135.84886
1570527135.86448
1570527135.88011
1570527135.89574
1570527135.91136
1570527135.92699
1570527135.94261
1570527135.95824
1570527135.97386
1570527135.98949
1570527136.00512
1570527136.02074
1570527136.03637
1570527136.05199
1570527136.06762
1570527136.08324
1570527136.09887
1570527136.1145
1570527136.13012
1570527136.14575
1570527136.16137
1570527136.177
1570527136.19262
1570527136.20825
1570527136.22388
1570527136.2395
1570527136.25513
1570527136.27075
1570527136.28638
1570527136.302
1570527136.31763
1570527136.33326
1570527136.34888
1570527136.36451
1570527136.38013
1570527136.39576
1570527136.41138
1570527136.42701
1570527136.44264
1570527136.45826
1570527136.47389
1570527136.48951
1570527136.50514
1570527136.52076
1570527136.53639
1570527136.55202
1570527136.56764
1570527136.58327
1570527136.59889
1570527136.61452
1570527136.63014
1570527136.64577
1570527136.6614
1570527136.67702
1570527136.69265
1570527136.70827
1570527136.7239
1570527136.73952
1570527136.75515
1570527136.77078
1570527136.7864
1570527136.80203
1570527136.81765
1570527136.83328
1570527136.8489
1570527136.86453
1570527136.88016
1570527136.89578
1570527136.91141
1570527136.92703
1570527136.94266
1570527136.95828
1570527136.97391
1570527136.98954
1570527137.00516
1570527137.02079
1570527137.03641
1570527137.05204
1570527137.06766
1570527137.08329
1570527137.09892
1570527137.11454
1570527137.13017
1570527137.14579
1570527137.16142
1570527137.17704
1570527137.19267
1570527137.2083
1570527137.22392
1570527137.23955
1570527137.25517
1570527137.2708
1570527137.28642
1570527137.30205
1570527137.31768
1570527137.3333
1570527137.34893
1570527137.36455
1570527137.38018
1570527137.3958
1570527137.41143
1570527137.42706
1570527137.44268
1570527137.45831
1570527137.47393
1570527137.48956
1570527137.50518
1570527137.52081
1570527137.53644
1570527137.55206
1570527137.56769
1570527137.58331
1570527137.59894
1570527137.61456
1570527137.63019
1570527137.64582
1570527137.66144
1570527137.67707
1570527137.69269
1570527137.70832
1570527137.72394
1570527137.73957
1570527137.7552
1570527137.77082
1570527137.78645
1570527137.80207
1570527137.8177
1570527137.83332
1570527137.84895
1570527137.86458
1570527137.8802
1570527137.89583
1570527137.91145
1570527137.92708
1570527137.9427
1570527137.95833
1570527137.97396
1570527137.98958
1570527138.00521
1570527138.02083
1570527138.03646
1570527138.05208
1570527138.06771
1570527138.08334
1570527138.09896
1570527138.11459
1570527138.13021
1570527138.14584
1570527138.16147
1570527138.17709
1570527138.19272
1570527138.20834
1570527138.22397
1570527138.23959
1570527138.25522
1570527138.27085
1570527138.28647
1570527138.3021
1570527138.31772
1570527138.33335
1570527138.34897
1570527138.3646
1570527138.38023
1570527138.39585
1570527138.41148
1570527138.4271
1570527138.44273
1570527138.45835
1570527138.47398
1570527138.48961
1570527138.50523
1570527138.52086
1570527138.53648
1570527138.55211
1570527138.56773
1570527138.58336
1570527138.59899
1570527138.61461
1570527138.63024
1570527138.64586
1570527138.66149
1570527138.67711
1570527138.69274
1570527138.70837
1570527138.72399
1570527138.73962
1570527138.75524
1570527138.77087
1570527138.78649
1570527138.80212
1570527138.81775
1570527138.83337
1570527138.849
1570527138.86462
1570527138.88025
1570527138.89587
1570527138.9115
1570527138.92713
1570527138.94275
1570527138.95838
1570527138.974
1570527138.98963
1570527139.00525
1570527139.02088
1570527139.03651
1570527139.05213
1570527139.06776
1570527139.08338
1570527139.09901
1570527139.11463
1570527139.13026
1570527139.14589
1570527139.16151
1570527139.17714
1570527139.19276
1570527139.20839
1570527139.22401
1570527139.23964
1570527139.25527
1570527139.27089
1570527139.28652
1570527139.30214
1570527139.31777
1570527139.33339
1570527139.34902
1570527139.36465
1570527139.38027
1570527139.3959
1570527139.41152
1570527139.42715
1570527139.44277
1570527139.4584
1570527139.47403
1570527139.48965
1570527139.50528
1570527139.5209
1570527139.53653
1570527139.55215
1570527139.56778
1570527139.58341
1570527139.59903
1570527139.61466
1570527139.63028
1570527139.64591
1570527139.66153
1570527139.67716
1570527139.69279
1570527139.70841
1570527139.72404
1570527139.73966
1570527139.75529
1570527139.77091
1570527139.78654
1570527139.80217
1570527139.81779
1570527139.83342
1570527139.84904
1570527139.86467
1570527139.88029
1570527139.89592
1570527139.91155
1570527139.92717
1570527139.9428
1570527139.95842
1570527139.97405
1570527139.98967
1570527140.0053
1570527140.02093
1570527140.03655
1570527140.05218
1570527140.0678
1570527140.08343
1570527140.09905
1570527140.11468
1570527140.13031
1570527140.14593
1570527140.16156
1570527140.17718
1570527140.19281
1570527140.20843
1570527140.22406
1570527140.23969
1570527140.25531
1570527140.27094
1570527140.28656
1570527140.30219
1570527140.31781
1570527140.33344
1570527140.34907
1570527140.36469
1570527140.38032
1570527140.39594
1570527140.41157
1570527140.4272
1570527140.44282
1570527140.45845
1570527140.47407
1570527140.4897
1570527140.50532
1570527140.52095
1570527140.53658
1570527140.5522
1570527140.56783
1570527140.58345
1570527140.59908
1570527140.6147
1570527140.63033
1570527140.64596
1570527140.66158
1570527140.67721
1570527140.69283
1570527140.70846
1570527140.72408
1570527140.73971
1570527140.75534
1570527140.77096
1570527140.78659
1570527140.80221
1570527140.81784
1570527140.83346
1570527140.84909
1570527140.86472
1570527140.88034
1570527140.89597
1570527140.91159
1570527140.92722
1570527140.94284
1570527140.95847
1570527140.9741
1570527140.98972
1570527141.00535
1570527141.02097
1570527141.0366
1570527141.05222
1570527141.06785
1570527141.08348
1570527141.0991
1570527141.11473
1570527141.13035
1570527141.14598
1570527141.1616
1570527141.17723
1570527141.19286
1570527141.20848
1570527141.22411
1570527141.23973
1570527141.25536
1570527141.27098
1570527141.28661
1570527141.30224
1570527141.31786
1570527141.33349
1570527141.34911
1570527141.36474
1570527141.38036
1570527141.39599
1570527141.41162
1570527141.42724
1570527141.44287
1570527141.45849
1570527141.47412
1570527141.48974
1570527141.50537
1570527141.521
1570527141.53662
1570527141.55225
1570527141.56787
1570527141.5835
1570527141.59912
1570527141.61475
1570527141.63038
1570527141.646
1570527141.66163
1570527141.67725
1570527141.69288
1570527141.7085
1570527141.72413
1570527141.73976
1570527141.75538
1570527141.77101
1570527141.78663
1570527141.80226
1570527141.81788
1570527141.83351
1570527141.84914
1570527141.86476
1570527141.88039
1570527141.89601
1570527141.91164
1570527141.92726
1570527141.94289
1570527141.95852
1570527141.97414
1570527141.98977
1570527142.00539
1570527142.02102
1570527142.03664
1570527142.05227
1570527142.0679
1570527142.08352
1570527142.09915
1570527142.11477
1570527142.1304
1570527142.14602
1570527142.16165
1570527142.17728
1570527142.1929
1570527142.20853
1570527142.22415
1570527142.23978
1570527142.2554
1570527142.27103
1570527142.28666
1570527142.30228
1570527142.31791
1570527142.33353
1570527142.34916
1570527142.36478
1570527142.38041
1570527142.39604
1570527142.41166
1570527142.42729
1570527142.44291
1570527142.45854
1570527142.47416
1570527142.48979
1570527142.50542
1570527142.52104
1570527142.53667
1570527142.55229
1570527142.56792
1570527142.58354
1570527142.59917
1570527142.6148
1570527142.63042
1570527142.64605
1570527142.66167
1570527142.6773
1570527142.69292
1570527142.70855
1570527142.72418
1570527142.7398
1570527142.75543
1570527142.77105
1570527142.78668
1570527142.8023
1570527142.81793
1570527142.83356
1570527142.84918
1570527142.86481
1570527142.88043
1570527142.89606
1570527142.91168
1570527142.92731
1570527142.94294
1570527142.95856
1570527142.97419
1570527142.98981
1570527143.00544
1570527143.02107
1570527143.03669
1570527143.05232
1570527143.06794
1570527143.08357
1570527143.09919
1570527143.11482
1570527143.13045
1570527143.14607
1570527143.1617
1570527143.17732
1570527143.19295
1570527143.20857
1570527143.2242
1570527143.23983
1570527143.25545
1570527143.27108
1570527143.2867
1570527143.30233
1570527143.31795
1570527143.33358
1570527143.34921
1570527143.36483
1570527143.38046
1570527143.39608
1570527143.41171
1570527143.42733
1570527143.44296
1570527143.45859
1570527143.47421
1570527143.48984
1570527143.50546
1570527143.52109
1570527143.53671
1570527143.55234
1570527143.56797
1570527143.58359
1570527143.59922
1570527143.61484
1570527143.63047
1570527143.64609
1570527143.66172
1570527143.67735
1570527143.69297
1570527143.7086
1570527143.72422
1570527143.73985
1570527143.75547
1570527143.7711
1570527143.78673
1570527143.80235
1570527143.81798
1570527143.8336
1570527143.84923
1570527143.86485
1570527143.88048
1570527143.89611
1570527143.91173
1570527143.92736
1570527143.94298
1570527143.95861
1570527143.97423
1570527143.98986
1570527144.00549
1570527144.02111
1570527144.03674
1570527144.05236
1570527144.06799
1570527144.08361
1570527144.09924
1570527144.11487
1570527144.13049
1570527144.14612
1570527144.16174
1570527144.17737
1570527144.19299
1570527144.20862
1570527144.22425
1570527144.23987
1570527144.2555
1570527144.27112
1570527144.28675
1570527144.30237
1570527144.318
1570527144.33363
1570527144.34925
1570527144.36488
1570527144.3805
1570527144.39613
1570527144.41175
1570527144.42738
1570527144.44301
1570527144.45863
1570527144.47426
1570527144.48988
1570527144.50551
1570527144.52113
1570527144.53676
1570527144.55239
1570527144.56801
1570527144.58364
1570527144.59926
1570527144.61489
1570527144.63051
1570527144.64614
1570527144.66177
1570527144.67739
1570527144.69302
1570527144.70864
1570527144.72427
1570527144.73989
1570527144.75552
1570527144.77115
1570527144.78677
1570527144.8024
1570527144.81802
1570527144.83365
1570527144.84927
1570527144.8649
1570527144.88053
1570527144.89615
1570527144.91178
1570527144.9274
1570527144.94303
1570527144.95865
1570527144.97428
1570527144.98991
1570527145.00553
1570527145.02116
1570527145.03678
1570527145.05241
1570527145.06803
1570527145.08366
1570527145.09929
1570527145.11491
1570527145.13054
1570527145.14616
1570527145.16179
1570527145.17741
1570527145.19304
1570527145.20867
1570527145.22429
1570527145.23992
1570527145.25554
1570527145.27117
1570527145.2868
1570527145.30242
1570527145.31805
1570527145.33367
1570527145.3493
1570527145.36492
1570527145.38055
1570527145.39618
1570527145.4118
1570527145.42743
1570527145.44305
1570527145.45868
1570527145.4743
1570527145.48993
1570527145.50556
1570527145.52118
1570527145.53681
1570527145.55243
1570527145.56806
1570527145.58368
1570527145.59931
1570527145.61494
1570527145.63056
1570527145.64619
1570527145.66181
1570527145.67744
1570527145.69306
1570527145.70869
1570527145.72432
1570527145.73994
1570527145.75557
1570527145.77119
1570527145.78682
1570527145.80244
1570527145.81807
1570527145.8337
1570527145.84932
1570527145.86495
1570527145.88057
1570527145.8962
1570527145.91182
1570527145.92745
1570527145.94308
1570527145.9587
1570527145.97433
1570527145.98995
1570527146.00558
1570527146.0212
1570527146.03683
1570527146.05246
1570527146.06808
1570527146.08371
1570527146.09933
1570527146.11496
1570527146.13058
1570527146.14621
1570527146.16184
1570527146.17746
1570527146.19309
1570527146.20871
1570527146.22434
1570527146.23996
1570527146.25559
1570527146.27122
1570527146.28684
1570527146.30247
1570527146.31809
1570527146.33372
1570527146.34934
1570527146.36497
1570527146.3806
1570527146.39622
1570527146.41185
1570527146.42747
1570527146.4431
1570527146.45872
1570527146.47435
1570527146.48998
1570527146.5056
1570527146.52123
1570527146.53685
1570527146.55248
1570527146.5681
1570527146.58373
1570527146.59936
1570527146.61498
1570527146.63061
1570527146.64623
1570527146.66186
1570527146.67748
1570527146.69311
1570527146.70874
1570527146.72436
1570527146.73999
1570527146.75561
1570527146.77124
1570527146.78686
1570527146.80249
1570527146.81812
1570527146.83374
1570527146.84937
1570527146.86499
1570527146.88062
1570527146.89624
1570527146.91187
1570527146.9275
1570527146.94312
1570527146.95875
1570527146.97437
1570527146.99
1570527147.00562
1570527147.02125
1570527147.03688
1570527147.0525
1570527147.06813
1570527147.08375
1570527147.09938
1570527147.115
1570527147.13063
1570527147.14626
1570527147.16188
1570527147.17751
1570527147.19313
1570527147.20876
1570527147.22438
1570527147.24001
1570527147.25564
1570527147.27126
1570527147.28689
1570527147.30251
1570527147.31814
1570527147.33376
1570527147.34939
1570527147.36502
1570527147.38064
1570527147.39627
1570527147.41189
1570527147.42752
1570527147.44315
1570527147.45877
1570527147.4744
1570527147.49002
1570527147.50565
1570527147.52127
1570527147.5369
1570527147.55253
1570527147.56815
1570527147.58378
1570527147.5994
1570527147.61503
1570527147.63065
1570527147.64628
1570527147.66191
1570527147.67753
1570527147.69316
1570527147.70878
1570527147.72441
1570527147.74003
1570527147.75566
1570527147.77129
1570527147.78691
1570527147.80254
1570527147.81816
1570527147.83379
1570527147.84941
1570527147.86504
1570527147.88067
1570527147.89629
1570527147.91192
1570527147.92754
1570527147.94317
1570527147.95879
1570527147.97442
1570527147.99005
1570527148.00567
1570527148.0213
1570527148.03692
1570527148.05255
1570527148.06817
1570527148.0838
1570527148.09943
1570527148.11505
1570527148.13068
1570527148.1463
1570527148.16193
1570527148.17755
1570527148.19318
1570527148.20881
1570527148.22443
1570527148.24006
1570527148.25568
1570527148.27131
1570527148.28693
1570527148.30256
1570527148.31819
1570527148.33381
1570527148.34944
1570527148.36506
1570527148.38069
1570527148.39631
1570527148.41194
1570527148.42757
1570527148.44319
1570527148.45882
1570527148.47444
1570527148.49007
1570527148.50569
1570527148.52132
1570527148.53695
1570527148.55257
1570527148.5682
1570527148.58382
1570527148.59945
1570527148.61507
1570527148.6307
1570527148.64633
1570527148.66195
1570527148.67758
1570527148.6932
1570527148.70883
1570527148.72445
1570527148.74008
1570527148.75571
1570527148.77133
1570527148.78696
1570527148.80258
1570527148.81821
1570527148.83383
1570527148.84946
1570527148.86509
1570527148.88071
1570527148.89634
1570527148.91196
1570527148.92759
1570527148.94321
1570527148.95884
1570527148.97447
1570527148.99009
1570527149.00572
1570527149.02134
1570527149.03697
1570527149.05259
1570527149.06822
1570527149.08385
1570527149.09947
1570527149.1151
1570527149.13072
1570527149.14635
1570527149.16197
1570527149.1776
1570527149.19323
1570527149.20885
1570527149.22448
1570527149.2401
1570527149.25573
1570527149.27135
1570527149.28698
1570527149.30261
1570527149.31823
1570527149.33386
1570527149.34948
1570527149.36511
1570527149.38073
1570527149.39636
1570527149.41199
1570527149.42761
1570527149.44324
1570527149.45886
1570527149.47449
1570527149.49011
1570527149.50574
1570527149.52137
1570527149.53699
1570527149.55262
1570527149.56824
1570527149.58387
1570527149.59949
1570527149.61512
1570527149.63075
1570527149.64637
1570527149.662
1570527149.67762
1570527149.69325
1570527149.70887
1570527149.7245
1570527149.74013
1570527149.75575
1570527149.77138
1570527149.787
1570527149.80263
1570527149.81825
1570527149.83388
1570527149.84951
1570527149.86513
1570527149.88076
1570527149.89638
1570527149.91201
1570527149.92763
1570527149.94326
1570527149.95889
1570527149.97451
1570527149.99014
1570527150.00576
1570527150.02139
1570527150.03701
1570527150.05264
1570527150.06827
1570527150.08389
1570527150.09952
1570527150.11514
1570527150.13077
1570527150.1464
1570527150.16202
1570527150.17765
1570527150.19327
1570527150.2089
1570527150.22452
1570527150.24015
1570527150.25578
1570527150.2714
1570527150.28703
1570527150.30265
1570527150.31828
1570527150.3339
1570527150.34953
1570527150.36516
1570527150.38078
1570527150.39641
1570527150.41203
1570527150.42766
1570527150.44328
1570527150.45891
1570527150.47454
1570527150.49016
1570527150.50579
1570527150.52141
1570527150.53704
1570527150.55266
1570527150.56829
1570527150.58392
1570527150.59954
1570527150.61517
1570527150.63079
1570527150.64642
1570527150.66204
1570527150.67767
1570527150.6933
1570527150.70892
1570527150.72455
1570527150.74017
1570527150.7558
1570527150.77142
1570527150.78705
1570527150.80268
1570527150.8183
1570527150.83393
1570527150.84955
1570527150.86518
1570527150.8808
1570527150.89643
1570527150.91206
1570527150.92768
1570527150.94331
1570527150.95893
1570527150.97456
1570527150.99018
1570527151.00581
1570527151.02144
1570527151.03706
1570527151.05269
1570527151.06831
1570527151.08394
1570527151.09956
1570527151.11519
1570527151.13082
1570527151.14644
1570527151.16207
1570527151.17769
1570527151.19332
1570527151.20894
1570527151.22457
1570527151.2402
1570527151.25582
1570527151.27145
1570527151.28707
1570527151.3027
1570527151.31832
1570527151.33395
1570527151.34958
1570527151.3652
1570527151.38083
1570527151.39645
1570527151.41208
1570527151.4277
1570527151.44333
1570527151.45896
1570527151.47458
1570527151.49021
1570527151.50583
1570527151.52146
1570527151.53708
1570527151.55271
1570527151.56834
1570527151.58396
1570527151.59959
1570527151.61521
1570527151.63084
1570527151.64646
1570527151.66209
1570527151.67772
1570527151.69334
1570527151.70897
1570527151.72459
1570527151.74022
1570527151.75584
1570527151.77147
1570527151.7871
1570527151.80272
1570527151.81835
1570527151.83397
1570527151.8496
1570527151.86522
1570527151.88085
1570527151.89648
1570527151.9121
1570527151.92773
1570527151.94335
1570527151.95898
1570527151.9746
1570527151.99023
1570527152.00586
1570527152.02148
1570527152.03711
1570527152.05273
1570527152.06836
1570527152.08398
1570527152.09961
1570527152.11524
1570527152.13086
1570527152.14649
1570527152.16211
1570527152.17774
1570527152.19336
1570527152.20899
1570527152.22462
1570527152.24024
1570527152.25587
1570527152.27149
1570527152.28712
1570527152.30275
1570527152.31837
1570527152.334
1570527152.34962
1570527152.36525
1570527152.38087
1570527152.3965
1570527152.41213
1570527152.42775
1570527152.44338
1570527152.459
1570527152.47463
1570527152.49025
1570527152.50588
1570527152.52151
1570527152.53713
1570527152.55276
1570527152.56838
1570527152.58401
1570527152.59963
1570527152.61526
1570527152.63089
1570527152.64651
1570527152.66214
1570527152.67776
1570527152.69339
1570527152.70901
1570527152.72464
1570527152.74027
1570527152.75589
1570527152.77152
1570527152.78714
1570527152.80277
1570527152.81839
1570527152.83402
1570527152.84965
1570527152.86527
1570527152.8809
1570527152.89652
1570527152.91215
1570527152.92777
1570527152.9434
1570527152.95903
1570527152.97465
1570527152.99028
1570527153.0059
1570527153.02153
1570527153.03715
1570527153.05278
1570527153.06841
1570527153.08403
1570527153.09966
1570527153.11528
1570527153.13091
1570527153.14653
1570527153.16216
1570527153.17779
1570527153.19341
1570527153.20904
1570527153.22466
1570527153.24029
1570527153.25591
1570527153.27154
1570527153.28717
1570527153.30279
1570527153.31842
1570527153.33404
1570527153.34967
1570527153.36529
1570527153.38092
1570527153.39655
1570527153.41217
1570527153.4278
1570527153.44342
1570527153.45905
1570527153.47467
1570527153.4903
1570527153.50593
1570527153.52155
1570527153.53718
1570527153.5528
1570527153.56843
1570527153.58405
1570527153.59968
1570527153.61531
1570527153.63093
1570527153.64656
1570527153.66218
1570527153.67781
1570527153.69343
1570527153.70906
1570527153.72469
1570527153.74031
1570527153.75594
1570527153.77156
1570527153.78719
1570527153.80281
1570527153.81844
1570527153.83407
1570527153.84969
1570527153.86532
1570527153.88094
1570527153.89657
1570527153.91219
1570527153.92782
1570527153.94345
1570527153.95907
1570527153.9747
1570527153.99032
1570527154.00595
1570527154.02157
1570527154.0372
1570527154.05283
1570527154.06845
1570527154.08408
1570527154.0997
1570527154.11533
1570527154.13095
1570527154.14658
1570527154.16221
1570527154.17783
1570527154.19346
1570527154.20908
1570527154.22471
1570527154.24033
1570527154.25596
1570527154.27159
1570527154.28721
1570527154.30284
1570527154.31846
1570527154.33409
1570527154.34971
1570527154.36534
1570527154.38097
1570527154.39659
1570527154.41222
1570527154.42784
1570527154.44347
1570527154.45909
1570527154.47472
1570527154.49035
1570527154.50597
1570527154.5216
1570527154.53722
1570527154.55285
1570527154.56848
1570527154.5841
1570527154.59973
1570527154.61535
1570527154.63098
1570527154.6466
1570527154.66223
1570527154.67786
1570527154.69348
1570527154.70911
1570527154.72473
1570527154.74036
1570527154.75598
1570527154.77161
1570527154.78724
1570527154.80286
1570527154.81849
1570527154.83411
1570527154.84974
1570527154.86536
1570527154.88099
1570527154.89662
1570527154.91224
1570527154.92787
1570527154.94349
1570527154.95912
1570527154.97474
1570527154.99037
1570527155.006
1570527155.02162
1570527155.03725
1570527155.05287
1570527155.0685
1570527155.08412
1570527155.09975
1570527155.11538
1570527155.131
1570527155.14663
1570527155.16225
1570527155.17788
1570527155.1935
1570527155.20913
1570527155.22476
1570527155.24038
1570527155.25601
1570527155.27163
1570527155.28726
1570527155.30288
1570527155.31851
1570527155.33414
1570527155.34976
1570527155.36539
1570527155.38101
1570527155.39664
1570527155.41226
1570527155.42789
1570527155.44352
1570527155.45914
1570527155.47477
1570527155.49039
1570527155.50602
1570527155.52164
1570527155.53727
1570527155.5529
1570527155.56852
1570527155.58415
1570527155.59977
1570527155.6154
1570527155.63102
1570527155.64665
1570527155.66228
1570527155.6779
1570527155.69353
1570527155.70915
1570527155.72478
1570527155.7404
1570527155.75603
1570527155.77166
1570527155.78728
1570527155.80291
1570527155.81853
1570527155.83416
1570527155.84978
1570527155.86541
1570527155.88104
1570527155.89666
1570527155.91229
1570527155.92791
1570527155.94354
1570527155.95916
1570527155.97479
1570527155.99042
1570527156.00604
1570527156.02167
1570527156.03729
1570527156.05292
1570527156.06854
1570527156.08417
1570527156.0998
1570527156.11542
1570527156.13105
1570527156.14667
1570527156.1623
1570527156.17792
1570527156.19355
1570527156.20918
1570527156.2248
1570527156.24043
1570527156.25605
1570527156.27168
1570527156.2873
1570527156.30293
1570527156.31856
1570527156.33418
1570527156.34981
1570527156.36543
1570527156.38106
1570527156.39668
1570527156.41231
1570527156.42794
1570527156.44356
1570527156.45919
1570527156.47481
1570527156.49044
1570527156.50606
1570527156.52169
1570527156.53732
1570527156.55294
1570527156.56857
1570527156.58419
1570527156.59982
1570527156.61544
1570527156.63107
1570527156.6467
1570527156.66232
1570527156.67795
1570527156.69357
1570527156.7092
1570527156.72482
1570527156.74045
1570527156.75608
1570527156.7717
1570527156.78733
1570527156.80295
1570527156.81858
1570527156.8342
1570527156.84983
1570527156.86546
1570527156.88108
1570527156.89671
1570527156.91233
1570527156.92796
1570527156.94358
1570527156.95921
1570527156.97484
1570527156.99046
1570527157.00609
1570527157.02171
1570527157.03734
1570527157.05296
1570527157.06859
1570527157.08422
1570527157.09984
1570527157.11547
1570527157.13109
1570527157.14672
1570527157.16235
1570527157.17797
1570527157.1936
1570527157.20922
1570527157.22485
1570527157.24047
1570527157.2561
1570527157.27173
1570527157.28735
1570527157.30298
1570527157.3186
1570527157.33423
1570527157.34985
1570527157.36548
1570527157.38111
1570527157.39673
1570527157.41236
1570527157.42798
1570527157.44361
1570527157.45923
1570527157.47486
1570527157.49049
1570527157.50611
1570527157.52174
1570527157.53736
1570527157.55299
1570527157.56861
1570527157.58424
1570527157.59987
1570527157.61549
1570527157.63112
1570527157.64674
1570527157.66237
1570527157.67799
1570527157.69362
1570527157.70925
1570527157.72487
1570527157.7405
1570527157.75612
1570527157.77175
1570527157.78737
1570527157.803
1570527157.81863
1570527157.83425
1570527157.84988
1570527157.8655
1570527157.88113
1570527157.89675
1570527157.91238
1570527157.92801
1570527157.94363
1570527157.95926
1570527157.97488
1570527157.99051
1570527158.00613
1570527158.02176
1570527158.03739
1570527158.05301
1570527158.06864
1570527158.08426
1570527158.09989
1570527158.11551
1570527158.13114
1570527158.14677
1570527158.16239
1570527158.17802
1570527158.19364
1570527158.20927
1570527158.22489
1570527158.24052
1570527158.25615
1570527158.27177
1570527158.2874
1570527158.30302
1570527158.31865
1570527158.33427
1570527158.3499
1570527158.36553
1570527158.38115
1570527158.39678
1570527158.4124
1570527158.42803
1570527158.44365
1570527158.45928
1570527158.47491
1570527158.49053
1570527158.50616
1570527158.52178
1570527158.53741
1570527158.55303
1570527158.56866
1570527158.58429
1570527158.59991
1570527158.61554
1570527158.63116
1570527158.64679
1570527158.66241
1570527158.67804
1570527158.69367
1570527158.70929
1570527158.72492
1570527158.74054
1570527158.75617
1570527158.77179
1570527158.78742
1570527158.80305
1570527158.81867
1570527158.8343
1570527158.84992
1570527158.86555
1570527158.88117
1570527158.8968
1570527158.91243
1570527158.92805
1570527158.94368
1570527158.9593
1570527158.97493
1570527158.99055
1570527159.00618
1570527159.02181
1570527159.03743
1570527159.05306
1570527159.06868
1570527159.08431
1570527159.09993
1570527159.11556
1570527159.13119
1570527159.14681
1570527159.16244
1570527159.17806
1570527159.19369
1570527159.20931
1570527159.22494
1570527159.24057
1570527159.25619
1570527159.27182
1570527159.28744
1570527159.30307
1570527159.31869
1570527159.33432
1570527159.34995
1570527159.36557
1570527159.3812
1570527159.39682
1570527159.41245
1570527159.42808
1570527159.4437
1570527159.45933
1570527159.47495
1570527159.49058
1570527159.5062
1570527159.52183
1570527159.53746
1570527159.55308
1570527159.56871
1570527159.58433
1570527159.59996
1570527159.61558
1570527159.63121
1570527159.64684
1570527159.66246
1570527159.67809
1570527159.69371
1570527159.70934
1570527159.72496
1570527159.74059
1570527159.75622
1570527159.77184
1570527159.78747
1570527159.80309
1570527159.81872
1570527159.83434
1570527159.84997
1570527159.8656
1570527159.88122
1570527159.89685
1570527159.91247
1570527159.9281
1570527159.94372
1570527159.95935
1570527159.97498
1570527159.9906
1570527160.00623
1570527160.02185
1570527160.03748
1570527160.0531
1570527160.06873
1570527160.08436
1570527160.09998
1570527160.11561
1570527160.13123
1570527160.14686
1570527160.16248
1570527160.17811
1570527160.19374
1570527160.20936
1570527160.22499
1570527160.24061
1570527160.25624
1570527160.27186
1570527160.28749
1570527160.30312
1570527160.31874
1570527160.33437
1570527160.34999
1570527160.36562
1570527160.38124
1570527160.39687
1570527160.4125
1570527160.42812
1570527160.44375
1570527160.45937
1570527160.475
1570527160.49062
1570527160.50625
1570527160.52188
1570527160.5375
1570527160.55313
1570527160.56875
1570527160.58438
1570527160.6
1570527160.61563
1570527160.63126
1570527160.64688
1570527160.66251
1570527160.67813
1570527160.69376
1570527160.70938
1570527160.72501
1570527160.74064
1570527160.75626
1570527160.77189
1570527160.78751
1570527160.80314
1570527160.81876
1570527160.83439
1570527160.85002
1570527160.86564
1570527160.88127
1570527160.89689
1570527160.91252
1570527160.92814
1570527160.94377
1570527160.9594
1570527160.97502
1570527160.99065
1570527161.00627
1570527161.0219
1570527161.03752
1570527161.05315
1570527161.06878
1570527161.0844
1570527161.10003
1570527161.11565
1570527161.13128
1570527161.1469
1570527161.16253
1570527161.17816
1570527161.19378
1570527161.20941
1570527161.22503
1570527161.24066
1570527161.25628
1570527161.27191
1570527161.28754
1570527161.30316
1570527161.31879
1570527161.33441
1570527161.35004
1570527161.36566
1570527161.38129
1570527161.39692
1570527161.41254
1570527161.42817
1570527161.44379
1570527161.45942
1570527161.47504
1570527161.49067
1570527161.5063
1570527161.52192
1570527161.53755
1570527161.55317
1570527161.5688
1570527161.58442
1570527161.60005
1570527161.61568
1570527161.6313
1570527161.64693
1570527161.66255
1570527161.67818
1570527161.6938
1570527161.70943
1570527161.72506
1570527161.74068
1570527161.75631
1570527161.77193
1570527161.78756
1570527161.80318
1570527161.81881
1570527161.83444
1570527161.85006
1570527161.86569
1570527161.88131
1570527161.89694
1570527161.91256
1570527161.92819
1570527161.94382
1570527161.95944
1570527161.97507
1570527161.99069
1570527162.00632
1570527162.02195
1570527162.03757
1570527162.0532
1570527162.06882
1570527162.08445
1570527162.10007
1570527162.1157
1570527162.13133
1570527162.14695
1570527162.16258
1570527162.1782
1570527162.19383
1570527162.20945
1570527162.22508
1570527162.24071
1570527162.25633
1570527162.27196
1570527162.28758
1570527162.30321
1570527162.31883
1570527162.33446
1570527162.35009
1570527162.36571
1570527162.38134
1570527162.39696
1570527162.41259
1570527162.42821
1570527162.44384
1570527162.45947
1570527162.47509
1570527162.49072
1570527162.50634
1570527162.52197
1570527162.53759
1570527162.55322
1570527162.56885
1570527162.58447
1570527162.6001
1570527162.61572
1570527162.63135
1570527162.64697
1570527162.6626
1570527162.67823
1570527162.69385
1570527162.70948
1570527162.7251
1570527162.74073
1570527162.75635
1570527162.77198
1570527162.78761
1570527162.80323
1570527162.81886
1570527162.83448
1570527162.85011
1570527162.86573
1570527162.88136
1570527162.89699
1570527162.91261
1570527162.92824
1570527162.94386
1570527162.95949
1570527162.97511
1570527162.99074
1570527163.00637
1570527163.02199
1570527163.03762
1570527163.05324
1570527163.06887
1570527163.08449
1570527163.10012
1570527163.11575
1570527163.13137
1570527163.147
1570527163.16262
1570527163.17825
1570527163.19387
1570527163.2095
1570527163.22513
1570527163.24075
1570527163.25638
1570527163.272
1570527163.28763
1570527163.30325
1570527163.31888
1570527163.33451
1570527163.35013
1570527163.36576
1570527163.38138
1570527163.39701
1570527163.41263
1570527163.42826
1570527163.44389
1570527163.45951
1570527163.47514
1570527163.49076
1570527163.50639
1570527163.52201
1570527163.53764
1570527163.55327
1570527163.56889
1570527163.58452
1570527163.60014
1570527163.61577
1570527163.63139
1570527163.64702
1570527163.66265
1570527163.67827
1570527163.6939
1570527163.70952
1570527163.72515
1570527163.74077
1570527163.7564
1570527163.77203
1570527163.78765
1570527163.80328
1570527163.8189
1570527163.83453
1570527163.85015
1570527163.86578
1570527163.88141
1570527163.89703
1570527163.91266
1570527163.92828
1570527163.94391
1570527163.95953
1570527163.97516
1570527163.99079
1570527164.00641
1570527164.02204
1570527164.03766
1570527164.05329
1570527164.06891
1570527164.08454
1570527164.10017
1570527164.11579
1570527164.13142
1570527164.14704
1570527164.16267
1570527164.17829
1570527164.19392
1570527164.20955
1570527164.22517
1570527164.2408
1570527164.25642
1570527164.27205
1570527164.28768
1570527164.3033
1570527164.31893
1570527164.33455
1570527164.35018
1570527164.3658
1570527164.38143
1570527164.39706
1570527164.41268
1570527164.42831
1570527164.44393
1570527164.45956
1570527164.47518
1570527164.49081
1570527164.50644
1570527164.52206
1570527164.53769
1570527164.55331
1570527164.56894
1570527164.58456
1570527164.60019
1570527164.61582
1570527164.63144
1570527164.64707
1570527164.66269
1570527164.67832
1570527164.69394
1570527164.70957
1570527164.7252
1570527164.74082
1570527164.75645
1570527164.77207
1570527164.7877
1570527164.80332
1570527164.81895
1570527164.83458
1570527164.8502
1570527164.86583
1570527164.88145
1570527164.89708
1570527164.9127
1570527164.92833
1570527164.94396
1570527164.95958
1570527164.97521
1570527164.99083
1570527165.00646
1570527165.02208
1570527165.03771
1570527165.05334
1570527165.06896
1570527165.08459
1570527165.10021
1570527165.11584
1570527165.13146
1570527165.14709
1570527165.16272
1570527165.17834
1570527165.19397
1570527165.20959
1570527165.22522
1570527165.24084
1570527165.25647
1570527165.2721
1570527165.28772
1570527165.30335
1570527165.31897
1570527165.3346
1570527165.35022
1570527165.36585
1570527165.38148
1570527165.3971
1570527165.41273
1570527165.42835
1570527165.44398
1570527165.4596
1570527165.47523
1570527165.49086
1570527165.50648
1570527165.52211
1570527165.53773
1570527165.55336
1570527165.56898
1570527165.58461
1570527165.60024
1570527165.61586
1570527165.63149
1570527165.64711
1570527165.66274
1570527165.67836
1570527165.69399
1570527165.70962
1570527165.72524
1570527165.74087
1570527165.75649
1570527165.77212
1570527165.78774
1570527165.80337
1570527165.819
1570527165.83462
1570527165.85025
1570527165.86587
1570527165.8815
1570527165.89712
1570527165.91275
1570527165.92838
1570527165.944
1570527165.95963
1570527165.97525
1570527165.99088
1570527166.0065
1570527166.02213
1570527166.03776
1570527166.05338
1570527166.06901
1570527166.08463
1570527166.10026
1570527166.11588
1570527166.13151
1570527166.14714
1570527166.16276
1570527166.17839
1570527166.19401
1570527166.20964
1570527166.22526
1570527166.24089
1570527166.25652
1570527166.27214
1570527166.28777
1570527166.30339
1570527166.31902
1570527166.33464
1570527166.35027
1570527166.3659
1570527166.38152
1570527166.39715
1570527166.41277
1570527166.4284
1570527166.44403
1570527166.45965
1570527166.47528
1570527166.4909
1570527166.50653
1570527166.52215
1570527166.53778
1570527166.55341
1570527166.56903
1570527166.58466
1570527166.60028
1570527166.61591
1570527166.63153
1570527166.64716
1570527166.66279
1570527166.67841
1570527166.69404
1570527166.70966
1570527166.72529
1570527166.74091
1570527166.75654
1570527166.77217
1570527166.78779
1570527166.80342
1570527166.81904
1570527166.83467
1570527166.85029
1570527166.86592
1570527166.88155
1570527166.89717
1570527166.9128
1570527166.92842
1570527166.94405
1570527166.95967
1570527166.9753
1570527166.99093
1570527167.00655
1570527167.02218
1570527167.0378
1570527167.05343
1570527167.06905
1570527167.08468
1570527167.10031
1570527167.11593
1570527167.13156
1570527167.14718
1570527167.16281
1570527167.17843
1570527167.19406
1570527167.20969
1570527167.22531
1570527167.24094
1570527167.25656
1570527167.27219
1570527167.28781
1570527167.30344
1570527167.31907
1570527167.33469
1570527167.35032
1570527167.36594
1570527167.38157
1570527167.39719
1570527167.41282
1570527167.42845
1570527167.44407
1570527167.4597
1570527167.47532
1570527167.49095
1570527167.50657
1570527167.5222
1570527167.53783
1570527167.55345
1570527167.56908
1570527167.5847
1570527167.60033
1570527167.61595
1570527167.63158
1570527167.64721
1570527167.66283
1570527167.67846
1570527167.69408
1570527167.70971
1570527167.72533
1570527167.74096
1570527167.75659
1570527167.77221
1570527167.78784
1570527167.80346
1570527167.81909
1570527167.83471
1570527167.85034
1570527167.86597
1570527167.88159
1570527167.89722
1570527167.91284
1570527167.92847
1570527167.94409
1570527167.95972
1570527167.97535
1570527167.99097
1570527168.0066
1570527168.02222
1570527168.03785
1570527168.05347
1570527168.0691
1570527168.08473
1570527168.10035
1570527168.11598
1570527168.1316
1570527168.14723
1570527168.16285
1570527168.17848
1570527168.19411
1570527168.20973
1570527168.22536
1570527168.24098
1570527168.25661
1570527168.27223
1570527168.28786
1570527168.30349
1570527168.31911
1570527168.33474
1570527168.35036
1570527168.36599
1570527168.38161
1570527168.39724
1570527168.41287
1570527168.42849
1570527168.44412
1570527168.45974
1570527168.47537
1570527168.49099
1570527168.50662
1570527168.52225
1570527168.53787
1570527168.5535
1570527168.56912
1570527168.58475
1570527168.60037
1570527168.616
1570527168.63163
1570527168.64725
1570527168.66288
1570527168.6785
1570527168.69413
1570527168.70975
1570527168.72538
1570527168.74101
1570527168.75663
1570527168.77226
1570527168.78788
1570527168.80351
1570527168.81913
1570527168.83476
1570527168.85039
1570527168.86601
1570527168.88164
1570527168.89726
1570527168.91289
1570527168.92851
1570527168.94414
1570527168.95977
1570527168.97539
1570527168.99102
1570527169.00664
1570527169.02227
1570527169.03789
1570527169.05352
1570527169.06915
1570527169.08477
1570527169.1004
1570527169.11602
1570527169.13165
1570527169.14728
1570527169.1629
1570527169.17853
1570527169.19415
1570527169.20978
1570527169.2254
1570527169.24103
1570527169.25666
1570527169.27228
1570527169.28791
1570527169.30353
1570527169.31916
1570527169.33478
1570527169.35041
1570527169.36604
1570527169.38166
1570527169.39729
1570527169.41291
1570527169.42854
1570527169.44416
1570527169.45979
1570527169.47542
1570527169.49104
1570527169.50667
1570527169.52229
1570527169.53792
1570527169.55354
1570527169.56917
1570527169.5848
1570527169.60042
1570527169.61605
1570527169.63167
1570527169.6473
1570527169.66292
1570527169.67855
1570527169.69418
1570527169.7098
1570527169.72543
1570527169.74105
1570527169.75668
1570527169.7723
1570527169.78793
1570527169.80356
1570527169.81918
1570527169.83481
1570527169.85043
1570527169.86606
1570527169.88168
1570527169.89731
1570527169.91294
1570527169.92856
1570527169.94419
1570527169.95981
1570527169.97544
1570527169.99106
1570527170.00669
1570527170.02232
1570527170.03794
1570527170.05357
1570527170.06919
1570527170.08482
1570527170.10044
1570527170.11607
1570527170.1317
1570527170.14732
1570527170.16295
1570527170.17857
1570527170.1942
1570527170.20982
1570527170.22545
1570527170.24108
1570527170.2567
1570527170.27233
1570527170.28795
1570527170.30358
1570527170.3192
1570527170.33483
1570527170.35046
1570527170.36608
1570527170.38171
1570527170.39733
1570527170.41296
1570527170.42858
1570527170.44421
1570527170.45984
1570527170.47546
1570527170.49109
1570527170.50671
1570527170.52234
1570527170.53796
1570527170.55359
1570527170.56922
1570527170.58484
1570527170.60047
1570527170.61609
1570527170.63172
1570527170.64734
1570527170.66297
1570527170.6786
1570527170.69422
1570527170.70985
1570527170.72547
1570527170.7411
1570527170.75672
1570527170.77235
1570527170.78798
1570527170.8036
1570527170.81923
1570527170.83485
1570527170.85048
1570527170.8661
1570527170.88173
1570527170.89736
1570527170.91298
1570527170.92861
1570527170.94423
1570527170.95986
1570527170.97548
1570527170.99111
1570527171.00674
1570527171.02236
1570527171.03799
1570527171.05361
1570527171.06924
1570527171.08486
1570527171.10049
1570527171.11612
1570527171.13174
1570527171.14737
1570527171.16299
1570527171.17862
1570527171.19424
1570527171.20987
1570527171.2255
1570527171.24112
1570527171.25675
1570527171.27237
1570527171.288
1570527171.30362
1570527171.31925
1570527171.33488
1570527171.3505
1570527171.36613
1570527171.38175
1570527171.39738
1570527171.41301
1570527171.42863
1570527171.44426
1570527171.45988
1570527171.47551
1570527171.49113
1570527171.50676
1570527171.52239
1570527171.53801
1570527171.55364
1570527171.56926
1570527171.58489
1570527171.60051
1570527171.61614
1570527171.63177
1570527171.64739
1570527171.66302
1570527171.67864
1570527171.69427
1570527171.70989
1570527171.72552
1570527171.74115
1570527171.75677
1570527171.7724
1570527171.78802
1570527171.80365
1570527171.81927
1570527171.8349
1570527171.85053
1570527171.86615
1570527171.88178
1570527171.8974
1570527171.91303
1570527171.92865
1570527171.94428
1570527171.95991
1570527171.97553
1570527171.99116
1570527172.00678
1570527172.02241
1570527172.03803
1570527172.05366
1570527172.06929
1570527172.08491
1570527172.10054
1570527172.11616
1570527172.13179
1570527172.14741
1570527172.16304
1570527172.17867
1570527172.19429
1570527172.20992
1570527172.22554
1570527172.24117
1570527172.25679
1570527172.27242
1570527172.28805
1570527172.30367
1570527172.3193
1570527172.33492
1570527172.35055
1570527172.36617
1570527172.3818
1570527172.39743
1570527172.41305
1570527172.42868
1570527172.4443
1570527172.45993
1570527172.47555
1570527172.49118
1570527172.50681
1570527172.52243
1570527172.53806
1570527172.55368
1570527172.56931
1570527172.58493
1570527172.60056
1570527172.61619
1570527172.63181
1570527172.64744
1570527172.66306
1570527172.67869
1570527172.69431
1570527172.70994
1570527172.72557
1570527172.74119
1570527172.75682
1570527172.77244
1570527172.78807
1570527172.80369
1570527172.81932
1570527172.83495
1570527172.85057
1570527172.8662
1570527172.88182
1570527172.89745
1570527172.91307
1570527172.9287
1570527172.94433
1570527172.95995
1570527172.97558
1570527172.9912
1570527173.00683
1570527173.02245
1570527173.03808
1570527173.05371
1570527173.06933
1570527173.08496
1570527173.10058
1570527173.11621
1570527173.13183
1570527173.14746
1570527173.16309
1570527173.17871
1570527173.19434
1570527173.20996
1570527173.22559
1570527173.24121
1570527173.25684
1570527173.27247
1570527173.28809
1570527173.30372
1570527173.31934
1570527173.33497
1570527173.35059
1570527173.36622
1570527173.38185
1570527173.39747
1570527173.4131
1570527173.42872
1570527173.44435
1570527173.45997
1570527173.4756
1570527173.49123
1570527173.50685
1570527173.52248
1570527173.5381
1570527173.55373
1570527173.56936
1570527173.58498
1570527173.60061
1570527173.61623
1570527173.63186
1570527173.64748
1570527173.66311
1570527173.67874
1570527173.69436
1570527173.70999
1570527173.72561
1570527173.74124
1570527173.75686
1570527173.77249
1570527173.78812
1570527173.80374
1570527173.81937
1570527173.83499
1570527173.85062
1570527173.86624
1570527173.88187
1570527173.8975
1570527173.91312
1570527173.92875
1570527173.94437
1570527173.96
1570527173.97562
1570527173.99125
1570527174.00688
1570527174.0225
1570527174.03813
1570527174.05375
1570527174.06938
1570527174.085
1570527174.10063
1570527174.11626
1570527174.13188
1570527174.14751
1570527174.16313
1570527174.17876
1570527174.19438
1570527174.21001
1570527174.22564
1570527174.24126
1570527174.25689
1570527174.27251
1570527174.28814
1570527174.30376
1570527174.31939
1570527174.33502
1570527174.35064
1570527174.36627
1570527174.38189
1570527174.39752
1570527174.41314
1570527174.42877
1570527174.4444
1570527174.46002
1570527174.47565
1570527174.49127
1570527174.5069
1570527174.52252
1570527174.53815
1570527174.55378
1570527174.5694
1570527174.58503
1570527174.60065
1570527174.61628
1570527174.6319
1570527174.64753
1570527174.66316
1570527174.67878
1570527174.69441
1570527174.71003
1570527174.72566
1570527174.74128
1570527174.75691
1570527174.77254
1570527174.78816
1570527174.80379
1570527174.81941
1570527174.83504
1570527174.85066
1570527174.86629
1570527174.88192
1570527174.89754
1570527174.91317
1570527174.92879
1570527174.94442
1570527174.96004
1570527174.97567
1570527174.9913
1570527175.00692
1570527175.02255
1570527175.03817
1570527175.0538
1570527175.06942
1570527175.08505
1570527175.10068
1570527175.1163
1570527175.13193
1570527175.14755
1570527175.16318
1570527175.1788
1570527175.19443
1570527175.21006
1570527175.22568
1570527175.24131
1570527175.25693
1570527175.27256
1570527175.28818
1570527175.30381
1570527175.31944
1570527175.33506
1570527175.35069
1570527175.36631
1570527175.38194
1570527175.39756
1570527175.41319
1570527175.42882
1570527175.44444
1570527175.46007
1570527175.47569
1570527175.49132
1570527175.50694
1570527175.52257
1570527175.5382
1570527175.55382
1570527175.56945
1570527175.58507
1570527175.6007
1570527175.61632
1570527175.63195
1570527175.64758
1570527175.6632
1570527175.67883
1570527175.69445
1570527175.71008
1570527175.7257
1570527175.74133
1570527175.75696
1570527175.77258
1570527175.78821
1570527175.80383
1570527175.81946
1570527175.83508
1570527175.85071
1570527175.86634
1570527175.88196
1570527175.89759
1570527175.91321
1570527175.92884
1570527175.94446
1570527175.96009
1570527175.97572
1570527175.99134
1570527176.00697
1570527176.02259
1570527176.03822
1570527176.05384
1570527176.06947
1570527176.0851
1570527176.10072
1570527176.11635
1570527176.13197
1570527176.1476
1570527176.16322
1570527176.17885
1570527176.19448
1570527176.2101
1570527176.22573
1570527176.24135
1570527176.25698
1570527176.27261
1570527176.28823
1570527176.30386
1570527176.31948
1570527176.33511
1570527176.35073
1570527176.36636
1570527176.38199
1570527176.39761
1570527176.41324
1570527176.42886
1570527176.44449
1570527176.46011
1570527176.47574
1570527176.49137
1570527176.50699
1570527176.52262
1570527176.53824
1570527176.55387
1570527176.56949
1570527176.58512
1570527176.60075
1570527176.61637
1570527176.632
1570527176.64762
1570527176.66325
1570527176.67887
1570527176.6945
1570527176.71013
1570527176.72575
1570527176.74138
1570527176.757
1570527176.77263
1570527176.78825
1570527176.80388
1570527176.81951
1570527176.83513
1570527176.85076
1570527176.86638
1570527176.88201
1570527176.89763
1570527176.91326
1570527176.92889
1570527176.94451
1570527176.96014
1570527176.97576
1570527176.99139
1570527177.00701
1570527177.02264
1570527177.03827
1570527177.05389
1570527177.06952
1570527177.08514
1570527177.10077
1570527177.11639
1570527177.13202
1570527177.14765
1570527177.16327
1570527177.1789
1570527177.19452
1570527177.21015
1570527177.22577
1570527177.2414
1570527177.25703
1570527177.27265
1570527177.28828
1570527177.3039
1570527177.31953
1570527177.33515
1570527177.35078
1570527177.36641
1570527177.38203
1570527177.39766
1570527177.41328
1570527177.42891
1570527177.44453
1570527177.46016
1570527177.47579
1570527177.49141
1570527177.50704
1570527177.52266
1570527177.53829
1570527177.55391
1570527177.56954
1570527177.58517
1570527177.60079
1570527177.61642
1570527177.63204
1570527177.64767
1570527177.66329
1570527177.67892
1570527177.69455
1570527177.71017
1570527177.7258
1570527177.74142
1570527177.75705
1570527177.77267
1570527177.7883
1570527177.80393
1570527177.81955
1570527177.83518
1570527177.8508
1570527177.86643
1570527177.88205
1570527177.89768
1570527177.91331
1570527177.92893
1570527177.94456
1570527177.96018
1570527177.97581
1570527177.99143
1570527178.00706
1570527178.02269
1570527178.03831
1570527178.05394
1570527178.06956
1570527178.08519
1570527178.10081
1570527178.11644
1570527178.13207
1570527178.14769
1570527178.16332
1570527178.17894
1570527178.19457
1570527178.21019
1570527178.22582
1570527178.24145
1570527178.25707
1570527178.2727
1570527178.28832
1570527178.30395
1570527178.31957
1570527178.3352
1570527178.35083
1570527178.36645
1570527178.38208
1570527178.3977
1570527178.41333
1570527178.42896
1570527178.44458
1570527178.46021
1570527178.47583
1570527178.49146
1570527178.50708
1570527178.52271
1570527178.53834
1570527178.55396
1570527178.56959
1570527178.58521
1570527178.60084
1570527178.61646
1570527178.63209
1570527178.64772
1570527178.66334
1570527178.67897
1570527178.69459
1570527178.71022
1570527178.72584
1570527178.74147
1570527178.7571
1570527178.77272
1570527178.78835
1570527178.80397
1570527178.8196
1570527178.83522
1570527178.85085
1570527178.86648
1570527178.8821
1570527178.89773
1570527178.91335
1570527178.92898
1570527178.9446
1570527178.96023
1570527178.97586
1570527178.99148
1570527179.00711
1570527179.02273
1570527179.03836
1570527179.05398
1570527179.06961
1570527179.08524
1570527179.10086
1570527179.11649
1570527179.13211
1570527179.14774
1570527179.16336
1570527179.17899
1570527179.19462
1570527179.21024
1570527179.22587
1570527179.24149
1570527179.25712
1570527179.27274
1570527179.28837
1570527179.304
1570527179.31962
1570527179.33525
1570527179.35087
1570527179.3665
1570527179.38212
1570527179.39775
1570527179.41338
1570527179.429
1570527179.44463
1570527179.46025
1570527179.47588
1570527179.4915
1570527179.50713
1570527179.52276
1570527179.53838
1570527179.55401
1570527179.56963
1570527179.58526
1570527179.60088
1570527179.61651
1570527179.63214
1570527179.64776
1570527179.66339
1570527179.67901
1570527179.69464
1570527179.71026
1570527179.72589
1570527179.74152
1570527179.75714
1570527179.77277
1570527179.78839
1570527179.80402
1570527179.81964
1570527179.83527
1570527179.8509
1570527179.86652
1570527179.88215
1570527179.89777
1570527179.9134
1570527179.92902
1570527179.94465
1570527179.96028
1570527179.9759
1570527179.99153
1570527180.00715
1570527180.02278
1570527180.0384
1570527180.05403
1570527180.06966
1570527180.08528
1570527180.10091
1570527180.11653
1570527180.13216
1570527180.14778
1570527180.16341
1570527180.17904
1570527180.19466
1570527180.21029
1570527180.22591
1570527180.24154
1570527180.25716
1570527180.27279
1570527180.28842
1570527180.30404
1570527180.31967
1570527180.33529
1570527180.35092
1570527180.36654
1570527180.38217
1570527180.3978
1570527180.41342
1570527180.42905
1570527180.44467
1570527180.4603
1570527180.47592
1570527180.49155
1570527180.50718
1570527180.5228
1570527180.53843
1570527180.55405
1570527180.56968
1570527180.5853
1570527180.60093
1570527180.61656
1570527180.63218
1570527180.64781
1570527180.66343
1570527180.67906
1570527180.69468
1570527180.71031
1570527180.72594
1570527180.74156
1570527180.75719
1570527180.77281
1570527180.78844
1570527180.80406
1570527180.81969
1570527180.83532
1570527180.85094
1570527180.86657
1570527180.88219
1570527180.89782
1570527180.91345
1570527180.92907
1570527180.9447
1570527180.96032
1570527180.97595
1570527180.99157
1570527181.0072
1570527181.02283
1570527181.03845
1570527181.05408
1570527181.0697
1570527181.08533
1570527181.10095
1570527181.11658
1570527181.13221
1570527181.14783
1570527181.16346
1570527181.17908
1570527181.19471
1570527181.21033
1570527181.22596
1570527181.24159
1570527181.25721
1570527181.27284
1570527181.28846
1570527181.30409
1570527181.31971
1570527181.33534
1570527181.35097
1570527181.36659
1570527181.38222
1570527181.39784
1570527181.41347
1570527181.42909
1570527181.44472
1570527181.46035
1570527181.47597
1570527181.4916
1570527181.50722
1570527181.52285
1570527181.53847
1570527181.5541
1570527181.56973
1570527181.58535
1570527181.60098
1570527181.6166
1570527181.63223
1570527181.64785
1570527181.66348
1570527181.67911
1570527181.69473
1570527181.71036
1570527181.72598
1570527181.74161
1570527181.75723
1570527181.77286
1570527181.78849
1570527181.80411
1570527181.81974
1570527181.83536
1570527181.85099
1570527181.86661
1570527181.88224
1570527181.89787
1570527181.91349
1570527181.92912
1570527181.94474
1570527181.96037
1570527181.97599
1570527181.99162
1570527182.00725
1570527182.02287
1570527182.0385
1570527182.05412
1570527182.06975
1570527182.08537
1570527182.101
1570527182.11663
1570527182.13225
1570527182.14788
1570527182.1635
1570527182.17913
1570527182.19475
1570527182.21038
1570527182.22601
1570527182.24163
1570527182.25726
1570527182.27288
1570527182.28851
1570527182.30413
1570527182.31976
1570527182.33539
1570527182.35101
1570527182.36664
1570527182.38226
1570527182.39789
1570527182.41351
1570527182.42914
1570527182.44477
1570527182.46039
1570527182.47602
1570527182.49164
1570527182.50727
1570527182.52289
1570527182.53852
1570527182.55415
1570527182.56977
1570527182.5854
1570527182.60102
1570527182.61665
1570527182.63227
1570527182.6479
1570527182.66353
1570527182.67915
1570527182.69478
1570527182.7104
1570527182.72603
1570527182.74165
1570527182.75728
1570527182.77291
1570527182.78853
1570527182.80416
1570527182.81978
1570527182.83541
1570527182.85103
1570527182.86666
1570527182.88229
1570527182.89791
1570527182.91354
1570527182.92916
1570527182.94479
1570527182.96041
1570527182.97604
1570527182.99167
1570527183.00729
1570527183.02292
1570527183.03854
1570527183.05417
1570527183.06979
1570527183.08542
1570527183.10105
1570527183.11667
1570527183.1323
1570527183.14792
1570527183.16355
1570527183.17917
1570527183.1948
1570527183.21043
1570527183.22605
1570527183.24168
1570527183.2573
1570527183.27293
1570527183.28856
1570527183.30418
1570527183.31981
1570527183.33543
1570527183.35106
1570527183.36668
1570527183.38231
1570527183.39794
1570527183.41356
1570527183.42919
1570527183.44481
1570527183.46044
1570527183.47606
1570527183.49169
1570527183.50732
1570527183.52294
1570527183.53857
1570527183.55419
1570527183.56982
1570527183.58544
1570527183.60107
1570527183.6167
1570527183.63232
1570527183.64795
1570527183.66357
1570527183.6792
1570527183.69482
1570527183.71045
1570527183.72608
1570527183.7417
1570527183.75733
1570527183.77295
1570527183.78858
1570527183.8042
1570527183.81983
1570527183.83546
1570527183.85108
1570527183.86671
1570527183.88233
1570527183.89796
1570527183.91358
1570527183.92921
1570527183.94484
1570527183.96046
1570527183.97609
1570527183.99171
1570527184.00734
1570527184.02296
1570527184.03859
1570527184.05422
1570527184.06984
1570527184.08547
1570527184.10109
1570527184.11672
1570527184.13234
1570527184.14797
1570527184.1636
1570527184.17922
1570527184.19485
1570527184.21047
1570527184.2261
1570527184.24172
1570527184.25735
1570527184.27298
1570527184.2886
1570527184.30423
1570527184.31985
1570527184.33548
1570527184.3511
1570527184.36673
1570527184.38236
1570527184.39798
1570527184.41361
1570527184.42923
1570527184.44486
1570527184.46048
1570527184.47611
1570527184.49174
1570527184.50736
1570527184.52299
1570527184.53861
1570527184.55424
1570527184.56986
1570527184.58549
1570527184.60112
1570527184.61674
1570527184.63237
1570527184.64799
1570527184.66362
1570527184.67924
1570527184.69487
1570527184.7105
1570527184.72612
1570527184.74175
1570527184.75737
1570527184.773
1570527184.78862
1570527184.80425
1570527184.81988
1570527184.8355
1570527184.85113
1570527184.86675
1570527184.88238
1570527184.898
1570527184.91363
1570527184.92926
1570527184.94488
1570527184.96051
1570527184.97613
1570527184.99176
1570527185.00738
1570527185.02301
1570527185.03864
1570527185.05426
1570527185.06989
1570527185.08551
1570527185.10114
1570527185.11676
1570527185.13239
1570527185.14802
1570527185.16364
1570527185.17927
1570527185.19489
1570527185.21052
1570527185.22614
1570527185.24177
1570527185.2574
1570527185.27302
1570527185.28865
1570527185.30427
1570527185.3199
1570527185.33552
1570527185.35115
1570527185.36678
1570527185.3824
1570527185.39803
1570527185.41365
1570527185.42928
1570527185.4449
1570527185.46053
1570527185.47616
1570527185.49178
1570527185.50741
1570527185.52303
1570527185.53866
1570527185.55429
1570527185.56991
1570527185.58554
1570527185.60116
1570527185.61679
1570527185.63241
1570527185.64804
1570527185.66367
1570527185.67929
1570527185.69492
1570527185.71054
1570527185.72617
1570527185.74179
1570527185.75742
1570527185.77305
1570527185.78867
1570527185.8043
1570527185.81992
1570527185.83555
1570527185.85117
1570527185.8668
1570527185.88243
1570527185.89805
1570527185.91368
1570527185.9293
1570527185.94493
1570527185.96055
1570527185.97618
1570527185.99181
1570527186.00743
1570527186.02306
1570527186.03868
1570527186.05431
1570527186.06993
1570527186.08556
1570527186.10119
1570527186.11681
1570527186.13244
1570527186.14806
1570527186.16369
1570527186.17931
1570527186.19494
1570527186.21057
1570527186.22619
1570527186.24182
1570527186.25744
1570527186.27307
1570527186.28869
1570527186.30432
1570527186.31995
1570527186.33557
1570527186.3512
1570527186.36682
1570527186.38245
1570527186.39807
1570527186.4137
1570527186.42933
1570527186.44495
1570527186.46058
1570527186.4762
1570527186.49183
1570527186.50745
1570527186.52308
1570527186.53871
1570527186.55433
1570527186.56996
1570527186.58558
1570527186.60121
1570527186.61683
1570527186.63246
1570527186.64809
1570527186.66371
1570527186.67934
1570527186.69496
1570527186.71059
1570527186.72621
1570527186.74184
1570527186.75747
1570527186.77309
1570527186.78872
1570527186.80434
1570527186.81997
1570527186.83559
1570527186.85122
1570527186.86685
1570527186.88247
1570527186.8981
1570527186.91372
1570527186.92935
1570527186.94497
1570527186.9606
1570527186.97623
1570527186.99185
1570527187.00748
1570527187.0231
1570527187.03873
1570527187.05435
1570527187.06998
1570527187.08561
1570527187.10123
1570527187.11686
1570527187.13248
1570527187.14811
1570527187.16373
1570527187.17936
1570527187.19499
1570527187.21061
1570527187.22624
1570527187.24186
1570527187.25749
1570527187.27311
1570527187.28874
1570527187.30437
1570527187.31999
1570527187.33562
1570527187.35124
1570527187.36687
1570527187.38249
1570527187.39812
1570527187.41375
1570527187.42937
1570527187.445
1570527187.46062
1570527187.47625
1570527187.49187
1570527187.5075
1570527187.52313
1570527187.53875
1570527187.55438
1570527187.57
1570527187.58563
1570527187.60125
1570527187.61688
1570527187.63251
1570527187.64813
1570527187.66376
1570527187.67938
1570527187.69501
1570527187.71063
1570527187.72626
1570527187.74189
1570527187.75751
1570527187.77314
1570527187.78876
1570527187.80439
1570527187.82001
1570527187.83564
1570527187.85127
1570527187.86689
1570527187.88252
1570527187.89814
1570527187.91377
1570527187.92939
1570527187.94502
1570527187.96065
1570527187.97627
1570527187.9919
1570527188.00752
1570527188.02315
1570527188.03877
1570527188.0544
1570527188.07003
1570527188.08565
1570527188.10128
1570527188.1169
1570527188.13253
1570527188.14816
1570527188.16378
1570527188.17941
1570527188.19503
1570527188.21066
1570527188.22628
1570527188.24191
1570527188.25754
1570527188.27316
1570527188.28879
1570527188.30441
1570527188.32004
1570527188.33566
1570527188.35129
1570527188.36692
1570527188.38254
1570527188.39817
1570527188.41379
1570527188.42942
1570527188.44504
1570527188.46067
1570527188.4763
1570527188.49192
1570527188.50755
1570527188.52317
1570527188.5388
1570527188.55442
1570527188.57005
1570527188.58568
1570527188.6013
1570527188.61693
1570527188.63255
1570527188.64818
1570527188.6638
1570527188.67943
1570527188.69506
1570527188.71068
1570527188.72631
1570527188.74193
1570527188.75756
1570527188.77318
1570527188.78881
1570527188.80444
1570527188.82006
1570527188.83569
1570527188.85131
1570527188.86694
1570527188.88256
1570527188.89819
1570527188.91382
1570527188.92944
1570527188.94507
1570527188.96069
1570527188.97632
1570527188.99194
1570527189.00757
1570527189.0232
1570527189.03882
1570527189.05445
1570527189.07007
1570527189.0857
1570527189.10132
1570527189.11695
1570527189.13258
1570527189.1482
1570527189.16383
1570527189.17945
1570527189.19508
1570527189.2107
1570527189.22633
1570527189.24196
1570527189.25758
1570527189.27321
1570527189.28883
1570527189.30446
1570527189.32008
1570527189.33571
1570527189.35134
1570527189.36696
1570527189.38259
1570527189.39821
1570527189.41384
1570527189.42946
1570527189.44509
1570527189.46072
1570527189.47634
1570527189.49197
1570527189.50759
1570527189.52322
1570527189.53884
1570527189.55447
1570527189.5701
1570527189.58572
1570527189.60135
1570527189.61697
1570527189.6326
1570527189.64822
1570527189.66385
1570527189.67948
1570527189.6951
1570527189.71073
1570527189.72635
1570527189.74198
1570527189.7576
1570527189.77323
1570527189.78886
1570527189.80448
1570527189.82011
1570527189.83573
1570527189.85136
1570527189.86698
1570527189.88261
1570527189.89824
1570527189.91386
1570527189.92949
1570527189.94511
1570527189.96074
1570527189.97636
1570527189.99199
1570527190.00762
1570527190.02324
1570527190.03887
1570527190.05449
1570527190.07012
1570527190.08574
1570527190.10137
1570527190.117
1570527190.13262
1570527190.14825
1570527190.16387
1570527190.1795
1570527190.19512
1570527190.21075
1570527190.22638
1570527190.242
1570527190.25763
1570527190.27325
1570527190.28888
1570527190.3045
1570527190.32013
1570527190.33576
1570527190.35138
1570527190.36701
1570527190.38263
1570527190.39826
1570527190.41389
1570527190.42951
1570527190.44514
1570527190.46076
1570527190.47639
1570527190.49201
1570527190.50764
1570527190.52327
1570527190.53889
1570527190.55452
1570527190.57014
1570527190.58577
1570527190.60139
1570527190.61702
1570527190.63265
1570527190.64827
1570527190.6639
1570527190.67952
1570527190.69515
1570527190.71077
1570527190.7264
1570527190.74203
1570527190.75765
1570527190.77328
1570527190.7889
1570527190.80453
1570527190.82015
1570527190.83578
1570527190.85141
1570527190.86703
1570527190.88266
1570527190.89828
1570527190.91391
1570527190.92953
1570527190.94516
1570527190.96079
1570527190.97641
1570527190.99204
1570527191.00766
1570527191.02329
1570527191.03891
1570527191.05454
1570527191.07017
1570527191.08579
1570527191.10142
1570527191.11704
1570527191.13267
1570527191.14829
1570527191.16392
1570527191.17955
1570527191.19517
1570527191.2108
1570527191.22642
1570527191.24205
1570527191.25767
1570527191.2733
1570527191.28893
1570527191.30455
1570527191.32018
1570527191.3358
1570527191.35143
1570527191.36705
1570527191.38268
1570527191.39831
1570527191.41393
1570527191.42956
1570527191.44518
1570527191.46081
1570527191.47643
1570527191.49206
1570527191.50769
1570527191.52331
1570527191.53894
1570527191.55456
1570527191.57019
1570527191.58581
1570527191.60144
1570527191.61707
1570527191.63269
1570527191.64832
1570527191.66394
1570527191.67957
1570527191.69519
1570527191.71082
1570527191.72645
1570527191.74207
1570527191.7577
1570527191.77332
1570527191.78895
1570527191.80457
1570527191.8202
1570527191.83583
1570527191.85145
1570527191.86708
1570527191.8827
1570527191.89833
1570527191.91395
1570527191.92958
1570527191.94521
1570527191.96083
1570527191.97646
1570527191.99208
1570527192.00771
1570527192.02333
1570527192.03896
1570527192.05459
1570527192.07021
1570527192.08584
1570527192.10146
1570527192.11709
1570527192.13271
1570527192.14834
1570527192.16397
1570527192.17959
1570527192.19522
1570527192.21084
1570527192.22647
1570527192.24209
1570527192.25772
1570527192.27335
1570527192.28897
1570527192.3046
1570527192.32022
1570527192.33585
1570527192.35147
1570527192.3671
1570527192.38273
1570527192.39835
1570527192.41398
1570527192.4296
1570527192.44523
1570527192.46085
1570527192.47648
1570527192.49211
1570527192.50773
1570527192.52336
1570527192.53898
1570527192.55461
1570527192.57024
1570527192.58586
1570527192.60149
1570527192.61711
1570527192.63274
1570527192.64836
1570527192.66399
1570527192.67962
1570527192.69524
1570527192.71087
1570527192.72649
1570527192.74212
1570527192.75774
1570527192.77337
1570527192.789
1570527192.80462
1570527192.82025
1570527192.83587
1570527192.8515
1570527192.86712
1570527192.88275
1570527192.89838
1570527192.914
1570527192.92963
1570527192.94525
1570527192.96088
1570527192.9765
1570527192.99213
1570527193.00776
1570527193.02338
1570527193.03901
1570527193.05463
1570527193.07026
1570527193.08588
1570527193.10151
1570527193.11714
1570527193.13276
1570527193.14839
1570527193.16401
1570527193.17964
1570527193.19526
1570527193.21089
1570527193.22652
1570527193.24214
1570527193.25777
1570527193.27339
1570527193.28902
1570527193.30464
1570527193.32027
1570527193.3359
1570527193.35152
1570527193.36715
1570527193.38277
1570527193.3984
1570527193.41402
1570527193.42965
1570527193.44528
1570527193.4609
1570527193.47653
1570527193.49215
1570527193.50778
1570527193.5234
1570527193.53903
1570527193.55466
1570527193.57028
1570527193.58591
1570527193.60153
1570527193.61716
1570527193.63278
1570527193.64841
1570527193.66404
1570527193.67966
1570527193.69529
1570527193.71091
1570527193.72654
1570527193.74216
1570527193.75779
1570527193.77342
1570527193.78904
1570527193.80467
1570527193.82029
1570527193.83592
1570527193.85154
1570527193.86717
1570527193.8828
1570527193.89842
1570527193.91405
1570527193.92967
1570527193.9453
1570527193.96092
1570527193.97655
1570527193.99218
1570527194.0078
1570527194.02343
1570527194.03905
1570527194.05468
1570527194.0703
1570527194.08593
1570527194.10156
1570527194.11718
1570527194.13281
1570527194.14843
1570527194.16406
1570527194.17968
1570527194.19531
1570527194.21094
1570527194.22656
1570527194.24219
1570527194.25781
1570527194.27344
1570527194.28906
1570527194.30469
1570527194.32032
1570527194.33594
1570527194.35157
1570527194.36719
1570527194.38282
1570527194.39844
1570527194.41407
1570527194.4297
1570527194.44532
1570527194.46095
1570527194.47657
1570527194.4922
1570527194.50782
1570527194.52345
1570527194.53908
1570527194.5547
1570527194.57033
1570527194.58595
1570527194.60158
1570527194.6172
1570527194.63283
1570527194.64846
1570527194.66408
1570527194.67971
1570527194.69533
1570527194.71096
1570527194.72658
1570527194.74221
1570527194.75784
1570527194.77346
1570527194.78909
1570527194.80471
1570527194.82034
1570527194.83596
1570527194.85159
1570527194.86722
1570527194.88284
1570527194.89847
1570527194.91409
1570527194.92972
1570527194.94534
1570527194.96097
1570527194.9766
1570527194.99222
1570527195.00785
1570527195.02347
1570527195.0391
1570527195.05472
1570527195.07035
1570527195.08598
1570527195.1016
1570527195.11723
1570527195.13285
1570527195.14848
1570527195.1641
1570527195.17973
1570527195.19536
1570527195.21098
1570527195.22661
1570527195.24223
1570527195.25786
1570527195.27349
1570527195.28911
1570527195.30474
1570527195.32036
1570527195.33599
1570527195.35161
1570527195.36724
1570527195.38287
1570527195.39849
1570527195.41412
1570527195.42974
1570527195.44537
1570527195.46099
1570527195.47662
1570527195.49225
1570527195.50787
1570527195.5235
1570527195.53912
1570527195.55475
1570527195.57037
1570527195.586
1570527195.60163
1570527195.61725
1570527195.63288
1570527195.6485
1570527195.66413
1570527195.67975
1570527195.69538
1570527195.71101
1570527195.72663
1570527195.74226
1570527195.75788
1570527195.77351
1570527195.78913
1570527195.80476
1570527195.82039
1570527195.83601
1570527195.85164
1570527195.86726
1570527195.88289
1570527195.89851
1570527195.91414
1570527195.92977
1570527195.94539
1570527195.96102
1570527195.97664
1570527195.99227
1570527196.00789
1570527196.02352
1570527196.03915
1570527196.05477
1570527196.0704
1570527196.08602
1570527196.10165
1570527196.11727
1570527196.1329
1570527196.14853
1570527196.16415
1570527196.17978
1570527196.1954
1570527196.21103
1570527196.22665
1570527196.24228
1570527196.25791
1570527196.27353
1570527196.28916
1570527196.30478
1570527196.32041
1570527196.33603
1570527196.35166
1570527196.36729
1570527196.38291
1570527196.39854
1570527196.41416
1570527196.42979
1570527196.44541
1570527196.46104
1570527196.47667
1570527196.49229
1570527196.50792
1570527196.52354
1570527196.53917
1570527196.55479
1570527196.57042
1570527196.58605
1570527196.60167
1570527196.6173
1570527196.63292
1570527196.64855
1570527196.66417
1570527196.6798
1570527196.69543
1570527196.71105
1570527196.72668
1570527196.7423
1570527196.75793
1570527196.77355
1570527196.78918
1570527196.80481
1570527196.82043
1570527196.83606
1570527196.85168
1570527196.86731
1570527196.88293
1570527196.89856
1570527196.91419
1570527196.92981
1570527196.94544
1570527196.96106
1570527196.97669
1570527196.99231
1570527197.00794
1570527197.02357
1570527197.03919
1570527197.05482
1570527197.07044
1570527197.08607
1570527197.10169
1570527197.11732
1570527197.13295
1570527197.14857
1570527197.1642
1570527197.17982
1570527197.19545
1570527197.21107
1570527197.2267
1570527197.24233
1570527197.25795
1570527197.27358
1570527197.2892
1570527197.30483
1570527197.32045
1570527197.33608
1570527197.35171
1570527197.36733
1570527197.38296
1570527197.39858
1570527197.41421
1570527197.42984
1570527197.44546
1570527197.46109
1570527197.47671
1570527197.49234
1570527197.50796
1570527197.52359
1570527197.53922
1570527197.55484
1570527197.57047
1570527197.58609
1570527197.60172
1570527197.61734
1570527197.63297
1570527197.6486
1570527197.66422
1570527197.67985
1570527197.69547
1570527197.7111
1570527197.72672
1570527197.74235
1570527197.75798
1570527197.7736
1570527197.78923
1570527197.80485
1570527197.82048
1570527197.8361
1570527197.85173
1570527197.86736
1570527197.88298
1570527197.89861
1570527197.91423
1570527197.92986
1570527197.94548
1570527197.96111
1570527197.97674
1570527197.99236
1570527198.00799
1570527198.02361
1570527198.03924
1570527198.05486
1570527198.07049
1570527198.08612
1570527198.10174
1570527198.11737
1570527198.13299
1570527198.14862
1570527198.16424
1570527198.17987
1570527198.1955
1570527198.21112
1570527198.22675
1570527198.24237
1570527198.258
1570527198.27362
1570527198.28925
1570527198.30488
1570527198.3205
1570527198.33613
1570527198.35175
1570527198.36738
1570527198.383
1570527198.39863
1570527198.41426
1570527198.42988
1570527198.44551
1570527198.46113
1570527198.47676
1570527198.49238
1570527198.50801
1570527198.52364
1570527198.53926
1570527198.55489
1570527198.57051
1570527198.58614
1570527198.60176
1570527198.61739
1570527198.63302
1570527198.64864
1570527198.66427
1570527198.67989
1570527198.69552
1570527198.71114
1570527198.72677
1570527198.7424
1570527198.75802
1570527198.77365
1570527198.78927
1570527198.8049
1570527198.82052
1570527198.83615
1570527198.85178
1570527198.8674
1570527198.88303
1570527198.89865
1570527198.91428
1570527198.9299
1570527198.94553
1570527198.96116
1570527198.97678
1570527198.99241
1570527199.00803
1570527199.02366
1570527199.03928
1570527199.05491
1570527199.07054
1570527199.08616
1570527199.10179
1570527199.11741
1570527199.13304
1570527199.14866
1570527199.16429
1570527199.17992
1570527199.19554
1570527199.21117
1570527199.22679
1570527199.24242
1570527199.25804
1570527199.27367
1570527199.2893
1570527199.30492
1570527199.32055
1570527199.33617
1570527199.3518
1570527199.36742
1570527199.38305
1570527199.39868
1570527199.4143
1570527199.42993
1570527199.44555
1570527199.46118
1570527199.4768
1570527199.49243
1570527199.50806
1570527199.52368
1570527199.53931
1570527199.55493
1570527199.57056
1570527199.58618
1570527199.60181
1570527199.61744
1570527199.63306
1570527199.64869
1570527199.66431
1570527199.67994
1570527199.69556
1570527199.71119
1570527199.72682
1570527199.74244
1570527199.75807
1570527199.77369
1570527199.78932
1570527199.80494
1570527199.82057
1570527199.8362
1570527199.85182
1570527199.86745
1570527199.88307
1570527199.8987
1570527199.91433
1570527199.92995
1570527199.94558
1570527199.9612
1570527199.97683
1570527199.99245
1570527200.00808
1570527200.02371
1570527200.03933
1570527200.05496
1570527200.07058
1570527200.08621
1570527200.10183
1570527200.11746
1570527200.13309
1570527200.14871
1570527200.16434
1570527200.17996
1570527200.19559
1570527200.21121
1570527200.22684
1570527200.24247
1570527200.25809
1570527200.27372
1570527200.28934
1570527200.30497
1570527200.32059
1570527200.33622
1570527200.35185
1570527200.36747
1570527200.3831
1570527200.39872
1570527200.41435
1570527200.42997
1570527200.4456
1570527200.46123
1570527200.47685
1570527200.49248
1570527200.5081
1570527200.52373
1570527200.53935
1570527200.55498
1570527200.57061
1570527200.58623
1570527200.60186
1570527200.61748
1570527200.63311
1570527200.64873
1570527200.66436
1570527200.67999
1570527200.69561
1570527200.71124
1570527200.72686
1570527200.74249
1570527200.75811
1570527200.77374
1570527200.78937
1570527200.80499
1570527200.82062
1570527200.83624
1570527200.85187
1570527200.86749
1570527200.88312
1570527200.89875
1570527200.91437
1570527200.93
1570527200.94562
1570527200.96125
1570527200.97687
1570527200.9925
1570527201.00813
1570527201.02375
1570527201.03938
1570527201.055
1570527201.07063
1570527201.08625
1570527201.10188
1570527201.11751
1570527201.13313
1570527201.14876
1570527201.16438
1570527201.18001
1570527201.19563
1570527201.21126
1570527201.22689
1570527201.24251
1570527201.25814
1570527201.27376
1570527201.28939
1570527201.30501
1570527201.32064
1570527201.33627
1570527201.35189
1570527201.36752
1570527201.38314
1570527201.39877
1570527201.41439
1570527201.43002
1570527201.44565
1570527201.46127
1570527201.4769
1570527201.49252
1570527201.50815
1570527201.52377
1570527201.5394
1570527201.55503
1570527201.57065
1570527201.58628
1570527201.6019
1570527201.61753
1570527201.63315
1570527201.64878
1570527201.66441
1570527201.68003
1570527201.69566
1570527201.71128
1570527201.72691
1570527201.74253
1570527201.75816
1570527201.77379
1570527201.78941
1570527201.80504
1570527201.82066
1570527201.83629
1570527201.85191
1570527201.86754
1570527201.88317
1570527201.89879
1570527201.91442
1570527201.93004
1570527201.94567
1570527201.96129
1570527201.97692
1570527201.99255
1570527202.00817
1570527202.0238
1570527202.03942
1570527202.05505
1570527202.07067
1570527202.0863
1570527202.10193
1570527202.11755
1570527202.13318
1570527202.1488
1570527202.16443
1570527202.18005
1570527202.19568
1570527202.21131
1570527202.22693
1570527202.24256
1570527202.25818
1570527202.27381
1570527202.28943
1570527202.30506
1570527202.32069
1570527202.33631
1570527202.35194
1570527202.36756
1570527202.38319
1570527202.39882
1570527202.41444
1570527202.43007
1570527202.44569
1570527202.46132
1570527202.47694
1570527202.49257
1570527202.5082
1570527202.52382
1570527202.53945
1570527202.55507
1570527202.5707
1570527202.58632
1570527202.60195
1570527202.61758
1570527202.6332
1570527202.64883
1570527202.66445
1570527202.68008
1570527202.6957
1570527202.71133
1570527202.72696
1570527202.74258
1570527202.75821
1570527202.77383
1570527202.78946
1570527202.80508
1570527202.82071
1570527202.83634
1570527202.85196
1570527202.86759
1570527202.88321
1570527202.89884
1570527202.91446
1570527202.93009
1570527202.94572
1570527202.96134
1570527202.97697
1570527202.99259
1570527203.00822
1570527203.02384
1570527203.03947
1570527203.0551
1570527203.07072
1570527203.08635
1570527203.10197
1570527203.1176
1570527203.13322
1570527203.14885
1570527203.16448
1570527203.1801
1570527203.19573
1570527203.21135
1570527203.22698
1570527203.2426
1570527203.25823
1570527203.27386
1570527203.28948
1570527203.30511
1570527203.32073
1570527203.33636
1570527203.35198
1570527203.36761
1570527203.38324
1570527203.39886
1570527203.41449
1570527203.43011
1570527203.44574
1570527203.46136
1570527203.47699
1570527203.49262
1570527203.50824
1570527203.52387
1570527203.53949
1570527203.55512
1570527203.57074
1570527203.58637
1570527203.602
1570527203.61762
1570527203.63325
1570527203.64887
1570527203.6645
1570527203.68012
1570527203.69575
1570527203.71138
1570527203.727
1570527203.74263
1570527203.75825
1570527203.77388
1570527203.7895
1570527203.80513
1570527203.82076
1570527203.83638
1570527203.85201
1570527203.86763
1570527203.88326
1570527203.89888
1570527203.91451
1570527203.93014
1570527203.94576
1570527203.96139
1570527203.97701
1570527203.99264
1570527204.00826
1570527204.02389
1570527204.03952
1570527204.05514
1570527204.07077
1570527204.08639
1570527204.10202
1570527204.11764
1570527204.13327
1570527204.1489
1570527204.16452
1570527204.18015
1570527204.19577
1570527204.2114
1570527204.22702
1570527204.24265
1570527204.25828
1570527204.2739
1570527204.28953
1570527204.30515
1570527204.32078
1570527204.3364
1570527204.35203
1570527204.36766
1570527204.38328
1570527204.39891
1570527204.41453
1570527204.43016
1570527204.44578
1570527204.46141
1570527204.47704
1570527204.49266
1570527204.50829
1570527204.52391
1570527204.53954
1570527204.55517
1570527204.57079
1570527204.58642
1570527204.60204
1570527204.61767
1570527204.63329
1570527204.64892
1570527204.66455
1570527204.68017
1570527204.6958
1570527204.71142
1570527204.72705
1570527204.74267
1570527204.7583
1570527204.77393
1570527204.78955
1570527204.80518
1570527204.8208
1570527204.83643
1570527204.85205
1570527204.86768
1570527204.88331
1570527204.89893
1570527204.91456
1570527204.93018
1570527204.94581
1570527204.96143
1570527204.97706
1570527204.99269
1570527205.00831
1570527205.02394
1570527205.03956
1570527205.05519
1570527205.07081
1570527205.08644
1570527205.10207
1570527205.11769
1570527205.13332
1570527205.14894
1570527205.16457
1570527205.18019
1570527205.19582
1570527205.21145
1570527205.22707
1570527205.2427
1570527205.25832
1570527205.27395
1570527205.28957
1570527205.3052
1570527205.32083
1570527205.33645
1570527205.35208
1570527205.3677
1570527205.38333
1570527205.39895
1570527205.41458
1570527205.43021
1570527205.44583
1570527205.46146
1570527205.47708
1570527205.49271
1570527205.50833
1570527205.52396
1570527205.53959
1570527205.55521
1570527205.57084
1570527205.58646
1570527205.60209
1570527205.61771
1570527205.63334
1570527205.64897
1570527205.66459
1570527205.68022
1570527205.69584
1570527205.71147
1570527205.72709
1570527205.74272
1570527205.75835
1570527205.77397
1570527205.7896
1570527205.80522
1570527205.82085
1570527205.83647
1570527205.8521
1570527205.86773
1570527205.88335
1570527205.89898
1570527205.9146
1570527205.93023
1570527205.94585
1570527205.96148
1570527205.97711
1570527205.99273
1570527206.00836
1570527206.02398
1570527206.03961
1570527206.05523
1570527206.07086
1570527206.08649
1570527206.10211
1570527206.11774
1570527206.13336
1570527206.14899
1570527206.16461
1570527206.18024
1570527206.19587
1570527206.21149
1570527206.22712
1570527206.24274
1570527206.25837
1570527206.27399
1570527206.28962
1570527206.30525
1570527206.32087
1570527206.3365
1570527206.35212
1570527206.36775
1570527206.38337
1570527206.399
1570527206.41463
1570527206.43025
1570527206.44588
1570527206.4615
1570527206.47713
1570527206.49275
1570527206.50838
1570527206.52401
1570527206.53963
1570527206.55526
1570527206.57088
1570527206.58651
1570527206.60213
1570527206.61776
1570527206.63339
1570527206.64901
1570527206.66464
1570527206.68026
1570527206.69589
1570527206.71151
1570527206.72714
1570527206.74277
1570527206.75839
1570527206.77402
1570527206.78964
1570527206.80527
1570527206.82089
1570527206.83652
1570527206.85215
1570527206.86777
1570527206.8834
1570527206.89902
1570527206.91465
1570527206.93027
1570527206.9459
1570527206.96153
1570527206.97715
1570527206.99278
1570527207.0084
1570527207.02403
1570527207.03965
1570527207.05528
1570527207.07091
1570527207.08653
1570527207.10216
1570527207.11778
1570527207.13341
1570527207.14903
1570527207.16466
1570527207.18029
1570527207.19591
1570527207.21154
1570527207.22716
1570527207.24279
1570527207.25842
1570527207.27404
1570527207.28967
1570527207.30529
1570527207.32092
1570527207.33654
1570527207.35217
1570527207.3678
1570527207.38342
1570527207.39905
1570527207.41467
1570527207.4303
1570527207.44592
1570527207.46155
1570527207.47718
1570527207.4928
1570527207.50843
1570527207.52405
1570527207.53968
1570527207.5553
1570527207.57093
1570527207.58656
1570527207.60218
1570527207.61781
1570527207.63343
1570527207.64906
1570527207.66468
1570527207.68031
1570527207.69594
1570527207.71156
