0.9609451
3.944584
6.493755
8.465355
9.846794
10.74575
11.32964
11.7359
12.0056
12.11164
12.05056
11.86922
11.65792
11.48604
11.31538
11.0489
10.57236
9.830795
8.876186
7.828259
6.796322
5.803215
4.78363
3.612747
2.197468
0.5516701
-1.216755
-2.98251
-4.657551
-6.251781
-7.861279
-9.519382
-11.17853
-12.7086
-13.99257
-15.02479
-15.98752
-17.09821
-18.44862
-19.88916
-20.99083
-21.26132
-20.3443
-18.21856
-15.1477
-11.54621
-7.784771
-4.070099
-0.4685516
3.012962
6.287052
9.197247
11.55653
13.25452
14.30819
14.89071
15.21507
15.43095
15.61255
15.70015
15.5571
15.06885
14.19883
13.04494
11.79252
10.64184
9.7173
9.027241
8.467072
7.868507
7.126209
6.180008
5.052814
3.793251
2.46212
1.077129
-0.3490334
-1.824703
-3.34864
-4.890503
-6.442261
-8.001888
-9.563805
-11.09008
-12.51942
-13.73357
-14.62941
-15.11987
-15.12719
-14.62703
-13.59713
-12.02797
-9.951622
-7.462578
-4.701008
-1.816601
1.028717
3.745636
6.256725
8.502399
10.42792
11.94661
12.9893
13.54023
13.68195
13.54643
13.25808
12.88165
12.37988
11.70096
10.7827
9.679359
8.525623
7.49057
6.687817
6.095566
5.547413
4.828766
3.786995
2.386356
0.7673874
-0.8769226
-2.369934
-3.638313
-4.707008
-5.651825
-6.512932
-7.272392
-7.936989
-8.540489
-9.241707
-10.26858
-11.7802
-13.74706
-15.86935
-17.67394
-18.67331
-18.55204
-17.26749
-15.02508
-12.18526
-9.088219
-5.98893
-3.007309
-0.220459
2.320381
4.578316
6.538506
8.197166
9.558838
10.62242
11.36069
11.77227
11.90191
11.85831
11.74809
11.61576
11.40246
10.97169
10.23689
9.222572
8.083099
7.039909
6.230888
5.655525
5.159348
4.523865
3.605537
2.390907
0.9962234
-0.4387665
-1.835869
-3.223106
-4.719315
-6.395256
-8.215538
-10.03996
-11.71529
-13.19444
-14.58532
-16.08553
-17.81839
-19.68572
-21.30221
-22.17318
-21.85324
-20.1984
-17.40288
-13.85458
-9.955917
-6.008461
-2.191216
1.383255
4.571007
7.226021
9.270897
10.74256
11.82012
12.71779
13.54005
14.2239
14.59583
14.50067
13.91915
13.0187
12.00299
11.03484
10.173
9.408333
8.759476
8.293221
8.0895
8.130325
8.249786
8.137543
7.526321
6.284615
4.527069
2.538719
0.5811234
-1.195335
-2.811462
-4.371292
-5.976433
-7.618935
-9.261833
-10.87357
-12.48282
-14.17909
-16.00119
-17.85738
-19.50677
-20.58747
-20.76062
-19.87836
-18.00486
-15.41084
-12.45637
-9.425285
-6.477654
-3.649178
-0.8858109
1.832397
4.456711
6.872597
8.9272
10.50683
11.57909
12.1864
12.43172
12.43435
12.28686
12.04509
11.73138
11.31293
10.77219
10.12753
9.413033
8.678642
7.953896
7.22197
6.408867
5.447136
4.265724
2.84269
1.23085
-0.4956207
-2.192551
-3.751129
-5.110031
-6.308884
-7.449471
-8.690758
-10.15627
-11.86577
-13.76241
-15.69955
-17.54242
-19.16364
-20.44654
-21.22734
-21.291
-20.41563
-18.45176
-15.4683
-11.71444
-7.62249
-3.59848
0.06488037
3.249191
5.971939
8.261276
10.12977
11.528
12.44295
12.90493
13.03351
12.96194
12.77453
12.48944
12.03803
11.37106
10.48814
9.499695
8.595551
7.924812
7.519608
7.280281
6.994606
6.425842
5.448738
4.046333
2.331779
0.4674301
-1.392906
-3.173065
-4.845688
-6.414299
-7.927071
-9.400185
-10.87466
-12.38106
-13.95728
-15.63387
-17.43712
-19.34901
-21.23556
-22.85861
-23.87234
-23.9808
-23.00699
-21.02988
-18.27946
-15.07496
-11.67422
-8.19693
-4.671844
-1.118217
2.342186
5.531609
8.288834
10.56927
12.44967
14.06274
15.44845
16.53387
17.19377
17.34687
17.0475
16.47415
15.83882
15.27113
14.7448
14.11951
13.24794
12.08681
10.73031
9.347641
8.089195
7.010235
6.047539
5.076412
3.98711
2.712906
1.260201
-0.3243294
-2.02774
-3.856991
-5.838799
-7.958019
-10.15584
-12.35542
-14.49864
-16.56353
-18.53456
-20.36413
-21.92885
-23.01486
-23.37392
-22.7723
-21.09552
-18.3945
-14.86412
-10.79645
-6.498058
-2.243355
1.776768
5.470306
8.805038
11.7569
14.26368
16.21832
17.52833
18.18398
18.25754
17.91695
17.33358
16.66096
15.99094
15.38982
14.87796
14.45338
14.10691
13.78743
13.44441
13.03121
12.51665
11.84388
10.91298
9.599052
7.814453
5.627626
3.250864
1.013971
-0.8187332
-2.181675
-3.237726
-4.290674
-5.623375
-7.380405
-9.511578
-11.8886
-14.34231
-16.76009
-19.01921
-20.95234
-22.3081
-22.82986
-22.3577
-20.86697
-18.50025
-15.46102
-11.96495
-8.207901
-4.313896
-0.4048729
3.374069
6.830103
9.791969
12.13153
13.84427
15.03046
15.84529
16.47148
17.0025
17.4298
17.64889
17.54343
17.04768
16.20613
15.15624
14.03964
12.95344
11.89958
10.82497
9.645462
8.33935
6.8853
5.319466
3.688186
2.041699
0.4187403
-1.148974
-2.610529
-3.942537
-5.120275
-6.202225
-7.304257
-8.571095
-10.11819
-11.94998
-13.90583
-15.62194
-16.65844
-16.63524
-15.40555
-13.10571
-10.12479
-6.926395
-3.885471
-1.187192
1.182099
3.326069
5.317049
7.125807
8.638824
9.738974
10.40292
10.72606
10.85675
10.94731
11.01377
10.97736
10.72788
10.21525
9.556911
8.948153
8.603197
8.571573
8.729647
8.772741
8.401051
7.428648
5.851719
3.851294
1.639824
-0.5964127
-2.781748
-4.906328
-7.037085
-9.248463
-11.61255
-14.1972
-16.97843
-19.82257
-22.44353
-24.43348
-25.3512
-24.89132
-22.95624
-19.70356
-15.54056
-10.98292
-6.559525
-2.649876
0.5619831
3.092115
5.068357
6.623512
7.824938
8.659039
9.106878
9.239504
9.218622
9.217546
9.309383
9.38467
9.213093
8.585339
7.435467
5.907008
4.301688
2.930939
1.979969
1.46318
1.257162
1.161366
1.007598
0.6750154
0.1145096
-0.6328602
-1.495893
-2.385473
-3.235937
-4.061219
-4.983255
-6.196318
-7.927363
-10.31409
-13.33484
-16.75348
-20.15725
-23.01163
-24.83507
-25.31431
-24.39995
-22.31355
-19.44809
-16.2371
-13.04146
-10.07511
-7.40166
-5.009477
-2.85303
-0.9165146
0.772773
2.207565
3.442581
4.59091
5.784141
7.111776
8.532162
9.887737
10.97387
11.63226
11.86265
11.8128
11.70994
11.70783
11.80527
11.83576
11.52236
10.66397
9.202221
7.245274
5.03096
2.813105
0.7772617
-0.9995956
-2.530991
-3.888584
-5.177326
-6.494225
-7.925285
-9.529234
-11.22911
-12.82322
-13.95315
-14.24756
-13.42519
-11.45063
-8.542213
-5.080318
-1.454384
2.066967
5.355949
8.434456
11.30776
13.91485
16.13249
17.88915
19.21447
20.28605
21.28605
22.27768
23.17783
23.73124
23.67963
22.93036
21.59768
19.95024
18.29094
16.77293
15.34516
13.84956
12.13966
10.18554
8.146797
6.24749
4.687618
3.530025
2.687763
1.94281
1.052029
-0.1815453
-1.876839
-4.053947
-6.699619
-9.730145
-12.9433
-16.01926
-18.54745
-20.07639
-20.28767
-19.09013
-16.68369
-13.51737
-10.11775
-6.908016
-4.123821
-1.741627
0.3756409
2.36824
4.28944
6.065445
7.558521
8.664314
9.35881
9.698936
9.796883
9.752861
9.630379
9.436245
9.180187
8.860218
8.49855
8.120781
7.729298
7.300743
6.775875
6.082691
5.167801
4.028091
2.714085
1.343739
0.02997208
-1.157707
-2.293797
-3.576103
-5.239452
-7.444862
-10.14664
-13.08857
-15.86161
-18.05803
-19.38749
-19.73016
-19.13468
-17.70529
-15.56796
-12.83126
-9.63364
-6.158154
-2.645601
0.6710205
3.639
6.190569
8.352747
10.17052
11.65936
12.79154
13.50788
13.77543
13.6265
13.15652
12.46021
11.6257
10.68746
9.660666
8.570242
7.469112
6.423988
5.495529
4.708923
3.991125
3.261827
2.410151
1.351166
0.0420208
-1.518402
-3.297644
-5.201767
-7.116514
-8.958141
-10.67613
-12.30617
-13.89205
-15.38959
-16.64881
-17.38915
-17.31281
-16.26287
-14.2633
-11.54163
-8.426413
-5.20895
-2.058611
0.9645576
3.834682
6.500753
8.817436
10.63195
11.86299
12.54364
12.81719
12.8797
12.84992
12.75027
12.49404
11.95587
11.10044
10.02361
8.886594
7.883668
7.124146
6.576791
6.126511
5.610402
4.8864
3.902773
2.651073
1.151712
-0.5251083
-2.296227
-4.021582
-5.581922
-6.900154
-8.038647
-9.167091
-10.48631
-12.09879
-13.9106
-15.61367
-16.7998
-17.15134
-16.51777
-14.97994
-12.73896
-10.01261
-6.950482
-3.660588
-0.2958951
2.937656
5.745136
7.874164
9.215157
9.860479
10.06135
10.10339
10.19569
10.36576
10.48596
10.36559
9.875877
9.015191
7.913352
6.803533
5.865976
5.204887
4.785266
4.481102
4.137337
3.647955
2.961251
2.057504
0.9475143
-0.3984134
-1.948232
-3.639854
-5.333902
-6.878354
-8.239685
-9.481552
-10.81945
-12.42097
-14.34777
-16.43036
-18.29543
-19.50196
-19.67623
-18.70374
-16.69906
-13.98088
-10.88404
-7.679587
-4.504503
-1.387815
1.663186
4.616596
7.360209
9.730019
11.58848
12.86875
13.60447
13.91825
13.96143
13.85415
13.66153
13.38452
12.99369
12.46108
11.79977
11.05508
10.26894
9.47051
8.619234
7.659643
6.517753
5.149952
3.553401
1.747113
-0.2264824
-2.306683
-4.373516
-6.291273
-7.887213
-9.073483
-9.884297
-10.51932
-11.27866
-12.43016
-14.06324
-16.05072
-18.0331
-19.55991
-20.24387
-19.89254
-18.54235
-16.4083
-13.77649
-10.8568
-7.792774
-4.670066
-1.548549
1.453608
4.173702
6.46587
8.222975
9.449621
10.2417
10.74634
11.08695
11.35633
11.54958
11.61803
11.5097
11.18197
10.66396
10.01315
9.297066
8.577898
7.882322
7.184099
6.426249
5.558716
4.517664
3.29508
1.930901
0.4876595
-0.9450817
-2.287344
-3.562191
-4.87166
-6.363323
-8.188658
-10.3633
-12.77964
-15.22188
-17.43781
-19.20762
-20.37731
-20.84818
-20.55188
-19.45238
-17.51641
-14.82602
-11.54094
-7.91466
-4.233204
-0.7042179
2.578579
5.65848
8.597721
11.44122
14.10291
16.36534
18.02531
18.9314
19.1182
18.76985
18.17658
17.57113
17.08838
16.6752
16.15495
15.3525
14.12919
12.50808
10.60347
8.608311
6.67407
4.920477
3.366013
1.992449
0.7893715
-0.2593098
-1.143639
-1.918827
-2.70582
-3.683599
-5.004642
-6.729717
-8.831072
-11.15518
-13.55162
-15.90032
-18.1111
-20.11028
-21.78666
-22.96658
-23.37521
-22.80628
-21.13341
-18.46212
-15.04821
-11.25627
-7.422773
-3.789429
-0.4825001
2.458103
4.977465
7.054865
8.636152
9.764629
10.5519
11.17415
11.77524
12.40442
12.9814
13.31933
13.2767
12.79464
11.96299
10.931
9.845774
8.787046
7.772594
6.765301
5.714476
4.590582
3.360918
1.993862
0.5111637
-1.054619
-2.60955
-4.055004
-5.330637
-6.454357
-7.54767
-8.812027
-10.4425
-12.48893
-14.86205
-17.27289
-19.3478
-20.73376
-21.175
-20.58589
-19.06289
-16.8224
-14.09308
-11.12131
-8.065845
-5.057301
-2.150833
0.6120911
3.209995
5.582434
7.635815
9.280441
10.46453
11.24585
11.73227
12.04334
12.25863
12.37304
12.31324
12.02785
11.50886
10.83179
10.1103
9.425385
8.788718
8.182682
7.569181
6.917185
6.194563
5.330973
4.229703
2.812633
1.077824
-0.8854027
-2.915236
-4.885468
-6.726376
-8.47633
-10.22406
-12.11512
-14.27264
-16.75558
-19.51667
-22.32049
-24.78848
-26.44201
-26.87618
-25.92385
-23.70234
-20.53088
-16.80133
-12.83721
-8.810493
-4.811358
-0.8948118
2.878215
6.426341
9.681936
12.57664
15.01373
16.85319
17.98979
18.39289
18.17495
17.57997
16.91097
16.36519
15.98716
15.6859
15.30283
14.7602
14.04802
13.22387
12.34417
11.3999
10.31628
9.017012
7.47649
5.769059
4.039461
2.41781
0.9481201
-0.4293118
-1.874296
-3.53185
-5.465346
-7.638702
-9.979076
-12.46263
-15.14214
-18.05866
-21.12642
-24.05462
-26.36453
-27.52991
-27.22057
-25.44254
-22.49038
-18.81138
-14.78944
-10.64669
-6.466763
-2.313673
1.682486
5.294119
8.29883
10.61002
12.30392
13.60444
14.73534
15.85085
16.99072
18.10746
19.09969
19.86575
20.30931
20.32977
19.84824
18.84467
17.37964
15.63434
13.83516
12.17274
10.73027
9.450644
8.168322
6.721903
5.045975
3.173178
1.22374
-0.6934853
-2.514965
-4.244209
-5.912441
-7.546539
-9.127918
-10.63822
-12.10116
-13.59418
-15.23756
-17.0458
-18.88807
-20.4529
-21.33109
-21.14949
-19.73282
-17.15384
-13.70813
-9.778763
-5.71756
-1.763645
1.936993
5.283184
8.22089
10.68293
12.6338
14.05675
14.95525
15.37599
15.40168
15.13007
14.67199
14.14157
13.60493
13.05703
12.42406
11.61917
10.62961
9.52182
8.409126
7.432793
6.625221
5.929447
5.226383
4.395603
3.349228
2.076679
0.5857315
-1.066502
-2.799728
-4.555336
-6.260254
-7.876293
-9.401726
-10.89154
-12.42594
-14.11231
-16.01794
-18.12062
-20.29505
-22.27088
-23.69707
-24.27472
-23.8299
-22.38734
-20.10905
-17.22977
-13.92083
-10.2967
-6.390438
-2.262722
1.937347
5.994747
9.647861
12.69732
15.05438
16.75126
17.90728
18.66983
19.16666
19.4467
19.54062
19.42726
19.12474
18.68644
18.18437
17.65665
17.07645
16.35571
15.38
14.09322
12.52074
10.78256
9.044586
7.403641
5.857151
4.292889
2.584053
0.6717873
-1.363342
-3.364677
-5.170708
-6.727528
-8.130234
-9.581573
-11.2953
-13.40135
-15.85833
-18.49698
-21.04309
-23.18018
-24.59256
-25.0378
-24.35732
-22.54235
-19.7576
-16.28292
-12.4598
-8.558105
-4.738712
-1.040459
2.552383
6.039814
9.352463
12.35157
14.87974
16.82551
18.18383
19.03514
19.50975
19.74537
19.84572
19.83823
19.69959
19.35493
18.72812
17.77814
16.50454
14.98822
13.37794
11.84053
10.50208
9.402245
8.4785
7.609882
6.656063
5.522072
4.170044
2.662018
1.071198
-0.5150986
-2.068047
-3.621162
-5.245369
-7.021103
-8.977108
-11.12822
-13.42589
-15.80152
-18.1471
-20.29798
-22.04602
-23.13511
-23.29868
-22.3503
-20.27032
-17.238
-13.59715
-9.753513
-6.046978
-2.668499
0.3392677
3.025196
5.457939
7.651173
9.574131
11.19179
12.49442
13.50562
14.25101
14.72963
14.92482
14.85251
14.58108
14.20783
13.80265
13.33644
12.75106
11.95653
10.92603
9.759525
8.585096
7.479828
6.408192
5.216545
3.754124
1.994299
0.05638123
-1.870264
-3.58242
-5.043694
-6.30793
-7.473892
-8.603415
-9.673
-10.60933
-11.43352
-12.28721
-13.4149
-15.08362
-17.32221
-19.85479
-22.13712
-23.51749
-23.50242
-21.97285
-19.14919
-15.47952
-11.45548
-7.409756
-3.484264
0.2780457
3.842642
7.100153
9.880419
12.07651
13.6857
14.77812
15.46352
15.85257
15.96768
15.87807
15.65681
15.39126
15.16355
14.98806
14.77615
14.44345
13.92998
13.24285
12.48309
11.75278
11.13221
10.61685
10.14961
9.625544
8.970762
8.10298
6.951768
5.49049
3.744412
1.817702
-0.1135836
-1.900713
-3.459391
-4.80728
-6.06515
-7.411985
-9.012629
-10.9426
-13.19849
-15.58521
-17.82472
-19.56626
-20.48583
-20.36475
-19.17413
-17.05504
-14.27103
-11.13446
-7.885303
-4.737717
-1.804669
0.8180208
3.093889
4.987405
6.507798
7.683268
8.539165
9.127314
9.486679
9.66683
9.6681
9.474813
9.096113
8.555937
7.964619
7.437477
7.079195
6.930035
6.899601
6.821236
6.505564
5.876589
4.968962
3.941326
2.96233
2.148594
1.522236
0.9782047
0.3495178
-0.5342789
-1.737694
-3.257992
-4.974453
-6.736771
-8.42638
-9.998478
-11.47554
-12.87712
-14.18828
-15.25434
-15.86622
-15.79554
-14.89481
-13.19418
-10.84352
-8.072891
-5.08934
-2.075977
0.8328133
3.486092
5.762016
7.55492
8.819359
9.586372
9.962994
10.08575
10.06577
9.972424
9.814194
9.570324
9.229717
8.799572
8.315292
7.845818
7.442303
7.136845
6.934517
6.766422
6.526562
6.090317
5.351048
4.239273
2.801125
1.100716
-0.6996155
-2.417648
-3.895348
-5.045074
-5.85923
-6.440102
-6.985435
-7.701622
-8.771584
-10.26256
-12.08736
-14.04732
-15.85744
-17.24753
-18.01466
-18.06621
-17.35909
-15.93217
-13.8541
-11.26701
-8.419769
-5.603294
-3.09642
-1.048401
0.5766907
1.975372
3.394958
4.982742
6.740959
8.480881
9.964066
10.97272
11.39407
11.23938
10.61265
9.677116
8.604759
7.57579
6.717896
6.129425
5.818291
5.739899
5.794968
5.840088
5.727661
5.308655
4.523003
3.364555
1.918724
0.2723083
-1.501709
-3.366638
-5.323586
-7.339142
-9.347145
-11.22698
-12.89626
-14.33569
-15.61613
-16.81158
-17.87731
-18.63576
-18.8001
-18.12218
-16.52986
-14.14729
-11.24879
-8.144173
-5.076408
-2.176231
0.503212
2.95491
5.165955
7.113029
8.741745
10.02356
10.93066
11.48233
11.74543
11.80173
11.74957
11.63107
11.41483
11.04393
10.48503
9.768723
8.977196
8.218895
7.519745
6.846451
6.083466
5.090858
3.78672
2.145813
0.237854
-1.802116
-3.806473
-5.627869
-7.148476
-8.353081
-9.310204
-10.16972
-11.10355
-12.2474
-13.67088
-15.29445
-16.96749
-18.40485
-19.3261
-19.47816
-18.74039
-17.13113
-14.7798
-11.91276
-8.746323
-5.497871
-2.295135
0.7393494
3.498077
5.875504
7.765038
9.130058
9.966988
10.33818
10.34047
10.11491
9.788818
9.454666
9.139275
8.798409
8.374374
7.80999
7.116364
6.362976
5.663773
5.129898
4.789116
4.611938
4.462921
4.210434
3.736938
3.012894
2.038841
0.8517914
-0.4685593
-1.867424
-3.250221
-4.561523
-5.761986
-6.913879
-8.170433
-9.737778
-11.7831
-14.25905
-16.91695
-19.2581
-20.75398
-20.96004
-19.68678
-17.03906
-13.35403
-9.088402
-4.684578
-0.5068741
3.23362
6.398041
8.927269
10.82069
12.13531
12.98328
13.47516
13.74046
13.84736
13.84389
13.72344
13.4791
13.11543
12.66259
12.17586
11.67699
11.1531
10.57182
9.916267
9.150703
8.25045
7.15683
5.784554
4.097809
2.114548
-0.04129791
-2.178963
-4.112099
-5.764404
-7.168129
-8.462051
-9.846893
-11.46479
-13.35307
-15.41409
-17.43053
-19.11736
-20.18264
-20.39481
-19.60963
-17.83559
-15.18295
-11.90311
-8.287018
-4.635719
-1.217964
1.762703
4.200165
6.079964
7.46019
8.483116
9.247925
9.848473
10.32737
10.65734
10.81058
10.77699
10.57746
10.23893
9.838455
9.385674
8.897942
8.382668
7.863922
7.362602
6.921196
6.505211
5.996155
5.230042
4.036964
2.359085
0.2796631
-1.997345
-4.203926
-6.119835
-7.661514
-8.874367
-9.909271
-10.98557
-12.29575
-13.94695
-15.90757
-17.972
-19.77583
-20.90574
-21.01134
-19.91213
-17.72645
-14.74931
-11.37579
-7.930611
-4.566788
-1.299583
1.897537
4.98703
7.833023
10.21598
11.99686
13.15977
13.85695
14.28731
14.6024
14.84643
14.94766
14.81773
14.38676
13.6709
12.72647
11.61121
10.38976
9.093597
7.752419
6.382774
4.999107
3.565529
2.065292
0.5138474
-1.060318
-2.572029
-3.995071
-5.342728
-6.709549
-8.206917
-9.924164
-11.88488
-14.02581
-16.24818
-18.40471
-20.35658
-21.92542
-22.92693
-23.1389
-22.38764
-20.58885
-17.77416
-14.1462
-9.986343
-5.627975
-1.372864
2.54248
5.981148
8.87204
11.20475
13.03241
14.40202
15.36005
15.9068
16.01846
15.72334
15.09599
14.27085
13.38696
12.53123
11.69291
10.81173
9.861938
8.874397
7.963669
7.206749
6.587524
5.957054
5.119751
3.923553
2.368782
0.6030502
-1.207718
-2.922836
-4.502464
-5.941238
-7.218178
-8.318359
-9.279991
-10.231
-11.37437
-12.93582
-14.99155
-17.39795
-19.79211
-21.687
-22.674
-22.51606
-21.19379
-18.8607
-15.77056
-12.15732
-8.217171
-4.117668
-0.003250122
3.947159
7.545425
10.61997
13.05618
14.84575
16.1067
17.02483
17.77172
18.43272
18.98301
19.31576
19.30955
18.92043
18.20495
17.307
16.40623
15.63721
15.02962
14.50361
13.88662
12.98241
11.62949
9.787254
7.541176
5.071022
2.612793
0.3715057
-1.545349
-3.138672
-4.492218
-5.740967
-7.012871
-8.395538
-9.941559
-11.62627
-13.41288
-15.22656
-16.96246
-18.47221
-19.54963
-19.97607
-19.55227
-18.17474
-15.86684
-12.80821
-9.23941
-5.445877
-1.648941
2.03228
5.521774
8.78849
11.76032
14.34902
16.42871
17.93568
18.87114
19.31801
19.42648
19.33699
19.14733
18.87093
18.45795
17.81136
16.86511
15.62299
14.12903
12.4944
10.82996
9.247116
7.806854
6.533424
5.397774
4.34494
3.282516
2.084663
0.6639175
-1.023842
-2.880379
-4.753487
-6.453117
-7.846809
-8.938469
-9.874649
-10.90531
-12.23351
-13.95596
-15.95728
-17.95615
-19.55515
-20.31496
-19.90137
-18.17506
-15.27298
-11.54896
-7.500534
-3.598
-0.1502762
2.732018
5.091019
6.981941
8.424042
9.395035
9.891869
10.00309
9.918564
9.860596
9.987251
10.33547
10.78806
11.20496
11.45459
11.46928
11.27254
10.90711
10.4194
9.814842
9.0728
8.121216
6.925171
5.435257
3.65641
1.685287
-0.3318787
-2.192383
-3.746986
-4.915001
-5.75515
-6.413353
-7.087967
-7.973145
-9.198792
-10.799
-12.71198
-14.78529
-16.81525
-18.5839
-19.84541
-20.38194
-20.02287
-18.69692
-16.46691
-13.52105
-10.1458
-6.653389
-3.314339
-0.2769699
2.397972
4.71817
6.692131
8.269127
9.396095
10.03973
10.22884
10.1134
9.882385
9.699905
9.60759
9.542679
9.361435
8.95166
8.290756
7.479195
6.665642
5.951706
5.337616
4.70726
3.912949
2.867561
1.595787
0.2086716
-1.141602
-2.377586
-3.527214
-4.660431
-5.856239
-7.099182
-8.284843
-9.292046
-10.09866
-10.85446
-11.82426
-13.25539
-15.21046
-17.43559
-19.46152
-20.73361
-20.84627
-19.67419
-17.42208
-14.47436
-11.24345
-8.024643
-4.929756
-1.938454
1.04216
4.041885
7.025177
9.860168
12.37859
14.42778
15.91664
16.84721
17.26906
17.30238
17.0545
16.63187
16.09203
15.44389
14.66541
13.70057
12.54445
11.22015
9.809494
8.410645
7.09465
5.858246
4.612106
3.233589
1.627037
-0.1877823
-2.089005
-3.878532
-5.383148
-6.572098
-7.532013
-8.453682
-9.512024
-10.82515
-12.37897
-14.10655
-15.90608
-17.68082
-19.35838
-20.80267
-21.82217
-22.15446
-21.57063
-19.9271
-17.30076
-13.96033
-10.24861
-6.49633
-2.895775
0.4800186
3.622192
6.507217
9.086182
11.25911
12.91955
14.04688
14.6767
14.91729
14.86646
14.60037
14.13686
13.50288
12.7282
11.88656
11.09466
10.44239
9.979752
9.625778
9.24617
8.681885
7.850578
6.793144
5.618073
4.418457
3.212326
1.93119
0.4833755
-1.135727
-2.838524
-4.461784
-5.876381
-7.053101
-8.09211
-9.179512
-10.52486
-12.27826
-14.49829
-17.09531
-19.80734
-22.23758
-23.92854
-24.48273
-23.71587
-21.70037
-18.72829
-15.18726
-11.45773
-7.770187
-4.237717
-0.8982468
2.260269
5.20649
7.852989
10.0938
11.83106
12.97858
13.58736
13.78857
13.77172
13.71544
13.70318
13.7329
13.73425
13.65486
13.45307
13.15328
12.74426
12.19113
11.45691
10.49898
9.359245
8.125778
6.890511
5.678406
4.496147
3.280083
1.979187
0.6252899
-0.7469864
-2.096504
-3.409584
-4.712502
-6.028061
-7.338974
-8.629105
-9.899353
-11.18623
-12.57413
-14.11617
-15.75755
-17.33858
-18.60851
-19.2888
-19.18541
-18.23787
-16.47021
-14.02769
-11.08478
-7.82843
-4.474846
-1.231155
1.71682
4.22419
6.237991
7.817192
9.073013
10.13853
11.10232
11.95447
12.64254
13.11057
13.35736
13.43932
13.44859
13.4678
13.52185
13.55334
13.47202
13.18638
12.65799
11.88785
10.94387
9.889854
8.78157
7.647148
6.471123
5.174484
3.693314
2.019028
0.232872
-1.498932
-3.006866
-4.203941
-5.123512
-5.917877
-6.796288
-7.946274
-9.449318
-11.28241
-13.32101
-15.40666
-17.366
-19.01805
-20.17784
-20.64246
-20.28394
-19.04343
-16.96748
-14.19389
-10.92371
-7.378387
-3.745644
-0.2177429
3.040878
5.859055
8.121742
9.779572
10.87153
11.51695
11.82686
11.91228
11.8475
11.65929
11.40054
11.16734
11.06351
11.16005
11.45368
11.83984
12.16771
12.29149
12.12137
11.64688
10.88036
9.846901
8.558846
7.078949
5.507164
3.977196
2.589058
1.351402
0.182663
-1.096222
-2.657043
-4.544884
-6.660202
-8.819595
-10.82153
-12.55302
-14.01681
-15.27512
-16.46227
-17.68504
-18.94551
-20.13268
-21.01864
-21.31393
-20.78749
-19.35677
-17.10789
-14.26777
-11.10137
-7.80265
-4.468979
-1.107704
2.244232
5.469055
8.378784
10.77395
12.5157
13.58813
14.08682
14.1494
13.93533
13.59581
13.21864
12.8639
12.54903
12.29466
12.11469
12.01526
11.94547
11.81725
11.51632
10.95387
10.10941
9.025375
7.834145
6.695053
5.760941
5.067924
4.543037
4.009499
3.23085
1.984177
0.1359634
-2.271645
-5.047081
-7.894547
-10.50607
-12.65137
-14.25455
-15.40332
-16.29893
-17.16609
-18.14706
-19.22525
-20.22872
-20.88939
-20.95006
-20.25874
-18.82742
-16.77145
-14.25089
-11.36935
-8.175255
-4.708679
-1.060463
2.556091
5.871414
8.614777
10.64449
11.93176
12.57348
12.73692
12.60999
12.35146
12.06352
11.79815
11.55243
11.31603
11.09242
10.92366
10.84188
10.84094
10.80287
10.56147
9.978806
9.007355
7.79026
6.566818
5.569527
4.889091
4.455528
4.065605
3.524139
2.711823
1.625351
0.3483582
-1.038803
-2.493469
-4.027557
-5.670311
-7.423119
-9.246376
-11.11102
-12.99345
-14.90557
-16.83579
-18.68402
-20.26056
-21.24624
-21.35843
-20.42872
-18.48844
-15.73783
-12.4528
-8.909317
-5.282204
-1.71328
1.681007
4.743164
7.341385
9.368584
10.79702
11.71699
12.25694
12.58485
12.79487
12.93674
13.0159
13.03083
12.97329
12.82993
12.59124
12.2225
11.67921
10.90729
9.893272
8.672028
7.326019
5.997459
4.753204
3.615128
2.522873
1.39463
0.186264
-1.071419
-2.267258
-3.31942
-4.185905
-4.971046
-5.82959
-6.93438
-8.355705
-10.04596
-11.89755
-13.80825
-15.75959
-17.75216
-19.76108
-21.62613
-23.06605
-23.71352
-23.25275
-21.59093
-18.8758
-15.42698
-11.62706
-7.786743
-4.080795
-0.6024551
2.577873
5.392937
7.732735
9.533142
10.81828
11.7067
12.36517
12.94884
13.53073
14.10703
14.62813
15.02489
15.27174
15.34647
15.22697
14.88745
14.33484
13.58858
12.71041
11.76099
10.76458
9.70816
8.557259
7.272964
5.855469
4.342224
2.750282
1.063957
-0.7379837
-2.65831
-4.608124
-6.445557
-8.011292
-9.213066
-10.08375
-10.79695
-11.63188
-12.85073
-14.6438
-16.98908
-19.65485
-22.20153
-24.12048
-24.94405
-24.42805
-22.59946
-19.72554
-16.21638
-12.43399
-8.605904
-4.813858
-1.063171
2.601799
6.034729
9.018555
11.36947
12.98875
13.95222
14.45963
14.72305
14.90672
15.04832
15.10525
15.01095
14.74335
14.32372
13.81022
13.24461
12.61345
11.87302
10.95745
9.857666
8.619934
7.355972
6.177414
5.165176
4.324936
3.585464
2.804771
1.852402
0.6513062
-0.7672958
-2.281143
-3.752014
-5.087219
-6.319366
-7.615059
-9.192444
-11.21842
-13.70797
-16.4753
-19.1921
-21.47119
-22.97543
-23.50035
-22.99215
-21.51018
-19.19387
-16.19322
-12.67609
-8.830414
-4.869728
-1.012054
2.583031
5.819847
8.671829
11.11626
13.11331
14.57629
15.43855
15.68945
15.4311
14.85896
14.18321
13.57472
13.10357
12.76543
12.53494
12.36424
12.20831
12.01799
11.7006
11.19096
10.43726
9.45417
8.292519
7.046288
5.7761
4.54229
3.383018
2.297386
1.273361
0.2615128
-0.7820358
-1.94207
-3.275826
-4.825706
-6.5849
-8.511513
-10.55453
-12.6775
-14.87342
-17.09988
-19.2644
-21.15002
-22.45244
-22.86974
-22.18302
-20.39398
-17.67486
-14.34184
-10.71529
-7.057877
-3.534485
-0.2464371
2.720551
5.322052
7.49839
9.264961
10.65976
11.74864
12.62177
13.34798
13.95835
14.41844
14.67341
14.63177
14.25271
13.58099
12.73738
11.86214
11.05914
10.34268
9.611038
8.792633
7.865204
6.931061
6.11084
5.459274
4.908501
4.272057
3.389099
2.147865
0.5877762
-1.186592
-3.044472
-4.903297
-6.751541
-8.579391
-10.3629
-12.05831
-13.6638
-15.20995
-16.77894
-18.41448
-20.01862
-21.37118
-22.12904
-21.94828
-20.62556
-18.16111
-14.73417
-10.65786
-6.270058
-1.860466
2.298576
5.989891
9.037704
11.33795
12.89066
13.82163
14.3489
14.67998
14.99461
15.33054
15.63589
15.7913
15.67876
15.22572
14.43419
13.38894
12.24672
11.20591
10.41022
9.903595
9.611298
9.341492
8.922756
8.26754
7.376923
6.340992
5.250404
4.119312
2.882385
1.457153
-0.1845474
-1.953938
-3.723694
-5.37043
-6.883095
-8.343292
-9.902676
-11.72453
-13.88806
-16.35672
-18.93139
-21.28796
-23.02345
-23.78622
-23.36454
-21.76104
-19.17704
-15.93565
-12.38659
-8.778305
-5.233315
-1.781425
1.56065
4.711845
7.528069
9.842751
11.54338
12.59534
13.08779
13.21239
13.17981
13.13733
13.14653
13.18329
13.16366
13.07656
12.94609
12.84472
12.79331
12.70683
12.37592
11.60041
10.30709
8.624599
6.859383
5.349293
4.269321
3.57975
3.036854
2.35556
1.38026
0.1345482
-1.226421
-2.51886
-3.659462
-4.720051
-5.822536
-7.111595
-8.657574
-10.46869
-12.49372
-14.60728
-16.61286
-18.25977
-19.30489
-19.54958
-18.97451
-17.64441
-15.71554
-13.35737
-10.69471
-7.785751
-4.689541
-1.500412
1.649982
4.581566
7.15202
9.2635
10.88163
12.00966
12.69651
12.9808
12.89678
12.50562
11.87576
11.12547
10.38441
9.756168
9.303822
9.03204
8.903095
8.860992
8.83223
8.75626
8.576866
8.227383
7.645943
6.813805
5.735611
4.467587
3.087502
1.674915
0.267765
-1.116135
-2.497002
-3.926369
-5.427647
-7.031654
-8.7435
-10.59188
-12.59125
-14.78353
-17.13173
-19.51262
-21.66311
-23.24873
-23.9434
-23.52413
-21.9665
-19.39799
-16.09018
-12.34866
-8.477051
-4.671707
-1.070278
2.25769
5.269527
7.918156
10.17367
11.99536
13.38494
14.34913
14.93808
15.20983
15.22582
15.06488
14.80404
14.51718
14.23566
13.93513
13.53742
12.96606
12.18819
11.24975
10.27496
9.361637
8.552937
7.776093
6.928528
5.921124
4.735306
3.395023
1.936081
0.4111481
-1.173309
-2.82082
-4.551888
-6.340622
-8.114609
-9.788643
-11.30643
-12.69158
-13.99814
-15.34054
-16.78013
-18.23697
-19.52003
-20.32282
-20.34798
-19.39616
-17.46807
-14.71915
-11.46733
-8.046051
-4.74321
-1.744377
0.8733063
3.138504
5.161385
7.042206
8.854134
10.5519
12.03839
13.19657
13.94604
14.28161
14.27724
14.04158
13.63731
13.11214
12.50392
11.88455
11.328
10.87063
10.4462
9.927971
9.167206
8.123039
6.880135
5.603828
4.441422
3.390976
2.331497
1.082771
-0.4267349
-2.101944
-3.744431
-5.168205
-6.315269
-7.316193
-8.333183
-9.490639
-10.81499
-12.25625
-13.7682
-15.35612
-17.02016
-18.65256
-20.03133
-20.81676
-20.70906
-19.60432
-17.62282
-15.04639
-12.16122
-9.119827
-5.938469
-2.585327
0.8919601
4.311104
7.382484
9.814598
11.45708
12.30595
12.53667
12.36603
12.00305
11.60741
11.28291
11.07068
10.99119
11.00762
11.02969
10.96766
10.70432
10.19272
9.459305
8.604027
7.71534
6.860199
6.016945
5.082207
3.968834
2.63356
1.152336
-0.3467178
-1.737793
-2.987801
-4.152084
-5.329506
-6.620712
-8.048523
-9.597229
-11.25446
-13.09022
-15.19352
-17.57054
-20.06047
-22.30243
-23.86333
-24.35968
-23.62
-21.69643
-18.82451
-15.30944
-11.4199
-7.352409
-3.257042
0.6959991
4.348831
7.506985
10.01828
11.83372
13.00008
13.68431
14.09858
14.44768
14.83731
15.24268
15.5084
15.46132
15.03328
14.30395
13.5002
12.8377
12.43873
12.22405
11.96725
11.41168
10.42618
9.073883
7.512821
5.928459
4.367016
2.79493
1.128624
-0.6531448
-2.485142
-4.234253
-5.769276
-7.070797
-8.197887
-9.318943
-10.64941
-12.35538
-14.51774
-17.0596
-19.75967
-22.21088
-23.95561
-24.59751
-23.94623
-22.09505
-19.34283
-16.09484
-12.68176
-9.30299
-6.009106
-2.788578
0.344883
3.326664
6.049923
8.418114
10.3779
11.92233
13.05574
13.82804
14.29343
14.52977
14.62851
14.65341
14.61786
14.47588
14.19109
13.72017
13.06986
12.29002
11.41229
10.4713
9.426983
8.228199
6.868008
5.354519
3.755936
2.145218
0.609375
-0.8072662
-2.082981
-3.241489
-4.37719
-5.565178
-6.872513
-8.306427
-9.836922
-11.43422
-13.10508
-14.89191
-16.81474
-18.80647
-20.65821
-22.05884
-22.68046
-22.29398
-20.87332
-18.59472
-15.73508
-12.571
-9.314938
-6.044415
-2.801479
0.4055252
3.515747
6.451588
9.099155
11.34834
13.11393
14.3423
15.0474
15.28972
15.18701
14.91009
14.60816
14.37721
14.23515
14.11012
13.91917
13.6046
13.17996
12.66913
12.11821
11.51625
10.81965
9.958284
8.875786
7.556713
6.004482
4.252184
2.331951
0.3133965
-1.720118
-3.621439
-5.297745
-6.72756
-8.043144
-9.446951
-11.14421
-13.22262
-15.63326
-18.19912
-20.6356
-22.6476
-23.96385
-24.36813
-23.71041
-21.93535
-19.0659
-15.30784
-10.98574
-6.479891
-2.143507
1.7698
5.170877
8.055868
10.48092
12.4801
14.02707
15.0757
15.63674
15.78741
15.70598
15.5932
15.55028
15.58823
15.61718
15.5115
15.18782
14.66347
14.00046
13.30042
12.64389
12.04678
11.45173
10.76799
9.871989
8.650763
7.087099
5.224039
3.236825
1.318473
-0.3896523
-1.871503
-3.222955
-4.618189
-6.192349
-7.994667
-10.02428
-12.24907
-14.68229
-17.32391
-20.09562
-22.76638
-24.93741
-26.17524
-26.17145
-24.8521
-22.39325
-19.13086
-15.43308
-11.58909
-7.789977
-4.106472
-0.6072788
2.661966
5.589296
8.091872
10.12439
11.70269
12.91591
13.85508
14.60481
15.17183
15.55266
15.68856
15.56289
15.19101
14.61321
13.88076
13.00085
11.98596
10.83908
9.626413
8.43091
7.32128
6.3313
5.426559
4.540852
3.61642
2.637739
1.603438
0.5023801
-0.6868756
-2.013794
-3.477293
-5.051775
-6.682225
-8.362255
-10.17056
-12.21768
-14.55276
-17.06401
-19.41439
-21.14152
-21.84827
-21.32886
-19.65826
-17.16063
-14.22895
-11.16698
-8.115878
-5.07481
-1.98491
1.174271
4.300055
7.232419
9.766318
11.75343
13.14582
13.98875
14.36669
14.38604
14.16077
13.79028
13.39199
13.07901
12.90531
12.84766
12.8138
12.68033
12.33701
11.73712
10.91115
9.932585
8.873845
7.774182
6.650623
5.49229
4.304612
3.108641
1.895969
0.6189928
-0.8202624
-2.532997
-4.606358
-6.987769
-9.520624
-11.99055
-14.25794
-16.32441
-18.32661
-20.38938
-22.47407
-24.32234
-25.49592
-25.57077
-24.34588
-21.90596
-18.56374
-14.68876
-10.55154
-6.283605
-1.956929
2.328343
6.363958
9.897265
12.7248
14.7858
16.16402
17.00097
17.4203
17.46521
17.14655
16.49651
15.63075
14.7318
13.94469
13.3345
12.83593
12.32626
11.68224
10.90376
10.07231
9.294286
8.63356
8.025071
7.299987
6.266431
4.810184
2.939996
0.8115454
-1.356017
-3.377029
-5.16967
-6.793365
-8.381845
-10.04394
-11.82872
-13.7069
-15.61405
-17.48856
-19.25672
-20.78532
-21.89809
-22.37439
-22.0374
-20.8261
-18.8036
-16.15926
-13.09139
-9.768714
-6.28289
-2.740082
0.7611723
4.088939
7.119106
9.801257
12.127
14.11626
15.77996
17.09898
18.03949
18.60017
18.81429
18.71105
18.34406
17.70825
16.81388
15.68785
14.37407
12.95617
11.51456
10.086
8.679769
7.267196
5.811614
4.302385
2.765749
1.232436
-0.2395639
-1.632367
-2.970704
-4.318746
-5.717723
-7.171943
-8.605892
-9.895066
-10.98366
-11.92327
-12.91559
-14.22915
-16.03877
-18.27404
-20.60113
-22.48845
-23.39785
-23.01835
-21.26511
-18.35626
-14.66375
-10.56759
-6.379024
-2.299054
1.584958
5.233725
8.590255
11.61032
14.21793
16.32215
17.86082
18.7991
19.11846
18.86351
18.13426
17.07002
15.85938
14.66869
13.61277
12.74149
12.04001
11.46202
10.95368
10.48544
10.01648
9.485896
8.772251
7.784731
6.472968
4.87562
3.125484
1.381572
-0.2279148
-1.663924
-2.953156
-4.172796
-5.372338
-6.575621
-7.797103
-9.083147
-10.51502
-12.21494
-14.23698
-16.49553
-18.74182
-20.61091
-21.74366
-21.91624
-21.05313
-19.22923
-16.57697
-13.27233
-9.49671
-5.475151
-1.490612
2.166522
5.269677
7.744071
9.647511
11.10794
12.23065
13.07541
13.65268
13.97729
14.11319
14.16504
14.20476
14.22924
14.18431
13.99931
13.66188
13.20862
12.70751
12.1977
11.67626
11.06548
10.27833
9.240664
7.922263
6.367845
4.645952
2.844043
1.072026
-0.5905967
-2.107322
-3.490993
-4.802848
-6.140307
-7.579103
-9.167645
-10.93342
-12.87774
-14.98339
-17.14658
-19.15096
-20.69118
-21.46405
-21.24998
-20.01337
-17.91325
-15.20522
-12.15658
-8.950292
-5.67067
-2.3842
0.8067665
3.747099
6.255284
8.194853
9.538296
10.37959
10.89096
11.25171
11.55712
11.79172
11.85444
11.67829
11.27162
10.80293
10.50733
10.5561
10.95365
11.49129
11.85016
11.7507
11.10253
10.00107
8.687031
7.355839
6.056492
4.751188
3.327822
1.763929
0.1340637
-1.397728
-2.700258
-3.756008
-4.698092
-5.759363
-7.155519
-9.004734
-11.28765
-13.86287
-16.52344
-19.0557
-21.23659
-22.83087
-23.61158
-23.36721
-22.02902
-19.72655
-16.76048
-13.5116
-10.26364
-7.106054
-3.955471
-0.696331
2.665056
5.909603
8.713243
10.8184
12.13988
12.83325
13.15423
13.31501
13.34906
13.16008
12.6363
11.80322
10.8536
10.01357
9.450356
9.140232
8.916744
8.573898
8.001984
7.227779
6.370396
5.51231
4.639706
3.677422
2.536453
1.227623
-0.1404457
-1.454025
-2.66383
-3.828304
-5.085285
-6.532761
-8.160957
-9.890747
-11.62893
-13.34393
-15.13306
-17.11776
-19.32527
-21.56485
-23.45197
-24.50136
-24.38557
-23.01276
-20.54489
-17.29643
-13.58849
-9.662437
-5.652382
-1.683022
2.102795
5.506809
8.36887
10.63321
12.37066
13.75435
14.92902
15.93036
16.67939
17.0755
17.07011
16.73553
16.21586
15.62961
15.02176
14.33588
13.48475
12.43633
11.27005
10.13123
9.147724
8.368031
7.712543
7.067379
6.320747
5.419022
4.345764
3.118752
1.704227
0.04485703
-1.87455
-4.025303
-6.287457
-8.51049
-10.56232
-12.39709
-14.04984
-15.65711
-17.33309
-19.06789
-20.69999
-21.91852
-22.36834
-21.78333
-20.08295
-17.38929
-13.97168
-10.14239
-6.153767
-2.208073
1.546116
4.97995
7.944386
10.3469
12.15986
13.44837
14.36719
15.08679
15.69431
16.21112
16.56613
16.64379
16.37521
15.76357
14.89418
13.92146
12.9998
12.21436
11.59068
11.08281
10.5709
9.953583
9.16214
8.160351
7.001446
5.767601
4.569832
3.443386
2.323208
1.020531
-0.6859093
-2.974617
-5.889549
-9.301804
-12.97969
-16.64279
-20.06472
-23.09563
-25.63856
-27.57424
-28.7487
-29.01042
-28.27116
-26.57858
-24.13795
-21.26201
-18.24018
-15.26261
-12.36841
-9.527481
-6.71217
-3.957058
-1.390667
0.8465805
2.650269
4.032711
5.102692
6.009575
6.889088
7.807449
8.740627
9.604252
10.33341
10.87544
11.23169
11.42006
11.43085
11.23498
10.80078
10.11464
9.191288
8.0947
6.869373
5.549381
4.136772
2.625656
1.057274
-0.5001869
-1.96542
-3.31171
-4.578899
-5.888302
-7.377495
-9.136311
-11.15139
-13.27874
-15.30371
-17.00217
-18.1917
-18.75316
-18.60326
-17.69992
-16.00714
-13.53449
-10.35625
-6.63343
-2.632233
1.322784
4.911697
7.917076
10.25703
12.00686
13.30994
14.38074
15.36927
16.4188
17.58091
18.82798
20.06798
21.15799
21.96626
22.36494
22.29364
21.73054
20.69843
19.21702
17.3253
15.04042
12.40636
9.479046
6.333832
3.034954
-0.3620377
-3.800392
-7.201866
-10.46824
-13.51614
-16.32103
-18.95173
-21.53546
-24.22884
-27.12637
-30.1635
-33.10312
-35.58288
-37.15644
-37.46798
-36.30472
-33.68337
-29.8105
-25.04465
-19.77272
-14.35139
-9.074497
-4.148453
0.3243866
4.345444
7.94109
11.15973
13.95567
16.20951
17.75367
18.47602
18.38924
17.65715
16.50322
15.10754
13.57081
11.89598
10.12082
8.347454
6.779154
5.590483
4.810379
4.267834
3.668083
2.757008
1.424353
-0.2546062
-2.091213
-3.93778
-5.728924
-7.502485
-9.31352
-11.18225
-13.0741
-14.97962
-16.96171
-19.08918
-21.3786
-23.68786
-25.71471
-27.05767
-27.38212
-26.49754
-24.42396
-21.34909
-17.54406
-13.31723
-8.930792
-4.572451
-0.3422475
3.697371
7.491805
10.94756
13.96033
16.46118
18.44065
19.98186
21.17443
22.01859
22.38869
22.10277
21.03718
19.28406
17.16735
15.11576
13.51508
12.52331
12.02585
11.71228
11.24342
10.3514
8.945841
7.099735
4.981171
2.757801
0.5380096
-1.671616
-3.951946
-6.398647
-9.077274
-11.97687
-15.00312
-18.00002
-20.76283
-23.04408
-24.54928
-24.98695
-24.11593
-21.86858
-18.38134
-13.97283
-9.089046
-4.116829
0.690567
5.208736
9.412266
13.27619
16.73769
19.67594
21.95329
23.47842
24.26208
24.39581
24.01295
23.26717
22.28708
21.15199
19.90787
18.57591
17.16021
15.68245
14.17286
12.68431
11.27903
10.00967
8.855446
7.742859
6.532524
5.078552
3.301079
1.206467
-1.107689
-3.523346
-5.967865
-8.476524
-11.09921
-13.88841
-16.82745
-19.79178
-22.58925
-24.96617
-26.6507
-27.3804
-26.96537
-25.31909
-22.53033
-18.85927
-14.66567
-10.3164
-6.030479
-1.901642
2.082924
5.943848
9.610275
12.892
15.56841
17.45161
18.47835
18.75263
18.49812
18.00153
17.52567
17.20377
17.04677
16.95707
16.79758
16.46721
15.93424
15.25521
14.48807
13.68381
12.805
11.79374
10.57804
9.140724
7.509315
5.723404
3.822495
1.832245
-0.2242889
-2.339233
-4.484261
-6.668167
-8.952721
-11.42538
-14.16799
-17.17073
-20.24481
-23.02003
-25.02927
-25.83044
-25.15546
-23.0329
-19.73164
-15.69726
-11.38702
-7.119278
-3.042908
0.8352661
4.531807
8.033333
11.22181
13.96488
16.14674
17.76812
18.89063
19.6265
20.07797
20.27874
20.25939
20.03291
19.66016
19.21017
18.75171
18.29423
17.76318
17.01385
15.89841
14.34787
12.4211
10.30847
8.238144
6.384918
4.822762
3.47773
2.183151
0.791214
-0.782341
-2.525116
-4.322548
-6.075706
-7.752998
-9.391838
-11.09839
-12.99735
-15.14619
-17.47822
-19.82708
-21.92366
-23.42799
-24.03609
-23.51226
-21.75537
-18.82101
-14.89621
-10.29074
-5.393227
-0.5918121
3.781387
7.54232
10.62634
13.07273
14.96351
16.37489
17.35959
17.95307
18.23377
18.28299
18.22365
18.13372
18.02786
17.87383
17.5733
17.04671
16.2254
15.13675
13.84998
12.50214
11.24541
10.18118
9.337273
8.606712
7.845779
6.875519
5.605736
4.027512
2.221992
0.3346634
-1.484543
-3.098808
-4.462578
-5.567139
-6.494659
-7.382805
-8.436829
-9.873306
-11.8131
-14.21508
-16.80668
-19.1777
-20.82504
-21.33765
-20.51474
-18.41134
-15.30532
-11.58416
-7.631157
-3.709587
0.02329254
3.491913
6.627506
9.339188
11.52642
13.10962
14.09648
14.55026
14.61541
14.44894
14.14702
13.73426
13.16884
12.4125
11.46449
10.42932
9.445423
8.676643
8.215015
8.047451
8.049252
8.032326
7.834583
7.316402
6.434696
5.190628
3.641541
1.85326
-0.07215881
-2.015175
-3.845678
-5.445292
-6.776161
-7.853558
-8.785975
-9.701448
-10.73252
-11.98732
-13.52353
-15.29496
-17.13263
-18.74823
-19.76192
-19.85701
-18.87663
-16.88782
-14.15257
-10.99995
-7.704035
-4.433682
-1.27431
1.721806
4.438921
6.738739
8.500404
9.710719
10.44731
10.84845
11.02523
11.04011
10.9218
10.65664
10.28935
9.872869
9.464206
9.063773
8.624452
8.080815
7.42482
6.707688
5.978532
5.290873
4.611191
3.840652
2.88851
1.704691
0.3272343
-1.152367
-2.623226
-4.04649
-5.400488
-6.706078
-7.998007
-9.305475
-10.68516
-12.1574
-13.71104
-15.21157
-16.44358
-17.11154
-16.97228
-15.92516
-14.04307
-11.55438
-8.736118
-5.829124
-2.9674
-0.2088509
2.432774
4.898602
7.091396
8.89674
10.18995
10.91182
11.07347
10.74583
10.06838
9.198677
8.317234
7.554916
7.00042
6.663574
6.462124
6.28791
6.028076
5.652981
5.208179
4.768044
4.359871
3.918755
3.286049
2.301582
0.9170914
-0.7663116
-2.498901
-4.021736
-5.176163
-5.997093
-6.66497
-7.444786
-8.551857
-10.0579
-11.912
-13.9278
-15.84776
-17.41064
-18.36807
-18.52943
-17.82373
-16.28202
-14.00624
-11.18039
-8.002899
-4.662224
-1.345299
1.798958
4.633942
7.014282
8.802162
9.915718
10.33565
10.15017
9.558388
8.814064
8.175072
7.811081
7.757347
7.888336
8.024651
7.984795
7.683624
7.150406
6.467972
5.731712
4.961769
4.113838
3.116196
1.912949
0.5183792
-0.9640884
-2.39035
-3.672356
-4.785606
-5.770218
-6.700844
-7.617249
-8.506493
-9.373001
-10.24984
-11.22301
-12.4354
-13.96117
-15.74118
-17.53162
-18.97124
-19.6787
-19.41213
-18.11462
-15.91634
-13.06611
-9.845566
-6.517357
-3.269325
-0.2436142
2.480072
4.85527
6.882294
8.576263
9.945328
10.97897
11.63744
11.89343
11.78773
11.42474
10.94962
10.52071
10.20465
9.949448
9.653732
9.167892
8.395157
7.329025
6.072174
4.795059
3.665909
2.767593
2.050827
1.379349
0.5601044
-0.5459442
-1.971909
-3.619598
-5.324051
-6.939499
-8.408783
-9.747345
-10.99092
-12.17747
-13.33951
-14.51779
-15.74132
-16.99258
-18.15016
-18.97929
-19.19775
-18.59882
-17.15932
-15.04716
-12.51682
-9.811859
-7.036224
-4.17543
-1.15625
2.026382
5.245331
8.250015
10.76169
12.57024
13.57935
13.8253
13.49248
12.83755
12.14352
11.59904
11.26569
11.1033
10.97232
10.75021
10.34544
9.756851
9.013077
8.121216
7.069443
5.838898
4.453232
2.977966
1.535278
0.2046051
-0.982666
-2.068375
-3.137329
-4.258286
-5.458588
-6.750626
-8.136841
-9.601822
-11.13089
-12.69617
-14.27327
-15.87418
-17.52399
-19.25771
-21.01546
-22.59995
-23.67328
-23.8961
-23.03464
-21.05812
-18.10732
-14.40236
-10.22417
-5.849503
-1.597122
2.24028
5.403015
7.782791
9.454269
10.61772
11.50887
12.2877
12.97261
13.49602
13.79828
13.85735
13.69241
13.33551
12.77689
12.03203
11.13591
10.15762
9.187531
8.261566
7.362396
6.431305
5.438538
4.377106
3.290359
2.211487
1.146484
0.06654358
-1.069275
-2.276474
-3.544418
-4.812057
-6.020081
-7.11731
-8.066498
-8.903412
-9.731827
-10.74158
-12.15245
-14.11835
-16.57555
-19.22957
-21.58986
-23.10794
-23.40741
-22.38869
-20.24402
-17.32603
-14.00082
-10.51991
-6.999786
-3.514465
-0.137619
2.984421
5.666779
7.782104
9.298279
10.30415
10.94722
11.37659
11.68521
11.89052
11.94081
11.78954
11.4446
10.99957
10.63675
10.51501
10.71751
11.17099
11.65678
11.89992
11.65268
10.80479
9.423203
7.739227
6.047241
4.591446
3.477554
2.65329
1.957138
1.17157
0.1494141
-1.175323
-2.752861
-4.500458
-6.359428
-8.323128
-10.41555
-12.63682
-14.95778
-17.28577
-19.47704
-21.35101
-22.73583
-23.4547
-23.4018
-22.5282
-20.84838
-18.44073
-15.41939
-11.8922
-8.010254
-3.973671
-0.007049561
3.63356
6.729019
9.175659
10.99031
12.24767
13.07154
13.51722
13.58543
13.30554
12.73914
12.03046
11.37112
10.93437
10.77699
10.84691
10.99324
11.02835
10.81764
10.29058
9.466461
8.432655
7.316757
6.243446
5.312851
4.518456
3.760292
2.861015
1.611298
-0.09922791
-2.251244
-4.712547
-7.267296
-9.694626
-11.8754
-13.77372
-15.39236
-16.81689
-18.14838
-19.46809
-20.84648
-22.25269
-23.50256
-24.3153
-24.36092
-23.34476
-21.17309
-18.00148
-14.18198
-10.13799
-6.17337
-2.388062
1.282524
4.938637
8.559998
11.9264
14.71423
16.62158
17.5818
17.78302
17.61253
17.43346
17.43243
17.57934
17.69746
17.63096
17.34464
16.92037
16.48169
16.09187
15.67595
15.08272
14.16162
12.83801
11.20967
9.443096
7.70562
6.050663
4.423386
2.68449
0.715332
-1.471489
-3.748096
-5.883991
-7.70232
-9.166851
-10.39116
-11.6025
-13.01486
-14.76271
-16.83012
-19.08215
-21.24772
-22.98219
-23.94035
-23.81235
-22.43344
-19.85345
-16.32215
-12.2084
-7.892406
-3.64402
0.4126205
4.274017
7.937607
11.2984
14.15761
16.28192
17.57645
18.11469
18.15763
18.005
17.85061
17.75713
17.64476
17.43808
17.14896
16.84963
16.62244
16.47427
16.27382
15.80492
14.91764
13.56906
11.88061
10.03904
8.194817
6.421993
4.73369
3.115189
1.504145
-0.1530991
-1.902267
-3.74633
-5.605247
-7.330887
-8.757122
-9.815422
-10.61261
-11.44558
-12.65965
-14.45325
-16.75181
-19.16825
-21.13017
-22.0722
-21.63212
-19.74259
-16.61237
-12.65091
-8.320784
-4.013525
0.01407433
3.62652
6.788969
9.455866
11.55915
13.01843
13.78611
13.92779
13.60961
13.05744
12.38612
11.58825
10.53411
9.14922
7.540195
6.005413
4.913052
4.505886
4.730275
5.262843
5.663188
5.61889
5.054707
4.138061
3.120337
2.167434
1.268827
0.2856131
-0.9173479
-2.357118
-3.938668
-5.519834
-6.991385
-8.352916
-9.684402
-11.10296
-12.6901
-14.45114
-16.29471
-18.02855
-19.36266
-19.95713
-19.51477
-17.89023
-15.18294
-11.71069
-7.947032
-4.316145
-1.056721
1.829695
4.472079
6.972484
9.300742
11.29996
12.7804
13.66055
14.01367
14.0385
13.91236
13.75102
13.50819
13.1276
12.60927
12.03843
11.56636
11.29289
11.22423
11.19863
11.02944
10.52807
9.582282
8.180288
6.382518
4.316152
2.14312
0.04493809
-1.85415
-3.480441
-4.877337
-6.181839
-7.571872
-9.212111
-11.16223
-13.38571
-15.76692
-18.14478
-20.28911
-21.91465
-22.71857
-22.42171
-20.92763
-18.31067
-14.82295
-10.82861
-6.660195
-2.578493
1.265221
4.767162
7.855277
10.42487
12.40976
13.78385
14.5901
14.95117
14.99605
14.84548
14.59095
14.31379
14.04614
13.79674
13.51458
13.12705
12.59838
11.91525
11.11535
10.2611
9.378376
8.430893
7.302681
5.884047
4.116104
2.077389
-0.05743599
-2.103069
-3.893517
-5.412582
-6.721577
-7.961832
-9.274618
-10.76538
-12.50031
-14.4913
-16.69127
-18.91084
-20.87557
-22.22713
-22.65266
-22.0125
-20.39477
-18.09989
-15.51116
-12.97579
-10.66876
-8.642828
-6.833914
-5.164377
-3.629429
-2.283667
-1.208046
-0.443182
0.07308578
0.5308533
1.141792
2.07946
3.365108
4.795414
6.081963
6.941898
7.255653
7.103848
6.732002
6.38422
6.201359
6.188576
6.201408
6.074459
5.667133
4.902584
3.768497
2.333237
0.701683
-1.001823
-2.620346
-4.037884
-5.1642
-5.973564
-6.534206
-6.972446
-7.430199
-7.997192
-8.610996
-9.000862
-8.773125
-7.516216
-5.017071
-1.379433
3.012882
7.617432
11.91173
15.56223
18.47875
20.69568
22.31783
23.41447
23.99459
24.0247
23.45694
22.26919
20.54259
18.48791
16.38417
14.52387
13.10197
12.15427
11.58788
11.25525
11.00183
10.75277
10.46214
10.04582
9.401329
8.422966
7.054634
5.371849
3.541176
1.761665
0.1952362
-1.087509
-2.125618
-3.046661
-4.042908
-5.35054
-7.141922
-9.492775
-12.32293
-15.3874
-18.34691
-20.84883
-22.59702
-23.41486
-23.26937
-22.18818
-20.26683
-17.61858
-14.39981
-10.78747
-6.985744
-3.183746
0.4318008
3.692604
6.519817
8.876404
10.76823
12.2299
13.28915
13.97502
14.3433
14.47325
14.45598
14.37058
14.27281
14.17881
14.07854
13.95113
13.77794
13.53316
13.15903
12.5696
11.67756
10.43261
8.886326
7.196907
5.585014
4.254353
3.296535
2.663994
2.139732
1.444969
0.3351364
-1.305843
-3.441238
-5.911495
-8.513512
-11.06991
-13.45476
-15.57894
-17.33762
-18.60833
-19.22704
-19.0365
-17.92853
-15.9118
-13.08525
-9.649693
-5.874119
-2.035694
1.585896
4.75312
7.298519
9.161476
10.36352
11.02701
11.33662
11.44652
11.43906
11.30733
10.9879
10.43739
9.692894
8.852695
8.024586
7.284004
6.579014
5.767708
4.681461
3.236923
1.45508
-0.5209255
-2.493891
-4.325006
-5.947956
-7.412746
-8.786005
-10.13377
-11.4598
-12.72703
-13.93222
-15.12621
-16.39044
-17.77707
-19.19977
-20.38737
-20.9552
-20.54971
-18.98493
-16.33014
-12.8781
-9.006622
-5.089659
-1.371832
2.002138
4.985523
7.523027
9.578064
11.10822
12.13066
12.70644
12.97061
13.04868
12.99861
12.78791
12.29449
11.40821
10.11947
8.576756
7.022877
5.691319
4.721294
4.058245
3.514874
2.875008
1.958347
0.7308388
-0.7624512
-2.432894
-4.212555
-6.041693
-7.900551
-9.799685
-11.73547
-13.74368
-15.81593
-17.90644
-19.84428
-21.40416
-22.31017
-22.34936
-21.42586
-19.59682
-17.00336
-13.83512
-10.28859
-6.542257
-2.805452
0.7036629
3.77
6.257074
8.173946
9.646
10.87894
12.00966
13.05989
13.90723
14.36493
14.28712
13.64046
12.52624
11.11745
9.593855
8.087748
6.666489
5.352472
4.169413
3.123196
2.188049
1.30537
0.3458538
-0.8201866
-2.291712
-4.040167
-5.954058
-7.841284
-9.550962
-11.06907
-12.52476
-14.1417
-16.09337
-18.3823
-20.78006
-22.8881
-24.27712
-24.59164
-23.7217
-21.78764
-19.06705
-15.87652
-12.46429
-8.929955
-5.282722
-1.497517
2.385845
6.219639
9.763245
12.74385
14.95581
16.33026
16.95352
17.03388
16.81137
16.48719
16.13237
15.72507
15.2
14.51303
13.69867
12.86141
12.1068
11.44591
10.78401
9.920639
8.652771
6.860134
4.549362
1.870621
-0.9421844
-3.689754
-6.222523
-8.485592
-10.5336
-12.4896
-14.52518
-16.80922
-19.4005
-22.20702
-24.99117
-27.37598
-28.96769
-29.41868
-28.49518
-26.13829
-22.49111
-17.85659
-12.68475
-7.476212
-2.639427
1.594078
5.219589
8.376312
11.23417
13.82338
16.02237
17.64632
18.55976
18.79684
18.54533
18.03873
17.45791
16.85856
16.17191
15.34296
14.3558
13.25353
12.10131
10.88509
9.551498
8.010094
6.240166
4.314377
2.402161
0.6581726
-0.838623
-2.116997
-3.318802
-4.596443
-6.055122
-7.739471
-9.646324
-11.79478
-14.20815
-16.87527
-19.66794
-22.30534
-24.39848
-25.55938
-25.53265
-24.25775
-21.90868
-18.78718
-15.20654
-11.40118
-7.513725
-3.614876
0.2478104
3.969498
7.398468
10.31572
12.55502
14.05118
14.88802
15.27544
15.44427
15.54265
15.58737
15.48454
15.14912
14.58165
13.92232
13.33115
12.88632
12.54408
12.1235
11.46135
10.4975
9.328705
8.107422
6.944611
5.820053
4.599991
3.172653
1.500656
-0.3284912
-2.174652
-3.940445
-5.650253
-7.410721
-9.355042
-11.57988
-14.09044
-16.80159
-19.50285
-21.85689
-23.43248
-23.81195
-22.7178
-20.10326
-16.23889
-11.56581
-6.598312
-1.698318
2.945084
7.277405
11.26718
14.8195
17.76117
19.89551
21.12662
21.49258
21.17503
20.44223
19.51154
18.53262
17.57095
16.63548
15.69521
14.71538
13.66763
12.49803
11.16966
9.64801
7.955276
6.147278
4.308533
2.512253
0.777359
-0.9158783
-2.603897
-4.282043
-5.94165
-7.498932
-8.891418
-10.06192
-11.0041
-11.79315
-12.59488
-13.62846
-15.11804
-17.1748
-19.71243
-22.40858
-24.71735
-26.01141
-25.79866
-23.87592
-20.41316
-15.89661
-10.94322
-6.078415
-1.617767
2.376389
5.975662
9.263336
12.22205
14.72255
16.61148
17.81288
18.43275
18.70248
18.89192
19.20349
19.64035
20.09764
20.42363
20.50363
20.34448
20.02577
19.58679
18.9695
18.01836
16.54581
14.48659
11.94011
9.14415
6.394333
3.873581
1.606049
-0.513031
-2.615372
-4.772324
-6.948059
-9.055206
-11.05931
-13.04247
-15.17365
-17.63129
-20.49315
-23.64371
-26.80867
-29.61145
-31.67329
-32.69492
-32.457
-30.86649
-27.92438
-23.74805
-18.56685
-12.74178
-6.692474
-0.8120117
4.597244
9.401428
13.56146
17.08495
19.96783
22.15518
23.57065
24.22629
24.26346
23.91617
23.46838
23.06918
22.70911
22.2269
21.42477
20.16437
18.48419
16.54578
14.56622
12.71799
11.06726
9.574341
8.157196
6.753235
5.321106
3.861572
2.363159
0.8197937
-0.7745972
-2.400574
-4.098999
-5.919403
-7.947205
-10.24921
-12.82712
-15.616
-18.48376
-21.23657
-23.65338
-25.51199
-26.55341
-26.54138
-25.29861
-22.78726
-19.15747
-14.71463
-9.818634
-4.790771
0.1445007
4.865753
9.275452
13.24759
16.63712
19.31836
21.22171
22.39136
22.95602
23.06824
22.86777
22.41904
21.74356
20.8681
19.88956
18.92792
18.12311
17.54675
17.16702
16.87335
16.50708
15.93991
15.11691
14.0585
12.7457
11.16681
9.278778
7.066986
4.602509
2.040161
-0.4582214
-2.782959
-4.91275
-6.947876
-9.028961
-11.26181
-13.72192
-16.39679
-19.25299
-22.19138
-25.01138
-27.36511
-28.81668
-28.96881
-27.60727
-24.8317
-20.97321
-16.50571
-11.80948
-7.096039
-2.409546
2.223419
6.687164
10.73581
14.07596
16.53653
18.09787
18.93585
19.29752
19.39243
19.30869
19.06769
18.66147
18.10989
17.50949
16.94293
16.47928
16.11417
15.74243
15.21973
14.38275
13.1257
11.41922
9.372864
7.153564
4.972961
2.966003
1.175507
-0.4444275
-2.016846
-3.649963
-5.422119
-7.314728
-9.295319
-11.31488
-13.35876
-15.42969
-17.50877
-19.52383
-21.3264
-22.70549
-23.4137
-23.25766
-22.11652
-19.9944
-17.00899
-13.3644
-9.362915
-5.314987
-1.495407
1.938431
4.958084
7.66127
10.14789
12.44475
14.49292
16.17896
17.46538
18.4211
19.20857
19.95953
20.70186
21.31659
21.58652
21.34724
20.52927
19.19888
17.49084
15.5771
13.58707
11.61832
9.721115
7.893143
6.092957
4.256348
2.315079
0.2480011
-1.914474
-4.121719
-6.300247
-8.429947
-10.50305
-12.55074
-14.63449
-16.82135
-19.18048
-21.79469
-24.67351
-27.70079
-30.58899
-32.89307
-34.10577
-33.83299
-31.92101
-28.539
-24.14713
-19.30655
-14.49545
-9.942398
-5.650116
-1.476608
2.677887
6.778915
10.63391
13.98732
16.6514
18.56561
19.79601
20.48845
20.79268
20.83319
20.72023
20.53203
20.32811
20.11571
19.83107
19.36177
18.62708
17.60782
16.38322
15.035
13.63483
12.17224
10.57616
8.732941
6.562546
4.055008
1.279907
-1.582947
-4.342941
-6.815842
-8.918869
-10.66736
-12.22412
-13.78957
-15.5703
-17.69948
-20.1655
-22.79678
-25.27139
-27.17262
-28.07579
-27.681
-25.90439
-22.89409
-18.98825
-14.59254
-10.04182
-5.554169
-1.223785
2.894638
6.73764
10.18565
13.1302
15.51485
17.36742
18.71519
19.60428
20.02502
19.94003
19.37263
18.3981
17.22575
16.07141
15.12627
14.43195
13.92113
13.4313
12.80795
11.92712
10.72685
9.216202
7.407684
5.371918
3.220062
1.095062
-0.8420563
-2.499176
-3.891953
-5.121826
-6.329361
-7.659592
-9.146118
-10.76668
-12.48183
-14.27693
-16.20493
-18.27693
-20.41632
-22.34785
-23.68129
-23.97035
-22.91452
-20.51602
-17.04245
-12.93896
-8.635681
-4.419174
-0.3718109
3.526749
7.326019
10.96843
14.23546
16.87228
18.65875
19.49896
19.4733
18.78313
17.70004
16.49581
15.36772
14.43304
13.75376
13.28804
12.95082
12.61172
12.10329
11.30233
10.14316
8.673744
6.994217
5.275337
3.638344
2.144836
0.8015671
-0.4590912
-1.711823
-3.041939
-4.448631
-5.902191
-7.278496
-8.518661
-9.589409
-10.55698
-11.5979
-12.88879
-14.55682
-16.55627
-18.67734
-20.56496
-21.86396
-22.26647
-21.62157
-19.92905
-17.31099
-13.98858
-10.24462
-6.378654
-2.675209
0.6258698
3.380074
5.565361
7.213417
8.410675
9.247223
9.786301
10.10834
10.27923
10.38704
10.50688
10.69077
10.87054
10.97115
10.87466
10.50912
9.894035
9.09816
8.222717
7.352131
6.518333
5.656662
4.697624
3.548782
2.190987
0.6841888
-0.8340034
-2.24226
-3.423782
-4.383209
-5.23151
-6.120918
-7.243279
-8.725754
-10.56203
-12.6244
-14.69166
-16.45526
-17.63252
-17.98683
-17.39463
-15.87442
-13.58541
-10.73444
-7.589466
-4.386703
-1.292782
1.563972
4.11237
6.313208
8.101194
9.42128
10.27405
10.70054
10.79521
10.71033
10.57644
10.4403
10.2733
9.938107
9.322754
8.401609
7.286596
6.193853
5.339933
4.779579
4.378492
3.840869
2.887184
1.384912
-0.5778189
-2.770862
-4.927672
-6.846787
-8.476044
-9.873368
-11.16015
-12.47088
-13.92503
-15.61377
-17.60665
-19.9244
-22.46126
-25.01625
-27.2642
-28.79369
-29.23441
-28.34243
-26.07266
-22.64805
-18.49599
-14.15769
-10.09279
-6.582561
-3.622697
-1.013583
1.510054
4.126686
6.838288
9.438676
11.62584
13.14242
13.88048
13.92694
13.44777
12.62446
11.55167
10.26603
8.832469
7.435692
6.357304
5.854778
6.021142
6.660331
7.361173
7.662863
7.227153
6.013318
4.23255
2.202119
0.204205
-1.619433
-3.305135
-4.988587
-6.815325
-8.881805
-11.18554
-13.64841
-16.19839
-18.77499
-21.30747
-23.71736
-25.82333
-27.33172
-27.91316
-27.31556
-25.47308
-22.55737
-18.91306
-14.91399
-10.90162
-7.092605
-3.595859
-0.4542551
2.361521
4.880409
7.155685
9.225738
11.08436
12.67618
13.94451
14.85608
15.39526
15.61318
15.54596
15.24579
14.7555
14.1594
13.53969
13.01186
12.6241
12.31699
11.95624
11.33199
10.28064
8.725597
6.74139
4.51379
2.306831
0.3397789
-1.286896
-2.649206
-4.01437
-5.733807
-8.09623
-11.23244
-15.00143
-19.02159
-22.79054
-25.79441
-27.64834
-28.1372
-27.23522
-25.07211
-21.9175
-18.1011
-13.94804
-9.701897
-5.5084
-1.426018
2.508034
6.249702
9.708374
12.76658
15.36592
17.48946
19.17584
20.44024
21.2621
21.54124
21.21413
20.28572
18.91879
17.38585
15.97842
14.83948
13.91893
12.97065
11.66694
9.805187
7.377766
4.644169
1.958778
-0.3082466
-1.971291
-2.999386
-3.538933
-3.827213
-4.113739
-4.64975
-5.640099
-7.221256
-9.40094
-12.00771
-14.66527
-16.89156
-18.22699
-18.38231
-17.32912
-15.26553
-12.49257
-9.296143
-5.888401
-2.370369
1.207458
4.779934
8.246193
11.4396
14.1717
16.24838
17.53833
18.02105
17.79726
17.09466
16.14714
15.15831
14.18527
13.18879
12.09488
10.83534
9.41909
7.865139
6.175407
4.313648
2.281086
0.1143608
-2.058144
-4.079765
-5.833717
-7.281803
-8.503201
-9.630627
-10.84981
-12.30234
-14.13486
-16.42903
-19.16451
-22.15699
-25.05601
-27.40245
-28.70074
-28.64252
-27.18707
-24.60439
-21.35315
-17.9147
-14.62862
-11.60648
-8.763161
-5.908493
-2.90374
0.2812805
3.52758
6.66864
9.525459
11.95364
13.88033
15.25146
16.05038
16.29129
16.07364
15.578
15.04776
14.67764
14.52773
14.52531
14.43599
13.98358
12.94055
11.25352
9.077965
6.731476
4.584808
2.888878
1.686661
0.745018
-0.3243637
-1.884384
-4.105202
-6.878799
-9.86171
-12.56823
-14.6041
-15.68265
-15.74969
-14.89381
-13.30355
-11.18224
-8.691444
-5.914085
-2.810562
0.6894836
4.644341
8.927063
13.24039
17.11461
20.10126
21.92967
22.59509
22.40018
21.79236
21.22204
20.96678
21.04207
21.2558
21.31605
20.96653
20.11029
18.8281
17.33559
15.87322
14.61565
13.59713
12.75624
11.96291
11.09856
10.10001
8.981827
7.787109
6.59433
5.488228
4.505249
3.599266
2.636017
1.390823
-0.3753586
-2.811218
-5.902557
-9.38652
-12.80837
-15.6329
-17.42038
-17.91161
-17.08942
-15.1321
-12.35112
-9.112488
-5.74543
-2.516975
0.389267
2.852692
4.854118
6.405144
7.544731
8.282669
8.612244
8.515602
8.030174
7.241539
6.304466
5.388016
4.617538
4.030891
3.572113
3.114784
2.498138
1.59494
0.3442841
-1.249222
-3.12188
-5.179974
-7.31295
-9.391762
-11.32737
-13.0508
-14.56722
-15.9406
-17.29456
-18.75914
-20.42743
-22.26195
-24.06688
-25.5477
-26.32153
-26.10626
-24.76656
-22.37911
-19.13712
-15.30632
-11.11965
-6.709854
-2.207344
2.266384
6.500172
10.21084
13.09518
14.9773
15.88682
16.057
15.8369
15.53199
15.32042
15.16929
14.94635
14.49141
13.72611
12.70539
11.53806
10.30201
8.966846
7.41687
5.527695
3.25005
0.6445122
-2.151886
-4.984203
-7.704544
-10.22142
-12.50432
-14.57895
-16.51938
-18.47205
-20.57045
-22.8959
-25.38049
-27.70729
-29.41026
-29.98081
-29.06861
-26.58989
-22.7823
-18.0802
-12.99269
-7.967667
-3.272007
1.025288
4.96587
8.616188
11.97199
14.93629
17.37557
19.19702
20.38033
21.00257
21.18822
20.999
20.44046
19.47159
18.09855
16.44126
14.72088
13.14117
11.80658
10.64342
9.421806
7.930389
6.056511
3.879639
1.611145
-0.5403137
-2.473907
-4.230927
-6.002693
-8.023651
-10.4605
-13.36738
-16.63107
-19.94459
-22.88013
-25.00224
-25.9652
-25.62144
-24.04925
-21.44278
-18.03625
-14.02307
-9.503456
-4.58062
0.5513153
5.600327
10.19865
14.05231
17.01966
19.12334
20.50208
21.30855
21.63983
21.53822
21.01994
20.12548
18.9604
17.66924
16.39676
15.21916
14.14951
13.10847
11.99424
10.72701
9.252869
7.574036
5.746597
3.855865
1.989082
0.193573
-1.552406
-3.346382
-5.308197
-7.573547
-10.26811
-13.45828
-17.15953
-21.2756
-25.58688
-29.70842
-33.11552
-35.20408
-35.47026
-33.64318
-29.82419
-24.4697
-18.24105
-11.8207
-5.710861
-0.1689758
4.777229
9.183655
13.12333
16.59516
19.55196
21.93138
23.7219
24.96174
25.70801
26.04015
26.00352
25.62433
24.92364
23.96099
22.80946
21.55422
20.25486
18.90441
17.44786
15.79358
13.8643
11.61033
9.053139
6.2528
3.31443
0.3908081
-2.381996
-4.903748
-7.138519
-9.136101
-11.01739
-12.9357
-15.02834
-17.37762
-19.97653
-22.72245
-25.40105
-27.69389
-29.19909
-29.51944
-28.39021
-25.79662
-21.98442
-17.40309
-12.53468
-7.750969
-3.200249
1.124626
5.276077
9.222603
12.81494
15.84173
18.11777
19.59206
20.36446
20.60961
20.51555
20.21107
19.77258
19.25246
18.70846
18.1693
17.66255
17.15739
16.57201
15.82766
14.8444
13.62173
12.2073
10.6835
9.130829
7.598381
6.108814
4.642632
3.186398
1.70414
0.1657906
-1.45443
-3.187206
-5.03109
-6.96072
-8.943359
-10.97817
-13.10631
-15.39568
-17.85374
-20.34639
-22.59763
-24.20138
-24.75259
-24.01804
-21.96052
-18.76521
-14.773
-10.36643
-5.894272
-1.644855
2.198635
5.523998
8.284393
10.47728
12.14432
13.36362
14.25502
14.9469
15.52939
16.04821
16.45013
16.60223
16.41113
15.86173
15.04975
14.16247
13.37254
12.72981
12.14665
11.4808
10.58793
9.448473
8.108673
6.657972
5.15436
3.611219
2.010586
0.3662281
-1.26606
-2.805027
-4.177561
-5.398642
-6.525784
-7.677691
-8.953773
-10.43118
-12.15681
-14.14683
-16.39257
-18.83622
-21.37356
-23.78456
-25.76485
-26.94545
-26.987
-25.67972
-23.03592
-19.32621
-14.9601
-10.3933
-5.959111
-1.77227
2.17453
5.920018
9.421093
12.48845
14.8818
16.44337
17.19445
17.33717
17.18843
17.00809
16.93534
16.9362
16.90407
16.70963
16.28196
15.63309
14.8313
13.94722
12.99521
11.94963
10.71324
9.205738
7.397269
5.347373
3.230564
1.214467
-0.6027822
-2.238274
-3.802724
-5.426703
-7.167956
-8.953276
-10.64247
-12.08747
-13.23232
-14.14324
-14.9861
-15.97153
-17.29238
-19.0954
-21.4145
-24.12988
-26.95645
-29.45244
-31.09165
-31.41998
-30.20591
-27.52157
-23.72312
-19.2979
-14.70856
-10.23094
-5.947966
-1.797058
2.301138
6.326271
10.15626
13.55923
16.28779
18.16056
19.13371
19.33336
19.04382
18.5962
18.27279
18.21996
18.38429
18.61753
18.74745
18.67521
18.39047
17.93747
17.31643
16.50598
15.49564
14.27656
12.94033
11.60402
10.33546
9.118484
7.848785
6.412193
4.742374
2.901615
0.9773331
-0.9429321
-2.864002
-4.843769
-6.924229
-9.099804
-11.29277
-13.43226
-15.49454
-17.57547
-19.79863
-22.28237
-25.00478
-27.74367
-30.11714
-31.67015
-32.0458
-31.0659
-28.81852
-25.56794
-21.66568
-17.42734
-13.03565
-8.576637
-4.081135
0.3833122
4.692181
8.663296
12.11794
14.96835
17.19587
18.85967
20.02269
20.75522
21.07274
21.01646
20.64228
20.04988
19.3814
18.77725
18.35033
18.1265
18.06049
18.01519
17.82494
17.3251
16.35352
14.81637
12.73775
10.27884
7.751778
5.514275
3.830818
2.777367
2.180656
1.679909
0.9101181
-0.3217392
-1.984383
-3.846321
-5.662537
-7.276138
-8.708847
-10.10371
-11.65676
-13.48493
-15.6274
-18.06415
-20.73721
-23.57291
-26.40685
-28.98589
-30.95801
-31.95109
-31.66112
-29.9634
-26.97137
-22.97092
-18.36494
-13.54848
-8.827606
-4.378242
-0.2427597
3.615227
7.223564
10.55003
13.50733
15.97422
17.84015
19.09338
19.83733
20.28645
20.6442
21.01347
21.33836
21.45855
21.21191
20.5256
19.51819
18.40163
17.39645
16.55826
15.76211
14.77074
13.37367
11.53859
9.416107
7.268555
5.318115
3.627449
2.129013
0.698204
-0.7281265
-2.130638
-3.430595
-4.589813
-5.650894
-6.723038
-7.916374
-9.245522
-10.61259
-11.88472
-12.9978
-14.03185
-15.22254
-16.83987
-19.07219
-21.85656
-24.8548
-27.46371
-29.02028
-28.97625
-27.10645
-23.62189
-19.07407
-14.20218
-9.658859
-5.83448
-2.749161
-0.17836
2.212631
4.637672
7.140099
9.599319
11.84018
13.75536
15.33051
16.64184
17.73862
18.60869
19.16403
19.30534
19.01762
18.39006
17.62415
16.90561
16.35086
15.95187
15.59641
15.14058
14.45073
13.50267
12.29744
10.86761
9.237396
7.407288
5.414337
3.320618
1.301834
-0.4762573
-1.852097
-2.827209
-3.529739
-4.20491
-5.087616
-6.282074
-7.783386
-9.446579
-11.1786
-12.90701
-14.66438
-16.49313
-18.41078
-20.39412
-22.38475
-24.33165
-26.09549
-27.5255
-28.35402
-28.32304
-27.21312
-24.97032
-21.72372
-17.75047
-13.40738
-8.994247
-4.762421
-0.8585358
2.660965
5.754425
8.408035
10.57651
12.2296
13.34787
13.99043
14.28546
14.41461
14.54195
14.7233
14.91641
14.95921
14.75412
14.27794
13.65494
13.03165
12.54008
12.21216
11.95297
11.6226
11.06143
10.21178
9.08931
7.823853
6.543533
5.362152
4.290955
3.252426
2.100525
0.6898499
-1.004349
-2.892426
-4.780594
-6.50412
-7.978943
-9.274536
-10.51735
-11.83676
-13.28894
-14.84978
-16.52045
-18.32368
-20.28941
-22.35782
-24.30702
-25.7601
-26.28706
-25.5818
-23.5928
-20.5368
-16.79759
-12.76221
-8.677475
-4.657516
-0.759903
2.934219
6.285736
9.130127
11.33102
12.88988
13.91614
14.57561
14.99547
15.2365
15.28819
15.12215
14.75772
14.2673
13.79318
13.45447
13.29469
13.24487
13.14268
12.78398
12.02449
10.86447
9.418594
7.880234
6.408951
5.072739
3.826477
2.597214
1.328812
0.007293701
-1.324203
-2.609436
-3.825272
-4.993958
-6.153015
-7.366608
-8.665588
-10.06432
-11.56001
-13.10576
-14.66
-16.19667
-17.74088
-19.34061
-21.03146
-22.74019
-24.25627
-25.26512
-25.42738
-24.53247
-22.53876
-19.57617
-15.88451
-11.7323
-7.397385
-3.148346
0.7825928
4.202606
6.973465
9.045761
10.4993
11.50032
12.23926
12.90274
13.56602
14.23177
14.85614
15.37512
15.77292
16.04204
16.17586
16.11633
15.80836
15.2317
14.43542
13.54433
12.64145
11.75035
10.77229
9.567947
8.076111
6.397263
4.724945
3.257095
2.042313
0.9512634
-0.2421265
-1.688995
-3.38884
-5.150696
-6.748169
-8.066086
-9.167221
-10.26154
-11.59123
-13.27139
-15.24585
-17.34979
-19.39934
-21.31018
-23.05127
-24.56625
-25.66873
-26.05173
-25.38847
-23.47696
-20.38559
-16.41051
-12.00673
-7.613678
-3.531158
0.1141968
3.302246
6.082199
8.50354
10.56114
12.23293
13.49846
14.349
14.82413
14.98468
14.91422
14.66788
14.28601
13.80873
13.30733
12.9133
12.73077
12.78442
12.96327
13.0394
12.76169
11.96524
10.67233
9.056702
7.385483
5.882294
4.647507
3.652222
2.738052
1.713699
0.3889313
-1.326492
-3.418823
-5.75737
-8.171432
-10.47563
-12.53583
-14.30087
-15.79695
-17.13367
-18.47652
-19.99403
-21.78322
-23.81679
-25.82893
-27.40102
-28.05763
-27.44458
-25.4624
-22.30113
-18.3196
-13.90768
-9.358566
-4.871826
-0.6028137
3.268295
6.552856
9.133499
11.0136
12.338
13.31857
14.11902
14.78491
15.28484
15.5657
15.6265
15.53737
15.37407
15.17081
14.91536
14.58148
14.16368
13.70015
13.22925
12.77467
12.27252
11.65355
10.82146
9.760727
8.52977
7.228363
5.968323
4.798935
3.708633
2.636276
1.496841
0.2470703
-1.110901
-2.55806
-4.061569
-5.588821
-7.131058
-8.680466
-10.24117
-11.87535
-13.69856
-15.82408
-18.32146
-21.09207
-23.82735
-26.09749
-27.41679
-27.44601
-26.06918
-23.42293
-19.80573
-15.59549
-11.15849
-6.749008
-2.557007
1.297913
4.756226
7.762848
10.27444
12.26822
13.74643
14.76877
15.47244
16.00919
16.50995
17.05765
17.59261
17.9846
18.11264
17.92575
17.4879
16.96223
16.49248
16.13033
15.81436
15.38367
14.68298
13.63954
12.29082
10.7529
9.168686
7.612534
6.093307
4.597931
3.075912
1.488632
-0.1601105
-1.865036
-3.617813
-5.402145
-7.176544
-8.90036
-10.49767
-11.94481
-13.28366
-14.62614
-16.15295
-17.98265
-20.08606
-22.2332
-24.06168
-25.16008
-25.22734
-24.17511
-22.12698
-19.37788
-16.21631
-12.86497
-9.419861
-5.918869
-2.417587
1.003357
4.241348
7.190247
9.75705
11.90282
13.64587
15.01221
16.03082
16.69922
16.9904
16.87228
16.37056
15.58414
14.68855
13.89174
13.36003
13.14194
13.17088
13.27362
13.25998
13.0175
12.51492
11.76971
10.78346
9.556801
8.076759
6.370186
4.542099
2.721222
1.02227
-0.4826508
-1.832436
-3.15654
-4.580017
-6.175522
-7.908745
-9.660675
-11.29784
-12.7677
-14.11938
-15.48331
-17.03234
-18.82291
-20.7554
-22.55459
-23.8489
-24.26769
-23.57231
-21.73137
-18.90437
-15.41099
-11.58632
-7.717316
-3.98143
-0.439476
2.875908
5.958687
8.74971
11.17157
13.14317
14.63835
15.66231
16.27512
16.56432
16.6188
16.52769
16.33633
16.05794
15.65902
15.12822
14.50711
13.89114
13.39633
13.05869
12.82015
12.51743
11.98337
11.11668
9.947372
8.627129
7.318604
6.126167
5.023399
3.931137
2.739418
1.434174
0.05670166
-1.306404
-2.585335
-3.780106
-4.967659
-6.288651
-7.884117
-9.870239
-12.24051
-14.89062
-17.63433
-20.27425
-22.64384
-24.60776
-26.05334
-26.79912
-26.65689
-25.41205
-22.99479
-19.49635
-15.20799
-10.53107
-5.842102
-1.430511
2.567612
6.096451
9.141655
11.6628
13.58813
14.87674
15.54713
15.74094
15.66798
15.60997
15.76156
16.18047
16.75873
17.28027
17.53452
17.40861
16.94637
16.2734
15.55799
14.89986
14.31478
13.75003
13.09113
12.23386
11.09767
9.694031
8.035995
6.237602
4.389496
2.567688
0.8023529
-0.9363098
-2.672089
-4.38401
-5.998268
-7.433075
-8.644272
-9.692657
-10.69706
-11.79384
-13.10547
-14.69981
-16.61027
-18.81741
-21.21584
-23.55373
-25.47728
-26.55341
-26.41891
-24.91821
-22.13851
-18.4042
-14.13277
-9.723076
-5.461052
-1.543053
1.928078
4.911346
7.375275
9.369431
10.96468
12.25632
13.30647
14.11696
14.65195
14.88147
14.81898
14.5225
14.10165
13.67484
13.34412
13.20419
13.29817
13.60063
13.97786
14.20492
14.03059
13.27267
11.87929
9.970039
7.78875
5.606178
3.652802
2.038017
0.7439346
-0.3240891
-1.286369
-2.264183
-3.339783
-4.567627
-5.98053
-7.567535
-9.30143
-11.12144
-12.95449
-14.75974
-16.52015
-18.25659
-20.04176
-21.87569
-23.66449
-25.15411
-26.0294
-25.98194
-24.8531
-22.66813
-19.59041
-15.87057
-11.74413
-7.432556
-3.140015
0.9018631
4.463104
7.393806
9.683273
11.49661
13.05724
14.51166
15.83932
16.87582
17.45002
17.51376
17.1663
16.6417
16.15758
15.79592
15.52634
15.25169
14.86293
14.34259
13.69685
12.92606
12.01234
10.91087
9.586243
8.083771
6.520546
5.048805
3.839478
2.962006
2.354774
1.832268
1.168449
0.1824417
-1.171783
-2.773148
-4.438889
-5.952972
-7.203293
-8.220451
-9.175499
-10.29633
-11.79884
-13.77631
-16.19164
-18.87951
-21.50612
-23.6682
-25.00275
-25.23186
-24.24407
-22.12894
-19.10451
-15.45898
-11.51336
-7.538101
-3.746628
-0.303688
2.731369
5.397919
7.814659
10.11722
12.38287
14.53178
16.3978
17.78419
18.55072
18.73186
18.47766
18.01936
17.55012
17.16537
16.83487
16.4882
16.08081
15.59352
15.04842
14.43018
13.70082
12.8524
11.91703
10.9686
10.09377
9.330292
8.567528
7.650879
6.394966
4.710197
2.670685
0.4589691
-1.711441
-3.69989
-5.461807
-7.081047
-8.628494
-10.18493
-11.79418
-13.48849
-15.27875
-17.16479
-19.07351
-20.81445
-22.0956
-22.57186
-21.97998
-20.2394
-17.47592
-13.97438
-10.10831
-6.242455
-2.648796
0.5268784
3.268188
5.641121
7.730881
9.568199
11.11481
12.26115
12.92135
13.1097
12.95055
12.63514
12.33006
12.09835
11.89387
11.64238
11.28931
10.86656
10.44445
10.04643
9.659363
9.21904
8.676598
8.03463
7.369415
6.727013
6.100258
5.424995
4.580627
3.458321
2.048225
0.4110031
-1.316895
-2.971725
-4.415405
-5.601326
-6.522163
-7.269287
-7.968842
-8.792236
-9.876595
-11.28729
-12.96178
-14.67535
-16.06915
-16.73393
-16.37241
-14.87228
-12.42551
-9.443237
-6.388458
-3.600876
-1.208069
0.8626251
2.737061
4.44133
5.895493
6.952408
7.492645
7.588425
7.467987
7.382523
7.501572
7.823624
8.176422
8.370132
8.308319
7.992554
7.548019
7.118912
6.777756
6.478653
6.103561
5.532913
4.699097
3.658218
2.537811
1.471848
0.5033264
-0.4497681
-1.543945
-2.925323
-4.639801
-6.573578
-8.517746
-10.24614
-11.64586
-12.78383
-13.86435
-15.10193
-16.6512
-18.53148
-20.63057
-22.74457
-24.57771
-25.81667
-26.15758
-25.39417
-23.45364
-20.47429
-16.77765
-12.74046
-8.707916
-4.897278
-1.409393
1.750748
4.566574
7.015686
9.066605
10.70702
12.00629
13.04143
13.88329
14.56018
15.05159
15.30753
15.33095
15.14262
14.77693
14.26012
13.57977
12.68163
11.54506
10.19749
8.734756
7.289032
5.942505
4.701508
3.48407
2.165268
0.6764374
-0.918457
-2.468063
-3.80571
-4.862244
-5.776352
-6.807831
-8.219818
-10.17389
-12.64932
-15.47932
-18.44397
-21.36899
-24.07912
-26.38463
-28.02336
-28.6996
-28.19144
-26.46457
-23.66826
-20.10931
-16.13226
-12.01511
-7.930504
-3.973801
-0.2157135
3.302979
6.556648
9.529099
12.20888
14.56021
16.50193
17.92816
18.73096
18.89334
18.48499
17.68393
16.69662
15.73296
14.95128
14.42118
14.11379
13.89635
13.63132
13.14524
12.33649
11.17437
9.710297
8.038185
6.300461
4.606346
3.031364
1.614189
0.3255692
-0.9422455
-2.340446
-4.010841
-6.023117
-8.291328
-10.63457
-12.8605
-14.85493
-16.67171
-18.47128
-20.39109
-22.4265
-24.31781
-25.63777
-25.92731
-24.92079
-22.6262
-19.31115
-15.37451
-11.18194
-7.020744
-3.058899
0.5993271
3.894188
6.782722
9.292725
11.45877
13.35143
14.98492
16.29844
17.19714
17.60863
17.55147
17.16389
16.6403
16.1432
15.79111
15.5748
15.43166
15.277
15.04799
14.72139
14.30224
13.78631
13.13297
12.2645
11.08708
9.540955
7.634995
5.466164
3.188759
0.983078
-1.022842
-2.821259
-4.463226
-6.013687
-7.533409
-9.028679
-10.56642
-12.22153
-14.10667
-16.31201
-18.81172
-21.40341
-23.7618
-25.49265
-26.256
-25.8788
-24.34235
-21.79237
-18.47197
-14.66105
-10.63087
-6.631195
-2.810524
0.7767563
4.117836
7.225357
10.04555
12.48856
14.46283
15.96505
17.05708
17.87065
18.53549
19.0877
19.46036
19.53756
19.22064
18.52039
17.54355
16.46003
15.43053
14.53843
13.74746
12.94314
12.0028
10.80658
9.333973
7.648579
5.864246
4.098576
2.419632
0.7936249
-0.8467598
-2.523037
-4.220848
-5.840878
-7.260086
-8.396683
-9.268211
-9.981819
-10.7382
-11.7984
-13.34867
-15.50441
-18.1793
-21.06857
-23.71925
-25.63226
-26.39949
-25.82578
-23.96248
-21.01534
-17.28937
-13.04058
-8.475685
-3.786243
0.8270531
5.14328
8.962795
12.14498
14.65465
16.50487
17.77268
18.54894
18.89326
18.89077
18.63079
18.18896
17.65032
17.06482
16.44283
15.80069
15.15239
14.49288
13.8501
13.23483
12.62321
11.96967
11.20135
10.2259
8.983086
7.467503
5.752857
3.980442
2.307957
0.806179
-0.5587959
-1.891827
-3.320763
-4.885262
-6.546585
-8.182072
-9.714367
-11.15966
-12.67867
-14.4823
-16.716
-19.34212
-22.07953
-24.49033
-26.06389
-26.42635
-25.43999
-23.23121
-20.11264
-16.5003
-12.75283
-9.130497
-5.765266
-2.656643
0.2474518
3.005287
5.672558
8.257526
10.71146
12.94011
14.8537
16.36763
17.4399
18.06965
18.27556
18.14543
17.76844
17.2898
16.80801
16.37051
15.94182
15.44754
14.81928
14.04898
13.16876
12.17949
11.04995
9.734806
8.233269
6.627632
5.096825
3.792229
2.774399
1.937004
1.054001
-0.09392166
-1.597607
-3.379768
-5.244553
-6.98357
-8.486126
-9.768875
-10.99403
-12.3671
-14.0751
-16.19989
-18.67498
-21.24408
-23.54268
-25.15348
-25.71048
-25.00755
-23.04753
-20.02409
-16.25422
-12.07327
-7.77882
-3.588512
0.3252258
3.838375
6.85939
9.352703
11.35474
12.9263
14.15425
15.10067
15.79111
16.21085
16.3508
16.21902
15.85886
15.37089
14.83541
14.34964
13.9488
13.61604
13.25883
12.75403
11.99635
10.96521
9.755615
8.504784
7.354233
6.389416
5.638031
5.046021
4.514618
3.937435
3.177662
2.135777
0.7550888
-0.9245567
-2.784958
-4.650322
-6.404079
-8.029247
-9.600143
-11.25127
-13.09605
-15.17901
-17.44969
-19.7296
-21.74154
-23.16606
-23.70086
-23.17418
-21.60681
-19.17614
-16.15704
-12.81594
-9.368256
-5.941597
-2.652649
0.4038467
3.160919
5.589424
7.742359
9.663593
11.37654
12.81422
13.89154
14.553
14.85958
14.96685
15.03126
15.15352
15.29187
15.33899
15.211
14.93694
14.60422
14.30387
14.02499
13.61409
12.84195
11.53371
9.688694
7.507626
5.324554
3.450031
1.999847
0.8855782
-0.1525421
-1.382908
-2.949894
-4.800926
-6.720226
-8.457329
-9.816502
-10.82441
-11.63531
-12.52406
-13.72199
-15.34692
-17.34738
-19.52929
-21.60059
-23.20103
-24.03878
-23.89885
-22.72645
-20.6299
-17.83998
-14.64196
-11.27304
-7.870144
-4.474644
-1.092262
2.260029
5.481083
8.414516
10.92039
12.88602
14.27589
15.12579
15.53826
15.61923
15.51923
15.33899
15.12524
14.89263
14.61509
14.28619
13.90563
13.49527
13.03503
12.46958
11.70112
10.65068
9.362495
7.959824
6.614689
5.450661
4.456547
3.503635
2.393803
0.975769
-0.7562752
-2.674969
-4.60535
-6.386814
-7.94717
-9.325027
-10.62229
-11.94216
-13.35908
-14.92265
-16.63828
-18.52462
-20.52307
-22.49205
-24.21047
-25.37376
-25.6734
-24.86869
-22.87875
-19.80292
-15.92057
-11.60922
-7.26207
-3.222084
0.3048172
3.269165
5.778305
7.995995
10.05051
11.99264
13.74427
15.19209
16.20957
16.74461
16.82379
16.5071
15.89547
15.08053
14.16144
13.2087
12.29622
11.46488
10.73001
10.09154
9.508083
8.94722
8.340359
7.610966
6.691486
5.575146
4.317791
3.022289
1.799507
0.6636047
-0.4282913
-1.576721
-2.855309
-4.278549
-5.804245
-7.364838
-8.933846
-10.54685
-12.31072
-14.31428
-16.58783
-19.05724
-21.51968
-23.71516
-25.33737
-26.13639
-25.93228
-24.66328
-22.38318
-19.27274
-15.60644
-11.67357
-7.757866
-4.045208
-0.6238899
2.488522
5.297638
7.796997
9.91531
11.56387
12.70712
13.35845
13.59667
13.54118
13.28054
12.91804
12.53908
12.24205
12.13007
12.24753
12.54817
12.88397
13.05493
12.84851
12.18285
11.09091
9.725483
8.297092
6.964539
5.784084
4.694084
3.560238
2.224564
0.6296425
-1.189365
-3.115059
-4.990074
-6.70499
-8.226608
-9.588406
-10.85497
-12.10518
-13.43008
-14.90009
-16.58049
-18.4736
-20.51066
-22.50388
-24.20512
-25.33663
-25.65366
-25.05125
-23.52676
-21.19461
-18.23967
-14.86236
-11.24044
-7.502018
-3.746979
-0.01515579
3.622963
7.11253
10.35012
13.19828
15.52179
17.21912
18.24125
18.62318
18.4888
17.98079
17.28193
16.52588
15.80946
15.16891
14.58726
13.98058
13.24768
12.31595
11.15366
9.817476
8.413862
7.06576
5.86138
4.82094
3.896873
3.005743
2.052322
0.9659061
-0.2416344
-1.520046
-2.78735
-3.956923
-5.033445
-6.091558
-7.276358
-8.751244
-10.63981
-12.95891
-15.6652
-18.64975
-21.7059
-24.55194
-26.81284
-28.12065
-28.15324
-26.84554
-24.33401
-20.95826
-17.12062
-13.12264
-9.118361
-5.136826
-1.19462
2.667028
6.308317
9.566188
12.27975
14.37646
15.84389
16.75473
17.24516
17.44898
17.4962
17.47831
17.44435
17.40615
17.36934
17.32326
17.25105
17.10858
16.80942
16.22743
15.25704
13.8625
12.1332
10.22013
8.318902
6.563128
5.00373
3.592301
2.239172
0.8475752
-0.6631041
-2.303821
-4.073415
-5.912737
-7.755027
-9.511028
-11.15097
-12.65835
-14.14809
-15.78647
-17.7181
-19.98831
-22.44742
-24.75427
-26.4483
-27.14763
-26.61751
-24.89037
-22.21459
-18.90293
-15.251
-11.43658
-7.514402
-3.494265
0.5799007
4.562626
8.223356
11.31685
13.72787
15.43725
16.57626
17.33139
17.84782
18.20131
18.38478
18.36828
18.11957
17.70691
17.20972
16.76092
16.42762
16.20416
15.98874
15.61734
14.92239
13.79034
12.26033
10.46068
8.592773
6.830109
5.244766
3.821476
2.518501
1.296402
0.1649895
-0.8561249
-1.802631
-2.775276
-3.908981
-5.337547
-7.118473
-9.243454
-11.70914
-14.49809
-17.56803
-20.79778
-23.88617
-26.40654
-27.91542
-28.0946
-26.83258
-24.26116
-20.68179
-16.44202
-11.88743
-7.288166
-2.855476
1.266273
4.98901
8.296909
11.20007
13.66964
15.66169
17.09724
17.94324
18.25209
18.18087
17.96692
17.79865
17.7482
17.74988
17.67814
17.40094
16.89751
16.2093
15.39712
14.48731
13.44236
12.23111
10.87339
9.46286
8.083229
6.768539
5.468956
4.088844
2.545029
0.8175125
-1.067642
-3.064903
-5.14856
-7.307961
-9.500603
-11.61791
-13.54101
-15.23079
-16.76786
-18.34452
-20.11631
-22.10799
-24.10562
-25.76886
-26.71324
-26.67711
-25.54889
-23.36859
-20.24468
-16.32858
-11.84412
-7.056335
-2.296799
2.149475
6.082413
9.463005
12.33055
14.76466
16.76589
18.27225
19.23719
19.66663
19.69927
19.53687
19.38631
19.34306
19.40322
19.44467
19.34156
19.00336
18.40719
17.56828
16.51517
15.27751
13.87589
12.34696
10.75461
9.149422
7.552414
5.936005
4.252289
2.46936
0.5846329
-1.346352
-3.243805
-5.037918
-6.717674
-8.26416
-9.691513
-11.02462
-12.29427
-13.61771
-15.16337
-17.09782
-19.4688
-22.1377
-24.71752
-26.7064
-27.63352
-27.21719
-25.4467
-22.5668
-18.92986
-14.85011
-10.51851
-5.977348
-1.257759
3.515068
8.103119
12.18437
15.46432
17.80785
19.29496
20.1361
20.57263
20.74365
20.67703
20.33429
19.71842
18.93328
18.16316
17.57891
17.22839
17.00836
16.68439
16.01846
14.8765
13.27758
11.37473
9.369141
7.420189
5.613167
3.973717
2.462639
1.054848
-0.2677689
-1.532784
-2.738205
-3.90432
-5.056175
-6.232368
-7.458977
-8.798317
-10.30981
-12.07378
-14.16708
-16.62279
-19.38069
-22.22412
-24.82253
-26.75572
-27.62662
-27.16695
-25.30447
-22.19493
-18.14095
-13.52747
-8.721848
-4.026367
0.3451843
4.286598
7.751274
10.72423
13.19393
15.16172
16.63679
17.63625
18.19955
18.35361
18.16577
17.70702
17.07951
16.38663
15.76198
15.29277
15.00593
14.84962
14.69083
14.37525
13.78097
12.88572
11.73164
10.45237
9.177711
7.965309
6.787407
5.521507
4.019814
2.187096
0.03827667
-2.32148
-4.721321
-6.978142
-8.976173
-10.63734
-11.9892
-13.1783
-14.42844
-15.97662
-17.96317
-20.31479
-22.69812
-24.59875
-25.46899
-24.93846
-22.97135
-19.80829
-15.90053
-11.71684
-7.634087
-3.873306
-0.52668
2.45224
5.127945
7.564476
9.812958
11.82497
13.49881
14.72968
15.47594
15.77153
15.7488
15.51524
15.15626
14.72785
14.26856
13.83417
13.50025
13.3235
13.26943
13.20169
12.91425
12.2494
11.15559
9.699661
8.036293
6.355789
4.771263
3.36129
2.143608
1.073318
0.07698059
-0.9670334
-2.194321
-3.706734
-5.505318
-7.515068
-9.597939
-11.62055
-13.56894
-15.53143
-17.63921
-19.92262
-22.21914
-24.18275
-25.42139
-25.63303
-24.68829
-22.67427
-19.81708
-16.38958
-12.63121
-8.738693
-4.838371
-1.029278
2.608242
6.030758
9.162106
11.9339
14.23882
15.96278
17.04381
17.50089
17.47991
17.20975
16.92264
16.75276
16.71171
16.6885
16.501
16.02867
15.25368
14.3057
13.34186
12.4661
11.66948
10.83586
9.816544
8.478928
6.778709
4.767212
2.563381
0.3117981
-1.838276
-3.808155
-5.559048
-7.107731
-8.508331
-9.806164
-11.06459
-12.34134
-13.7032
-15.23961
-17.02167
-19.07135
-21.29346
-23.42154
-25.06315
-25.81046
-25.37849
-23.67517
-20.84467
-17.18616
-13.04878
-8.741333
-4.465664
-0.3821602
3.409672
6.787094
9.667885
12.00246
13.78878
15.08789
15.93862
16.40207
16.50743
16.32915
15.93904
15.45131
14.93929
14.42025
13.89451
13.3413
12.79829
12.32772
11.99399
11.76557
11.51282
11.04964
10.20738
8.974703
7.437035
5.740826
3.995773
2.211451
0.3219643
-1.722589
-3.870974
-6.008116
-7.946321
-9.602814
-11.01552
-12.32248
-13.69327
-15.25271
-17.04858
-19.03588
-21.12705
-23.13596
-24.81029
-25.84633
-25.9595
-24.9604
-22.85839
-19.82169
-16.11209
-12.03555
-7.831506
-3.710283
0.1248655
3.527493
6.401995
8.74887
10.67931
12.33595
13.79408
15.0295
15.93725
16.39122
16.36675
15.93258
15.22554
14.40289
13.58565
12.82376
12.13388
11.51451
10.89978
10.21173
9.363384
8.292429
7.044402
5.753067
4.560061
3.582027
2.79616
2.038682
1.15532
0.02814484
-1.324847
-2.7736
-4.209454
-5.598377
-7.001408
-8.524599
-10.25079
-12.15613
-14.15966
-16.18299
-18.15836
-20.0603
-21.83298
-23.32788
-24.2878
-24.42037
-23.48719
-21.45212
-18.50968
-14.98732
-11.27692
-7.65145
-4.247355
-1.061289
1.973348
4.90531
7.68971
10.20543
12.32641
13.91768
14.98233
15.59285
15.90268
16.05199
16.11829
16.09553
15.91306
15.50571
14.83903
13.97355
13.01286
12.06579
11.16424
10.28187
9.336246
8.287827
7.142558
5.945297
4.759312
3.599226
2.439958
1.238044
-0.06120014
-1.495543
-3.063141
-4.755131
-6.529104
-8.341809
-10.14856
-11.90944
-13.62822
-15.36227
-17.18346
-19.14022
-21.18308
-23.11277
-24.62336
-25.37103
-25.10352
-23.75591
-21.44098
-18.39595
-14.87136
-11.08169
-7.175666
-3.291179
0.4186044
3.782362
6.631493
8.909845
10.66849
12.04942
13.19457
14.17474
14.99935
15.6279
16.05306
16.30154
16.4572
16.58379
16.69299
16.76344
16.74324
16.58059
16.25794
15.76354
15.05401
14.08887
12.8065
11.19632
9.333375
7.362927
5.453656
3.731765
2.209165
0.7868423
-0.6755104
-2.317001
-4.170238
-6.172138
-8.197948
-10.15449
-12.00455
-13.82178
-15.71533
-17.80575
-20.15082
-22.6557
-25.07995
-27.05925
-28.20162
-28.20765
-26.98162
-24.63787
-21.44252
-17.71238
-13.68677
-9.513291
-5.298328
-1.147375
2.761186
6.229012
9.09164
11.29013
12.88105
14.01499
14.84187
15.4871
16.01701
16.45328
16.79688
17.03415
17.15023
17.11574
16.92894
16.57948
16.06938
15.42783
14.66644
13.78921
12.80525
11.7007
10.45199
9.045025
7.460069
5.723892
3.876808
1.97834
0.09455776
-1.724257
-3.484926
-5.209355
-6.947623
-8.74155
-10.59569
-12.50098
-14.43305
-16.39964
-18.41457
-20.49294
-22.5915
-24.53776
-26.06145
-26.81039
-26.48676
-24.98574
-22.4062
-19.04374
-15.25258
-11.32998
-7.425174
-3.612422
0.07151699
3.528151
6.585753
9.086036
10.95095
12.24641
13.16405
13.94401
14.76151
15.65104
16.49022
17.07337
17.21568
16.85594
16.11207
15.22064
14.41899
13.81168
13.32447
12.7345
11.83842
10.58497
9.080363
7.554122
6.194079
5.019464
3.9061
2.638069
1.095182
-0.6805954
-2.496682
-4.156332
-5.554687
-6.731302
-7.869307
-9.150899
-10.67503
-12.42697
-14.32541
-16.31549
-18.33743
-20.34206
-22.18165
-23.60219
-24.25224
-23.82891
-22.152
-19.25519
-15.41196
-11.02262
-6.539103
-2.330865
1.388769
4.602024
7.384558
9.844707
12.02395
13.85374
15.2198
16.01873
16.26802
16.09875
15.70931
15.23962
14.73718
14.18683
13.56037
12.91516
12.34675
11.96046
11.78478
11.70586
11.53917
11.07772
10.21259
8.957978
7.465158
5.921813
4.481088
3.207856
2.051532
0.915761
-0.3108311
-1.721235
-3.339077
-5.136688
-7.038258
-8.951992
-10.79406
-12.53035
-14.19878
-15.90258
-17.78054
-19.88689
-22.12535
-24.21906
-25.7761
-26.39851
-25.85099
-24.11101
-21.36234
-17.91742
-14.05495
-9.978905
-5.800004
-1.60736
2.465403
6.223432
9.481002
12.11077
14.11412
15.62839
16.84261
17.8874
18.78254
19.41649
19.64647
19.41206
18.79191
17.97118
17.1539
16.44779
15.7872
15.01823
13.96748
12.57391
10.91862
9.191153
7.558727
6.083319
4.718472
3.333916
1.8448
0.216485
-1.502024
-3.198064
-4.785026
-6.195513
-7.424095
-8.505075
-9.517144
-10.56577
-11.80728
-13.40341
-15.48225
-18.03399
-20.82552
-23.43023
-25.30658
-25.98205
-25.22585
-23.10487
-19.92851
-16.11742
-12.0487
-7.918369
-3.825102
0.1990271
4.068167
7.632913
10.7511
13.33578
15.38835
16.94624
18.06977
18.76785
19.04292
18.92648
18.48976
17.84757
17.09317
16.29161
15.45254
14.57803
13.6432
12.66946
11.68221
10.72195
9.838663
9.029198
8.233336
7.351043
6.257292
4.847491
3.115473
1.151005
-0.8715391
-2.749727
-4.376774
-5.735421
-6.899979
-7.983213
-9.079591
-10.21364
-11.42644
-12.79846
-14.43431
-16.40305
-18.61093
-20.78321
-22.47979
-23.23192
-22.72027
-20.89341
-17.9706
-14.3442
-10.43589
-6.524637
-2.77647
0.7839088
4.160124
7.320726
10.173
12.58399
14.43222
15.68385
16.43753
16.85953
17.14832
17.42475
17.67353
17.77649
17.5916
17.07696
16.3105
15.52341
14.92575
14.59985
14.44015
14.20257
13.64358
12.60214
11.07173
9.175062
7.094753
4.989449
2.961189
1.078888
-0.6160583
-2.072487
-3.304176
-4.329742
-5.237267
-6.119507
-7.080318
-8.214306
-9.585316
-11.2324
-13.14542
-15.24068
-17.34446
-19.23262
-20.61792
-21.25463
-20.99173
-19.80019
-17.77329
-15.10859
-12.00013
-8.640667
-5.211754
-1.838257
1.365829
4.315331
6.946392
9.192162
11.00163
12.35475
13.24696
13.68768
13.72704
13.45928
13.01883
12.56542
12.22276
12.02992
11.91307
11.6978
11.18605
10.27179
8.972939
7.398624
5.696392
3.957424
2.223083
0.5062904
-1.151714
-2.690845
-4.039436
-5.206993
-6.294731
-7.444473
-8.790161
-10.34626
-12.03984
-13.75043
-15.3904
-16.96664
-18.51373
-20.02377
-21.35445
-22.24786
-22.37962
-21.51997
-19.60112
-16.757
-13.26747
-9.470299
-5.645622
-1.969711
1.441193
4.533798
7.262199
9.583511
11.49481
13.02733
14.27822
15.33804
16.26894
17.04678
17.57314
17.7286
17.42793
16.66405
15.5051
14.10079
12.6009
11.16519
9.912033
8.90023
8.112442
7.399414
6.516579
5.197922
3.293983
0.8491745
-1.876244
-4.522385
-6.796806
-8.59256
-10.01361
-11.26456
-12.53126
-13.86535
-15.23606
-16.58855
-17.93911
-19.36115
-20.84344
-22.24393
-23.23289
-23.43098
-22.57631
-20.66821
-17.9412
-14.77415
-11.49986
-8.278381
-5.143867
-2.032593
1.083557
4.167412
7.104248
9.758263
11.98323
13.67949
14.80275
15.35014
15.41584
15.14126
14.68898
14.1851
13.69108
13.17007
12.54152
11.73615
10.68994
9.422874
7.992241
6.446327
4.856644
3.264183
1.664383
0.03513336
-1.661736
-3.44783
-5.275848
-7.066032
-8.757156
-10.34825
-11.92396
-13.59281
-15.43327
-17.44469
-19.55168
-21.59482
-23.39516
-24.76794
-25.50907
-25.42464
-24.36169
-22.26123
-19.19981
-15.42321
-11.24003
-6.971741
-2.852798
1.018166
4.631134
7.996094
11.10306
13.83598
16.0005
17.42318
18.02753
17.89471
17.26527
16.42809
15.59529
14.85184
14.1616
13.44173
12.63126
11.75124
10.84889
9.979858
9.137894
8.297859
7.409744
6.450432
5.415268
4.287178
3.038452
1.63472
0.08293915
-1.587753
-3.339256
-5.133324
-6.934692
-8.689781
-10.37057
-11.99315
-13.62883
-15.41515
-17.48608
-19.87782
-22.43122
-24.8022
-26.52687
-27.16982
-26.47348
-24.38211
-21.08823
-16.91424
-12.24516
-7.445885
-2.77578
1.609627
5.636505
9.270515
12.46266
15.14371
17.2311
18.66134
19.45905
19.72759
19.61172
19.25903
18.76815
18.18763
17.55857
16.90437
16.25672
15.61879
14.95513
14.19778
13.29797
12.25722
11.11731
9.94125
8.75486
7.556499
6.267357
4.806595
3.10936
1.198437
-0.8581047
-2.970058
-5.065456
-7.132572
-9.163322
-11.18951
-13.26089
-15.44252
-17.73602
-20.1213
-22.48558
-24.65607
-26.38396
-27.36629
-27.31913
-26.04676
-23.49176
-19.81354
-15.34109
-10.48427
-5.619579
-1.001877
3.27565
7.221367
10.8312
14.04721
16.7179
18.70905
19.97646
20.61378
20.77561
20.64417
20.32254
19.83662
19.18208
18.32386
17.27856
16.07743
14.76587
13.33525
11.80073
10.15851
8.438812
6.710747
5.034855
3.460163
1.997223
0.6250076
-0.7186241
-2.119694
-3.646629
-5.335304
-7.178146
-9.137844
-11.16574
-13.21923
-15.25689
-17.25212
-19.21667
-21.16693
-23.10756
-24.96752
-26.55272
-27.54173
-27.58465
-26.43668
-24.06565
-20.70379
-16.72399
-12.51852
-8.344593
-4.275795
-0.2747765
3.706165
7.604301
11.2607
14.45541
17.01457
18.85006
19.9671
20.45286
20.38982
19.88263
19.05371
18.03272
16.94951
15.89782
14.912
13.94284
12.92446
11.77553
10.44866
8.982376
7.469646
6.013515
4.688572
3.537891
2.524265
1.604362
0.696167
-0.2770195
-1.356426
-2.574715
-3.940317
-5.453388
-7.118652
-8.95587
-10.98412
-13.21057
-15.62278
-18.1206
-20.54704
-22.6393
-24.10626
-24.6929
-24.24393
-22.77025
-20.37398
-17.26447
-13.6153
-9.626209
-5.456493
-1.271521
2.769394
6.54269
9.945162
12.92938
15.40696
17.31009
18.55768
19.14578
19.16808
18.79118
18.22155
17.61783
17.05527
16.52433
15.98989
15.39335
14.6942
13.85743
12.85173
11.67092
10.32184
8.834948
7.2293
5.527779
3.743206
1.934843
0.1945763
-1.362381
-2.669907
-3.751591
-4.743769
-5.828909
-7.144283
-8.736759
-10.54861
-12.47732
-14.45607
-16.43324
-18.30232
-19.86737
-20.81668
-20.82435
-19.70064
-17.46568
-14.34024
-10.69437
-6.870448
-3.113983
0.4710474
3.83719
6.951391
9.706749
11.97248
13.64154
14.67467
15.16894
15.31066
15.35513
15.49866
15.80078
16.14657
16.33025
16.16059
15.58142
14.69164
13.69056
12.74732
11.91161
11.10211
10.20856
9.131317
7.857246
6.421926
4.85037
3.130145
1.201278
-0.9568796
-3.297741
-5.65783
-7.859975
-9.781539
-11.41502
-12.9006
-14.49367
-16.43291
-18.82225
-21.55301
-24.26729
-26.49236
-27.77867
-27.7925
-26.42857
-23.80977
-20.1987
-15.95475
-11.43012
-6.927116
-2.639944
1.319551
4.968189
8.329955
11.41385
14.18858
16.55422
18.39376
19.63048
20.26213
20.34747
20.00221
19.32096
18.40594
17.38599
16.37584
15.49103
14.80488
14.27274
13.7553
13.07034
12.04657
10.62637
8.919535
7.080709
5.259167
3.521448
1.786633
-0.08075905
-2.154587
-4.406233
-6.696444
-8.843225
-10.77767
-12.52869
-14.24773
-16.12431
-18.26211
-20.57337
-22.81232
-24.6618
-25.78564
-25.99866
-25.25381
-23.66237
-21.41056
-18.67956
-15.5523
-12.06584
-8.230247
-4.111612
0.1190186
4.263727
8.1644
11.71101
14.82941
17.43758
19.40355
20.63804
21.13187
21.01439
20.5174
19.8649
19.21578
18.5795
17.87869
17.01578
15.95509
14.71141
13.30837
11.76484
10.13884
8.501667
6.967339
5.606476
4.40485
3.224762
1.914574
0.3534126
-1.433895
-3.298267
-5.064611
-6.624966
-8.010265
-9.349354
-10.80537
-12.47603
-14.40558
-16.53457
-18.76682
-20.96604
-22.92575
-24.37988
-24.98743
-24.45923
-22.62238
-19.56874
-15.59986
-11.16459
-6.716312
-2.551657
1.211552
4.620403
7.739267
10.57207
13.01761
14.94449
16.30264
17.136
17.60917
17.8541
17.91373
17.71414
17.13525
16.13906
14.8329
13.45701
12.26048
11.39961
10.82194
10.34286
9.713493
8.755125
7.427406
5.805075
4.006702
2.140062
0.314106
-1.394442
-2.923952
-4.230019
-5.3424
-6.374645
-7.511776
-8.940514
-10.75543
-12.93489
-15.3721
-17.93372
-20.45647
-22.77785
-24.67261
-25.85412
-26.01722
-24.91936
-22.52499
-19.05279
-14.90589
-10.5121
-6.227112
-2.230137
1.410851
4.712357
7.683792
10.30744
12.52982
14.28436
15.56974
16.40984
16.85325
16.9538
16.75635
16.28518
15.57037
14.67909
13.712
12.79415
12.03775
11.47363
11.05202
10.61504
9.974121
8.992428
7.622868
5.948982
4.103863
2.243546
0.4611206
-1.212997
-2.832726
-4.456158
-6.122334
-7.853298
-9.628288
-11.44238
-13.29187
-15.17879
-17.09756
-19.01605
-20.78973
-22.18761
-22.92002
-22.72608
-21.45366
-19.08792
-15.78999
-11.86837
-7.704098
-3.635574
0.09660721
3.39616
6.256115
8.706387
10.75925
12.41792
13.68156
14.57842
15.18636
15.59703
15.8694
15.97622
15.83594
15.3286
14.43862
13.23671
11.89879
10.62701
9.568459
8.775898
8.171379
7.616604
6.945412
6.040569
4.858326
3.396229
1.689468
-0.2229996
-2.277187
-4.390804
-6.445133
-8.33424
-9.991096
-11.41086
-12.69635
-13.9589
-15.33645
-16.87757
-18.54101
-20.16642
-21.53273
-22.39549
-22.51186
-21.7177
-19.95533
-17.32672
-14.03982
-10.36277
-6.529015
-2.72757
0.9291267
4.354366
7.462158
10.15718
12.30886
13.85559
14.83803
15.39843
15.73028
16.00774
16.30539
16.56451
16.6478
16.39178
15.74389
14.77107
13.62529
12.47662
11.41123
10.41575
9.415932
8.35424
7.19981
5.972118
4.681076
3.327248
1.897598
0.4042473
-1.122086
-2.621948
-4.027191
-5.326351
-6.555649
-7.87307
-9.441933
-11.38275
-13.76047
-16.50463
-19.38818
-22.03251
-23.9817
-24.83181
-24.41945
-22.81525
-20.32142
-17.33766
-14.19476
-11.06662
-7.962055
-4.814034
-1.536087
1.853912
5.253109
8.4921
11.34021
13.59172
15.11024
15.89577
16.05669
15.81317
15.37467
14.88985
14.38945
13.84278
13.23602
12.58858
11.9689
11.38164
10.80438
10.14818
9.351391
8.386723
7.29055
6.13102
4.91198
3.60199
2.142784
0.530941
-1.167881
-2.798225
-4.210091
-5.350388
-6.281116
-7.192898
-8.321545
-9.837048
-11.7873
-14.1316
-16.72449
-19.37715
-21.83737
-23.78133
-24.85374
-24.73027
-23.23297
-20.42944
-16.63865
-12.33592
-7.949871
-3.796574
-0.008460999
3.385025
6.376362
8.948994
11.06279
12.73497
13.98736
14.90567
15.51518
15.81851
15.80844
15.50729
15.04123
14.56884
14.2477
14.13392
14.151
14.12135
13.85221
13.21907
12.21271
10.94535
9.559231
8.192181
6.881531
5.587151
4.222298
2.728584
1.102776
-0.6412697
-2.46714
-4.354305
-6.295044
-8.275917
-10.27331
-12.27328
-14.27952
-16.26811
-18.1939
-19.91467
-21.20028
-21.789
-21.45724
-20.12601
-17.88541
-14.96808
-11.65846
-8.200783
-4.768707
-1.452847
1.703587
4.66692
7.375927
9.721119
11.58202
12.84244
13.454
13.48735
13.12413
12.61221
12.15829
11.85617
11.63116
11.34798
10.89316
10.26339
9.548981
8.850464
8.193909
7.482109
6.588905
5.418365
4.002975
2.469345
0.93927
-0.5344086
-2.031517
-3.658966
-5.471497
-7.380608
-9.206055
-10.76567
-11.99547
-13.0216
-14.07708
-15.40215
-17.07283
-18.9657
-20.74393
-22.00962
-22.42306
-21.80641
-20.19474
-17.76604
-14.76502
-11.39639
-7.849777
-4.231186
-0.6252289
2.857391
6.083862
8.886917
11.09948
12.62057
13.48517
13.85745
13.98843
14.09266
14.23841
14.38498
14.39096
14.15564
13.69644
13.12362
12.59499
12.19522
11.85622
11.41552
10.70826
9.626263
8.181679
6.466759
4.586582
2.633312
0.67239
-1.28212
-3.234894
-5.18362
-7.124634
-9.030083
-10.87871
-12.71085
-14.64392
-16.85042
-19.43201
-22.28447
-25.0264
-27.07438
-27.84166
-26.99496
-24.61771
-21.15383
-17.1846
-13.21447
-9.46254
-5.937698
-2.537731
0.8120918
4.113571
7.318497
10.36294
13.19899
15.72586
17.77949
19.12743
19.59955
19.16594
18.00315
16.459
14.91455
13.66698
12.85559
12.4243
12.194
11.95761
11.52011
10.747
9.563839
7.977478
6.069855
3.980747
1.889366
-0.04103088
-1.726604
-3.185116
-4.547356
-5.984329
-7.637707
-9.551769
-11.7018
-14.04409
-16.52266
-19.08879
-21.63616
-23.95888
-25.74703
-26.67152
-26.47992
-25.08919
-22.60982
-19.28551
-15.39368
-11.16118
-6.727303
-2.184006
2.374424
6.77977
10.81247
14.25517
16.92992
18.78799
19.88128
20.33049
20.26434
19.77197
18.90121
17.69274
16.22039
14.6006
12.97906
11.50335
10.25328
9.218761
8.273518
7.210979
5.868912
4.183693
2.243139
0.2559433
-1.580681
-3.170166
-4.58794
-6.000616
-7.62771
-9.560957
-11.78375
-14.19016
-16.61613
-18.89212
-20.84349
-22.24463
-22.83537
-22.39722
-20.83028
-18.24244
-14.92376
-11.23459
-7.473871
-3.829136
-0.3308296
3.058096
6.328348
9.384533
12.03204
14.07973
15.43645
16.16477
16.45451
16.526
16.53256
16.49559
16.34573
15.99515
15.42019
14.69521
13.92954
13.18719
12.44828
11.62589
10.59372
9.287652
7.714401
5.920294
3.975699
1.947307
-0.1030922
-2.087048
-3.941901
-5.670406
-7.323046
-9.042721
-11.02026
-13.36804
-16.06506
-18.88553
-21.42562
-23.2146
-23.87997
-23.22818
-21.29878
-18.34985
-14.71916
-10.74449
-6.693004
-2.73873
1.005099
4.451705
7.530635
10.19545
12.41079
14.22524
15.71167
16.96343
18.02133
18.86031
19.38114
19.46126
19.00203
18.03986
16.76048
15.40841
14.20046
13.19895
12.26705
11.17285
9.724161
7.830525
5.595256
3.229706
0.9405653
-1.131969
-2.938244
-4.493052
-5.840611
-7.055409
-8.274513
-9.672427
-11.43531
-13.67783
-16.30846
-19.04567
-21.43944
-23.00932
-23.39316
-22.44991
-20.26202
-17.11851
-13.40409
-9.451515
-5.511188
-1.690811
2.001891
5.586483
9.01008
12.123
14.66967
16.40647
17.26644
17.36863
17.01351
16.55317
16.22898
16.1007
16.02814
15.78326
15.15123
14.07242
12.60069
10.91267
9.197008
7.586298
6.138783
4.814197
3.561076
2.303515
1.025466
-0.2808866
-1.5914
-2.909461
-4.268806
-5.714847
-7.278055
-8.910126
-10.56744
-12.24234
-13.98635
-15.88076
-17.94291
-20.02601
-21.81434
-22.91311
-22.94526
-21.70675
-19.20534
-15.63722
-11.34305
-6.71902
-2.14368
2.092108
5.79156
8.932085
11.5718
13.81164
15.71599
17.23242
18.26839
18.72414
18.60558
18.01026
17.12165
16.10228
15.04351
13.98069
12.87771
11.73881
10.60661
9.552454
8.629514
7.791738
6.92131
5.853326
4.47691
2.788389
0.9252267
-0.9100571
-2.558152
-3.955202
-5.164003
-6.322103
-7.567574
-8.999012
-10.69029
-12.65942
-14.88489
-17.26687
-19.57941
-21.49318
-22.64866
-22.76834
-21.73065
-19.61549
-16.64773
-13.11155
-9.293945
-5.393118
-1.535651
2.203505
5.765676
9.069393
12.01667
14.46245
16.28856
17.43842
17.94999
17.96
17.63927
17.15322
16.5735
15.87305
14.97119
13.8076
12.41732
10.90983
9.446901
8.103574
6.914226
5.793975
4.643298
3.387883
2.036065
0.6488562
-0.7022572
-1.94199
-3.07214
-4.084254
-5.044697
-6.065329
-7.310875
-8.946827
-11.08352
-13.69508
-16.56518
-19.35114
-21.63836
-23.05619
-23.37687
-22.5166
-20.53068
-17.59449
-13.9175
-9.735968
-5.295504
-0.821434
3.492855
7.447685
10.89436
13.64509
15.56
16.59587
16.86199
16.58672
16.05938
15.53238
15.10903
14.75991
14.35326
13.79309
13.07675
12.28571
11.49201
10.70816
9.83795
8.729368
7.302223
5.590734
3.732805
1.89669
0.1491871
-1.536974
-3.208626
-4.905861
-6.59446
-8.188589
-9.630281
-10.94468
-12.24996
-13.70705
-15.41806
-17.37283
-19.45109
-21.46434
-23.14036
-24.20623
-24.40389
-23.53317
-21.49818
-18.3733
-14.40418
-9.976498
-5.519054
-1.354446
2.335114
5.505333
8.219761
10.54853
12.51205
14.06801
15.17001
15.78896
15.97493
15.82714
15.4649
15.02147
14.59094
14.21953
13.90017
13.56978
13.10344
12.38015
11.3268
9.959869
8.400352
6.784622
5.238613
3.807613
2.452751
1.104977
-0.3062859
-1.827499
-3.436817
-5.121056
-6.882111
-8.726604
-10.65585
-12.65741
-14.70313
-16.72282
-18.65956
-20.41057
-21.81403
-22.65678
-22.72503
-21.85954
-20.02941
-17.36916
-14.11331
-10.53858
-6.86657
-3.220818
0.3539543
3.809437
7.072144
10.01203
12.49985
14.438
15.79152
16.60369
16.94806
16.92195
16.60952
16.08636
15.42191
14.67653
13.9179
13.21137
12.62064
12.16105
11.75016
11.25466
10.47678
9.263424
7.531849
5.334366
2.83955
0.2891464
-2.030968
-3.938984
-5.338123
-6.28244
-6.941666
-7.552429
-8.312416
-9.380329
-10.82053
-12.62486
-14.74673
-17.05617
-19.34477
-21.30279
-22.58045
-22.87851
-22.09508
-20.34581
-17.89581
-15.027
-11.90967
-8.613041
-5.160427
-1.606304
1.899574
5.157074
7.973324
10.25769
12.01714
13.356
14.35156
15.05198
15.48319
15.62982
15.50743
15.13458
14.54303
13.74506
12.77053
11.6312
10.40118
9.187138
8.082104
7.161701
6.423756
5.749817
4.965401
3.916759
2.538506
0.8991165
-0.8386536
-2.511292
-3.996307
-5.281147
-6.491283
-7.777607
-9.258739
-10.97509
-12.88552
-14.94153
-17.10746
-19.29815
-21.33938
-22.96039
-23.7813
-23.45874
-21.81163
-18.94748
-15.23762
-11.19997
-7.285191
-3.751541
-0.6314278
2.214951
4.908127
7.498451
9.918961
12.07784
13.89339
15.35976
16.48557
17.25505
17.60334
17.4257
16.70359
15.55832
14.2323
13.00631
12.07268
11.41367
10.84399
10.13171
9.102058
7.736889
6.171852
4.576038
3.053646
1.627731
0.2402191
-1.156227
-2.551758
-3.912533
-5.235153
-6.53936
-7.917542
-9.450859
-11.1697
-13.02616
-14.93736
-16.78801
-18.50338
-19.9896
-21.08238
-21.57696
-21.24261
-19.98176
-17.86328
-15.10733
-11.99249
-8.728264
-5.385979
-1.958832
1.510414
4.885643
7.918835
10.33703
12.00837
12.96501
13.37889
13.51268
13.59161
13.73094
13.93908
14.13783
14.18752
14.00476
13.52718
12.74389
11.6952
10.46157
9.139111
7.845184
6.668232
5.631783
4.714764
3.820873
2.857811
1.791737
0.6879005
-0.3473701
-1.203869
-1.88636
-2.539021
-3.399841
-4.718582
-6.618809
-9.04018
-11.78567
-14.57679
-17.15377
-19.32931
-20.97
-21.98064
-22.26105
-21.69991
-20.23525
-17.90399
-14.86145
-11.36306
-7.692467
-4.071789
-0.6463699
2.514904
5.383118
7.92524
10.10032
11.87918
13.2569
14.25754
14.89576
15.19741
15.17305
14.85528
14.32153
13.69386
13.11312
12.67117
12.38376
12.15942
11.85777
11.36085
10.60798
9.594307
8.358776
6.923309
5.283588
3.456684
1.502583
-0.4637222
-2.283989
-3.831654
-5.09584
-6.159138
-7.208282
-8.435108
-9.958336
-11.83014
-14.05737
-16.57351
-19.26833
-21.93883
-24.23658
-25.74627
-26.08705
-25.0583
-22.73212
-19.44329
-15.62289
-11.67598
-7.831738
-4.148624
-0.6029854
2.820141
6.04353
8.919735
11.28233
13.03575
14.17848
14.78168
15.02204
15.07382
15.1104
15.22628
15.41883
15.5966
15.62404
15.38057
14.81525
13.97266
12.9323
11.75304
10.46099
9.027355
7.437244
5.727596
3.97147
2.269695
0.6974831
-0.7449493
-2.132938
-3.551357
-5.035877
-6.541519
-7.942822
-9.123104
-10.09694
-10.99375
-12.06835
-13.55993
-15.51198
-17.75016
-19.87238
-21.40456
-21.99303
-21.52983
-20.13124
-18.05708
-15.53304
-12.62434
-9.31881
-5.567242
-1.42067
2.915771
7.133858
10.89763
13.94125
16.13546
17.48708
18.10133
18.13023
17.73133
17.0483
16.2099
15.346
14.56286
13.94318
13.52833
13.29884
13.15582
12.938
12.45729
11.57203
10.25722
8.569412
6.660004
4.701981
2.837311
1.159168
-0.3218536
-1.659767
-2.921635
-4.195141
-5.577038
-7.128544
-8.895702
-10.8797
-13.0285
-15.27003
-17.53292
-19.73495
-21.77996
-23.50857
-24.71674
-25.15483
-24.63678
-23.10635
-20.61963
-17.35501
-13.54893
-9.442699
-5.269749
-1.235611
2.483356
5.758583
8.523716
10.76006
12.49598
13.75021
14.52152
14.84974
14.83639
14.65145
14.50683
14.55849
14.80432
15.09574
15.21716
14.98283
14.35331
13.43279
12.38221
11.33503
10.334
9.349064
8.310204
7.179539
5.958218
4.654205
3.268692
1.766045
0.1092339
-1.69791
-3.602039
-5.515312
-7.382309
-9.186211
-10.9964
-12.92855
-15.07771
-17.45346
-19.92466
-22.22732
-24.00597
-24.9149
-24.67923
-23.19401
-20.52602
-16.91138
-12.67012
-8.156757
-3.696949
0.4671021
4.171429
7.352837
9.993259
12.11381
13.74539
14.95494
15.7999
16.35225
16.68962
16.84002
16.80086
16.52572
15.97228
15.12905
14.06588
12.8947
11.75824
10.77693
9.973618
9.267914
8.519903
7.589563
6.420633
5.052971
3.614378
2.207331
0.8623371
-0.4821548
-1.947639
-3.622972
-5.504045
-7.476177
-9.360821
-11.03352
-12.49495
-13.92098
-15.57182
-17.62908
-20.05532
-22.53427
-24.51413
-25.36471
-24.67775
-22.36072
-18.69788
-14.21723
-9.476435
-4.883049
-0.6425667
3.182072
6.596689
9.552052
11.96538
13.77016
14.95461
15.60033
15.85656
15.87412
15.7203
15.41294
14.93261
14.26157
13.44609
12.58379
11.79878
11.18609
10.79523
10.58448
10.45327
10.30176
10.03731
9.576197
8.851273
7.84005
6.536936
4.999397
3.315939
1.575008
-0.1864796
-1.958576
-3.770336
-5.646753
-7.583841
-9.564301
-11.58764
-13.6665
-15.78778
-17.89099
-19.79233
-21.20795
-21.80828
-21.32364
-19.63375
-16.80372
-13.09631
-8.898489
-4.611835
-0.5462627
3.129471
6.398046
9.282337
11.78018
13.85093
15.38818
16.32899
16.70749
16.67238
16.40732
16.0727
15.73501
15.35713
14.89798
14.31358
13.60141
12.77044
11.83628
10.80103
9.673824
8.491451
7.280098
6.043354
4.742874
3.313904
1.730644
0.01621246
-1.74411
-3.444904
-5.004848
-6.420731
-7.763416
-9.177666
-10.79382
-12.69575
-14.86375
-17.1504
-19.30684
-21.03802
-22.08548
-22.27181
-21.53274
-19.90002
-17.46583
-14.36129
-10.7468
-6.80751
-2.742817
1.222229
4.858551
7.956284
10.34475
11.94601
12.79502
13.04947
12.94436
12.70358
12.44639
12.18687
11.88906
11.52486
11.10771
10.67233
10.22086
9.683552
8.927452
7.831154
6.388226
4.723255
3.013302
1.391483
-0.1065903
-1.534496
-2.975582
-4.464531
-6.014454
-7.628609
-9.351944
-11.28995
-13.45617
-15.6955
-17.61545
-18.67415
-18.37483
-16.50854
-13.26402
-9.185558
-5.012234
-1.361275
1.3904
3.221996
4.329834
4.980808
5.372562
5.559898
5.48914
5.08604
4.352654
3.355999
2.285576
1.383366
0.8678589
0.9059334
1.499722
2.503296
3.601463
4.430103
4.672825
4.201702
3.160866
1.859261
0.6718063
-0.1659355
-0.6332016
-0.9319344
-1.305477
-1.956772
-2.985893
-4.374916
-6.078171
-8.042229
-10.18329
-12.2879
-14.00029
-14.87329
-14.54104
-12.89054
-10.11777
-6.658039
-2.992611
0.4642601
3.483734
5.98724
7.976521
9.496723
10.58636
11.31256
11.75475
12.01557
12.1319
12.09669
11.86226
11.40318
10.77279
10.08665
9.472549
8.953121
8.450706
7.791405
6.809475
5.429012
3.70435
1.777515
-0.171772
-1.994965
-3.585533
-4.877159
-5.884163
-6.679859
-7.437981
-8.397072
-9.803253
-11.85365
-14.60194
-17.95864
-21.69209
-25.48403
-28.93533
-31.64033
-33.22653
-33.43855
-32.23892
-29.81644
-26.53169
-22.7733
-18.8237
-14.80075
-10.66573
-6.332001
-1.794014
2.791031
7.13953
10.9115
13.85346
15.88358
17.09058
17.67245
17.82566
17.68403
17.32779
16.816
16.23729
15.68552
15.23066
14.82922
14.34958
13.6023
12.47789
11.04404
9.485634
8.014587
6.71106
5.467125
4.041855
2.254581
0.07891083
-2.301411
-4.577694
-6.539829
-8.165171
-9.610245
-11.12102
-12.89822
-15.00129
-17.40197
-19.99826
-22.6346
-25.11602
-27.13452
-28.30948
-28.29479
-26.9258
-24.28588
-20.71822
-16.68074
-12.55511
-8.545267
-4.651041
-0.7848215
3.090868
6.855184
10.26228
13.02672
14.94492
15.99196
16.31832
16.20422
15.94819
15.77792
15.78638
15.93737
16.08455
16.06826
15.77632
15.17707
14.35098
13.40928
12.46192
11.55381
10.65049
9.661596
8.47348
7.069817
5.502172
3.914825
2.459058
1.200848
0.09941769
-0.9893465
-2.269497
-3.939543
-6.099251
-8.72541
-11.65525
-14.61414
-17.25558
-19.21506
-20.19563
-20.01513
-18.67871
-16.34252
-13.27327
-9.734224
-5.916555
-1.950939
2.068327
6.036711
9.80377
13.1893
16.04467
18.23942
19.69455
20.42939
20.49207
19.9929
19.08721
17.94426
16.73343
15.60466
14.67602
14.00621
13.62031
13.45695
13.39489
13.26433
12.88324
12.11634
10.92316
9.35442
7.532036
5.59919
3.667561
1.803696
0.03108215
-1.655655
-3.291103
-4.942123
-6.685066
-8.593323
-10.70922
-13.04924
-15.56676
-18.15142
-20.63096
-22.74783
-24.24313
-24.83422
-24.3257
-22.62916
-19.8197
-16.08576
-11.72919
-7.074505
-2.435963
1.906643
5.766697
9.074421
11.84352
14.15242
16.09729
17.67042
18.81522
19.45696
19.57484
19.23605
18.58316
17.76382
16.86147
15.9248
14.96414
14.04696
13.26792
12.71663
12.38723
12.14085
11.75741
11.05917
9.956894
8.532898
6.95578
5.35704
3.796715
2.267345
0.7245102
-0.8467407
-2.426308
-3.999977
-5.576145
-7.179951
-8.853806
-10.6029
-12.42282
-14.28259
-16.12432
-17.85427
-19.30751
-20.26743
-20.49064
-19.78077
-18.10321
-15.58784
-12.49416
-9.099606
-5.61956
-2.161564
1.234991
4.512255
7.576052
10.29305
12.49055
14.07105
15.0301
15.45447
15.5226
15.40839
15.23721
15.07819
14.93311
14.76513
14.54251
14.23012
13.78967
13.20788
12.42021
11.36175
10.00264
8.357744
6.492155
4.501431
2.488428
0.5386429
-1.236818
-2.760056
-3.963863
-4.804447
-5.353966
-5.760256
-6.206527
-6.888687
-7.907107
-9.255541
-10.8981
-12.79328
-14.91506
-17.22961
-19.57535
-21.63644
-23.01534
-23.33233
-22.37858
-20.20275
-17.06234
-13.3401
-9.415442
-5.548246
-1.846301
1.652602
4.933595
7.918907
10.49101
12.53023
13.98449
14.87999
15.32602
15.46584
15.39625
15.18631
14.87577
14.49218
14.1112
13.82941
13.71027
13.74489
13.81435
13.70065
13.17343
12.1119
10.53532
8.643824
6.70779
4.959342
3.479672
2.175181
0.8562603
-0.6573343
-2.386815
-4.235432
-6.003028
-7.54293
-8.815352
-9.907239
-10.94599
-12.03407
-13.22689
-14.53611
-15.98864
-17.60701
-19.33065
-20.97831
-22.21
-22.63049
-21.92312
-19.99204
-16.98676
-13.29139
-9.328512
-5.414209
-1.735706
1.666864
4.795029
7.614218
10.01653
11.86886
13.04537
13.49505
13.30731
12.67215
11.85363
11.09267
10.54267
10.22946
10.08408
10.01413
9.93553
9.814045
9.63518
9.383612
9.04493
8.584206
7.978493
7.201035
6.263176
5.174534
3.9538
2.619194
1.231289
-0.1487312
-1.473663
-2.737103
-3.953178
-5.140682
-6.305042
-7.458908
-8.657265
-9.969982
-11.51786
-13.38999
-15.58092
-17.94418
-20.2043
-22.01582
-23.05138
-23.08568
-22.03774
-20.0041
-17.21144
-13.95398
-10.50619
-7.035107
-3.630974
-0.3254814
2.827354
5.699501
8.150986
10.08428
11.50285
12.50117
13.21717
13.73851
14.06971
14.13615
13.8825
13.32337
12.59298
11.87696
11.33293
11.04069
10.94698
10.91842
10.7533
10.28588
9.427773
8.184006
6.664291
5.03146
3.451336
2.033375
0.8185959
-0.2644844
-1.32663
-2.468182
-3.75235
-5.140152
-6.558521
-7.948368
-9.289402
-10.64236
-12.11758
-13.82512
-15.82441
-18.08728
-20.43808
-22.56347
-24.07386
-24.55597
-23.73347
-21.5472
-18.19717
-14.0795
-9.686279
-5.430702
-1.567093
1.786114
4.632366
6.966496
8.803848
10.14574
11.05001
11.61317
11.97293
12.27042
12.59439
12.96257
13.30064
13.49682
13.44088
13.07803
12.44949
11.64298
10.77152
9.880211
8.97403
8.016945
7.009666
6.018394
5.157066
4.511673
4.021347
3.501457
2.678833
1.361099
-0.4918289
-2.713768
-5.030708
-7.168755
-8.951859
-10.38865
-11.56823
-12.66706
-13.86258
-15.28635
-17.02769
-19.05888
-21.22588
-23.24029
-24.74079
-25.36346
-24.88296
-23.24857
-20.60253
-17.22752
-13.41592
-9.408272
-5.374893
-1.442024
2.25827
5.575569
8.344788
10.48215
11.9702
12.9202
13.51694
13.9572
14.36671
14.77099
15.10487
15.2718
15.22826
14.95928
14.51643
13.9839
13.41051
12.81893
12.19728
11.52061
10.7458
9.87458
8.907997
7.852226
6.713951
5.476883
4.080231
2.451775
0.5355225
-1.649796
-3.962761
-6.180466
-8.075691
-9.543999
-10.65383
-11.63892
-12.77322
-14.24738
-16.08977
-18.16027
-20.2208
-22.02991
-23.39655
-24.15405
-24.15583
-23.25953
-21.38654
-18.57645
-15.04047
-11.12552
-7.199883
-3.520847
-0.1732674
2.88382
5.736046
8.370918
10.68312
12.52066
13.80455
14.60131
15.10735
15.53347
15.93931
16.22474
16.20796
15.75378
14.90766
13.89109
12.9808
12.37208
12.06469
11.89067
11.6169
11.0685
10.17666
8.99379
7.622242
6.173519
4.74625
3.385094
2.093655
0.8065758
-0.584301
-2.194881
-4.107815
-6.299816
-8.638428
-10.92774
-12.9894
-14.78938
-16.47689
-18.28843
-20.43481
-22.88068
-25.33829
-27.28711
-28.19823
-27.69042
-25.70087
-22.47105
-18.39376
-13.8694
-9.183235
-4.527222
-0.02877426
4.15453
7.857693
10.92406
13.24476
14.81629
15.7221
16.11957
16.19532
16.11316
15.97765
15.80351
15.55362
15.16407
14.64188
14.03199
13.45282
13.01768
12.75213
12.60449
12.42574
12.05855
11.37091
10.33377
8.947735
7.315449
5.566147
3.835873
2.245583
0.8520851
-0.3418427
-1.434429
-2.527599
-3.758862
-5.207237
-6.886623
-8.803509
-10.94258
-13.30745
-15.88685
-18.60043
-21.265
-23.6061
-25.30147
-26.05929
-25.71656
-24.23144
-21.71692
-18.40797
-14.60587
-10.6374
-6.777195
-3.17733
0.1236
3.16581
6.010235
8.628139
10.89116
12.61177
13.6856
14.16913
14.29534
14.3523
14.55218
14.95849
15.47576
15.94635
16.25572
16.3385
16.18975
15.81251
15.18223
14.25716
13.04841
11.64495
10.19818
8.872108
7.750254
6.78208
5.840366
4.756613
3.414204
1.774942
-0.1151199
-2.143902
-4.189865
-6.160131
-8.048389
-9.88776
-11.72564
-13.59999
-15.51122
-17.46722
-19.45952
-21.4444
-23.30135
-24.78773
-25.57419
-25.33606
-23.85099
-21.13548
-17.4396
-13.17775
-8.759138
-4.488283
-0.4990807
3.178091
6.537399
9.538919
12.10996
14.18037
15.749
16.87283
17.65288
18.16503
18.41205
18.34406
17.88295
17.0464
15.96809
14.86467
13.95545
13.32711
12.91389
12.4936
11.83819
10.80913
9.428596
7.854917
6.302758
4.942812
3.85033
3.019309
2.352887
1.727418
0.9797211
-0.0533762
-1.491334
-3.303593
-5.359982
-7.422519
-9.267591
-10.82912
-12.20211
-13.58496
-15.19818
-17.14844
-19.33572
-21.49357
-23.23448
-24.17309
-24.02646
-22.68263
-20.22558
-16.92891
-13.15006
-9.212937
-5.327559
-1.555037
2.116844
5.660316
8.975773
11.85802
14.09177
15.58966
16.42945
16.82782
17.02514
17.17361
17.27074
17.23003
16.95047
16.40921
15.69304
14.95516
14.28597
13.73696
13.26696
12.77468
12.19426
11.47908
10.62967
9.645406
8.531305
7.244109
5.782606
4.149479
2.363765
0.4891691
-1.394179
-3.194103
-4.836426
-6.27766
-7.553946
-8.738148
-9.95859
-11.3704
-13.10126
-15.19633
-17.60935
-20.14762
-22.48073
-24.21471
-24.98192
-24.547
-22.87702
-20.14119
-16.61232
-12.5934
-8.335222
-4.011869
0.217639
4.176436
7.673554
10.53763
12.67296
14.11036
14.99533
15.4904
15.73208
15.76158
15.56465
15.13069
14.48135
13.68738
12.85737
12.11911
11.56348
11.219
11.02283
10.85929
10.58222
10.07764
9.292612
8.26524
7.124889
6.02014
5.088783
4.33139
3.645258
2.865459
1.837198
0.495224
-1.085533
-2.77231
-4.428148
-5.945793
-7.346151
-8.741707
-10.2822
-12.09444
-14.22978
-16.62926
-19.1248
-21.48668
-23.39722
-24.53988
-24.65193
-23.57713
-21.32179
-18.07383
-14.16497
-9.960958
-5.798588
-1.881569
1.680105
4.846413
7.600353
9.887415
11.65533
12.91621
13.74589
14.2748
14.63066
14.85887
14.96651
14.92847
14.74345
14.46454
14.19557
14.00608
13.85722
13.62147
13.11661
12.22962
11.00434
9.587755
8.176401
6.913364
5.81502
4.779926
3.645763
2.314182
0.7541924
-0.9720726
-2.790365
-4.634647
-6.485224
-8.318001
-10.07468
-11.65562
-12.97182
-14.04132
-15.00961
-16.09272
-17.47635
-19.14465
-20.84941
-22.1475
-22.56662
-21.79801
-19.83057
-16.89106
-13.3724
-9.670052
-6.038528
-2.62701
0.5413857
3.469093
6.13213
8.456211
10.35678
11.79103
12.77201
13.4312
13.93493
14.42258
14.93388
15.38706
15.61092
15.44091
14.83511
13.87838
12.77918
11.74387
10.88049
10.19325
9.57608
8.920204
8.154545
7.278748
6.331642
5.341465
4.27478
3.081604
1.7439
0.2651596
-1.275578
-2.824982
-4.370277
-5.941349
-7.567116
-9.256458
-10.93137
-12.50379
-13.98998
-15.49168
-17.18878
-19.18275
-21.37271
-23.44113
-24.93531
-25.43809
-24.70643
-22.76285
-19.82294
-16.17844
-12.11827
-7.878864
-3.681492
0.2798195
3.810623
6.766579
9.089005
10.82548
12.09603
13.04549
13.83089
14.54525
15.24628
15.90548
16.41935
16.65819
16.52879
16.0109
15.19283
14.20606
13.13562
11.99202
10.699
9.162067
7.361698
5.40654
3.507179
1.900444
0.7193184
-0.08457184
-0.7244759
-1.457363
-2.484192
-3.847656
-5.449287
-7.145977
-8.814102
-10.43895
-12.08374
-13.81287
-15.64089
-17.54871
-19.46766
-21.31143
-22.97304
-24.27224
-24.97098
-24.80416
-23.59114
-21.3368
-18.2416
-14.61114
-10.73142
-6.800011
-2.917225
0.7961121
4.155758
6.920944
8.919853
10.18385
10.98929
11.7052
12.61229
13.78528
15.0517
16.12302
16.78633
16.98405
16.83191
16.51159
16.11312
15.60031
14.87731
13.86204
12.53765
11.00768
9.419064
7.912579
6.587196
5.457443
4.483334
3.596825
2.717693
1.795376
0.7996407
-0.3012047
-1.548157
-2.983158
-4.628948
-6.444881
-8.356796
-10.29892
-12.28487
-14.41789
-16.85932
-19.67219
-22.73346
-25.6924
-28.03238
-29.28834
-29.19064
-27.72831
-25.10355
-21.64691
-17.65823
-13.37411
-9.026165
-4.808987
-0.9128799
2.544384
5.55703
8.201694
10.59071
12.78971
14.78882
16.48725
17.76935
18.54056
18.78542
18.57278
18.01901
17.27666
16.4642
15.67963
14.91189
14.09592
13.10916
11.84975
10.29123
8.48184
6.575216
4.723396
3.049353
1.59037
0.2848339
-0.993639
-2.395763
-3.99284
-5.804422
-7.793625
-9.928226
-12.21848
-14.73355
-17.53741
-20.62643
-23.85573
-26.89923
-29.33946
-30.78628
-30.96522
-29.79594
-27.3757
-23.93356
-19.75885
-15.14355
-10.32209
-5.463252
-0.6764116
3.966719
8.359792
12.3549
15.75137
18.37489
20.13978
21.09833
21.40111
21.23321
20.7721
20.12471
19.37494
18.6029
17.89228
17.28305
16.76119
16.23423
15.55116
14.59532
13.33477
11.86423
10.36632
9.038258
7.997041
7.235612
6.618733
5.947656
5.039747
3.793038
2.183544
0.2604828
-1.884928
-4.16622
-6.519413
-8.928492
-11.40995
-13.99455
-16.68365
-19.38397
-21.89033
-23.88674
-25.03887
-25.1001
-23.96027
-21.70749
-18.56829
-14.83238
-10.77898
-6.649963
-2.653244
1.025898
4.226103
6.84643
8.817509
10.15571
10.91062
11.20748
11.19331
11.04251
10.90955
10.90006
11.05832
11.32414
11.59486
11.74606
11.71268
11.50478
11.22314
10.98873
10.87773
10.85789
10.77155
10.43544
9.701326
8.50544
6.900526
4.986984
2.896671
0.7417526
-1.400257
-3.482265
-5.512175
-7.555416
-9.729532
-12.14171
-14.85439
-17.77739
-20.69225
-23.23335
-24.99262
-25.61381
-24.91855
-22.92904
-19.85857
-16.05837
-11.8793
-7.624825
-3.473175
0.4951248
4.243656
7.669991
10.62673
12.96141
14.54867
15.43694
15.8073
15.90697
15.93116
15.96751
15.93135
15.71004
15.24334
14.5504
13.77441
13.0644
12.49834
12.03881
11.55256
10.85419
9.788563
8.291245
6.394623
4.252239
2.08017
0.07210541
-1.662239
-3.147427
-4.506855
-5.862545
-7.280708
-8.757084
-10.22231
-11.64866
-13.07138
-14.49438
-15.84885
-16.90584
-17.31568
-16.759
-15.08107
-12.32955
-8.765232
-4.75555
-0.628437
3.332787
6.926495
10.00884
12.44775
14.1379
15.06644
15.30814
15.01472
14.38846
13.58644
12.675
11.67641
10.55234
9.290104
7.923847
6.528908
5.179409
3.913422
2.685009
1.380215
-0.09457397
-1.799572
-3.674534
-5.611328
-7.494953
-9.247761
-10.87724
-12.47582
-14.20345
-16.16488
-18.3909
-20.73436
-22.88858
-24.46964
-25.10202
-24.54538
-22.76475
-19.95564
-16.43779
-12.59362
-8.705807
-4.927704
-1.330738
2.112469
5.418186
8.550137
11.38447
13.76984
15.54499
16.63941
17.1258
17.15999
16.93923
16.58564
16.13715
15.52715
14.70341
13.67089
12.49239
11.26768
10.04871
8.829178
7.569832
6.235664
4.84993
3.447327
2.002953
0.4455566
-1.281662
-3.217293
-5.308563
-7.500359
-9.766914
-12.13813
-14.6622
-17.37152
-20.23201
-23.12652
-25.98308
-28.72383
-31.27455
-33.46951
-35.00784
-35.48918
-34.58624
-32.18886
-28.45675
-23.81492
-18.74383
-13.62463
-8.657478
-3.898643
0.6837845
5.07608
9.163361
12.78986
15.78043
18.04594
19.55119
20.34129
20.53483
20.30426
19.83597
19.33042
18.95155
18.76382
18.73636
18.73728
18.56425
18.07653
17.17905
15.83928
14.10255
12.02889
9.673157
7.106384
4.384171
1.575424
-1.216385
-3.876801
-6.320953
-8.517593
-10.56219
-12.64157
-14.9592
-17.6196
-20.54465
-23.44391
-25.9095
-27.51102
-27.94469
-27.11838
-25.10483
-22.09489
-18.33269
-14.1011
-9.591827
-4.96431
-0.3063507
4.328735
8.84758
13.1124
16.95706
20.20898
22.71716
24.43343
25.37471
25.64473
25.42517
24.91605
24.28755
23.67596
23.07765
22.41443
21.55779
20.39751
18.90689
17.15707
15.22797
13.19646
11.10333
8.95195
6.763535
4.570206
2.39769
0.2543488
-1.840576
-3.913681
-5.94809
-7.900589
-9.717056
-11.39592
-13.00661
-14.70757
-16.70688
-19.13091
-21.99405
-25.10646
-28.04749
-30.27185
-31.21744
-30.50047
-28.05672
-24.16692
-19.34897
-14.15065
-8.975922
-4.007828
0.7582245
5.370331
9.796783
13.85211
17.26704
19.84288
21.51979
22.40627
22.71968
22.66774
22.39764
21.97191
21.3929
20.66365
19.84625
19.02325
18.26897
17.61366
17.01645
16.38336
15.63284
14.69829
13.57828
12.26917
10.75
8.996719
7.003632
4.823242
2.538788
0.2746277
-1.905716
-4.019333
-6.150085
-8.41684
-10.8651
-13.46107
-16.13258
-18.8392
-21.57545
-24.34337
-27.02748
-29.36295
-30.95267
-31.37468
-30.34418
-27.7982
-23.93617
-19.1198
-13.78644
-8.293335
-2.898117
2.249359
7.062393
11.44595
15.31311
18.54942
21.0602
22.81259
23.87384
24.38788
24.53278
24.45003
24.16045
23.63124
22.82326
21.76558
20.59647
19.50751
18.62688
17.94737
17.31972
16.53854
15.46236
14.08327
12.51599
10.87593
9.235031
7.520798
5.614136
3.410355
0.9252472
-1.709442
-4.299561
-6.702362
-8.888657
-10.89511
-12.82486
-14.76523
-16.81668
-19.04828
-21.47707
-23.99722
-26.36414
-28.19067
-29.05006
-28.63879
-26.85544
-23.85468
-19.97432
-15.60335
-11.0323
-6.436768
-1.897659
2.518509
6.686554
10.45105
13.67029
16.23479
18.12561
19.39435
20.14882
20.49786
20.53555
20.29965
19.79985
19.05885
18.11545
17.10251
16.17941
15.47952
15.0482
14.79851
14.52827
14.04054
13.21407
12.04263
10.62039
9.095947
7.567108
6.096619
4.701477
3.350342
2.02179
0.6828308
-0.7066803
-2.172714
-3.702866
-5.279907
-6.903107
-8.601685
-10.46866
-12.62888
-15.17659
-18.13417
-21.37682
-24.62343
-27.49408
-29.57614
-30.48309
-30.00282
-28.09651
-24.92239
-20.80032
-16.0537
-10.98849
-5.841156
-0.7913666
4.007736
8.355957
12.07767
15.05754
17.25043
18.73407
19.62007
20.04008
20.09476
19.87538
19.44362
18.86671
18.23201
17.59633
17.02283
16.53546
16.15363
15.86575
15.59138
15.19955
14.53545
13.48639
12.01416
10.22272
8.302048
6.454819
4.842682
3.499344
2.338943
1.223648
0.009368896
-1.433624
-3.157761
-5.156235
-7.41748
-9.870636
-12.45258
-15.10158
-17.75462
-20.33662
-22.793
-25.06613
-27.061
-28.66461
-29.70811
-29.97429
-29.25119
-27.39995
-24.42087
-20.47821
-15.88669
-10.98546
-6.079041
-1.367371
3.045944
7.086777
10.68272
13.75838
16.24994
18.14728
19.53036
20.49329
21.117
21.42152
21.37547
20.97989
20.29825
19.46742
18.63329
17.89822
17.25517
16.61412
15.85567
14.88437
13.70193
12.35913
10.92653
9.458145
7.960602
6.40918
4.782379
3.09201
1.332596
-0.4747925
-2.332428
-4.238464
-6.201584
-8.21489
-10.26952
-12.3242
-14.32758
-16.29466
-18.26759
-20.36386
-22.6881
-25.24042
-27.7916
-29.92879
-31.12358
-30.9258
-29.16548
-26.01018
-21.89066
-17.33328
-12.74937
-8.330093
-4.073441
0.07646179
4.13858
7.9814
11.39349
14.12857
16.02841
17.09557
17.49109
17.47482
17.2822
17.11237
17.00821
16.95578
16.87477
16.69711
16.3864
15.93678
15.35291
14.65413
13.86717
12.98303
11.98143
10.85393
9.600952
8.273712
6.94725
5.678833
4.477432
3.29512
2.026001
0.562027
-1.129013
-3.029205
-5.058823
-7.144699
-9.263611
-11.42815
-13.69992
-16.12827
-18.77722
-21.6702
-24.79893
-28.00529
-30.99745
-33.33369
-34.55608
-34.34357
-32.64339
-29.67859
-25.85797
-21.5997
-17.18237
-12.69662
-8.132797
-3.499481
1.077545
5.340607
9.022476
11.91754
14.01794
15.44893
16.44769
17.1801
17.72879
18.09167
18.2453
18.23196
18.13811
18.06242
18.017
17.91991
17.58569
16.85088
15.6339
14.02878
12.24486
10.52536
9.018784
7.706345
6.426636
4.968384
3.17804
1.01268
-1.404602
-3.837265
-6.0354
-7.825821
-9.164444
-10.17407
-11.07669
-12.13374
-13.54608
-15.42046
-17.74136
-20.38597
-23.16537
-25.80551
-27.95947
-29.28279
-29.46442
-28.37112
-26.08478
-22.87154
-19.0688
-14.94388
-10.62569
-6.09993
-1.352875
3.558609
8.384796
12.78355
16.40332
19.01732
20.6244
21.36275
21.45976
21.13007
20.54927
19.84766
19.13777
18.51523
18.04868
17.73158
17.45236
17.02492
16.21866
14.92557
13.18378
11.19733
9.259033
7.601532
6.308548
5.293137
4.342911
3.230179
1.835449
0.1752319
-1.652023
-3.522125
