1569593699.67778
1569593699.6934
1569593699.70903
1569593699.72465
1569593699.74028
1569593699.75591
1569593699.77153
1569593699.78716
1569593699.80278
1569593699.81841
1569593699.83404
1569593699.84966
1569593699.86529
1569593699.88091
1569593699.89654
1569593699.91216
1569593699.92779
1569593699.94342
1569593699.95904
1569593699.97467
1569593699.99029
1569593700.00592
1569593700.02154
1569593700.03717
1569593700.0528
1569593700.06842
1569593700.08405
1569593700.09967
1569593700.1153
1569593700.13092
1569593700.14655
1569593700.16218
1569593700.1778
1569593700.19343
1569593700.20905
1569593700.22468
1569593700.2403
1569593700.25593
1569593700.27156
1569593700.28718
1569593700.30281
1569593700.31843
1569593700.33406
1569593700.34968
1569593700.36531
1569593700.38094
1569593700.39656
1569593700.41219
1569593700.42781
1569593700.44344
1569593700.45906
1569593700.47469
1569593700.49032
1569593700.50594
1569593700.52157
1569593700.53719
1569593700.55282
1569593700.56844
1569593700.58407
1569593700.5997
1569593700.61532
1569593700.63095
1569593700.64657
1569593700.6622
1569593700.67782
1569593700.69345
1569593700.70908
1569593700.7247
1569593700.74033
1569593700.75595
1569593700.77158
1569593700.7872
1569593700.80283
1569593700.81846
1569593700.83408
1569593700.84971
1569593700.86533
1569593700.88096
1569593700.89658
1569593700.91221
1569593700.92784
1569593700.94346
1569593700.95909
1569593700.97471
1569593700.99034
1569593701.00596
1569593701.02159
1569593701.03722
1569593701.05284
1569593701.06847
1569593701.08409
1569593701.09972
1569593701.11534
1569593701.13097
1569593701.1466
1569593701.16222
1569593701.17785
1569593701.19347
1569593701.2091
1569593701.22472
1569593701.24035
1569593701.25598
1569593701.2716
1569593701.28723
1569593701.30285
1569593701.31848
1569593701.3341
1569593701.34973
1569593701.36536
1569593701.38098
1569593701.39661
1569593701.41223
1569593701.42786
1569593701.44348
1569593701.45911
1569593701.47474
1569593701.49036
1569593701.50599
1569593701.52161
1569593701.53724
1569593701.55286
1569593701.56849
1569593701.58412
1569593701.59974
1569593701.61537
1569593701.63099
1569593701.64662
1569593701.66224
1569593701.67787
1569593701.6935
1569593701.70912
1569593701.72475
1569593701.74037
1569593701.756
1569593701.77162
1569593701.78725
1569593701.80288
1569593701.8185
1569593701.83413
1569593701.84975
1569593701.86538
1569593701.881
1569593701.89663
1569593701.91226
1569593701.92788
1569593701.94351
1569593701.95913
1569593701.97476
1569593701.99038
1569593702.00601
1569593702.02164
1569593702.03726
1569593702.05289
1569593702.06851
1569593702.08414
1569593702.09977
1569593702.11539
1569593702.13102
1569593702.14664
1569593702.16227
1569593702.17789
1569593702.19352
1569593702.20915
1569593702.22477
1569593702.2404
1569593702.25602
1569593702.27165
1569593702.28727
1569593702.3029
1569593702.31853
1569593702.33415
1569593702.34978
1569593702.3654
1569593702.38103
1569593702.39665
1569593702.41228
1569593702.42791
1569593702.44353
1569593702.45916
1569593702.47478
1569593702.49041
1569593702.50603
1569593702.52166
1569593702.53729
1569593702.55291
1569593702.56854
1569593702.58416
1569593702.59979
1569593702.61541
1569593702.63104
1569593702.64667
1569593702.66229
1569593702.67792
1569593702.69354
1569593702.70917
1569593702.72479
1569593702.74042
1569593702.75605
1569593702.77167
1569593702.7873
1569593702.80292
1569593702.81855
1569593702.83417
1569593702.8498
1569593702.86543
1569593702.88105
1569593702.89668
1569593702.9123
1569593702.92793
1569593702.94355
1569593702.95918
1569593702.97481
1569593702.99043
1569593703.00606
1569593703.02168
1569593703.03731
1569593703.05293
1569593703.06856
1569593703.08419
1569593703.09981
1569593703.11544
1569593703.13106
1569593703.14669
1569593703.16231
1569593703.17794
1569593703.19357
1569593703.20919
1569593703.22482
1569593703.24044
1569593703.25607
1569593703.27169
1569593703.28732
1569593703.30295
1569593703.31857
1569593703.3342
1569593703.34982
1569593703.36545
1569593703.38107
1569593703.3967
1569593703.41233
1569593703.42795
1569593703.44358
1569593703.4592
1569593703.47483
1569593703.49045
1569593703.50608
1569593703.52171
1569593703.53733
1569593703.55296
1569593703.56858
1569593703.58421
1569593703.59983
1569593703.61546
1569593703.63109
1569593703.64671
1569593703.66234
1569593703.67796
1569593703.69359
1569593703.70921
1569593703.72484
1569593703.74047
1569593703.75609
1569593703.77172
1569593703.78734
1569593703.80297
1569593703.81859
1569593703.83422
1569593703.84985
1569593703.86547
1569593703.8811
1569593703.89672
1569593703.91235
1569593703.92797
1569593703.9436
1569593703.95923
1569593703.97485
1569593703.99048
1569593704.0061
1569593704.02173
1569593704.03735
1569593704.05298
1569593704.06861
1569593704.08423
1569593704.09986
1569593704.11548
1569593704.13111
1569593704.14673
1569593704.16236
1569593704.17799
1569593704.19361
1569593704.20924
1569593704.22486
1569593704.24049
1569593704.25611
1569593704.27174
1569593704.28737
1569593704.30299
1569593704.31862
1569593704.33424
1569593704.34987
1569593704.36549
1569593704.38112
1569593704.39675
1569593704.41237
1569593704.428
1569593704.44362
1569593704.45925
1569593704.47487
1569593704.4905
1569593704.50613
1569593704.52175
1569593704.53738
1569593704.553
1569593704.56863
1569593704.58425
1569593704.59988
1569593704.61551
1569593704.63113
1569593704.64676
1569593704.66238
1569593704.67801
1569593704.69364
1569593704.70926
1569593704.72489
1569593704.74051
1569593704.75614
1569593704.77176
1569593704.78739
1569593704.80302
1569593704.81864
1569593704.83427
1569593704.84989
1569593704.86552
1569593704.88114
1569593704.89677
1569593704.9124
1569593704.92802
1569593704.94365
1569593704.95927
1569593704.9749
1569593704.99052
1569593705.00615
1569593705.02178
1569593705.0374
1569593705.05303
1569593705.06865
1569593705.08428
1569593705.0999
1569593705.11553
1569593705.13116
1569593705.14678
1569593705.16241
1569593705.17803
1569593705.19366
1569593705.20928
1569593705.22491
1569593705.24054
1569593705.25616
1569593705.27179
1569593705.28741
1569593705.30304
1569593705.31866
1569593705.33429
1569593705.34992
1569593705.36554
1569593705.38117
1569593705.39679
1569593705.41242
1569593705.42804
1569593705.44367
1569593705.4593
1569593705.47492
1569593705.49055
1569593705.50617
1569593705.5218
1569593705.53742
1569593705.55305
1569593705.56868
1569593705.5843
1569593705.59993
1569593705.61555
1569593705.63118
1569593705.6468
1569593705.66243
1569593705.67806
1569593705.69368
1569593705.70931
1569593705.72493
1569593705.74056
1569593705.75618
1569593705.77181
1569593705.78744
1569593705.80306
1569593705.81869
1569593705.83431
1569593705.84994
1569593705.86556
1569593705.88119
1569593705.89682
1569593705.91244
1569593705.92807
1569593705.94369
1569593705.95932
1569593705.97494
1569593705.99057
1569593706.0062
1569593706.02182
1569593706.03745
1569593706.05307
1569593706.0687
1569593706.08432
1569593706.09995
1569593706.11558
1569593706.1312
1569593706.14683
1569593706.16245
1569593706.17808
1569593706.1937
1569593706.20933
1569593706.22496
1569593706.24058
1569593706.25621
1569593706.27183
1569593706.28746
1569593706.30308
1569593706.31871
1569593706.33434
1569593706.34996
1569593706.36559
1569593706.38121
1569593706.39684
1569593706.41246
1569593706.42809
1569593706.44372
1569593706.45934
1569593706.47497
1569593706.49059
1569593706.50622
1569593706.52184
1569593706.53747
1569593706.5531
1569593706.56872
1569593706.58435
1569593706.59997
1569593706.6156
1569593706.63122
1569593706.64685
1569593706.66248
1569593706.6781
1569593706.69373
1569593706.70935
1569593706.72498
1569593706.7406
1569593706.75623
1569593706.77186
1569593706.78748
1569593706.80311
1569593706.81873
1569593706.83436
1569593706.84998
1569593706.86561
1569593706.88124
1569593706.89686
1569593706.91249
1569593706.92811
1569593706.94374
1569593706.95937
1569593706.97499
1569593706.99062
1569593707.00624
1569593707.02187
1569593707.03749
1569593707.05312
1569593707.06875
1569593707.08437
1569593707.1
1569593707.11562
1569593707.13125
1569593707.14687
1569593707.1625
1569593707.17813
1569593707.19375
1569593707.20938
1569593707.225
1569593707.24063
1569593707.25625
1569593707.27188
1569593707.28751
1569593707.30313
1569593707.31876
1569593707.33438
1569593707.35001
1569593707.36563
1569593707.38126
1569593707.39689
1569593707.41251
1569593707.42814
1569593707.44376
1569593707.45939
1569593707.47501
1569593707.49064
1569593707.50627
1569593707.52189
1569593707.53752
1569593707.55314
1569593707.56877
1569593707.58439
1569593707.60002
1569593707.61565
1569593707.63127
1569593707.6469
1569593707.66252
1569593707.67815
1569593707.69377
1569593707.7094
1569593707.72503
1569593707.74065
1569593707.75628
1569593707.7719
1569593707.78753
1569593707.80315
1569593707.81878
1569593707.83441
1569593707.85003
1569593707.86566
1569593707.88128
1569593707.89691
1569593707.91253
1569593707.92816
1569593707.94379
1569593707.95941
1569593707.97504
1569593707.99066
1569593708.00629
1569593708.02191
1569593708.03754
1569593708.05317
1569593708.06879
1569593708.08442
1569593708.10004
1569593708.11567
1569593708.13129
1569593708.14692
1569593708.16255
1569593708.17817
1569593708.1938
1569593708.20942
1569593708.22505
1569593708.24067
1569593708.2563
1569593708.27193
1569593708.28755
1569593708.30318
1569593708.3188
1569593708.33443
1569593708.35005
1569593708.36568
1569593708.38131
1569593708.39693
1569593708.41256
1569593708.42818
1569593708.44381
1569593708.45943
1569593708.47506
1569593708.49069
1569593708.50631
1569593708.52194
1569593708.53756
1569593708.55319
1569593708.56881
1569593708.58444
1569593708.60007
1569593708.61569
1569593708.63132
1569593708.64694
1569593708.66257
1569593708.67819
1569593708.69382
1569593708.70945
1569593708.72507
1569593708.7407
1569593708.75632
1569593708.77195
1569593708.78757
1569593708.8032
1569593708.81883
1569593708.83445
1569593708.85008
1569593708.8657
1569593708.88133
1569593708.89695
1569593708.91258
1569593708.92821
1569593708.94383
1569593708.95946
1569593708.97508
1569593708.99071
1569593709.00633
1569593709.02196
1569593709.03759
1569593709.05321
1569593709.06884
1569593709.08446
1569593709.10009
1569593709.11572
1569593709.13134
1569593709.14697
1569593709.16259
1569593709.17822
1569593709.19384
1569593709.20947
1569593709.2251
1569593709.24072
1569593709.25635
1569593709.27197
1569593709.2876
1569593709.30322
1569593709.31885
1569593709.33448
1569593709.3501
1569593709.36573
1569593709.38135
1569593709.39698
1569593709.4126
1569593709.42823
1569593709.44386
1569593709.45948
1569593709.47511
1569593709.49073
1569593709.50636
1569593709.52198
1569593709.53761
1569593709.55324
1569593709.56886
1569593709.58449
1569593709.60011
1569593709.61574
1569593709.63136
1569593709.64699
1569593709.66262
1569593709.67824
1569593709.69387
1569593709.70949
1569593709.72512
1569593709.74074
1569593709.75637
1569593709.772
1569593709.78762
1569593709.80325
1569593709.81887
1569593709.8345
1569593709.85012
1569593709.86575
1569593709.88138
1569593709.897
1569593709.91263
1569593709.92825
1569593709.94388
1569593709.9595
1569593709.97513
1569593709.99076
1569593710.00638
1569593710.02201
1569593710.03763
1569593710.05326
1569593710.06888
1569593710.08451
1569593710.10014
1569593710.11576
1569593710.13139
1569593710.14701
1569593710.16264
1569593710.17826
1569593710.19389
1569593710.20952
1569593710.22514
1569593710.24077
1569593710.25639
1569593710.27202
1569593710.28764
1569593710.30327
1569593710.3189
1569593710.33452
1569593710.35015
1569593710.36577
1569593710.3814
1569593710.39702
1569593710.41265
1569593710.42828
1569593710.4439
1569593710.45953
1569593710.47515
1569593710.49078
1569593710.5064
1569593710.52203
1569593710.53766
1569593710.55328
1569593710.56891
1569593710.58453
1569593710.60016
1569593710.61578
1569593710.63141
1569593710.64704
1569593710.66266
1569593710.67829
1569593710.69391
1569593710.70954
1569593710.72516
1569593710.74079
1569593710.75642
1569593710.77204
1569593710.78767
1569593710.80329
1569593710.81892
1569593710.83454
1569593710.85017
1569593710.8658
1569593710.88142
1569593710.89705
1569593710.91267
1569593710.9283
1569593710.94392
1569593710.95955
1569593710.97518
1569593710.9908
1569593711.00643
1569593711.02205
1569593711.03768
1569593711.0533
1569593711.06893
1569593711.08456
1569593711.10018
1569593711.11581
1569593711.13143
1569593711.14706
1569593711.16268
1569593711.17831
1569593711.19394
1569593711.20956
1569593711.22519
1569593711.24081
1569593711.25644
1569593711.27206
1569593711.28769
1569593711.30332
1569593711.31894
1569593711.33457
1569593711.35019
1569593711.36582
1569593711.38144
1569593711.39707
1569593711.4127
1569593711.42832
1569593711.44395
1569593711.45957
1569593711.4752
1569593711.49082
1569593711.50645
1569593711.52208
1569593711.5377
1569593711.55333
1569593711.56895
1569593711.58458
1569593711.6002
1569593711.61583
1569593711.63146
1569593711.64708
1569593711.66271
1569593711.67833
1569593711.69396
1569593711.70958
1569593711.72521
1569593711.74084
1569593711.75646
1569593711.77209
1569593711.78771
1569593711.80334
1569593711.81897
1569593711.83459
1569593711.85022
1569593711.86584
1569593711.88147
1569593711.89709
1569593711.91272
1569593711.92835
1569593711.94397
1569593711.9596
1569593711.97522
1569593711.99085
1569593712.00647
1569593712.0221
1569593712.03773
1569593712.05335
1569593712.06898
1569593712.0846
1569593712.10023
1569593712.11585
1569593712.13148
1569593712.14711
1569593712.16273
1569593712.17836
1569593712.19398
1569593712.20961
1569593712.22523
1569593712.24086
1569593712.25649
1569593712.27211
1569593712.28774
1569593712.30336
1569593712.31899
1569593712.33461
1569593712.35024
1569593712.36587
1569593712.38149
1569593712.39712
1569593712.41274
1569593712.42837
1569593712.44399
1569593712.45962
1569593712.47525
1569593712.49087
1569593712.5065
1569593712.52212
1569593712.53775
1569593712.55337
1569593712.569
1569593712.58463
1569593712.60025
1569593712.61588
1569593712.6315
1569593712.64713
1569593712.66275
1569593712.67838
1569593712.69401
1569593712.70963
1569593712.72526
1569593712.74088
1569593712.75651
1569593712.77213
1569593712.78776
1569593712.80339
1569593712.81901
1569593712.83464
1569593712.85026
1569593712.86589
1569593712.88151
1569593712.89714
1569593712.91277
1569593712.92839
1569593712.94402
1569593712.95964
1569593712.97527
1569593712.99089
1569593713.00652
1569593713.02215
1569593713.03777
1569593713.0534
1569593713.06902
1569593713.08465
1569593713.10027
1569593713.1159
1569593713.13153
1569593713.14715
1569593713.16278
1569593713.1784
1569593713.19403
1569593713.20965
1569593713.22528
1569593713.24091
1569593713.25653
1569593713.27216
1569593713.28778
1569593713.30341
1569593713.31903
1569593713.33466
1569593713.35029
1569593713.36591
1569593713.38154
1569593713.39716
1569593713.41279
1569593713.42841
1569593713.44404
1569593713.45967
1569593713.47529
1569593713.49092
1569593713.50654
1569593713.52217
1569593713.53779
1569593713.55342
1569593713.56905
1569593713.58467
1569593713.6003
1569593713.61592
1569593713.63155
1569593713.64717
1569593713.6628
1569593713.67843
1569593713.69405
1569593713.70968
1569593713.7253
1569593713.74093
1569593713.75655
1569593713.77218
1569593713.78781
1569593713.80343
1569593713.81906
1569593713.83468
1569593713.85031
1569593713.86593
1569593713.88156
1569593713.89719
1569593713.91281
1569593713.92844
1569593713.94406
1569593713.95969
1569593713.97532
1569593713.99094
1569593714.00657
1569593714.02219
1569593714.03782
1569593714.05344
1569593714.06907
1569593714.0847
1569593714.10032
1569593714.11595
1569593714.13157
1569593714.1472
1569593714.16282
1569593714.17845
1569593714.19408
1569593714.2097
1569593714.22533
1569593714.24095
1569593714.25658
1569593714.2722
1569593714.28783
1569593714.30346
1569593714.31908
1569593714.33471
1569593714.35033
1569593714.36596
1569593714.38158
1569593714.39721
1569593714.41284
1569593714.42846
1569593714.44409
1569593714.45971
1569593714.47534
1569593714.49096
1569593714.50659
1569593714.52222
1569593714.53784
1569593714.55347
1569593714.56909
1569593714.58472
1569593714.60034
1569593714.61597
1569593714.6316
1569593714.64722
1569593714.66285
1569593714.67847
1569593714.6941
1569593714.70972
1569593714.72535
1569593714.74098
1569593714.7566
1569593714.77223
1569593714.78785
1569593714.80348
1569593714.8191
1569593714.83473
1569593714.85036
1569593714.86598
1569593714.88161
1569593714.89723
1569593714.91286
1569593714.92848
1569593714.94411
1569593714.95974
1569593714.97536
1569593714.99099
1569593715.00661
1569593715.02224
1569593715.03786
1569593715.05349
1569593715.06912
1569593715.08474
1569593715.10037
1569593715.11599
1569593715.13162
1569593715.14724
1569593715.16287
1569593715.1785
1569593715.19412
1569593715.20975
1569593715.22537
1569593715.241
1569593715.25662
1569593715.27225
1569593715.28788
1569593715.3035
1569593715.31913
1569593715.33475
1569593715.35038
1569593715.366
1569593715.38163
1569593715.39726
1569593715.41288
1569593715.42851
1569593715.44413
1569593715.45976
1569593715.47538
1569593715.49101
1569593715.50664
1569593715.52226
1569593715.53789
1569593715.55351
1569593715.56914
1569593715.58476
1569593715.60039
1569593715.61602
1569593715.63164
1569593715.64727
1569593715.66289
1569593715.67852
1569593715.69414
1569593715.70977
1569593715.7254
1569593715.74102
1569593715.75665
1569593715.77227
1569593715.7879
1569593715.80352
1569593715.81915
1569593715.83478
1569593715.8504
1569593715.86603
1569593715.88165
1569593715.89728
1569593715.9129
1569593715.92853
1569593715.94416
1569593715.95978
1569593715.97541
1569593715.99103
1569593716.00666
1569593716.02228
1569593716.03791
1569593716.05354
1569593716.06916
1569593716.08479
1569593716.10041
1569593716.11604
1569593716.13166
1569593716.14729
1569593716.16292
1569593716.17854
1569593716.19417
1569593716.20979
1569593716.22542
1569593716.24105
1569593716.25667
1569593716.2723
1569593716.28792
1569593716.30355
1569593716.31917
1569593716.3348
1569593716.35043
1569593716.36605
1569593716.38168
1569593716.3973
1569593716.41293
1569593716.42855
1569593716.44418
1569593716.45981
1569593716.47543
1569593716.49106
1569593716.50668
1569593716.52231
1569593716.53793
1569593716.55356
1569593716.56919
1569593716.58481
1569593716.60044
1569593716.61606
1569593716.63169
1569593716.64731
1569593716.66294
1569593716.67857
1569593716.69419
1569593716.70982
1569593716.72544
1569593716.74107
1569593716.75669
1569593716.77232
1569593716.78795
1569593716.80357
1569593716.8192
1569593716.83482
1569593716.85045
1569593716.86607
1569593716.8817
1569593716.89733
1569593716.91295
1569593716.92858
1569593716.9442
1569593716.95983
1569593716.97545
1569593716.99108
1569593717.00671
1569593717.02233
1569593717.03796
1569593717.05358
1569593717.06921
1569593717.08483
1569593717.10046
1569593717.11609
1569593717.13171
1569593717.14734
1569593717.16296
1569593717.17859
1569593717.19421
1569593717.20984
1569593717.22547
1569593717.24109
1569593717.25672
1569593717.27234
1569593717.28797
1569593717.30359
1569593717.31922
1569593717.33485
1569593717.35047
1569593717.3661
1569593717.38172
1569593717.39735
1569593717.41297
1569593717.4286
1569593717.44423
1569593717.45985
1569593717.47548
1569593717.4911
1569593717.50673
1569593717.52235
1569593717.53798
1569593717.55361
1569593717.56923
1569593717.58486
1569593717.60048
1569593717.61611
1569593717.63173
1569593717.64736
1569593717.66299
1569593717.67861
1569593717.69424
1569593717.70986
1569593717.72549
1569593717.74111
1569593717.75674
1569593717.77237
1569593717.78799
1569593717.80362
1569593717.81924
1569593717.83487
1569593717.85049
1569593717.86612
1569593717.88175
1569593717.89737
1569593717.913
1569593717.92862
1569593717.94425
1569593717.95987
1569593717.9755
1569593717.99113
1569593718.00675
1569593718.02238
1569593718.038
1569593718.05363
1569593718.06925
1569593718.08488
1569593718.10051
1569593718.11613
1569593718.13176
1569593718.14738
1569593718.16301
1569593718.17863
1569593718.19426
1569593718.20989
1569593718.22551
1569593718.24114
1569593718.25676
1569593718.27239
1569593718.28801
1569593718.30364
1569593718.31927
1569593718.33489
1569593718.35052
1569593718.36614
1569593718.38177
1569593718.39739
1569593718.41302
1569593718.42865
1569593718.44427
1569593718.4599
1569593718.47552
1569593718.49115
1569593718.50677
1569593718.5224
1569593718.53803
1569593718.55365
1569593718.56928
1569593718.5849
1569593718.60053
1569593718.61615
1569593718.63178
1569593718.64741
1569593718.66303
1569593718.67866
1569593718.69428
1569593718.70991
1569593718.72553
1569593718.74116
1569593718.75679
1569593718.77241
1569593718.78804
1569593718.80366
1569593718.81929
1569593718.83492
1569593718.85054
1569593718.86617
1569593718.88179
1569593718.89742
1569593718.91304
1569593718.92867
1569593718.9443
1569593718.95992
1569593718.97555
1569593718.99117
1569593719.0068
1569593719.02242
1569593719.03805
1569593719.05368
1569593719.0693
1569593719.08493
1569593719.10055
1569593719.11618
1569593719.1318
1569593719.14743
1569593719.16306
1569593719.17868
1569593719.19431
1569593719.20993
1569593719.22556
1569593719.24118
1569593719.25681
1569593719.27244
1569593719.28806
1569593719.30369
1569593719.31931
1569593719.33494
1569593719.35056
1569593719.36619
1569593719.38182
1569593719.39744
1569593719.41307
1569593719.42869
1569593719.44432
1569593719.45994
1569593719.47557
1569593719.4912
1569593719.50682
1569593719.52245
1569593719.53807
1569593719.5537
1569593719.56932
1569593719.58495
1569593719.60058
1569593719.6162
1569593719.63183
1569593719.64745
1569593719.66308
1569593719.6787
1569593719.69433
1569593719.70996
1569593719.72558
1569593719.74121
1569593719.75683
1569593719.77246
1569593719.78808
1569593719.80371
1569593719.81934
1569593719.83496
1569593719.85059
1569593719.86621
1569593719.88184
1569593719.89746
1569593719.91309
1569593719.92872
1569593719.94434
1569593719.95997
1569593719.97559
1569593719.99122
1569593720.00684
1569593720.02247
1569593720.0381
1569593720.05372
1569593720.06935
1569593720.08497
1569593720.1006
1569593720.11622
1569593720.13185
1569593720.14748
1569593720.1631
1569593720.17873
1569593720.19435
1569593720.20998
1569593720.2256
1569593720.24123
1569593720.25686
1569593720.27248
1569593720.28811
1569593720.30373
1569593720.31936
1569593720.33498
1569593720.35061
1569593720.36624
1569593720.38186
1569593720.39749
1569593720.41311
1569593720.42874
1569593720.44436
1569593720.45999
1569593720.47562
1569593720.49124
1569593720.50687
1569593720.52249
1569593720.53812
1569593720.55374
1569593720.56937
1569593720.585
1569593720.60062
1569593720.61625
1569593720.63187
1569593720.6475
1569593720.66312
1569593720.67875
1569593720.69438
1569593720.71
1569593720.72563
1569593720.74125
1569593720.75688
1569593720.7725
1569593720.78813
1569593720.80376
1569593720.81938
1569593720.83501
1569593720.85063
1569593720.86626
1569593720.88188
1569593720.89751
1569593720.91314
1569593720.92876
1569593720.94439
1569593720.96001
1569593720.97564
1569593720.99126
1569593721.00689
1569593721.02252
1569593721.03814
1569593721.05377
1569593721.06939
1569593721.08502
1569593721.10065
1569593721.11627
1569593721.1319
1569593721.14752
1569593721.16315
1569593721.17877
1569593721.1944
1569593721.21003
1569593721.22565
1569593721.24128
1569593721.2569
1569593721.27253
1569593721.28815
1569593721.30378
1569593721.31941
1569593721.33503
1569593721.35066
1569593721.36628
1569593721.38191
1569593721.39753
1569593721.41316
1569593721.42879
1569593721.44441
1569593721.46004
1569593721.47566
1569593721.49129
1569593721.50691
1569593721.52254
1569593721.53817
1569593721.55379
1569593721.56942
1569593721.58504
1569593721.60067
1569593721.61629
1569593721.63192
1569593721.64755
1569593721.66317
1569593721.6788
1569593721.69442
1569593721.71005
1569593721.72567
1569593721.7413
1569593721.75693
1569593721.77255
1569593721.78818
1569593721.8038
1569593721.81943
1569593721.83505
1569593721.85068
1569593721.86631
1569593721.88193
1569593721.89756
1569593721.91318
1569593721.92881
1569593721.94443
1569593721.96006
1569593721.97569
1569593721.99131
1569593722.00694
1569593722.02256
1569593722.03819
1569593722.05381
1569593722.06944
1569593722.08507
1569593722.10069
1569593722.11632
1569593722.13194
1569593722.14757
1569593722.16319
1569593722.17882
1569593722.19445
1569593722.21007
1569593722.2257
1569593722.24132
1569593722.25695
1569593722.27257
1569593722.2882
1569593722.30383
1569593722.31945
1569593722.33508
1569593722.3507
1569593722.36633
1569593722.38195
1569593722.39758
1569593722.41321
1569593722.42883
1569593722.44446
1569593722.46008
1569593722.47571
1569593722.49133
1569593722.50696
1569593722.52259
1569593722.53821
1569593722.55384
1569593722.56946
1569593722.58509
1569593722.60071
1569593722.61634
1569593722.63197
1569593722.64759
1569593722.66322
1569593722.67884
1569593722.69447
1569593722.71009
1569593722.72572
1569593722.74135
1569593722.75697
1569593722.7726
1569593722.78822
1569593722.80385
1569593722.81947
1569593722.8351
1569593722.85073
1569593722.86635
1569593722.88198
1569593722.8976
1569593722.91323
1569593722.92885
1569593722.94448
1569593722.96011
1569593722.97573
1569593722.99136
1569593723.00698
1569593723.02261
1569593723.03823
1569593723.05386
1569593723.06949
1569593723.08511
1569593723.10074
1569593723.11636
1569593723.13199
1569593723.14761
1569593723.16324
1569593723.17887
1569593723.19449
1569593723.21012
1569593723.22574
1569593723.24137
1569593723.25699
1569593723.27262
1569593723.28825
1569593723.30387
1569593723.3195
1569593723.33512
1569593723.35075
1569593723.36637
1569593723.382
1569593723.39763
1569593723.41325
1569593723.42888
1569593723.4445
1569593723.46013
1569593723.47575
1569593723.49138
1569593723.50701
1569593723.52263
1569593723.53826
1569593723.55388
1569593723.56951
1569593723.58513
1569593723.60076
1569593723.61639
1569593723.63201
1569593723.64764
1569593723.66326
1569593723.67889
1569593723.69451
1569593723.71014
1569593723.72577
1569593723.74139
1569593723.75702
1569593723.77264
1569593723.78827
1569593723.8039
1569593723.81952
1569593723.83515
1569593723.85077
1569593723.8664
1569593723.88202
1569593723.89765
1569593723.91328
1569593723.9289
1569593723.94453
1569593723.96015
1569593723.97578
1569593723.9914
1569593724.00703
1569593724.02266
1569593724.03828
1569593724.05391
1569593724.06953
1569593724.08516
1569593724.10078
1569593724.11641
1569593724.13204
1569593724.14766
1569593724.16329
1569593724.17891
1569593724.19454
1569593724.21016
1569593724.22579
1569593724.24142
1569593724.25704
1569593724.27267
1569593724.28829
1569593724.30392
1569593724.31954
1569593724.33517
1569593724.3508
1569593724.36642
1569593724.38205
1569593724.39767
1569593724.4133
1569593724.42892
1569593724.44455
1569593724.46018
1569593724.4758
1569593724.49143
1569593724.50705
1569593724.52268
1569593724.5383
1569593724.55393
1569593724.56956
1569593724.58518
1569593724.60081
1569593724.61643
1569593724.63206
1569593724.64768
1569593724.66331
1569593724.67894
1569593724.69456
1569593724.71019
1569593724.72581
1569593724.74144
1569593724.75706
1569593724.77269
1569593724.78832
1569593724.80394
1569593724.81957
1569593724.83519
1569593724.85082
1569593724.86644
1569593724.88207
1569593724.8977
1569593724.91332
1569593724.92895
1569593724.94457
1569593724.9602
1569593724.97582
1569593724.99145
1569593725.00708
1569593725.0227
1569593725.03833
1569593725.05395
1569593725.06958
1569593725.0852
1569593725.10083
1569593725.11646
1569593725.13208
1569593725.14771
1569593725.16333
1569593725.17896
1569593725.19458
1569593725.21021
1569593725.22584
1569593725.24146
1569593725.25709
1569593725.27271
1569593725.28834
1569593725.30396
1569593725.31959
1569593725.33522
1569593725.35084
1569593725.36647
1569593725.38209
1569593725.39772
1569593725.41334
1569593725.42897
1569593725.4446
1569593725.46022
1569593725.47585
1569593725.49147
1569593725.5071
1569593725.52272
1569593725.53835
1569593725.55398
1569593725.5696
1569593725.58523
1569593725.60085
1569593725.61648
1569593725.6321
1569593725.64773
1569593725.66336
1569593725.67898
1569593725.69461
1569593725.71023
1569593725.72586
1569593725.74148
1569593725.75711
1569593725.77274
1569593725.78836
1569593725.80399
1569593725.81961
1569593725.83524
1569593725.85086
1569593725.86649
1569593725.88212
1569593725.89774
1569593725.91337
1569593725.92899
1569593725.94462
1569593725.96025
1569593725.97587
1569593725.9915
1569593726.00712
1569593726.02275
1569593726.03837
1569593726.054
1569593726.06963
1569593726.08525
1569593726.10088
1569593726.1165
1569593726.13213
1569593726.14775
1569593726.16338
1569593726.17901
1569593726.19463
1569593726.21026
1569593726.22588
1569593726.24151
1569593726.25713
1569593726.27276
1569593726.28839
1569593726.30401
1569593726.31964
1569593726.33526
1569593726.35089
1569593726.36651
1569593726.38214
1569593726.39777
1569593726.41339
1569593726.42902
1569593726.44464
1569593726.46027
1569593726.47589
1569593726.49152
1569593726.50715
1569593726.52277
1569593726.5384
1569593726.55402
1569593726.56965
1569593726.58527
1569593726.6009
1569593726.61653
1569593726.63215
1569593726.64778
1569593726.6634
1569593726.67903
1569593726.69465
1569593726.71028
1569593726.72591
1569593726.74153
1569593726.75716
1569593726.77278
1569593726.78841
1569593726.80403
1569593726.81966
1569593726.83529
1569593726.85091
1569593726.86654
1569593726.88216
1569593726.89779
1569593726.91341
1569593726.92904
1569593726.94467
1569593726.96029
1569593726.97592
1569593726.99154
1569593727.00717
1569593727.02279
1569593727.03842
1569593727.05405
1569593727.06967
1569593727.0853
1569593727.10092
1569593727.11655
1569593727.13217
1569593727.1478
1569593727.16343
1569593727.17905
1569593727.19468
1569593727.2103
1569593727.22593
1569593727.24155
1569593727.25718
1569593727.27281
1569593727.28843
1569593727.30406
1569593727.31968
1569593727.33531
1569593727.35093
1569593727.36656
1569593727.38219
1569593727.39781
1569593727.41344
1569593727.42906
1569593727.44469
1569593727.46031
1569593727.47594
1569593727.49157
1569593727.50719
1569593727.52282
1569593727.53844
1569593727.55407
1569593727.56969
1569593727.58532
1569593727.60095
1569593727.61657
1569593727.6322
1569593727.64782
1569593727.66345
1569593727.67907
1569593727.6947
1569593727.71033
1569593727.72595
1569593727.74158
1569593727.7572
1569593727.77283
1569593727.78845
1569593727.80408
1569593727.81971
1569593727.83533
1569593727.85096
1569593727.86658
1569593727.88221
1569593727.89783
1569593727.91346
1569593727.92909
1569593727.94471
1569593727.96034
1569593727.97596
1569593727.99159
1569593728.00721
1569593728.02284
1569593728.03847
1569593728.05409
1569593728.06972
1569593728.08534
1569593728.10097
1569593728.11659
1569593728.13222
1569593728.14785
1569593728.16347
1569593728.1791
1569593728.19472
1569593728.21035
1569593728.22598
1569593728.2416
1569593728.25723
1569593728.27285
1569593728.28848
1569593728.3041
1569593728.31973
1569593728.33536
1569593728.35098
1569593728.36661
1569593728.38223
1569593728.39786
1569593728.41348
1569593728.42911
1569593728.44474
1569593728.46036
1569593728.47599
1569593728.49161
1569593728.50724
1569593728.52286
1569593728.53849
1569593728.55412
1569593728.56974
1569593728.58537
1569593728.60099
1569593728.61662
1569593728.63224
1569593728.64787
1569593728.6635
1569593728.67912
1569593728.69475
1569593728.71037
1569593728.726
1569593728.74162
1569593728.75725
1569593728.77288
1569593728.7885
1569593728.80413
1569593728.81975
1569593728.83538
1569593728.851
1569593728.86663
1569593728.88226
1569593728.89788
1569593728.91351
1569593728.92913
1569593728.94476
1569593728.96038
1569593728.97601
1569593728.99164
1569593729.00726
1569593729.02289
1569593729.03851
1569593729.05414
1569593729.06976
1569593729.08539
1569593729.10102
1569593729.11664
1569593729.13227
1569593729.14789
1569593729.16352
1569593729.17914
1569593729.19477
1569593729.2104
1569593729.22602
1569593729.24165
1569593729.25727
1569593729.2729
1569593729.28852
1569593729.30415
1569593729.31978
1569593729.3354
1569593729.35103
1569593729.36665
1569593729.38228
1569593729.3979
1569593729.41353
1569593729.42916
1569593729.44478
1569593729.46041
1569593729.47603
1569593729.49166
1569593729.50728
1569593729.52291
1569593729.53854
1569593729.55416
1569593729.56979
1569593729.58541
1569593729.60104
1569593729.61666
1569593729.63229
1569593729.64792
1569593729.66354
1569593729.67917
1569593729.69479
1569593729.71042
1569593729.72604
1569593729.74167
1569593729.7573
1569593729.77292
1569593729.78855
1569593729.80417
1569593729.8198
1569593729.83542
1569593729.85105
1569593729.86668
1569593729.8823
1569593729.89793
1569593729.91355
1569593729.92918
1569593729.9448
1569593729.96043
1569593729.97606
1569593729.99168
1569593730.00731
1569593730.02293
1569593730.03856
1569593730.05418
1569593730.06981
1569593730.08544
1569593730.10106
1569593730.11669
1569593730.13231
1569593730.14794
1569593730.16356
1569593730.17919
1569593730.19482
1569593730.21044
1569593730.22607
1569593730.24169
1569593730.25732
1569593730.27294
1569593730.28857
1569593730.3042
1569593730.31982
1569593730.33545
1569593730.35107
1569593730.3667
1569593730.38232
1569593730.39795
1569593730.41358
1569593730.4292
1569593730.44483
1569593730.46045
1569593730.47608
1569593730.4917
1569593730.50733
1569593730.52296
1569593730.53858
1569593730.55421
1569593730.56983
1569593730.58546
1569593730.60108
1569593730.61671
1569593730.63234
1569593730.64796
1569593730.66359
1569593730.67921
1569593730.69484
1569593730.71046
1569593730.72609
1569593730.74172
1569593730.75734
1569593730.77297
1569593730.78859
1569593730.80422
1569593730.81985
1569593730.83547
1569593730.8511
1569593730.86672
1569593730.88235
1569593730.89797
1569593730.9136
1569593730.92923
1569593730.94485
1569593730.96048
1569593730.9761
1569593730.99173
1569593731.00735
1569593731.02298
1569593731.03861
1569593731.05423
1569593731.06986
1569593731.08548
1569593731.10111
1569593731.11673
1569593731.13236
1569593731.14799
1569593731.16361
1569593731.17924
1569593731.19486
1569593731.21049
1569593731.22611
1569593731.24174
1569593731.25737
1569593731.27299
1569593731.28862
1569593731.30424
1569593731.31987
1569593731.33549
1569593731.35112
1569593731.36675
1569593731.38237
1569593731.398
1569593731.41362
1569593731.42925
1569593731.44487
1569593731.4605
1569593731.47613
1569593731.49175
1569593731.50738
1569593731.523
1569593731.53863
1569593731.55425
1569593731.56988
1569593731.58551
1569593731.60113
1569593731.61676
1569593731.63238
1569593731.64801
1569593731.66363
1569593731.67926
1569593731.69489
1569593731.71051
1569593731.72614
1569593731.74176
1569593731.75739
1569593731.77301
1569593731.78864
1569593731.80427
1569593731.81989
1569593731.83552
1569593731.85114
1569593731.86677
1569593731.88239
1569593731.89802
1569593731.91365
1569593731.92927
1569593731.9449
1569593731.96052
1569593731.97615
1569593731.99177
1569593732.0074
1569593732.02303
1569593732.03865
1569593732.05428
1569593732.0699
1569593732.08553
1569593732.10115
1569593732.11678
1569593732.13241
1569593732.14803
1569593732.16366
1569593732.17928
1569593732.19491
1569593732.21053
1569593732.22616
1569593732.24179
1569593732.25741
1569593732.27304
1569593732.28866
1569593732.30429
1569593732.31991
1569593732.33554
1569593732.35117
1569593732.36679
1569593732.38242
1569593732.39804
1569593732.41367
1569593732.42929
1569593732.44492
1569593732.46055
1569593732.47617
1569593732.4918
1569593732.50742
1569593732.52305
1569593732.53867
1569593732.5543
1569593732.56993
1569593732.58555
1569593732.60118
1569593732.6168
1569593732.63243
1569593732.64805
1569593732.66368
1569593732.67931
1569593732.69493
1569593732.71056
1569593732.72618
1569593732.74181
1569593732.75743
1569593732.77306
1569593732.78869
1569593732.80431
1569593732.81994
1569593732.83556
1569593732.85119
1569593732.86681
1569593732.88244
1569593732.89807
1569593732.91369
1569593732.92932
1569593732.94494
1569593732.96057
1569593732.97619
1569593732.99182
1569593733.00745
1569593733.02307
1569593733.0387
1569593733.05432
1569593733.06995
1569593733.08558
1569593733.1012
1569593733.11683
1569593733.13245
1569593733.14808
1569593733.1637
1569593733.17933
1569593733.19496
1569593733.21058
1569593733.22621
1569593733.24183
1569593733.25746
1569593733.27308
1569593733.28871
1569593733.30434
1569593733.31996
1569593733.33559
1569593733.35121
1569593733.36684
1569593733.38246
1569593733.39809
1569593733.41372
1569593733.42934
1569593733.44497
1569593733.46059
1569593733.47622
1569593733.49184
1569593733.50747
1569593733.5231
1569593733.53872
1569593733.55435
1569593733.56997
1569593733.5856
1569593733.60122
1569593733.61685
1569593733.63248
1569593733.6481
1569593733.66373
1569593733.67935
1569593733.69498
1569593733.7106
1569593733.72623
1569593733.74186
1569593733.75748
1569593733.77311
1569593733.78873
1569593733.80436
1569593733.81998
1569593733.83561
1569593733.85124
1569593733.86686
1569593733.88249
1569593733.89811
1569593733.91374
1569593733.92936
1569593733.94499
1569593733.96062
1569593733.97624
1569593733.99187
1569593734.00749
1569593734.02312
1569593734.03874
1569593734.05437
1569593734.07
1569593734.08562
1569593734.10125
1569593734.11687
1569593734.1325
1569593734.14812
1569593734.16375
1569593734.17938
1569593734.195
1569593734.21063
1569593734.22625
1569593734.24188
1569593734.2575
1569593734.27313
1569593734.28876
1569593734.30438
1569593734.32001
1569593734.33563
1569593734.35126
1569593734.36688
1569593734.38251
1569593734.39814
1569593734.41376
1569593734.42939
1569593734.44501
1569593734.46064
1569593734.47626
1569593734.49189
1569593734.50752
1569593734.52314
1569593734.53877
1569593734.55439
1569593734.57002
1569593734.58564
1569593734.60127
1569593734.6169
1569593734.63252
1569593734.64815
1569593734.66377
1569593734.6794
1569593734.69502
1569593734.71065
1569593734.72628
1569593734.7419
1569593734.75753
1569593734.77315
1569593734.78878
1569593734.8044
1569593734.82003
1569593734.83566
1569593734.85128
1569593734.86691
1569593734.88253
1569593734.89816
1569593734.91378
1569593734.92941
1569593734.94504
1569593734.96066
1569593734.97629
1569593734.99191
1569593735.00754
1569593735.02316
1569593735.03879
1569593735.05442
1569593735.07004
1569593735.08567
1569593735.10129
1569593735.11692
1569593735.13254
1569593735.14817
1569593735.1638
1569593735.17942
1569593735.19505
1569593735.21067
1569593735.2263
1569593735.24193
1569593735.25755
1569593735.27318
1569593735.2888
1569593735.30443
1569593735.32005
1569593735.33568
1569593735.35131
1569593735.36693
1569593735.38256
1569593735.39818
1569593735.41381
1569593735.42943
1569593735.44506
1569593735.46069
1569593735.47631
1569593735.49194
1569593735.50756
1569593735.52319
1569593735.53881
1569593735.55444
1569593735.57007
1569593735.58569
1569593735.60132
1569593735.61694
1569593735.63257
1569593735.64819
1569593735.66382
1569593735.67945
1569593735.69507
1569593735.7107
1569593735.72632
1569593735.74195
1569593735.75757
1569593735.7732
1569593735.78883
1569593735.80445
1569593735.82008
1569593735.8357
1569593735.85133
1569593735.86695
1569593735.88258
1569593735.89821
1569593735.91383
1569593735.92946
1569593735.94508
1569593735.96071
1569593735.97633
1569593735.99196
1569593736.00759
1569593736.02321
1569593736.03884
1569593736.05446
1569593736.07009
1569593736.08571
1569593736.10134
1569593736.11697
1569593736.13259
1569593736.14822
1569593736.16384
1569593736.17947
1569593736.19509
1569593736.21072
1569593736.22635
1569593736.24197
1569593736.2576
1569593736.27322
1569593736.28885
1569593736.30447
1569593736.3201
1569593736.33573
1569593736.35135
1569593736.36698
1569593736.3826
1569593736.39823
1569593736.41385
1569593736.42948
1569593736.44511
1569593736.46073
1569593736.47636
1569593736.49198
1569593736.50761
1569593736.52323
1569593736.53886
1569593736.55449
1569593736.57011
1569593736.58574
1569593736.60136
1569593736.61699
1569593736.63261
1569593736.64824
1569593736.66387
1569593736.67949
1569593736.69512
1569593736.71074
1569593736.72637
1569593736.74199
1569593736.75762
1569593736.77325
1569593736.78887
1569593736.8045
1569593736.82012
1569593736.83575
1569593736.85137
1569593736.867
1569593736.88263
1569593736.89825
1569593736.91388
1569593736.9295
1569593736.94513
1569593736.96075
1569593736.97638
1569593736.99201
1569593737.00763
1569593737.02326
1569593737.03888
1569593737.05451
1569593737.07013
1569593737.08576
1569593737.10139
1569593737.11701
1569593737.13264
1569593737.14826
1569593737.16389
1569593737.17951
1569593737.19514
1569593737.21077
1569593737.22639
1569593737.24202
1569593737.25764
1569593737.27327
1569593737.28889
1569593737.30452
1569593737.32015
1569593737.33577
1569593737.3514
1569593737.36702
1569593737.38265
1569593737.39827
1569593737.4139
1569593737.42953
1569593737.44515
1569593737.46078
1569593737.4764
1569593737.49203
1569593737.50765
1569593737.52328
1569593737.53891
1569593737.55453
1569593737.57016
1569593737.58578
1569593737.60141
1569593737.61703
1569593737.63266
1569593737.64829
1569593737.66391
1569593737.67954
1569593737.69516
1569593737.71079
1569593737.72641
1569593737.74204
1569593737.75767
1569593737.77329
1569593737.78892
1569593737.80454
1569593737.82017
1569593737.83579
1569593737.85142
1569593737.86705
1569593737.88267
1569593737.8983
1569593737.91392
1569593737.92955
1569593737.94518
1569593737.9608
1569593737.97643
1569593737.99205
1569593738.00768
1569593738.0233
1569593738.03893
1569593738.05456
1569593738.07018
1569593738.08581
1569593738.10143
1569593738.11706
1569593738.13268
1569593738.14831
1569593738.16394
1569593738.17956
1569593738.19519
1569593738.21081
1569593738.22644
1569593738.24206
1569593738.25769
1569593738.27332
1569593738.28894
1569593738.30457
1569593738.32019
1569593738.33582
1569593738.35144
1569593738.36707
1569593738.3827
1569593738.39832
1569593738.41395
1569593738.42957
1569593738.4452
1569593738.46082
1569593738.47645
1569593738.49208
1569593738.5077
1569593738.52333
1569593738.53895
1569593738.55458
1569593738.5702
1569593738.58583
1569593738.60146
1569593738.61708
1569593738.63271
1569593738.64833
1569593738.66396
1569593738.67958
1569593738.69521
1569593738.71084
1569593738.72646
1569593738.74209
1569593738.75771
1569593738.77334
1569593738.78896
1569593738.80459
1569593738.82022
1569593738.83584
1569593738.85147
1569593738.86709
1569593738.88272
1569593738.89834
1569593738.91397
1569593738.9296
1569593738.94522
1569593738.96085
1569593738.97647
1569593738.9921
1569593739.00772
1569593739.02335
1569593739.03898
1569593739.0546
1569593739.07023
1569593739.08585
1569593739.10148
1569593739.1171
1569593739.13273
1569593739.14836
1569593739.16398
1569593739.17961
1569593739.19523
1569593739.21086
1569593739.22648
1569593739.24211
1569593739.25774
1569593739.27336
1569593739.28899
1569593739.30461
1569593739.32024
1569593739.33586
1569593739.35149
1569593739.36712
1569593739.38274
1569593739.39837
1569593739.41399
1569593739.42962
1569593739.44524
1569593739.46087
1569593739.4765
1569593739.49212
1569593739.50775
1569593739.52337
1569593739.539
1569593739.55462
1569593739.57025
1569593739.58588
1569593739.6015
1569593739.61713
1569593739.63275
1569593739.64838
1569593739.664
1569593739.67963
1569593739.69526
1569593739.71088
1569593739.72651
1569593739.74213
1569593739.75776
1569593739.77338
1569593739.78901
1569593739.80464
1569593739.82026
1569593739.83589
1569593739.85151
1569593739.86714
1569593739.88276
1569593739.89839
1569593739.91402
1569593739.92964
1569593739.94527
1569593739.96089
1569593739.97652
1569593739.99214
1569593740.00777
1569593740.0234
1569593740.03902
1569593740.05465
1569593740.07027
1569593740.0859
1569593740.10153
1569593740.11715
1569593740.13278
1569593740.1484
1569593740.16403
1569593740.17965
1569593740.19528
1569593740.21091
1569593740.22653
1569593740.24216
1569593740.25778
1569593740.27341
1569593740.28903
1569593740.30466
1569593740.32029
1569593740.33591
1569593740.35154
1569593740.36716
1569593740.38279
1569593740.39841
1569593740.41404
1569593740.42967
1569593740.44529
1569593740.46092
1569593740.47654
1569593740.49217
1569593740.50779
1569593740.52342
1569593740.53905
1569593740.55467
1569593740.5703
1569593740.58592
1569593740.60155
1569593740.61717
1569593740.6328
1569593740.64843
1569593740.66405
1569593740.67968
1569593740.6953
1569593740.71093
1569593740.72655
1569593740.74218
1569593740.75781
1569593740.77343
1569593740.78906
1569593740.80468
1569593740.82031
1569593740.83593
1569593740.85156
1569593740.86719
1569593740.88281
1569593740.89844
1569593740.91406
1569593740.92969
1569593740.94531
1569593740.96094
1569593740.97657
1569593740.99219
1569593741.00782
1569593741.02344
1569593741.03907
1569593741.05469
1569593741.07032
1569593741.08595
1569593741.10157
1569593741.1172
1569593741.13282
1569593741.14845
1569593741.16407
1569593741.1797
1569593741.19533
1569593741.21095
1569593741.22658
1569593741.2422
1569593741.25783
1569593741.27345
1569593741.28908
1569593741.30471
1569593741.32033
1569593741.33596
1569593741.35158
1569593741.36721
1569593741.38283
1569593741.39846
1569593741.41409
1569593741.42971
1569593741.44534
1569593741.46096
1569593741.47659
1569593741.49221
1569593741.50784
1569593741.52347
1569593741.53909
1569593741.55472
1569593741.57034
1569593741.58597
1569593741.60159
1569593741.61722
1569593741.63285
1569593741.64847
1569593741.6641
1569593741.67972
1569593741.69535
1569593741.71097
1569593741.7266
1569593741.74223
1569593741.75785
1569593741.77348
1569593741.7891
1569593741.80473
1569593741.82035
1569593741.83598
1569593741.85161
1569593741.86723
1569593741.88286
1569593741.89848
1569593741.91411
1569593741.92973
1569593741.94536
1569593741.96099
1569593741.97661
1569593741.99224
1569593742.00786
1569593742.02349
1569593742.03911
1569593742.05474
1569593742.07037
1569593742.08599
1569593742.10162
1569593742.11724
1569593742.13287
1569593742.14849
1569593742.16412
1569593742.17975
1569593742.19537
1569593742.211
1569593742.22662
1569593742.24225
1569593742.25787
1569593742.2735
1569593742.28913
1569593742.30475
1569593742.32038
1569593742.336
1569593742.35163
1569593742.36725
1569593742.38288
1569593742.39851
1569593742.41413
1569593742.42976
1569593742.44538
1569593742.46101
1569593742.47663
1569593742.49226
1569593742.50789
1569593742.52351
1569593742.53914
1569593742.55476
1569593742.57039
1569593742.58601
1569593742.60164
1569593742.61727
1569593742.63289
1569593742.64852
1569593742.66414
1569593742.67977
1569593742.69539
1569593742.71102
1569593742.72665
1569593742.74227
1569593742.7579
1569593742.77352
1569593742.78915
1569593742.80478
1569593742.8204
1569593742.83603
1569593742.85165
1569593742.86728
1569593742.8829
1569593742.89853
1569593742.91416
1569593742.92978
1569593742.94541
1569593742.96103
1569593742.97666
1569593742.99228
1569593743.00791
1569593743.02354
1569593743.03916
1569593743.05479
1569593743.07041
1569593743.08604
1569593743.10166
1569593743.11729
1569593743.13292
1569593743.14854
1569593743.16417
1569593743.17979
1569593743.19542
1569593743.21104
1569593743.22667
1569593743.2423
1569593743.25792
1569593743.27355
1569593743.28917
1569593743.3048
1569593743.32042
1569593743.33605
1569593743.35168
1569593743.3673
1569593743.38293
1569593743.39855
1569593743.41418
1569593743.4298
1569593743.44543
1569593743.46106
1569593743.47668
1569593743.49231
1569593743.50793
1569593743.52356
1569593743.53918
1569593743.55481
1569593743.57044
1569593743.58606
1569593743.60169
1569593743.61731
1569593743.63294
1569593743.64856
1569593743.66419
1569593743.67982
1569593743.69544
1569593743.71107
1569593743.72669
1569593743.74232
1569593743.75794
1569593743.77357
1569593743.7892
1569593743.80482
1569593743.82045
1569593743.83607
1569593743.8517
1569593743.86732
1569593743.88295
1569593743.89858
1569593743.9142
1569593743.92983
1569593743.94545
1569593743.96108
1569593743.9767
1569593743.99233
1569593744.00796
1569593744.02358
1569593744.03921
1569593744.05483
1569593744.07046
1569593744.08608
1569593744.10171
1569593744.11734
1569593744.13296
1569593744.14859
1569593744.16421
1569593744.17984
1569593744.19546
1569593744.21109
1569593744.22672
1569593744.24234
1569593744.25797
1569593744.27359
1569593744.28922
1569593744.30484
1569593744.32047
1569593744.3361
1569593744.35172
1569593744.36735
1569593744.38297
1569593744.3986
1569593744.41422
1569593744.42985
1569593744.44548
1569593744.4611
1569593744.47673
1569593744.49235
1569593744.50798
1569593744.5236
1569593744.53923
1569593744.55486
1569593744.57048
1569593744.58611
1569593744.60173
1569593744.61736
1569593744.63298
1569593744.64861
1569593744.66424
1569593744.67986
1569593744.69549
1569593744.71111
1569593744.72674
1569593744.74236
1569593744.75799
1569593744.77362
1569593744.78924
1569593744.80487
1569593744.82049
1569593744.83612
1569593744.85174
1569593744.86737
1569593744.883
1569593744.89862
1569593744.91425
1569593744.92987
1569593744.9455
1569593744.96113
1569593744.97675
1569593744.99238
1569593745.008
1569593745.02363
1569593745.03925
1569593745.05488
1569593745.07051
1569593745.08613
1569593745.10176
1569593745.11738
1569593745.13301
1569593745.14863
1569593745.16426
1569593745.17989
1569593745.19551
1569593745.21114
1569593745.22676
1569593745.24239
1569593745.25801
1569593745.27364
1569593745.28927
1569593745.30489
1569593745.32052
1569593745.33614
1569593745.35177
1569593745.36739
1569593745.38302
1569593745.39865
1569593745.41427
1569593745.4299
1569593745.44552
1569593745.46115
1569593745.47677
1569593745.4924
1569593745.50803
1569593745.52365
1569593745.53928
1569593745.5549
1569593745.57053
1569593745.58615
1569593745.60178
1569593745.61741
1569593745.63303
1569593745.64866
1569593745.66428
1569593745.67991
1569593745.69553
1569593745.71116
1569593745.72679
1569593745.74241
1569593745.75804
1569593745.77366
1569593745.78929
1569593745.80491
1569593745.82054
1569593745.83617
1569593745.85179
1569593745.86742
1569593745.88304
1569593745.89867
1569593745.91429
1569593745.92992
1569593745.94555
1569593745.96117
1569593745.9768
1569593745.99242
1569593746.00805
1569593746.02367
1569593746.0393
1569593746.05493
1569593746.07055
1569593746.08618
1569593746.1018
1569593746.11743
1569593746.13305
1569593746.14868
1569593746.16431
1569593746.17993
1569593746.19556
1569593746.21118
1569593746.22681
1569593746.24243
1569593746.25806
1569593746.27369
1569593746.28931
1569593746.30494
1569593746.32056
1569593746.33619
1569593746.35181
1569593746.36744
1569593746.38307
1569593746.39869
1569593746.41432
1569593746.42994
1569593746.44557
1569593746.46119
1569593746.47682
1569593746.49245
1569593746.50807
1569593746.5237
1569593746.53932
1569593746.55495
1569593746.57057
1569593746.5862
1569593746.60183
1569593746.61745
1569593746.63308
1569593746.6487
1569593746.66433
1569593746.67995
1569593746.69558
1569593746.71121
1569593746.72683
1569593746.74246
1569593746.75808
1569593746.77371
1569593746.78933
1569593746.80496
1569593746.82059
1569593746.83621
1569593746.85184
1569593746.86746
1569593746.88309
1569593746.89871
1569593746.91434
1569593746.92997
1569593746.94559
1569593746.96122
1569593746.97684
1569593746.99247
1569593747.00809
1569593747.02372
1569593747.03935
1569593747.05497
1569593747.0706
1569593747.08622
1569593747.10185
1569593747.11747
1569593747.1331
1569593747.14873
1569593747.16435
1569593747.17998
1569593747.1956
1569593747.21123
1569593747.22686
1569593747.24248
1569593747.25811
1569593747.27373
1569593747.28936
1569593747.30498
1569593747.32061
1569593747.33624
1569593747.35186
1569593747.36749
1569593747.38311
1569593747.39874
1569593747.41436
1569593747.42999
1569593747.44562
1569593747.46124
1569593747.47687
1569593747.49249
1569593747.50812
1569593747.52374
1569593747.53937
1569593747.555
1569593747.57062
1569593747.58625
1569593747.60187
1569593747.6175
1569593747.63312
1569593747.64875
1569593747.66438
1569593747.68
1569593747.69563
1569593747.71125
1569593747.72688
1569593747.7425
1569593747.75813
1569593747.77376
1569593747.78938
1569593747.80501
1569593747.82063
1569593747.83626
1569593747.85188
1569593747.86751
1569593747.88314
1569593747.89876
1569593747.91439
1569593747.93001
1569593747.94564
1569593747.96126
1569593747.97689
1569593747.99252
1569593748.00814
1569593748.02377
1569593748.03939
1569593748.05502
1569593748.07064
1569593748.08627
1569593748.1019
1569593748.11752
1569593748.13315
1569593748.14877
1569593748.1644
1569593748.18002
1569593748.19565
1569593748.21128
1569593748.2269
1569593748.24253
1569593748.25815
1569593748.27378
1569593748.2894
1569593748.30503
1569593748.32066
1569593748.33628
1569593748.35191
1569593748.36753
1569593748.38316
1569593748.39878
1569593748.41441
1569593748.43004
1569593748.44566
1569593748.46129
1569593748.47691
1569593748.49254
1569593748.50816
1569593748.52379
1569593748.53942
1569593748.55504
1569593748.57067
1569593748.58629
1569593748.60192
1569593748.61754
1569593748.63317
1569593748.6488
1569593748.66442
1569593748.68005
1569593748.69567
1569593748.7113
1569593748.72692
1569593748.74255
1569593748.75818
1569593748.7738
1569593748.78943
1569593748.80505
1569593748.82068
1569593748.8363
1569593748.85193
1569593748.86756
1569593748.88318
1569593748.89881
1569593748.91443
1569593748.93006
1569593748.94568
1569593748.96131
1569593748.97694
1569593748.99256
1569593749.00819
1569593749.02381
1569593749.03944
1569593749.05506
1569593749.07069
1569593749.08632
1569593749.10194
1569593749.11757
1569593749.13319
1569593749.14882
1569593749.16444
1569593749.18007
1569593749.1957
1569593749.21132
1569593749.22695
1569593749.24257
1569593749.2582
1569593749.27382
1569593749.28945
1569593749.30508
1569593749.3207
1569593749.33633
1569593749.35195
1569593749.36758
1569593749.3832
1569593749.39883
1569593749.41446
1569593749.43008
1569593749.44571
1569593749.46133
1569593749.47696
1569593749.49258
1569593749.50821
1569593749.52384
1569593749.53946
1569593749.55509
1569593749.57071
1569593749.58634
1569593749.60196
1569593749.61759
1569593749.63322
1569593749.64884
1569593749.66447
1569593749.68009
1569593749.69572
1569593749.71134
1569593749.72697
1569593749.7426
1569593749.75822
1569593749.77385
1569593749.78947
1569593749.8051
1569593749.82073
1569593749.83635
1569593749.85198
1569593749.8676
1569593749.88323
1569593749.89885
1569593749.91448
1569593749.93011
1569593749.94573
1569593749.96136
1569593749.97698
1569593749.99261
1569593750.00823
1569593750.02386
1569593750.03949
1569593750.05511
1569593750.07074
1569593750.08636
1569593750.10199
1569593750.11761
1569593750.13324
1569593750.14887
1569593750.16449
1569593750.18012
1569593750.19574
1569593750.21137
1569593750.22699
1569593750.24262
1569593750.25825
1569593750.27387
1569593750.2895
1569593750.30512
1569593750.32075
1569593750.33637
1569593750.352
1569593750.36763
1569593750.38325
1569593750.39888
1569593750.4145
1569593750.43013
1569593750.44575
1569593750.46138
1569593750.47701
1569593750.49263
1569593750.50826
1569593750.52388
1569593750.53951
1569593750.55513
1569593750.57076
1569593750.58639
1569593750.60201
1569593750.61764
1569593750.63326
1569593750.64889
1569593750.66451
1569593750.68014
1569593750.69577
1569593750.71139
1569593750.72702
1569593750.74264
1569593750.75827
1569593750.77389
1569593750.78952
1569593750.80515
1569593750.82077
1569593750.8364
1569593750.85202
1569593750.86765
1569593750.88327
1569593750.8989
1569593750.91453
1569593750.93015
1569593750.94578
1569593750.9614
1569593750.97703
1569593750.99265
1569593751.00828
1569593751.02391
1569593751.03953
1569593751.05516
1569593751.07078
1569593751.08641
1569593751.10203
1569593751.11766
1569593751.13329
1569593751.14891
1569593751.16454
1569593751.18016
1569593751.19579
1569593751.21141
1569593751.22704
1569593751.24267
1569593751.25829
1569593751.27392
1569593751.28954
1569593751.30517
1569593751.32079
1569593751.33642
1569593751.35205
1569593751.36767
1569593751.3833
1569593751.39892
1569593751.41455
1569593751.43017
1569593751.4458
1569593751.46143
1569593751.47705
1569593751.49268
1569593751.5083
1569593751.52393
1569593751.53955
1569593751.55518
1569593751.57081
1569593751.58643
1569593751.60206
1569593751.61768
1569593751.63331
1569593751.64893
1569593751.66456
1569593751.68019
1569593751.69581
1569593751.71144
1569593751.72706
1569593751.74269
1569593751.75831
1569593751.77394
1569593751.78957
1569593751.80519
1569593751.82082
1569593751.83644
1569593751.85207
1569593751.86769
1569593751.88332
1569593751.89895
1569593751.91457
1569593751.9302
1569593751.94582
1569593751.96145
1569593751.97707
1569593751.9927
1569593752.00833
1569593752.02395
1569593752.03958
1569593752.0552
1569593752.07083
1569593752.08646
1569593752.10208
1569593752.11771
1569593752.13333
1569593752.14896
1569593752.16458
1569593752.18021
1569593752.19584
1569593752.21146
1569593752.22709
1569593752.24271
1569593752.25834
1569593752.27396
1569593752.28959
1569593752.30522
1569593752.32084
1569593752.33647
1569593752.35209
1569593752.36772
1569593752.38334
1569593752.39897
1569593752.4146
1569593752.43022
1569593752.44585
1569593752.46147
1569593752.4771
1569593752.49272
1569593752.50835
1569593752.52398
1569593752.5396
1569593752.55523
1569593752.57085
1569593752.58648
1569593752.6021
1569593752.61773
1569593752.63336
1569593752.64898
1569593752.66461
1569593752.68023
1569593752.69586
1569593752.71148
1569593752.72711
1569593752.74274
1569593752.75836
1569593752.77399
1569593752.78961
1569593752.80524
1569593752.82086
1569593752.83649
1569593752.85212
1569593752.86774
1569593752.88337
1569593752.89899
1569593752.91462
1569593752.93024
1569593752.94587
1569593752.9615
1569593752.97712
1569593752.99275
1569593753.00837
1569593753.024
1569593753.03962
1569593753.05525
1569593753.07088
1569593753.0865
1569593753.10213
1569593753.11775
1569593753.13338
1569593753.149
1569593753.16463
1569593753.18026
1569593753.19588
1569593753.21151
1569593753.22713
1569593753.24276
1569593753.25838
1569593753.27401
1569593753.28964
1569593753.30526
1569593753.32089
1569593753.33651
1569593753.35214
1569593753.36776
1569593753.38339
1569593753.39902
1569593753.41464
1569593753.43027
1569593753.44589
1569593753.46152
1569593753.47714
1569593753.49277
1569593753.5084
1569593753.52402
1569593753.53965
1569593753.55527
1569593753.5709
1569593753.58652
1569593753.60215
1569593753.61778
1569593753.6334
1569593753.64903
1569593753.66465
1569593753.68028
1569593753.6959
1569593753.71153
1569593753.72716
1569593753.74278
1569593753.75841
1569593753.77403
1569593753.78966
1569593753.80528
1569593753.82091
1569593753.83654
1569593753.85216
1569593753.86779
1569593753.88341
1569593753.89904
1569593753.91466
1569593753.93029
1569593753.94592
1569593753.96154
1569593753.97717
1569593753.99279
1569593754.00842
1569593754.02404
1569593754.03967
1569593754.0553
1569593754.07092
1569593754.08655
1569593754.10217
1569593754.1178
1569593754.13342
1569593754.14905
1569593754.16468
1569593754.1803
1569593754.19593
1569593754.21155
1569593754.22718
1569593754.2428
1569593754.25843
1569593754.27406
1569593754.28968
1569593754.30531
1569593754.32093
1569593754.33656
1569593754.35219
1569593754.36781
1569593754.38344
1569593754.39906
1569593754.41469
1569593754.43031
1569593754.44594
1569593754.46157
1569593754.47719
1569593754.49282
1569593754.50844
1569593754.52407
1569593754.53969
1569593754.55532
1569593754.57095
1569593754.58657
1569593754.6022
1569593754.61782
1569593754.63345
1569593754.64907
1569593754.6647
1569593754.68033
1569593754.69595
1569593754.71158
1569593754.7272
1569593754.74283
1569593754.75845
1569593754.77408
1569593754.78971
1569593754.80533
1569593754.82096
1569593754.83658
1569593754.85221
1569593754.86783
1569593754.88346
1569593754.89909
1569593754.91471
1569593754.93034
1569593754.94596
1569593754.96159
1569593754.97721
1569593754.99284
1569593755.00847
1569593755.02409
1569593755.03972
1569593755.05534
1569593755.07097
1569593755.08659
1569593755.10222
1569593755.11785
1569593755.13347
1569593755.1491
1569593755.16472
1569593755.18035
1569593755.19597
1569593755.2116
1569593755.22723
1569593755.24285
1569593755.25848
1569593755.2741
1569593755.28973
1569593755.30535
1569593755.32098
1569593755.33661
1569593755.35223
1569593755.36786
1569593755.38348
1569593755.39911
1569593755.41473
1569593755.43036
1569593755.44599
1569593755.46161
1569593755.47724
1569593755.49286
1569593755.50849
1569593755.52411
1569593755.53974
1569593755.55537
1569593755.57099
1569593755.58662
1569593755.60224
1569593755.61787
1569593755.63349
1569593755.64912
1569593755.66475
1569593755.68037
1569593755.696
1569593755.71162
1569593755.72725
1569593755.74287
1569593755.7585
1569593755.77413
1569593755.78975
1569593755.80538
1569593755.821
1569593755.83663
1569593755.85225
1569593755.86788
1569593755.88351
1569593755.89913
1569593755.91476
1569593755.93038
1569593755.94601
1569593755.96163
1569593755.97726
1569593755.99289
1569593756.00851
1569593756.02414
1569593756.03976
1569593756.05539
1569593756.07101
1569593756.08664
1569593756.10227
1569593756.11789
1569593756.13352
1569593756.14914
1569593756.16477
1569593756.18039
1569593756.19602
1569593756.21165
1569593756.22727
1569593756.2429
1569593756.25852
1569593756.27415
1569593756.28977
1569593756.3054
1569593756.32103
1569593756.33665
1569593756.35228
1569593756.3679
1569593756.38353
1569593756.39915
1569593756.41478
1569593756.43041
1569593756.44603
1569593756.46166
1569593756.47728
1569593756.49291
1569593756.50853
1569593756.52416
1569593756.53979
1569593756.55541
1569593756.57104
1569593756.58666
1569593756.60229
1569593756.61791
1569593756.63354
1569593756.64917
1569593756.66479
1569593756.68042
1569593756.69604
1569593756.71167
1569593756.72729
1569593756.74292
1569593756.75855
1569593756.77417
1569593756.7898
1569593756.80542
1569593756.82105
1569593756.83667
1569593756.8523
1569593756.86793
1569593756.88355
1569593756.89918
1569593756.9148
1569593756.93043
1569593756.94606
1569593756.96168
1569593756.97731
1569593756.99293
1569593757.00856
1569593757.02418
1569593757.03981
1569593757.05544
1569593757.07106
1569593757.08669
1569593757.10231
1569593757.11794
1569593757.13356
1569593757.14919
1569593757.16482
1569593757.18044
1569593757.19607
1569593757.21169
1569593757.22732
1569593757.24294
1569593757.25857
1569593757.2742
1569593757.28982
1569593757.30545
1569593757.32107
1569593757.3367
1569593757.35232
1569593757.36795
1569593757.38358
1569593757.3992
1569593757.41483
1569593757.43045
1569593757.44608
1569593757.4617
1569593757.47733
1569593757.49296
1569593757.50858
1569593757.52421
1569593757.53983
1569593757.55546
1569593757.57108
1569593757.58671
1569593757.60234
1569593757.61796
1569593757.63359
1569593757.64921
1569593757.66484
1569593757.68046
1569593757.69609
1569593757.71172
1569593757.72734
1569593757.74297
1569593757.75859
1569593757.77422
1569593757.78984
1569593757.80547
1569593757.8211
1569593757.83672
1569593757.85235
1569593757.86797
1569593757.8836
1569593757.89922
1569593757.91485
1569593757.93048
1569593757.9461
1569593757.96173
1569593757.97735
1569593757.99298
1569593758.0086
1569593758.02423
1569593758.03986
1569593758.05548
1569593758.07111
1569593758.08673
1569593758.10236
1569593758.11798
1569593758.13361
1569593758.14924
1569593758.16486
1569593758.18049
1569593758.19611
1569593758.21174
1569593758.22736
1569593758.24299
1569593758.25862
1569593758.27424
1569593758.28987
1569593758.30549
1569593758.32112
1569593758.33674
1569593758.35237
1569593758.368
1569593758.38362
1569593758.39925
1569593758.41487
1569593758.4305
1569593758.44612
1569593758.46175
1569593758.47738
1569593758.493
1569593758.50863
1569593758.52425
1569593758.53988
1569593758.5555
1569593758.57113
1569593758.58676
1569593758.60238
1569593758.61801
1569593758.63363
1569593758.64926
1569593758.66488
1569593758.68051
1569593758.69614
1569593758.71176
1569593758.72739
1569593758.74301
1569593758.75864
1569593758.77426
1569593758.78989
1569593758.80552
1569593758.82114
1569593758.83677
1569593758.85239
1569593758.86802
1569593758.88364
1569593758.89927
1569593758.9149
1569593758.93052
1569593758.94615
1569593758.96177
1569593758.9774
1569593758.99302
1569593759.00865
1569593759.02428
1569593759.0399
1569593759.05553
1569593759.07115
1569593759.08678
1569593759.1024
1569593759.11803
1569593759.13366
1569593759.14928
1569593759.16491
1569593759.18053
1569593759.19616
1569593759.21179
1569593759.22741
1569593759.24304
1569593759.25866
1569593759.27429
1569593759.28991
1569593759.30554
1569593759.32117
1569593759.33679
1569593759.35242
1569593759.36804
1569593759.38367
1569593759.39929
1569593759.41492
1569593759.43055
1569593759.44617
1569593759.4618
1569593759.47742
1569593759.49305
1569593759.50867
1569593759.5243
1569593759.53993
1569593759.55555
1569593759.57118
1569593759.5868
1569593759.60243
1569593759.61805
1569593759.63368
1569593759.64931
1569593759.66493
1569593759.68056
1569593759.69618
1569593759.71181
1569593759.72743
1569593759.74306
1569593759.75869
1569593759.77431
1569593759.78994
1569593759.80556
1569593759.82119
1569593759.83681
1569593759.85244
1569593759.86807
1569593759.88369
1569593759.89932
1569593759.91494
1569593759.93057
1569593759.94619
1569593759.96182
1569593759.97745
1569593759.99307
1569593760.0087
1569593760.02432
1569593760.03995
1569593760.05557
1569593760.0712
1569593760.08683
1569593760.10245
1569593760.11808
1569593760.1337
1569593760.14933
1569593760.16495
1569593760.18058
1569593760.19621
1569593760.21183
1569593760.22746
1569593760.24308
1569593760.25871
1569593760.27433
1569593760.28996
1569593760.30559
1569593760.32121
1569593760.33684
1569593760.35246
1569593760.36809
1569593760.38371
1569593760.39934
1569593760.41497
1569593760.43059
1569593760.44622
1569593760.46184
1569593760.47747
1569593760.49309
1569593760.50872
1569593760.52435
1569593760.53997
1569593760.5556
1569593760.57122
1569593760.58685
1569593760.60247
1569593760.6181
1569593760.63373
1569593760.64935
1569593760.66498
1569593760.6806
1569593760.69623
1569593760.71185
1569593760.72748
1569593760.74311
1569593760.75873
1569593760.77436
1569593760.78998
1569593760.80561
1569593760.82123
1569593760.83686
1569593760.85249
1569593760.86811
1569593760.88374
1569593760.89936
1569593760.91499
1569593760.93061
1569593760.94624
1569593760.96187
1569593760.97749
1569593760.99312
1569593761.00874
1569593761.02437
1569593761.03999
1569593761.05562
1569593761.07125
1569593761.08687
1569593761.1025
1569593761.11812
1569593761.13375
1569593761.14937
1569593761.165
1569593761.18063
1569593761.19625
1569593761.21188
1569593761.2275
1569593761.24313
1569593761.25875
1569593761.27438
1569593761.29001
1569593761.30563
1569593761.32126
1569593761.33688
1569593761.35251
1569593761.36813
1569593761.38376
1569593761.39939
1569593761.41501
1569593761.43064
1569593761.44626
1569593761.46189
1569593761.47751
1569593761.49314
1569593761.50877
1569593761.52439
1569593761.54002
1569593761.55564
1569593761.57127
1569593761.58689
1569593761.60252
1569593761.61815
1569593761.63377
1569593761.6494
1569593761.66502
1569593761.68065
1569593761.69628
1569593761.7119
1569593761.72753
1569593761.74315
1569593761.75878
1569593761.7744
1569593761.79003
1569593761.80566
1569593761.82128
1569593761.83691
1569593761.85253
1569593761.86816
1569593761.88378
1569593761.89941
1569593761.91504
1569593761.93066
1569593761.94629
1569593761.96191
1569593761.97754
1569593761.99316
1569593762.00879
1569593762.02442
1569593762.04004
1569593762.05567
1569593762.07129
1569593762.08692
1569593762.10254
1569593762.11817
1569593762.1338
1569593762.14942
1569593762.16505
1569593762.18067
1569593762.1963
1569593762.21192
1569593762.22755
1569593762.24318
1569593762.2588
1569593762.27443
1569593762.29005
1569593762.30568
1569593762.3213
1569593762.33693
1569593762.35256
1569593762.36818
1569593762.38381
1569593762.39943
1569593762.41506
1569593762.43068
1569593762.44631
1569593762.46194
1569593762.47756
1569593762.49319
1569593762.50881
1569593762.52444
1569593762.54006
1569593762.55569
1569593762.57132
1569593762.58694
1569593762.60257
1569593762.61819
1569593762.63382
1569593762.64944
1569593762.66507
1569593762.6807
1569593762.69632
1569593762.71195
1569593762.72757
1569593762.7432
1569593762.75882
1569593762.77445
1569593762.79008
1569593762.8057
1569593762.82133
1569593762.83695
1569593762.85258
1569593762.8682
1569593762.88383
1569593762.89946
1569593762.91508
1569593762.93071
1569593762.94633
1569593762.96196
1569593762.97758
1569593762.99321
1569593763.00884
1569593763.02446
1569593763.04009
1569593763.05571
1569593763.07134
1569593763.08696
1569593763.10259
1569593763.11822
1569593763.13384
1569593763.14947
1569593763.16509
1569593763.18072
1569593763.19634
1569593763.21197
1569593763.2276
1569593763.24322
1569593763.25885
1569593763.27447
1569593763.2901
1569593763.30572
1569593763.32135
1569593763.33698
1569593763.3526
1569593763.36823
1569593763.38385
1569593763.39948
1569593763.4151
1569593763.43073
1569593763.44636
1569593763.46198
1569593763.47761
1569593763.49323
1569593763.50886
1569593763.52448
1569593763.54011
1569593763.55574
1569593763.57136
1569593763.58699
1569593763.60261
1569593763.61824
1569593763.63386
1569593763.64949
1569593763.66512
1569593763.68074
1569593763.69637
1569593763.71199
1569593763.72762
1569593763.74324
1569593763.75887
1569593763.7745
1569593763.79012
1569593763.80575
1569593763.82137
1569593763.837
1569593763.85262
1569593763.86825
1569593763.88388
1569593763.8995
1569593763.91513
1569593763.93075
1569593763.94638
1569593763.962
1569593763.97763
1569593763.99326
1569593764.00888
1569593764.02451
1569593764.04013
1569593764.05576
1569593764.07139
1569593764.08701
1569593764.10264
1569593764.11826
1569593764.13389
1569593764.14951
1569593764.16514
1569593764.18077
1569593764.19639
1569593764.21202
1569593764.22764
1569593764.24327
1569593764.25889
1569593764.27452
1569593764.29015
1569593764.30577
1569593764.3214
1569593764.33702
1569593764.35265
1569593764.36827
1569593764.3839
1569593764.39953
1569593764.41515
1569593764.43078
1569593764.4464
1569593764.46203
1569593764.47765
1569593764.49328
1569593764.50891
1569593764.52453
1569593764.54016
1569593764.55578
1569593764.57141
1569593764.58703
1569593764.60266
1569593764.61829
1569593764.63391
1569593764.64954
1569593764.66516
1569593764.68079
1569593764.69641
1569593764.71204
1569593764.72767
1569593764.74329
1569593764.75892
1569593764.77454
1569593764.79017
1569593764.80579
1569593764.82142
1569593764.83705
1569593764.85267
1569593764.8683
1569593764.88392
1569593764.89955
1569593764.91517
1569593764.9308
1569593764.94643
1569593764.96205
1569593764.97768
1569593764.9933
1569593765.00893
1569593765.02455
1569593765.04018
1569593765.05581
1569593765.07143
1569593765.08706
1569593765.10268
1569593765.11831
1569593765.13393
1569593765.14956
1569593765.16519
1569593765.18081
1569593765.19644
1569593765.21206
1569593765.22769
1569593765.24331
1569593765.25894
1569593765.27457
1569593765.29019
1569593765.30582
1569593765.32144
1569593765.33707
1569593765.35269
1569593765.36832
1569593765.38395
1569593765.39957
1569593765.4152
1569593765.43082
1569593765.44645
1569593765.46207
1569593765.4777
1569593765.49333
1569593765.50895
1569593765.52458
1569593765.5402
1569593765.55583
1569593765.57145
1569593765.58708
1569593765.60271
1569593765.61833
1569593765.63396
1569593765.64958
1569593765.66521
1569593765.68083
1569593765.69646
1569593765.71209
1569593765.72771
1569593765.74334
1569593765.75896
1569593765.77459
1569593765.79021
1569593765.80584
1569593765.82147
1569593765.83709
1569593765.85272
1569593765.86834
1569593765.88397
1569593765.89959
1569593765.91522
1569593765.93085
1569593765.94647
1569593765.9621
1569593765.97772
1569593765.99335
1569593766.00897
1569593766.0246
1569593766.04023
1569593766.05585
1569593766.07148
1569593766.0871
1569593766.10273
1569593766.11835
1569593766.13398
1569593766.14961
1569593766.16523
1569593766.18086
1569593766.19648
1569593766.21211
1569593766.22774
1569593766.24336
1569593766.25899
1569593766.27461
1569593766.29024
1569593766.30586
1569593766.32149
1569593766.33712
1569593766.35274
1569593766.36837
1569593766.38399
1569593766.39962
1569593766.41524
1569593766.43087
1569593766.4465
1569593766.46212
1569593766.47775
1569593766.49337
1569593766.509
1569593766.52462
1569593766.54025
1569593766.55588
1569593766.5715
1569593766.58713
1569593766.60275
1569593766.61838
1569593766.634
1569593766.64963
1569593766.66526
1569593766.68088
1569593766.69651
1569593766.71213
1569593766.72776
1569593766.74338
1569593766.75901
1569593766.77464
1569593766.79026
1569593766.80589
1569593766.82151
1569593766.83714
1569593766.85276
1569593766.86839
1569593766.88402
1569593766.89964
1569593766.91527
1569593766.93089
1569593766.94652
1569593766.96214
1569593766.97777
1569593766.9934
1569593767.00902
1569593767.02465
1569593767.04027
1569593767.0559
1569593767.07152
1569593767.08715
1569593767.10278
1569593767.1184
1569593767.13403
1569593767.14965
1569593767.16528
1569593767.1809
1569593767.19653
1569593767.21216
1569593767.22778
1569593767.24341
1569593767.25903
1569593767.27466
1569593767.29028
1569593767.30591
1569593767.32154
1569593767.33716
1569593767.35279
1569593767.36841
1569593767.38404
1569593767.39966
1569593767.41529
1569593767.43092
1569593767.44654
1569593767.46217
1569593767.47779
1569593767.49342
1569593767.50904
1569593767.52467
1569593767.5403
1569593767.55592
1569593767.57155
1569593767.58717
1569593767.6028
1569593767.61842
1569593767.63405
1569593767.64968
1569593767.6653
1569593767.68093
1569593767.69655
1569593767.71218
1569593767.7278
1569593767.74343
1569593767.75906
1569593767.77468
1569593767.79031
1569593767.80593
1569593767.82156
1569593767.83718
1569593767.85281
1569593767.86844
1569593767.88406
1569593767.89969
1569593767.91531
1569593767.93094
1569593767.94656
1569593767.96219
1569593767.97782
1569593767.99344
1569593768.00907
1569593768.02469
1569593768.04032
1569593768.05594
1569593768.07157
1569593768.0872
1569593768.10282
1569593768.11845
1569593768.13407
1569593768.1497
1569593768.16532
1569593768.18095
1569593768.19658
1569593768.2122
1569593768.22783
1569593768.24345
1569593768.25908
1569593768.2747
1569593768.29033
1569593768.30596
1569593768.32158
1569593768.33721
1569593768.35283
1569593768.36846
1569593768.38408
1569593768.39971
1569593768.41534
1569593768.43096
1569593768.44659
1569593768.46221
1569593768.47784
1569593768.49346
1569593768.50909
1569593768.52472
1569593768.54034
1569593768.55597
1569593768.57159
1569593768.58722
1569593768.60284
1569593768.61847
1569593768.6341
1569593768.64972
1569593768.66535
1569593768.68097
1569593768.6966
1569593768.71222
1569593768.72785
1569593768.74348
1569593768.7591
1569593768.77473
1569593768.79035
1569593768.80598
1569593768.8216
1569593768.83723
1569593768.85286
1569593768.86848
1569593768.88411
1569593768.89973
1569593768.91536
1569593768.93099
1569593768.94661
1569593768.96224
1569593768.97786
1569593768.99349
1569593769.00911
1569593769.02474
1569593769.04037
1569593769.05599
1569593769.07162
1569593769.08724
1569593769.10287
1569593769.11849
1569593769.13412
1569593769.14975
1569593769.16537
1569593769.181
1569593769.19662
1569593769.21225
1569593769.22787
1569593769.2435
1569593769.25913
1569593769.27475
1569593769.29038
1569593769.306
1569593769.32163
1569593769.33725
1569593769.35288
1569593769.36851
1569593769.38413
1569593769.39976
1569593769.41538
1569593769.43101
1569593769.44663
1569593769.46226
1569593769.47789
1569593769.49351
1569593769.50914
1569593769.52476
1569593769.54039
1569593769.55601
1569593769.57164
1569593769.58727
1569593769.60289
1569593769.61852
1569593769.63414
1569593769.64977
1569593769.66539
1569593769.68102
1569593769.69665
1569593769.71227
1569593769.7279
1569593769.74352
1569593769.75915
1569593769.77477
1569593769.7904
1569593769.80603
1569593769.82165
1569593769.83728
1569593769.8529
1569593769.86853
1569593769.88415
1569593769.89978
1569593769.91541
1569593769.93103
1569593769.94666
1569593769.96228
1569593769.97791
1569593769.99353
1569593770.00916
1569593770.02479
1569593770.04041
1569593770.05604
1569593770.07166
1569593770.08729
1569593770.10291
1569593770.11854
1569593770.13417
1569593770.14979
1569593770.16542
1569593770.18104
1569593770.19667
1569593770.21229
1569593770.22792
1569593770.24355
1569593770.25917
1569593770.2748
1569593770.29042
1569593770.30605
1569593770.32167
1569593770.3373
1569593770.35293
1569593770.36855
1569593770.38418
1569593770.3998
1569593770.41543
1569593770.43105
1569593770.44668
1569593770.46231
1569593770.47793
1569593770.49356
1569593770.50918
1569593770.52481
1569593770.54043
1569593770.55606
1569593770.57169
1569593770.58731
1569593770.60294
1569593770.61856
1569593770.63419
1569593770.64981
1569593770.66544
1569593770.68107
1569593770.69669
1569593770.71232
1569593770.72794
1569593770.74357
1569593770.75919
1569593770.77482
1569593770.79045
1569593770.80607
1569593770.8217
1569593770.83732
1569593770.85295
1569593770.86857
1569593770.8842
1569593770.89983
1569593770.91545
1569593770.93108
1569593770.9467
1569593770.96233
1569593770.97795
1569593770.99358
1569593771.00921
1569593771.02483
1569593771.04046
1569593771.05608
1569593771.07171
1569593771.08734
1569593771.10296
1569593771.11859
1569593771.13421
1569593771.14984
1569593771.16546
1569593771.18109
1569593771.19672
1569593771.21234
1569593771.22797
1569593771.24359
1569593771.25922
1569593771.27484
1569593771.29047
1569593771.3061
1569593771.32172
1569593771.33735
1569593771.35297
1569593771.3686
1569593771.38422
1569593771.39985
1569593771.41548
1569593771.4311
1569593771.44673
1569593771.46235
1569593771.47798
1569593771.4936
1569593771.50923
1569593771.52486
1569593771.54048
1569593771.55611
1569593771.57173
1569593771.58736
1569593771.60298
1569593771.61861
1569593771.63424
1569593771.64986
1569593771.66549
1569593771.68111
1569593771.69674
1569593771.71236
1569593771.72799
1569593771.74362
1569593771.75924
1569593771.77487
1569593771.79049
1569593771.80612
1569593771.82174
1569593771.83737
1569593771.853
1569593771.86862
1569593771.88425
1569593771.89987
1569593771.9155
1569593771.93112
1569593771.94675
1569593771.96238
1569593771.978
1569593771.99363
1569593772.00925
1569593772.02488
1569593772.0405
1569593772.05613
1569593772.07176
1569593772.08738
1569593772.10301
1569593772.11863
1569593772.13426
1569593772.14988
1569593772.16551
1569593772.18114
1569593772.19676
1569593772.21239
1569593772.22801
1569593772.24364
1569593772.25926
1569593772.27489
1569593772.29052
1569593772.30614
1569593772.32177
1569593772.33739
1569593772.35302
1569593772.36864
1569593772.38427
1569593772.3999
1569593772.41552
1569593772.43115
1569593772.44677
1569593772.4624
1569593772.47802
1569593772.49365
1569593772.50928
1569593772.5249
1569593772.54053
1569593772.55615
1569593772.57178
1569593772.5874
1569593772.60303
1569593772.61866
1569593772.63428
1569593772.64991
1569593772.66553
1569593772.68116
1569593772.69678
1569593772.71241
1569593772.72804
1569593772.74366
1569593772.75929
1569593772.77491
1569593772.79054
1569593772.80616
1569593772.82179
1569593772.83742
1569593772.85304
1569593772.86867
1569593772.88429
1569593772.89992
1569593772.91554
1569593772.93117
1569593772.9468
1569593772.96242
1569593772.97805
1569593772.99367
1569593773.0093
1569593773.02492
1569593773.04055
1569593773.05618
1569593773.0718
1569593773.08743
1569593773.10305
1569593773.11868
1569593773.1343
1569593773.14993
1569593773.16556
1569593773.18118
1569593773.19681
1569593773.21243
1569593773.22806
1569593773.24368
1569593773.25931
1569593773.27494
1569593773.29056
1569593773.30619
1569593773.32181
1569593773.33744
1569593773.35307
1569593773.36869
1569593773.38432
1569593773.39994
1569593773.41557
1569593773.43119
1569593773.44682
1569593773.46245
1569593773.47807
1569593773.4937
1569593773.50932
1569593773.52495
1569593773.54057
1569593773.5562
1569593773.57183
1569593773.58745
1569593773.60308
1569593773.6187
1569593773.63433
1569593773.64995
1569593773.66558
1569593773.68121
1569593773.69683
1569593773.71246
1569593773.72808
1569593773.74371
1569593773.75933
1569593773.77496
1569593773.79059
1569593773.80621
1569593773.82184
1569593773.83746
1569593773.85309
1569593773.86871
1569593773.88434
1569593773.89997
1569593773.91559
1569593773.93122
1569593773.94684
1569593773.96247
1569593773.97809
1569593773.99372
1569593774.00935
1569593774.02497
1569593774.0406
1569593774.05622
1569593774.07185
1569593774.08747
1569593774.1031
1569593774.11873
1569593774.13435
1569593774.14998
1569593774.1656
1569593774.18123
1569593774.19685
1569593774.21248
1569593774.22811
1569593774.24373
1569593774.25936
1569593774.27498
1569593774.29061
1569593774.30623
1569593774.32186
1569593774.33749
1569593774.35311
1569593774.36874
1569593774.38436
1569593774.39999
1569593774.41561
1569593774.43124
1569593774.44687
1569593774.46249
1569593774.47812
1569593774.49374
1569593774.50937
1569593774.52499
1569593774.54062
1569593774.55625
1569593774.57187
1569593774.5875
1569593774.60312
1569593774.61875
1569593774.63437
1569593774.65
1569593774.66563
1569593774.68125
1569593774.69688
1569593774.7125
1569593774.72813
1569593774.74375
1569593774.75938
1569593774.77501
1569593774.79063
1569593774.80626
1569593774.82188
1569593774.83751
1569593774.85313
1569593774.86876
1569593774.88439
1569593774.90001
1569593774.91564
1569593774.93126
1569593774.94689
1569593774.96251
1569593774.97814
1569593774.99377
1569593775.00939
1569593775.02502
1569593775.04064
1569593775.05627
1569593775.07189
1569593775.08752
1569593775.10315
1569593775.11877
1569593775.1344
1569593775.15002
1569593775.16565
1569593775.18127
1569593775.1969
1569593775.21253
1569593775.22815
1569593775.24378
1569593775.2594
1569593775.27503
1569593775.29065
1569593775.30628
1569593775.32191
1569593775.33753
1569593775.35316
1569593775.36878
1569593775.38441
1569593775.40003
1569593775.41566
1569593775.43129
1569593775.44691
1569593775.46254
1569593775.47816
1569593775.49379
1569593775.50941
1569593775.52504
1569593775.54067
1569593775.55629
1569593775.57192
1569593775.58754
1569593775.60317
1569593775.61879
1569593775.63442
1569593775.65005
1569593775.66567
1569593775.6813
1569593775.69692
1569593775.71255
1569593775.72817
1569593775.7438
1569593775.75943
1569593775.77505
1569593775.79068
1569593775.8063
1569593775.82193
1569593775.83755
1569593775.85318
1569593775.86881
1569593775.88443
1569593775.90006
1569593775.91568
1569593775.93131
1569593775.94694
1569593775.96256
1569593775.97819
1569593775.99381
1569593776.00944
1569593776.02506
1569593776.04069
1569593776.05632
1569593776.07194
1569593776.08757
1569593776.10319
1569593776.11882
1569593776.13444
1569593776.15007
1569593776.1657
1569593776.18132
1569593776.19695
1569593776.21257
1569593776.2282
1569593776.24382
1569593776.25945
1569593776.27508
1569593776.2907
1569593776.30633
1569593776.32195
1569593776.33758
1569593776.3532
1569593776.36883
1569593776.38446
1569593776.40008
1569593776.41571
1569593776.43133
1569593776.44696
1569593776.46258
1569593776.47821
1569593776.49384
1569593776.50946
1569593776.52509
1569593776.54071
1569593776.55634
1569593776.57196
1569593776.58759
1569593776.60322
1569593776.61884
1569593776.63447
1569593776.65009
1569593776.66572
1569593776.68134
1569593776.69697
1569593776.7126
1569593776.72822
1569593776.74385
1569593776.75947
1569593776.7751
1569593776.79072
1569593776.80635
1569593776.82198
1569593776.8376
1569593776.85323
1569593776.86885
1569593776.88448
1569593776.9001
1569593776.91573
1569593776.93136
1569593776.94698
1569593776.96261
1569593776.97823
1569593776.99386
1569593777.00948
1569593777.02511
1569593777.04074
1569593777.05636
1569593777.07199
1569593777.08761
1569593777.10324
1569593777.11886
1569593777.13449
1569593777.15012
1569593777.16574
1569593777.18137
1569593777.19699
1569593777.21262
1569593777.22824
1569593777.24387
1569593777.2595
1569593777.27512
1569593777.29075
1569593777.30637
1569593777.322
1569593777.33762
1569593777.35325
1569593777.36888
1569593777.3845
1569593777.40013
1569593777.41575
1569593777.43138
1569593777.447
1569593777.46263
1569593777.47826
1569593777.49388
1569593777.50951
1569593777.52513
1569593777.54076
1569593777.55638
1569593777.57201
1569593777.58764
1569593777.60326
1569593777.61889
1569593777.63451
1569593777.65014
1569593777.66576
1569593777.68139
1569593777.69702
1569593777.71264
1569593777.72827
1569593777.74389
1569593777.75952
1569593777.77514
1569593777.79077
1569593777.8064
1569593777.82202
1569593777.83765
1569593777.85327
1569593777.8689
1569593777.88452
1569593777.90015
1569593777.91578
1569593777.9314
1569593777.94703
1569593777.96265
1569593777.97828
1569593777.9939
1569593778.00953
1569593778.02516
1569593778.04078
1569593778.05641
1569593778.07203
1569593778.08766
1569593778.10328
1569593778.11891
1569593778.13454
1569593778.15016
1569593778.16579
1569593778.18141
1569593778.19704
1569593778.21267
1569593778.22829
1569593778.24392
1569593778.25954
1569593778.27517
1569593778.29079
1569593778.30642
1569593778.32205
1569593778.33767
1569593778.3533
1569593778.36892
1569593778.38455
1569593778.40017
1569593778.4158
1569593778.43143
1569593778.44705
1569593778.46268
1569593778.4783
1569593778.49393
1569593778.50955
1569593778.52518
1569593778.54081
1569593778.55643
1569593778.57206
1569593778.58768
1569593778.60331
1569593778.61893
1569593778.63456
1569593778.65019
1569593778.66581
1569593778.68144
1569593778.69706
1569593778.71269
1569593778.72831
1569593778.74394
1569593778.75957
1569593778.77519
1569593778.79082
1569593778.80644
1569593778.82207
1569593778.83769
1569593778.85332
1569593778.86895
1569593778.88457
1569593778.9002
1569593778.91582
1569593778.93145
1569593778.94707
1569593778.9627
1569593778.97833
1569593778.99395
1569593779.00958
1569593779.0252
1569593779.04083
1569593779.05645
1569593779.07208
1569593779.08771
1569593779.10333
1569593779.11896
1569593779.13458
1569593779.15021
1569593779.16583
1569593779.18146
1569593779.19709
1569593779.21271
1569593779.22834
1569593779.24396
1569593779.25959
1569593779.27521
1569593779.29084
1569593779.30647
1569593779.32209
1569593779.33772
1569593779.35334
1569593779.36897
1569593779.38459
1569593779.40022
1569593779.41585
1569593779.43147
1569593779.4471
1569593779.46272
1569593779.47835
1569593779.49397
1569593779.5096
1569593779.52523
1569593779.54085
1569593779.55648
1569593779.5721
1569593779.58773
1569593779.60335
1569593779.61898
1569593779.63461
1569593779.65023
1569593779.66586
1569593779.68148
1569593779.69711
1569593779.71273
1569593779.72836
1569593779.74399
1569593779.75961
1569593779.77524
1569593779.79086
1569593779.80649
1569593779.82211
1569593779.83774
1569593779.85337
1569593779.86899
1569593779.88462
1569593779.90024
1569593779.91587
1569593779.93149
1569593779.94712
1569593779.96275
1569593779.97837
1569593779.994
1569593780.00962
1569593780.02525
1569593780.04087
1569593780.0565
1569593780.07213
1569593780.08775
1569593780.10338
1569593780.119
1569593780.13463
1569593780.15025
1569593780.16588
1569593780.18151
1569593780.19713
1569593780.21276
1569593780.22838
1569593780.24401
1569593780.25963
1569593780.27526
1569593780.29089
1569593780.30651
1569593780.32214
1569593780.33776
1569593780.35339
1569593780.36901
1569593780.38464
1569593780.40027
1569593780.41589
1569593780.43152
1569593780.44714
1569593780.46277
1569593780.47839
1569593780.49402
1569593780.50965
1569593780.52527
1569593780.5409
1569593780.55652
1569593780.57215
1569593780.58777
1569593780.6034
1569593780.61903
1569593780.63465
1569593780.65028
1569593780.6659
1569593780.68153
1569593780.69716
1569593780.71278
1569593780.72841
1569593780.74403
1569593780.75966
1569593780.77528
1569593780.79091
1569593780.80654
1569593780.82216
1569593780.83779
1569593780.85341
1569593780.86904
1569593780.88466
1569593780.90029
1569593780.91592
1569593780.93154
1569593780.94717
1569593780.96279
1569593780.97842
1569593780.99404
1569593781.00967
1569593781.0253
1569593781.04092
1569593781.05655
1569593781.07217
1569593781.0878
1569593781.10342
1569593781.11905
1569593781.13468
1569593781.1503
1569593781.16593
1569593781.18155
1569593781.19718
1569593781.2128
1569593781.22843
1569593781.24406
1569593781.25968
1569593781.27531
1569593781.29093
1569593781.30656
1569593781.32218
1569593781.33781
1569593781.35344
1569593781.36906
1569593781.38469
1569593781.40031
1569593781.41594
1569593781.43156
1569593781.44719
1569593781.46282
1569593781.47844
1569593781.49407
1569593781.50969
1569593781.52532
1569593781.54094
1569593781.55657
1569593781.5722
1569593781.58782
1569593781.60345
1569593781.61907
1569593781.6347
1569593781.65032
1569593781.66595
1569593781.68158
1569593781.6972
1569593781.71283
1569593781.72845
1569593781.74408
1569593781.7597
1569593781.77533
1569593781.79096
1569593781.80658
1569593781.82221
1569593781.83783
1569593781.85346
1569593781.86908
1569593781.88471
1569593781.90034
1569593781.91596
1569593781.93159
1569593781.94721
1569593781.96284
1569593781.97846
1569593781.99409
1569593782.00972
1569593782.02534
1569593782.04097
1569593782.05659
1569593782.07222
1569593782.08784
1569593782.10347
1569593782.1191
1569593782.13472
1569593782.15035
1569593782.16597
1569593782.1816
1569593782.19722
1569593782.21285
1569593782.22848
1569593782.2441
1569593782.25973
1569593782.27535
1569593782.29098
1569593782.3066
1569593782.32223
1569593782.33786
1569593782.35348
1569593782.36911
1569593782.38473
1569593782.40036
1569593782.41598
1569593782.43161
1569593782.44724
1569593782.46286
1569593782.47849
1569593782.49411
1569593782.50974
1569593782.52536
1569593782.54099
1569593782.55662
1569593782.57224
1569593782.58787
1569593782.60349
1569593782.61912
1569593782.63474
1569593782.65037
1569593782.666
1569593782.68162
1569593782.69725
1569593782.71287
1569593782.7285
1569593782.74412
1569593782.75975
1569593782.77538
1569593782.791
1569593782.80663
1569593782.82225
1569593782.83788
1569593782.8535
1569593782.86913
1569593782.88476
1569593782.90038
1569593782.91601
1569593782.93163
1569593782.94726
1569593782.96288
1569593782.97851
1569593782.99414
1569593783.00976
1569593783.02539
1569593783.04101
1569593783.05664
1569593783.07227
1569593783.08789
1569593783.10352
1569593783.11914
1569593783.13477
1569593783.15039
1569593783.16602
1569593783.18165
1569593783.19727
1569593783.2129
1569593783.22852
1569593783.24415
1569593783.25977
1569593783.2754
1569593783.29103
1569593783.30665
1569593783.32228
1569593783.3379
1569593783.35353
1569593783.36915
1569593783.38478
1569593783.40041
1569593783.41603
1569593783.43166
1569593783.44728
1569593783.46291
1569593783.47853
1569593783.49416
1569593783.50979
1569593783.52541
1569593783.54104
1569593783.55666
1569593783.57229
1569593783.58791
1569593783.60354
1569593783.61917
1569593783.63479
1569593783.65042
1569593783.66604
1569593783.68167
1569593783.69729
1569593783.71292
1569593783.72855
1569593783.74417
1569593783.7598
1569593783.77542
1569593783.79105
1569593783.80667
1569593783.8223
1569593783.83793
1569593783.85355
1569593783.86918
1569593783.8848
1569593783.90043
1569593783.91605
1569593783.93168
1569593783.94731
1569593783.96293
1569593783.97856
1569593783.99418
1569593784.00981
1569593784.02543
1569593784.04106
1569593784.05669
1569593784.07231
1569593784.08794
1569593784.10356
1569593784.11919
1569593784.13481
1569593784.15044
1569593784.16607
1569593784.18169
1569593784.19732
1569593784.21294
1569593784.22857
1569593784.24419
1569593784.25982
1569593784.27545
1569593784.29107
1569593784.3067
1569593784.32232
1569593784.33795
1569593784.35357
1569593784.3692
1569593784.38483
1569593784.40045
1569593784.41608
1569593784.4317
1569593784.44733
1569593784.46295
1569593784.47858
1569593784.49421
1569593784.50983
1569593784.52546
1569593784.54108
1569593784.55671
1569593784.57233
1569593784.58796
1569593784.60359
1569593784.61921
1569593784.63484
1569593784.65046
1569593784.66609
1569593784.68171
1569593784.69734
1569593784.71297
1569593784.72859
1569593784.74422
1569593784.75984
1569593784.77547
1569593784.79109
1569593784.80672
1569593784.82235
1569593784.83797
1569593784.8536
1569593784.86922
1569593784.88485
1569593784.90047
1569593784.9161
1569593784.93173
1569593784.94735
1569593784.96298
1569593784.9786
1569593784.99423
1569593785.00985
1569593785.02548
1569593785.04111
1569593785.05673
1569593785.07236
1569593785.08798
1569593785.10361
1569593785.11923
1569593785.13486
1569593785.15049
1569593785.16611
1569593785.18174
1569593785.19736
1569593785.21299
1569593785.22861
1569593785.24424
1569593785.25987
1569593785.27549
1569593785.29112
1569593785.30674
1569593785.32237
1569593785.338
1569593785.35362
1569593785.36925
1569593785.38487
1569593785.4005
1569593785.41612
1569593785.43175
1569593785.44738
1569593785.463
1569593785.47863
1569593785.49425
1569593785.50988
1569593785.5255
1569593785.54113
1569593785.55676
1569593785.57238
1569593785.58801
1569593785.60363
1569593785.61926
1569593785.63488
1569593785.65051
1569593785.66614
1569593785.68176
1569593785.69739
1569593785.71301
1569593785.72864
1569593785.74426
1569593785.75989
1569593785.77552
1569593785.79114
1569593785.80677
1569593785.82239
1569593785.83802
1569593785.85364
1569593785.86927
1569593785.8849
1569593785.90052
1569593785.91615
1569593785.93177
1569593785.9474
1569593785.96302
1569593785.97865
1569593785.99428
1569593786.0099
1569593786.02553
1569593786.04115
1569593786.05678
1569593786.0724
1569593786.08803
1569593786.10366
1569593786.11928
1569593786.13491
1569593786.15053
1569593786.16616
1569593786.18178
1569593786.19741
1569593786.21304
1569593786.22866
1569593786.24429
1569593786.25991
1569593786.27554
1569593786.29116
1569593786.30679
1569593786.32242
1569593786.33804
1569593786.35367
1569593786.36929
1569593786.38492
1569593786.40054
1569593786.41617
1569593786.4318
1569593786.44742
1569593786.46305
1569593786.47867
1569593786.4943
1569593786.50992
1569593786.52555
1569593786.54118
1569593786.5568
1569593786.57243
1569593786.58805
1569593786.60368
1569593786.6193
1569593786.63493
1569593786.65056
1569593786.66618
1569593786.68181
1569593786.69743
1569593786.71306
1569593786.72868
1569593786.74431
1569593786.75994
1569593786.77556
1569593786.79119
1569593786.80681
1569593786.82244
1569593786.83806
1569593786.85369
1569593786.86932
1569593786.88494
1569593786.90057
1569593786.91619
1569593786.93182
1569593786.94744
1569593786.96307
1569593786.9787
1569593786.99432
1569593787.00995
1569593787.02557
1569593787.0412
1569593787.05682
1569593787.07245
1569593787.08808
1569593787.1037
1569593787.11933
1569593787.13495
1569593787.15058
1569593787.1662
1569593787.18183
1569593787.19746
1569593787.21308
1569593787.22871
1569593787.24433
1569593787.25996
1569593787.27558
1569593787.29121
1569593787.30684
1569593787.32246
1569593787.33809
1569593787.35371
1569593787.36934
1569593787.38496
1569593787.40059
1569593787.41622
1569593787.43184
1569593787.44747
1569593787.46309
1569593787.47872
1569593787.49434
1569593787.50997
1569593787.5256
1569593787.54122
1569593787.55685
1569593787.57247
1569593787.5881
1569593787.60372
1569593787.61935
1569593787.63498
1569593787.6506
1569593787.66623
1569593787.68185
1569593787.69748
1569593787.7131
1569593787.72873
1569593787.74436
1569593787.75998
1569593787.77561
1569593787.79123
1569593787.80686
1569593787.82248
1569593787.83811
1569593787.85374
1569593787.86936
1569593787.88499
1569593787.90061
1569593787.91624
1569593787.93187
1569593787.94749
1569593787.96312
1569593787.97874
1569593787.99437
1569593788.00999
1569593788.02562
1569593788.04125
1569593788.05687
1569593788.0725
1569593788.08812
1569593788.10375
1569593788.11937
1569593788.135
1569593788.15063
1569593788.16625
1569593788.18188
1569593788.1975
1569593788.21313
1569593788.22875
1569593788.24438
1569593788.26001
1569593788.27563
1569593788.29126
1569593788.30688
1569593788.32251
1569593788.33813
1569593788.35376
1569593788.36939
1569593788.38501
1569593788.40064
1569593788.41626
1569593788.43189
1569593788.44751
1569593788.46314
1569593788.47877
1569593788.49439
1569593788.51002
1569593788.52564
1569593788.54127
1569593788.55689
1569593788.57252
1569593788.58815
1569593788.60377
1569593788.6194
1569593788.63502
1569593788.65065
1569593788.66627
1569593788.6819
1569593788.69753
1569593788.71315
1569593788.72878
1569593788.7444
1569593788.76003
1569593788.77565
1569593788.79128
1569593788.80691
1569593788.82253
1569593788.83816
1569593788.85378
1569593788.86941
1569593788.88503
1569593788.90066
1569593788.91629
1569593788.93191
1569593788.94754
1569593788.96316
1569593788.97879
1569593788.99441
1569593789.01004
1569593789.02567
1569593789.04129
1569593789.05692
1569593789.07254
1569593789.08817
1569593789.10379
1569593789.11942
1569593789.13505
1569593789.15067
1569593789.1663
1569593789.18192
1569593789.19755
1569593789.21317
1569593789.2288
1569593789.24443
1569593789.26005
1569593789.27568
1569593789.2913
1569593789.30693
1569593789.32255
1569593789.33818
1569593789.35381
1569593789.36943
1569593789.38506
1569593789.40068
1569593789.41631
1569593789.43193
1569593789.44756
1569593789.46319
1569593789.47881
1569593789.49444
1569593789.51006
1569593789.52569
1569593789.54131
1569593789.55694
1569593789.57257
1569593789.58819
1569593789.60382
1569593789.61944
1569593789.63507
1569593789.65069
1569593789.66632
1569593789.68195
1569593789.69757
1569593789.7132
1569593789.72882
1569593789.74445
1569593789.76007
1569593789.7757
1569593789.79133
1569593789.80695
1569593789.82258
1569593789.8382
1569593789.85383
1569593789.86945
1569593789.88508
1569593789.90071
1569593789.91633
1569593789.93196
1569593789.94758
1569593789.96321
1569593789.97883
1569593789.99446
1569593790.01009
1569593790.02571
1569593790.04134
1569593790.05696
1569593790.07259
1569593790.08821
1569593790.10384
1569593790.11947
1569593790.13509
1569593790.15072
1569593790.16634
1569593790.18197
1569593790.1976
1569593790.21322
1569593790.22885
1569593790.24447
1569593790.2601
1569593790.27572
1569593790.29135
1569593790.30698
1569593790.3226
1569593790.33823
1569593790.35385
1569593790.36948
1569593790.3851
1569593790.40073
1569593790.41636
1569593790.43198
1569593790.44761
1569593790.46323
1569593790.47886
1569593790.49448
1569593790.51011
1569593790.52574
1569593790.54136
1569593790.55699
1569593790.57261
1569593790.58824
1569593790.60386
1569593790.61949
1569593790.63512
1569593790.65074
1569593790.66637
1569593790.68199
1569593790.69762
1569593790.71324
1569593790.72887
1569593790.7445
1569593790.76012
1569593790.77575
1569593790.79137
1569593790.807
1569593790.82262
1569593790.83825
1569593790.85388
1569593790.8695
1569593790.88513
1569593790.90075
1569593790.91638
1569593790.932
1569593790.94763
1569593790.96326
1569593790.97888
1569593790.99451
1569593791.01013
1569593791.02576
1569593791.04138
1569593791.05701
1569593791.07264
1569593791.08826
1569593791.10389
1569593791.11951
1569593791.13514
1569593791.15076
1569593791.16639
1569593791.18202
1569593791.19764
1569593791.21327
1569593791.22889
1569593791.24452
1569593791.26014
1569593791.27577
1569593791.2914
1569593791.30702
1569593791.32265
1569593791.33827
1569593791.3539
1569593791.36952
1569593791.38515
1569593791.40078
1569593791.4164
1569593791.43203
1569593791.44765
1569593791.46328
1569593791.4789
1569593791.49453
1569593791.51016
1569593791.52578
1569593791.54141
1569593791.55703
1569593791.57266
1569593791.58828
1569593791.60391
1569593791.61954
1569593791.63516
1569593791.65079
1569593791.66641
1569593791.68204
1569593791.69766
1569593791.71329
1569593791.72892
1569593791.74454
1569593791.76017
1569593791.77579
1569593791.79142
1569593791.80704
1569593791.82267
1569593791.8383
1569593791.85392
1569593791.86955
1569593791.88517
1569593791.9008
1569593791.91642
1569593791.93205
1569593791.94768
1569593791.9633
1569593791.97893
1569593791.99455
1569593792.01018
1569593792.0258
1569593792.04143
1569593792.05706
1569593792.07268
1569593792.08831
1569593792.10393
1569593792.11956
1569593792.13518
1569593792.15081
1569593792.16644
1569593792.18206
1569593792.19769
1569593792.21331
1569593792.22894
1569593792.24456
1569593792.26019
1569593792.27582
1569593792.29144
1569593792.30707
1569593792.32269
1569593792.33832
1569593792.35395
1569593792.36957
1569593792.3852
1569593792.40082
1569593792.41645
1569593792.43207
1569593792.4477
1569593792.46333
1569593792.47895
1569593792.49458
1569593792.5102
1569593792.52583
1569593792.54145
1569593792.55708
1569593792.57271
1569593792.58833
1569593792.60396
1569593792.61958
1569593792.63521
1569593792.65083
1569593792.66646
1569593792.68209
1569593792.69771
1569593792.71334
1569593792.72896
1569593792.74459
1569593792.76021
1569593792.77584
1569593792.79147
1569593792.80709
1569593792.82272
1569593792.83834
1569593792.85397
1569593792.86959
1569593792.88522
1569593792.90085
1569593792.91647
1569593792.9321
1569593792.94772
1569593792.96335
1569593792.97897
1569593792.9946
1569593793.01023
1569593793.02585
1569593793.04148
1569593793.0571
1569593793.07273
1569593793.08835
1569593793.10398
1569593793.11961
1569593793.13523
1569593793.15086
1569593793.16648
1569593793.18211
1569593793.19773
1569593793.21336
1569593793.22899
1569593793.24461
1569593793.26024
1569593793.27586
1569593793.29149
1569593793.30711
1569593793.32274
1569593793.33837
1569593793.35399
1569593793.36962
1569593793.38524
1569593793.40087
1569593793.41649
1569593793.43212
1569593793.44775
1569593793.46337
1569593793.479
1569593793.49462
1569593793.51025
1569593793.52587
1569593793.5415
1569593793.55713
1569593793.57275
1569593793.58838
1569593793.604
1569593793.61963
1569593793.63525
1569593793.65088
1569593793.66651
1569593793.68213
1569593793.69776
1569593793.71338
1569593793.72901
1569593793.74463
1569593793.76026
1569593793.77589
1569593793.79151
1569593793.80714
1569593793.82276
1569593793.83839
1569593793.85401
1569593793.86964
1569593793.88527
1569593793.90089
1569593793.91652
1569593793.93214
1569593793.94777
1569593793.96339
1569593793.97902
1569593793.99465
1569593794.01027
1569593794.0259
1569593794.04152
1569593794.05715
1569593794.07277
1569593794.0884
1569593794.10403
1569593794.11965
1569593794.13528
1569593794.1509
1569593794.16653
1569593794.18215
1569593794.19778
1569593794.21341
1569593794.22903
1569593794.24466
1569593794.26028
1569593794.27591
1569593794.29153
1569593794.30716
1569593794.32279
1569593794.33841
1569593794.35404
1569593794.36966
1569593794.38529
1569593794.40091
1569593794.41654
1569593794.43217
1569593794.44779
1569593794.46342
1569593794.47904
1569593794.49467
1569593794.51029
1569593794.52592
1569593794.54155
1569593794.55717
1569593794.5728
1569593794.58842
1569593794.60405
1569593794.61967
1569593794.6353
1569593794.65093
1569593794.66655
1569593794.68218
1569593794.6978
1569593794.71343
1569593794.72905
1569593794.74468
1569593794.76031
1569593794.77593
1569593794.79156
1569593794.80718
1569593794.82281
1569593794.83843
1569593794.85406
1569593794.86969
1569593794.88531
1569593794.90094
1569593794.91656
1569593794.93219
1569593794.94781
1569593794.96344
1569593794.97907
1569593794.99469
1569593795.01032
1569593795.02594
1569593795.04157
1569593795.0572
1569593795.07282
1569593795.08845
1569593795.10407
1569593795.1197
1569593795.13532
1569593795.15095
1569593795.16658
1569593795.1822
1569593795.19783
1569593795.21345
1569593795.22908
1569593795.2447
1569593795.26033
1569593795.27596
1569593795.29158
1569593795.30721
1569593795.32283
1569593795.33846
1569593795.35408
1569593795.36971
1569593795.38534
1569593795.40096
1569593795.41659
1569593795.43221
1569593795.44784
1569593795.46346
1569593795.47909
1569593795.49472
1569593795.51034
1569593795.52597
1569593795.54159
1569593795.55722
1569593795.57284
1569593795.58847
1569593795.6041
1569593795.61972
1569593795.63535
1569593795.65097
1569593795.6666
1569593795.68222
1569593795.69785
1569593795.71348
1569593795.7291
1569593795.74473
1569593795.76035
1569593795.77598
1569593795.7916
1569593795.80723
1569593795.82286
1569593795.83848
1569593795.85411
1569593795.86973
1569593795.88536
1569593795.90098
1569593795.91661
1569593795.93224
1569593795.94786
1569593795.96349
1569593795.97911
1569593795.99474
1569593796.01036
1569593796.02599
1569593796.04162
1569593796.05724
1569593796.07287
1569593796.08849
1569593796.10412
1569593796.11974
1569593796.13537
1569593796.151
1569593796.16662
1569593796.18225
1569593796.19787
1569593796.2135
1569593796.22912
1569593796.24475
1569593796.26038
1569593796.276
1569593796.29163
1569593796.30725
1569593796.32288
1569593796.3385
1569593796.35413
1569593796.36976
1569593796.38538
1569593796.40101
1569593796.41663
1569593796.43226
1569593796.44788
1569593796.46351
1569593796.47914
1569593796.49476
1569593796.51039
1569593796.52601
1569593796.54164
1569593796.55726
1569593796.57289
1569593796.58852
1569593796.60414
1569593796.61977
1569593796.63539
1569593796.65102
1569593796.66664
1569593796.68227
1569593796.6979
1569593796.71352
1569593796.72915
1569593796.74477
1569593796.7604
1569593796.77602
1569593796.79165
1569593796.80728
1569593796.8229
1569593796.83853
1569593796.85415
1569593796.86978
1569593796.8854
1569593796.90103
1569593796.91666
1569593796.93228
1569593796.94791
1569593796.96353
1569593796.97916
1569593796.99478
1569593797.01041
1569593797.02604
1569593797.04166
1569593797.05729
1569593797.07291
1569593797.08854
1569593797.10416
1569593797.11979
1569593797.13542
1569593797.15104
1569593797.16667
1569593797.18229
1569593797.19792
1569593797.21355
1569593797.22917
1569593797.2448
1569593797.26042
1569593797.27605
1569593797.29167
1569593797.3073
1569593797.32293
1569593797.33855
1569593797.35418
1569593797.3698
1569593797.38543
1569593797.40105
1569593797.41668
1569593797.43231
1569593797.44793
1569593797.46356
1569593797.47918
1569593797.49481
1569593797.51043
1569593797.52606
1569593797.54169
1569593797.55731
1569593797.57294
1569593797.58856
1569593797.60419
1569593797.61981
1569593797.63544
1569593797.65107
1569593797.66669
1569593797.68232
1569593797.69794
1569593797.71357
1569593797.72919
1569593797.74482
1569593797.76045
1569593797.77607
1569593797.7917
1569593797.80732
1569593797.82295
1569593797.83857
1569593797.8542
1569593797.86983
1569593797.88545
1569593797.90108
1569593797.9167
1569593797.93233
1569593797.94795
1569593797.96358
1569593797.97921
1569593797.99483
1569593798.01046
1569593798.02608
1569593798.04171
1569593798.05733
1569593798.07296
1569593798.08859
1569593798.10421
1569593798.11984
1569593798.13546
1569593798.15109
1569593798.16671
1569593798.18234
1569593798.19797
1569593798.21359
1569593798.22922
1569593798.24484
1569593798.26047
1569593798.27609
1569593798.29172
1569593798.30735
1569593798.32297
1569593798.3386
1569593798.35422
1569593798.36985
1569593798.38547
1569593798.4011
1569593798.41673
1569593798.43235
1569593798.44798
1569593798.4636
1569593798.47923
1569593798.49485
1569593798.51048
1569593798.52611
1569593798.54173
1569593798.55736
1569593798.57298
1569593798.58861
1569593798.60423
1569593798.61986
1569593798.63549
1569593798.65111
1569593798.66674
1569593798.68236
1569593798.69799
1569593798.71361
1569593798.72924
1569593798.74487
1569593798.76049
1569593798.77612
1569593798.79174
1569593798.80737
1569593798.82299
1569593798.83862
1569593798.85425
1569593798.86987
1569593798.8855
1569593798.90112
1569593798.91675
1569593798.93237
1569593798.948
1569593798.96363
1569593798.97925
1569593798.99488
1569593799.0105
1569593799.02613
1569593799.04175
1569593799.05738
1569593799.07301
1569593799.08863
1569593799.10426
1569593799.11988
1569593799.13551
1569593799.15113
1569593799.16676
1569593799.18239
1569593799.19801
1569593799.21364
1569593799.22926
1569593799.24489
1569593799.26051
1569593799.27614
1569593799.29177
1569593799.30739
1569593799.32302
1569593799.33864
1569593799.35427
1569593799.36989
1569593799.38552
1569593799.40115
1569593799.41677
1569593799.4324
1569593799.44802
1569593799.46365
1569593799.47927
1569593799.4949
1569593799.51053
1569593799.52615
1569593799.54178
1569593799.5574
1569593799.57303
1569593799.58866
1569593799.60428
1569593799.61991
1569593799.63553
1569593799.65116
1569593799.66678
1569593799.68241
1569593799.69804
1569593799.71366
1569593799.72929
1569593799.74491
1569593799.76054
1569593799.77616
1569593799.79179
1569593799.80742
1569593799.82304
1569593799.83867
1569593799.85429
1569593799.86992
1569593799.88554
1569593799.90117
1569593799.9168
1569593799.93242
1569593799.94805
1569593799.96367
1569593799.9793
1569593799.99492
1569593800.01055
1569593800.02618
1569593800.0418
1569593800.05743
1569593800.07305
1569593800.08868
1569593800.1043
1569593800.11993
1569593800.13556
1569593800.15118
1569593800.16681
1569593800.18243
1569593800.19806
1569593800.21368
1569593800.22931
1569593800.24494
1569593800.26056
1569593800.27619
1569593800.29181
1569593800.30744
1569593800.32306
1569593800.33869
1569593800.35432
1569593800.36994
1569593800.38557
1569593800.40119
1569593800.41682
1569593800.43244
1569593800.44807
1569593800.4637
1569593800.47932
1569593800.49495
1569593800.51057
1569593800.5262
1569593800.54182
1569593800.55745
1569593800.57308
1569593800.5887
1569593800.60433
1569593800.61995
1569593800.63558
1569593800.6512
1569593800.66683
1569593800.68246
1569593800.69808
1569593800.71371
1569593800.72933
1569593800.74496
1569593800.76058
1569593800.77621
1569593800.79184
1569593800.80746
1569593800.82309
1569593800.83871
1569593800.85434
1569593800.86996
1569593800.88559
1569593800.90122
1569593800.91684
1569593800.93247
1569593800.94809
1569593800.96372
1569593800.97934
1569593800.99497
1569593801.0106
1569593801.02622
1569593801.04185
1569593801.05747
1569593801.0731
1569593801.08872
1569593801.10435
1569593801.11998
1569593801.1356
1569593801.15123
1569593801.16685
1569593801.18248
1569593801.1981
1569593801.21373
1569593801.22936
1569593801.24498
1569593801.26061
1569593801.27623
1569593801.29186
1569593801.30748
1569593801.32311
1569593801.33874
1569593801.35436
1569593801.36999
1569593801.38561
1569593801.40124
1569593801.41686
1569593801.43249
1569593801.44812
1569593801.46374
1569593801.47937
1569593801.49499
1569593801.51062
1569593801.52624
1569593801.54187
1569593801.5575
1569593801.57312
1569593801.58875
1569593801.60437
1569593801.62
1569593801.63562
1569593801.65125
1569593801.66688
1569593801.6825
1569593801.69813
1569593801.71375
1569593801.72938
1569593801.745
1569593801.76063
1569593801.77626
1569593801.79188
1569593801.80751
1569593801.82313
1569593801.83876
1569593801.85438
1569593801.87001
1569593801.88564
1569593801.90126
1569593801.91689
1569593801.93251
1569593801.94814
1569593801.96376
1569593801.97939
1569593801.99502
1569593802.01064
1569593802.02627
1569593802.04189
1569593802.05752
1569593802.07315
1569593802.08877
1569593802.1044
1569593802.12002
1569593802.13565
1569593802.15127
1569593802.1669
1569593802.18253
1569593802.19815
1569593802.21378
1569593802.2294
1569593802.24503
1569593802.26065
1569593802.27628
1569593802.29191
1569593802.30753
1569593802.32316
1569593802.33878
1569593802.35441
1569593802.37003
1569593802.38566
1569593802.40129
1569593802.41691
1569593802.43254
1569593802.44816
1569593802.46379
1569593802.47941
1569593802.49504
1569593802.51067
1569593802.52629
1569593802.54192
1569593802.55754
1569593802.57317
1569593802.58879
1569593802.60442
1569593802.62005
1569593802.63567
1569593802.6513
1569593802.66692
1569593802.68255
1569593802.69817
1569593802.7138
1569593802.72943
1569593802.74505
1569593802.76068
1569593802.7763
1569593802.79193
1569593802.80755
1569593802.82318
1569593802.83881
1569593802.85443
1569593802.87006
1569593802.88568
1569593802.90131
1569593802.91693
1569593802.93256
1569593802.94819
1569593802.96381
1569593802.97944
1569593802.99506
1569593803.01069
1569593803.02631
1569593803.04194
1569593803.05757
1569593803.07319
1569593803.08882
1569593803.10444
1569593803.12007
1569593803.13569
1569593803.15132
1569593803.16695
1569593803.18257
1569593803.1982
1569593803.21382
1569593803.22945
1569593803.24507
1569593803.2607
1569593803.27633
1569593803.29195
1569593803.30758
1569593803.3232
1569593803.33883
1569593803.35445
1569593803.37008
1569593803.38571
1569593803.40133
1569593803.41696
1569593803.43258
1569593803.44821
1569593803.46383
1569593803.47946
1569593803.49509
1569593803.51071
1569593803.52634
1569593803.54196
1569593803.55759
1569593803.57321
1569593803.58884
1569593803.60447
1569593803.62009
1569593803.63572
1569593803.65134
1569593803.66697
1569593803.68259
1569593803.69822
1569593803.71385
1569593803.72947
1569593803.7451
1569593803.76072
1569593803.77635
1569593803.79197
1569593803.8076
1569593803.82323
1569593803.83885
1569593803.85448
1569593803.8701
1569593803.88573
1569593803.90135
1569593803.91698
1569593803.93261
1569593803.94823
1569593803.96386
1569593803.97948
1569593803.99511
1569593804.01073
1569593804.02636
1569593804.04199
1569593804.05761
1569593804.07324
1569593804.08886
1569593804.10449
1569593804.12011
1569593804.13574
1569593804.15137
1569593804.16699
1569593804.18262
1569593804.19824
1569593804.21387
1569593804.22949
1569593804.24512
1569593804.26075
1569593804.27637
1569593804.292
1569593804.30762
1569593804.32325
1569593804.33888
1569593804.3545
1569593804.37013
1569593804.38575
1569593804.40138
1569593804.417
1569593804.43263
1569593804.44826
1569593804.46388
1569593804.47951
1569593804.49513
1569593804.51076
1569593804.52638
1569593804.54201
1569593804.55764
1569593804.57326
1569593804.58889
1569593804.60451
1569593804.62014
1569593804.63576
1569593804.65139
1569593804.66702
1569593804.68264
1569593804.69827
1569593804.71389
1569593804.72952
1569593804.74514
1569593804.76077
1569593804.7764
1569593804.79202
1569593804.80765
1569593804.82327
1569593804.8389
1569593804.85452
1569593804.87015
1569593804.88578
1569593804.9014
1569593804.91703
1569593804.93265
1569593804.94828
1569593804.9639
1569593804.97953
1569593804.99516
1569593805.01078
1569593805.02641
1569593805.04203
1569593805.05766
1569593805.07328
1569593805.08891
1569593805.10454
1569593805.12016
1569593805.13579
1569593805.15141
1569593805.16704
1569593805.18266
1569593805.19829
1569593805.21392
1569593805.22954
1569593805.24517
1569593805.26079
1569593805.27642
1569593805.29204
1569593805.30767
1569593805.3233
1569593805.33892
1569593805.35455
1569593805.37017
1569593805.3858
1569593805.40142
1569593805.41705
1569593805.43268
1569593805.4483
1569593805.46393
1569593805.47955
1569593805.49518
1569593805.5108
1569593805.52643
1569593805.54206
1569593805.55768
1569593805.57331
1569593805.58893
1569593805.60456
1569593805.62018
1569593805.63581
1569593805.65144
1569593805.66706
1569593805.68269
1569593805.69831
1569593805.71394
1569593805.72956
1569593805.74519
1569593805.76082
1569593805.77644
1569593805.79207
1569593805.80769
1569593805.82332
1569593805.83894
1569593805.85457
1569593805.8702
1569593805.88582
1569593805.90145
1569593805.91707
1569593805.9327
1569593805.94832
1569593805.96395
1569593805.97958
1569593805.9952
1569593806.01083
1569593806.02645
1569593806.04208
1569593806.0577
1569593806.07333
1569593806.08896
1569593806.10458
1569593806.12021
1569593806.13583
1569593806.15146
1569593806.16708
1569593806.18271
1569593806.19834
1569593806.21396
1569593806.22959
1569593806.24521
1569593806.26084
1569593806.27646
1569593806.29209
1569593806.30772
1569593806.32334
1569593806.33897
1569593806.35459
1569593806.37022
1569593806.38584
1569593806.40147
1569593806.4171
1569593806.43272
1569593806.44835
1569593806.46397
1569593806.4796
1569593806.49522
1569593806.51085
1569593806.52648
1569593806.5421
1569593806.55773
1569593806.57335
1569593806.58898
1569593806.6046
1569593806.62023
1569593806.63586
1569593806.65148
1569593806.66711
1569593806.68273
1569593806.69836
1569593806.71398
1569593806.72961
1569593806.74524
1569593806.76086
1569593806.77649
1569593806.79211
1569593806.80774
1569593806.82336
1569593806.83899
1569593806.85462
1569593806.87024
1569593806.88587
1569593806.90149
1569593806.91712
1569593806.93275
1569593806.94837
1569593806.964
1569593806.97962
1569593806.99525
1569593807.01087
1569593807.0265
1569593807.04213
1569593807.05775
1569593807.07338
1569593807.089
1569593807.10463
1569593807.12025
1569593807.13588
1569593807.15151
1569593807.16713
1569593807.18276
1569593807.19838
1569593807.21401
1569593807.22963
1569593807.24526
1569593807.26089
1569593807.27651
1569593807.29214
1569593807.30776
1569593807.32339
1569593807.33901
1569593807.35464
1569593807.37027
1569593807.38589
1569593807.40152
1569593807.41714
1569593807.43277
1569593807.44839
1569593807.46402
1569593807.47965
1569593807.49527
1569593807.5109
1569593807.52652
1569593807.54215
1569593807.55777
1569593807.5734
1569593807.58903
1569593807.60465
1569593807.62028
1569593807.6359
1569593807.65153
1569593807.66715
1569593807.68278
1569593807.69841
1569593807.71403
1569593807.72966
1569593807.74528
1569593807.76091
1569593807.77653
1569593807.79216
1569593807.80779
1569593807.82341
1569593807.83904
1569593807.85466
1569593807.87029
1569593807.88591
1569593807.90154
1569593807.91717
1569593807.93279
1569593807.94842
1569593807.96404
1569593807.97967
1569593807.99529
1569593808.01092
1569593808.02655
1569593808.04217
1569593808.0578
1569593808.07342
1569593808.08905
1569593808.10467
1569593808.1203
1569593808.13593
1569593808.15155
1569593808.16718
1569593808.1828
1569593808.19843
1569593808.21405
1569593808.22968
1569593808.24531
1569593808.26093
1569593808.27656
1569593808.29218
1569593808.30781
1569593808.32343
1569593808.33906
1569593808.35469
1569593808.37031
1569593808.38594
1569593808.40156
1569593808.41719
1569593808.43281
1569593808.44844
1569593808.46407
1569593808.47969
1569593808.49532
1569593808.51094
1569593808.52657
1569593808.54219
1569593808.55782
1569593808.57345
1569593808.58907
1569593808.6047
1569593808.62032
1569593808.63595
1569593808.65157
1569593808.6672
1569593808.68283
1569593808.69845
1569593808.71408
1569593808.7297
1569593808.74533
1569593808.76095
1569593808.77658
1569593808.79221
1569593808.80783
1569593808.82346
1569593808.83908
1569593808.85471
1569593808.87033
1569593808.88596
1569593808.90159
1569593808.91721
1569593808.93284
1569593808.94846
1569593808.96409
1569593808.97971
1569593808.99534
1569593809.01097
1569593809.02659
1569593809.04222
1569593809.05784
1569593809.07347
1569593809.08909
1569593809.10472
1569593809.12035
1569593809.13597
1569593809.1516
1569593809.16722
1569593809.18285
1569593809.19848
1569593809.2141
1569593809.22973
1569593809.24535
1569593809.26098
1569593809.2766
1569593809.29223
1569593809.30786
1569593809.32348
1569593809.33911
1569593809.35473
1569593809.37036
1569593809.38598
1569593809.40161
1569593809.41724
1569593809.43286
1569593809.44849
1569593809.46411
1569593809.47974
1569593809.49536
1569593809.51099
1569593809.52662
1569593809.54224
1569593809.55787
1569593809.57349
1569593809.58912
1569593809.60474
1569593809.62037
1569593809.636
1569593809.65162
1569593809.66725
1569593809.68287
1569593809.6985
1569593809.71412
1569593809.72975
1569593809.74538
1569593809.761
1569593809.77663
1569593809.79225
1569593809.80788
1569593809.8235
1569593809.83913
1569593809.85476
1569593809.87038
1569593809.88601
1569593809.90163
1569593809.91726
1569593809.93288
1569593809.94851
1569593809.96414
1569593809.97976
1569593809.99539
1569593810.01101
1569593810.02664
1569593810.04226
1569593810.05789
1569593810.07352
1569593810.08914
1569593810.10477
1569593810.12039
1569593810.13602
1569593810.15164
1569593810.16727
1569593810.1829
1569593810.19852
1569593810.21415
1569593810.22977
1569593810.2454
1569593810.26102
1569593810.27665
1569593810.29228
1569593810.3079
1569593810.32353
1569593810.33915
1569593810.35478
1569593810.3704
1569593810.38603
1569593810.40166
1569593810.41728
1569593810.43291
1569593810.44853
1569593810.46416
1569593810.47978
1569593810.49541
1569593810.51104
1569593810.52666
1569593810.54229
1569593810.55791
1569593810.57354
1569593810.58916
1569593810.60479
1569593810.62042
1569593810.63604
1569593810.65167
1569593810.66729
1569593810.68292
