-52.32982
-48.06332
-40.41889
-30.57097
-20.19983
-10.90433
-3.641075
1.438988
4.804588
7.157547
9.123405
11.0126
12.86594
14.57069
15.96774
16.98094
17.6396
18.10691
18.59367
19.26036
20.11069
20.96416
21.60319
21.9079
21.93983
21.89921
21.99677
22.27782
22.58238
22.6302
22.23928
21.47598
20.56277
19.79152
19.27198
18.86317
18.23962
17.1097
15.39024
13.2874
11.15646
9.248619
7.579269
5.869682
3.746613
0.9190369
-2.596718
-6.560707
-10.57115
-14.28305
-17.54533
-20.42488
-23.13681
-25.98363
-29.26836
-33.22956
-37.93427
-43.1085
-48.01484
-51.48327
-52.24746
-49.45838
-43.13927
-34.23211
-24.34416
-15.1052
-7.578255
-2.005859
2.038879
5.254547
8.174637
10.95672
13.49768
15.58083
17.08665
18.06886
18.67557
19.05531
19.29535
19.42593
19.42862
19.31279
19.15677
19.08128
19.25112
19.77924
20.66412
21.76539
22.81769
23.56963
23.85854
23.6863
23.16119
22.44114
21.61312
20.68386
19.60606
18.34909
16.92559
15.37827
13.76415
12.0887
10.3022
8.266705
5.823647
2.872238
-0.6037369
-4.420216
-8.274105
-11.80358
-14.75573
-17.0739
-18.97554
-20.91669
-23.45199
-27.04163
-31.81494
-37.41675
-42.9528
-47.15743
-48.7553
-46.88372
-41.45528
-33.20195
-23.4676
-13.72712
-5.149532
1.67281
6.73003
10.40481
13.15416
15.34053
17.14307
18.60001
19.70381
20.46184
20.96416
21.34966
21.78087
22.33733
22.98574
23.53124
23.70381
23.31515
22.3472
21.00988
19.68705
18.74206
18.33344
18.38973
18.61863
18.69693
18.44742
17.90073
17.20543
16.48928
15.75577
14.85529
13.62267
11.93002
9.733418
7.053715
3.895588
0.2789917
-3.744087
-7.95594
-12.02357
-15.56373
-18.33988
-20.39672
-22.05965
-23.82671
-26.14069
-29.31081
-33.31381
-37.83733
-42.23951
-45.64133
-47.07791
-45.77615
-41.45647
-34.48283
-25.90662
-17.05812
-9.165058
-2.884876
1.798489
5.415745
8.626556
11.83403
15.05185
18.01206
20.44029
22.27864
23.7354
25.19144
26.89997
28.79038
30.43554
31.25402
30.75486
28.83813
25.85762
22.49706
19.54162
17.50541
16.51288
16.20362
15.98332
15.30006
13.91283
11.98687
9.949619
8.217396
6.851669
5.531193
3.686832
0.8485031
-3.059189
-7.594685
-12.02385
-15.68252
-18.30108
-20.10992
-21.61383
-23.34266
-25.56987
-28.34649
-31.62663
-35.4075
-39.7169
-44.36667
-48.77562
-51.88171
-52.44018
-49.50513
-42.94373
-33.59474
-23.00724
-12.88576
-4.46764
1.783714
6.147354
9.310333
11.93117
14.38765
16.66042
18.52678
19.74854
20.26698
20.25957
20.05001
20.00725
20.35649
21.12752
22.10891
23.00765
23.57997
23.79104
23.7894
23.83219
24.105
24.533
24.79466
24.39843
22.94542
20.34217
16.85789
13.03234
9.433323
6.478497
4.341869
3.000546
2.326447
2.14756
2.263126
2.344753
2.00386
0.8661461
-1.267414
-4.344769
-8.13702
-12.41137
-17.06253
-22.11397
-27.686
-33.81624
-40.36055
-46.96869
-53.06806
-57.89294
-60.55832
-60.27327
-56.6051
-49.72427
-40.46514
-30.1213
-20.03479
-11.18654
-3.988131
1.703739
6.253885
10.02331
13.17238
15.69879
17.56273
18.75508
19.37151
19.6065
19.72524
20.00714
20.70121
21.9123
23.61843
25.60971
27.56906
29.20958
30.36728
31.06017
31.424
31.60568
31.64474
31.42959
30.75216
29.43855
27.47289
25.08331
22.66203
20.63395
19.3005
18.64436
18.3191
17.81054
16.66481
14.74114
12.26684
9.715665
7.510462
5.766962
4.219049
2.33004
-0.3794136
-4.064213
-8.476316
-13.06766
-17.31479
-20.96517
-24.11489
-27.11867
-30.38008
-34.19964
-38.69753
-43.85309
-49.46674
-55.10868
-59.98188
-62.98583
-62.99785
-59.29469
-51.97253
-42.02496
-31.07437
-20.775
-12.24212
-5.775517
-0.962698
2.896128
6.389485
9.731832
12.83934
15.47157
17.46264
18.79134
19.5674
19.97466
20.23816
20.58625
21.19246
22.14062
23.38272
24.78007
26.16274
27.38776
28.37807
29.0888
29.53508
29.68486
29.49474
28.97968
28.24275
27.45131
26.77549
26.32115
26.05418
25.83719
25.43636
24.61185
23.17542
21.02751
18.2343
15.01333
11.73463
8.746353
6.274929
4.242964
2.322119
-0.008572727
-3.205837
-7.424326
-12.41363
-17.56366
-22.22162
-25.92231
-28.66716
-30.87139
-33.22835
-36.46806
-41.01774
-46.80577
-53.16047
-58.93052
-62.75288
-63.44024
-60.35997
-53.67823
-44.35485
-33.92345
-24.01949
-15.88328
-9.986731
-5.943072
-2.716611
0.9298878
5.939878
12.58315
20.36747
28.2195
34.87177
39.33012
41.15349
40.55271
38.16968
34.79158
31.10128
27.58017
24.54127
22.23692
20.95903
20.96311
22.31589
24.75547
27.67077
30.29107
31.92551
32.20239
31.18334
29.25599
26.88774
24.45305
22.08082
19.70798
17.24484
14.64431
11.97496
9.365789
6.917123
4.633051
2.459066
0.2630424
-2.058105
-4.589609
-7.359396
-10.3643
-13.51338
-16.6694
-19.68416
-22.49459
-25.17548
-28.00558
-31.37232
-35.58515
-40.70236
-46.32907
-51.62458
-55.42315
-56.60063
-54.40065
-48.76327
-40.34961
-30.36501
-20.23183
-11.18056
-3.955075
1.281898
4.858638
7.401097
9.517079
11.60836
13.76944
15.86742
17.69261
19.17316
20.45355
21.84864
23.64522
25.92967
28.44363
30.70919
32.20666
32.65419
32.09041
30.81892
29.21877
27.56173
25.91393
24.21258
22.36599
20.33502
18.15867
15.93236
13.69567
11.43915
9.125389
6.693326
4.157213
1.587004
-0.9384456
-3.37865
-5.794435
-8.294986
-11.02056
-14.05131
-17.31913
-20.63723
-23.68148
-26.15746
-27.90238
-29.02904
-29.96694
-31.28795
-33.56327
-37.00648
-41.30402
-45.56776
-48.53917
-48.97285
-46.13089
-40.05219
-31.55757
-21.99901
-12.7475
-4.789129
1.510097
6.321262
10.063
13.07145
15.41789
17.00312
17.70985
17.64379
17.16847
16.81
16.98499
17.8638
19.32211
21.01093
22.58755
23.81403
24.6795
25.28938
25.76397
26.11878
26.23629
25.90557
24.90221
23.10778
20.52188
17.35631
13.9446
10.69253
7.898677
5.657485
3.790303
1.887605
-0.5182965
-3.776422
-7.914306
-12.71408
-17.7391
-22.5709
-26.91891
-30.70017
-34.0198
-37.03727
-39.95494
-42.82841
-45.58971
-47.91013
-49.24144
-48.90218
-46.21888
-40.85911
-32.98309
-23.3554
-13.16561
-3.725598
3.950003
9.389275
12.70257
14.45744
15.36543
16.10995
17.11477
18.51045
20.16773
21.80967
23.11503
23.89428
24.16647
24.1434
24.1594
24.49469
25.22375
26.16713
27.03093
27.52305
27.52119
27.07583
26.30168
25.29165
24.07392
22.57741
20.76285
18.66376
16.40022
14.11559
11.93868
9.924118
8.011662
6.09333
4.006729
1.610584
-1.194607
-4.426609
-8.029171
-11.83529
-15.6574
-19.30684
-22.67281
-25.71901
-28.50078
-31.17571
-33.99896
-37.25676
-41.23404
-46.04116
-51.44706
-56.75214
-60.79256
-62.27974
-60.20916
-54.32244
-45.23404
-34.29318
-23.08661
-12.93758
-4.51981
2.184486
7.579258
12.17916
16.32632
20.11717
23.46617
26.22187
28.29305
29.65289
30.39375
30.69396
30.80447
30.96164
31.3277
31.94876
32.76863
33.69673
34.62234
35.49503
36.22108
36.67932
36.65801
35.96018
34.50811
32.4575
30.15531
28.03756
26.47633
25.58219
25.18056
24.83447
24.02618
22.39035
19.85482
16.63583
13.17284
9.930489
7.169685
4.849754
2.61097
-0.07661438
-3.646461
-8.220451
-13.55104
-19.09708
-24.28982
-28.79179
-32.5663
-35.87136
-39.123
-42.72039
-46.97658
-52.01208
-57.69158
-63.55449
-68.80434
-72.34983
-73.09422
-70.26239
-63.72829
-54.19917
-42.98479
-31.63584
-21.46796
-13.18388
-6.783783
-1.743958
2.627777
6.90815
11.28143
15.56577
19.39782
22.44051
24.56506
25.93821
26.83676
27.52806
28.19955
28.86766
29.51385
30.1675
30.9534
32.03802
33.5395
35.36131
37.16348
38.47737
38.86238
38.15533
36.52094
34.38416
32.27515
30.5911
29.47784
28.77525
28.19781
27.40189
26.14133
24.37854
22.16544
19.72001
17.27676
15.03077
12.98412
10.95332
8.582573
5.505188
1.559265
-3.126534
-8.098961
-12.82095
-16.91385
-20.33682
-23.36086
-26.41072
-29.88249
-34.00323
-38.87922
-44.46518
-50.58492
-56.7392
-62.01536
-65.18831
-65.06568
-60.97083
-53.11815
-42.67632
-31.33984
-20.75824
-11.99023
-5.279831
-0.2053528
3.907578
7.630028
11.2502
14.69048
17.6865
19.98026
21.45567
22.25536
22.71671
23.28207
24.31503
25.95267
28.05212
30.28256
32.28613
33.81272
34.82207
35.36468
35.49887
35.2235
34.47374
33.20613
31.48502
29.52195
27.59647
25.99547
24.87625
24.20126
23.72614
23.11526
22.00174
20.18069
17.65044
14.62616
11.49433
8.651649
6.338257
4.530479
2.910126
0.9933929
-1.650681
-5.211266
-9.537109
-14.21066
-18.7032
-22.60928
-25.84599
-28.66304
-31.52776
-34.92176
-39.18885
-44.34488
-50.08853
-55.73334
-60.29975
-62.66626
-61.89291
-57.51073
-49.72488
-39.47229
-28.11238
-17.04778
-7.308998
0.6395187
6.897995
11.83816
15.83296
19.10444
21.62836
23.2877
24.0151
23.88806
23.24676
22.57805
22.38014
22.9333
24.1766
25.7347
27.16663
28.18828
28.79594
29.26238
29.85296
30.59033
31.15267
31.02515
29.75781
27.3297
24.14993
20.8913
18.16801
16.2019
14.78031
13.42363
11.64887
9.255779
6.391876
3.427776
0.7655334
-1.341225
-2.921425
-4.20187
-5.56609
-7.358524
-9.809418
-12.96375
-16.67799
-20.68779
-24.64935
-28.30274
-31.51249
-34.34056
-37.06746
-40.1311
-43.98356
-48.85434
-54.52039
-60.1207
-64.3267
-65.65684
-63.05317
-56.34396
-46.34722
-34.60428
-22.7976
-12.19207
-3.368805
3.714184
9.460033
14.24862
18.27042
21.50935
23.87357
25.3503
26.06643
26.29844
26.35471
26.56547
27.11912
28.07221
29.31011
30.61599
31.74818
32.54639
33.00112
33.21786
33.32957
33.36653
33.19567
32.56308
31.20015
29.04402
26.30913
23.46243
20.98938
19.16143
17.86674
16.65491
14.96636
12.38606
8.839453
4.616156
0.2785339
-3.598619
-6.60614
-8.671495
-10.13631
-11.62621
-13.83794
-17.21219
-21.76454
-26.96412
-32.01497
-36.16066
-39.04139
-40.89933
-42.45301
-44.60139
-48.00819
-52.79877
-58.37172
-63.54467
-66.89225
-67.14711
-63.65875
-56.56688
-46.78587
-35.63139
-24.45858
-14.25597
-5.497234
1.793694
7.874073
13.03617
17.5216
21.42346
24.73407
27.38953
29.3055
30.43702
30.83896
30.74319
30.44336
30.27254
30.47731
31.15383
32.27374
33.70383
35.26871
36.7511
37.92982
38.54412
38.34802
37.21414
35.1801
32.50589
29.59299
26.8469
24.52975
22.72309
21.27988
19.92802
18.3476
16.28927
13.66903
10.56646
7.244507
4.050816
1.268673
-0.9710503
-2.806942
-4.572704
-6.686428
-9.451653
-12.95078
-17.0359
-21.41508
-25.79634
-29.97206
-33.87779
-37.56799
-41.22988
-45.14592
-49.63654
-54.8852
-60.65533
-66.12115
-69.93373
-70.59994
-67.10117
-59.3817
-48.46148
-36.07666
-24.00476
-13.45232
-4.8433
2.064762
7.733543
12.48325
16.39799
19.40196
21.47026
22.76759
23.61303
24.33908
25.19154
26.22268
27.34705
28.38155
29.15805
29.59396
29.75883
29.87519
30.19034
30.86674
31.8064
32.69811
33.13041
32.85209
31.84138
30.37248
28.84681
27.60229
26.79309
26.32166
25.94379
25.33551
24.22577
22.44088
19.96973
16.98907
13.7762
10.70143
8.005093
5.71611
3.60894
1.28693
-1.613831
-5.257015
-9.530067
-14.13231
-18.63739
-22.74516
-26.32612
-29.51241
-32.6109
-36.05225
-40.25337
-45.4753
-51.73784
-58.62988
-65.25082
-70.33844
-72.52415
-70.76354
-64.74115
-55.08223
-43.14201
-30.64173
-19.05973
-9.317593
-1.651581
4.185028
8.650593
12.1462
14.90464
17.0112
18.53409
19.57393
20.28169
20.84861
21.48953
22.34765
23.53206
25.047
26.81001
28.68774
30.54722
32.28397
33.78777
34.93462
35.54439
35.47139
34.6567
33.22047
31.40797
29.58171
28.06287
27.00361
26.35525
25.84615
25.11903
23.81276
21.70614
18.82065
15.40218
11.86914
8.650982
6.047623
4.085201
2.540279
0.9816551
-1.045452
-3.864357
-7.529167
-11.80482
-16.24933
-20.40876
-24.03176
-27.16623
-30.15122
-33.45044
-37.45564
-42.35651
-48.02161
-53.91684
-59.17002
-62.66529
-63.27009
-60.20589
-53.38881
-43.57642
-32.20403
-20.93973
-11.06384
-3.135513
3.043587
8.093739
12.54653
16.53483
19.8247
22.03174
22.99186
22.94323
22.45421
22.1747
22.55825
23.7197
25.46952
27.4357
29.23981
30.64033
31.55255
32.05204
32.28168
32.33111
32.19064
31.70072
30.62434
28.85306
26.45619
23.74619
21.14449
18.97904
17.33559
16.01402
14.65984
12.98016
10.8808
8.472069
5.938591
3.396973
0.8379593
-1.88097
-4.906872
-8.309708
-12.01904
-15.90207
-19.76814
-23.46772
-26.91904
-30.12613
-33.1657
-36.19438
-39.46002
-43.20164
-47.52092
-52.21269
-56.59606
-59.60675
-60.06582
-57.08177
-50.4839
-40.96653
-29.85962
-18.68194
-8.625
-0.2639542
6.421684
11.77855
16.11594
19.49434
21.79147
22.84383
22.71454
21.77546
20.64859
19.98392
20.20779
21.34636
23.04001
24.77021
26.09479
26.89675
27.33001
27.699
28.20208
28.79488
29.21898
29.14647
28.39085
26.86938
24.66195
21.8951
18.74098
15.43664
12.27413
9.542015
7.374695
5.646187
3.93972
1.739838
-1.344559
-5.400673
-10.19391
-15.29247
-20.24976
-24.78174
-28.7685
-32.27032
-35.42911
-38.48148
-41.73608
-45.49652
-49.91632
-54.76442
-59.36051
-62.60502
-63.34055
-60.69724
-54.52561
-45.46835
-34.74528
-23.75073
-13.55241
-4.68956
2.856506
9.34288
15.0188
19.90437
23.82438
26.60765
28.2564
29.02765
29.40298
29.89024
30.794
32.15813
33.75414
35.24728
36.37537
37.06791
37.43088
37.6591
37.90653
38.14389
38.16759
37.69149
36.49536
34.55495
32.05512
29.30418
26.54527
23.84509
21.05033
17.9489
14.40376
10.48967
6.533005
2.942398
0.02578735
-2.185158
-3.998268
-5.897362
-8.406235
-11.86575
-16.29414
-21.4073
-26.73887
-31.80383
-36.26838
-40.04266
-43.33649
-46.62128
-50.4685
-55.344
-61.30241
-67.73596
-73.30554
-76.21478
-74.8113
-68.25098
-56.97439
-42.63673
-27.61387
-14.10442
-3.508392
3.896652
8.695633
11.78207
13.9156
15.4969
16.71254
17.75591
18.93376
20.65135
23.20268
26.6124
30.59172
34.66171
38.30835
41.20389
43.22922
44.46819
45.10965
45.30902
45.13409
44.57239
43.58806
42.17654
40.44908
38.62166
36.94063
35.59451
34.65126
34.00989
33.42351
32.63593
31.43063
29.71252
27.56667
25.18446
22.8049
20.54964
18.3994
16.18842
13.72507
10.93767
7.892441
4.778427
1.749847
-1.173096
-4.213348
-7.679626
-11.80064
-16.58264
-21.77885
-26.99759
-31.88454
-36.2849
-40.18095
-43.73254
-47.18373
-50.8385
-55.0441
-60.05753
-65.83551
-71.78337
-76.74619
-79.18785
-77.76578
-71.89906
-62.09749
-49.78703
-36.83897
-24.84938
-14.7289
-6.591797
-0.05421448
5.413284
10.18324
14.41029
18.10991
21.28598
23.99542
26.30348
28.27107
29.91222
31.23276
32.29451
33.27713
34.36363
35.69437
37.25377
38.88939
40.36893
41.45609
42.01982
42.02766
41.53096
40.60431
39.33949
37.88022
36.3927
35.05626
33.97844
33.09796
32.27577
31.35881
30.2455
28.94061
27.44185
25.64919
23.37048
20.44511
16.92024
13.10503
9.514725
6.588303
4.425552
2.707748
0.7956848
-1.945282
-5.813095
-10.61841
-15.80632
-20.69659
-24.841
-28.17554
-31.04849
-34.00461
-37.55369
-42.01156
-47.39197
-53.46432
-59.73891
-65.47563
-69.67177
-71.24249
-69.29363
-63.45373
-54.16251
-42.62024
-30.42493
-19.09178
-9.600021
-2.196388
3.483276
8.025154
11.95927
15.50784
18.58298
21.00301
22.65044
23.63726
24.29333
25.04831
26.22056
27.892
29.84051
31.68591
33.10236
33.96883
34.3933
34.61304
34.78405
34.87716
34.70771
34.06449
32.85138
31.15146
29.22326
27.32708
25.61382
24.10125
22.65514
21.11127
19.34737
17.31235
15.05135
12.65681
10.24353
7.903412
5.668594
3.558205
1.583084
-0.2335358
-1.85173
-3.292343
-4.686356
-6.291779
-8.42691
-11.3259
-14.96651
-19.05589
-23.10953
-26.74114
-29.85305
-32.7703
-36.13074
-40.55513
-46.30249
-52.98251
-59.52551
-64.4318
-66.26498
-64.08305
-57.79863
-48.19346
-36.66919
-24.82973
-14.04439
-5.187378
1.529476
6.356506
9.846455
12.53037
14.75127
16.6194
18.13276
19.29902
20.24836
21.25304
22.54362
24.20421
26.04885
27.71219
28.89709
29.5322
29.84025
30.11487
30.53315
30.97017
31.07549
30.51939
29.1779
27.2522
25.10676
23.10555
21.37775
19.86555
18.36057
16.69705
14.82758
12.768
10.58531
8.293114
5.893715
3.379276
0.816164
-1.752703
-4.325598
-7.022671
-10.03758
-13.47358
-17.28505
-21.20614
-24.87767
-28.04039
-30.70163
-33.18052
-35.97339
-39.56167
-44.14698
-49.50519
-54.95422
-59.45124
-61.8088
-61.05811
-56.73874
-49.11949
-39.16722
-28.28554
-17.88821
-8.940723
-1.776814
3.856921
8.451515
12.40879
15.86118
18.68449
20.67451
21.78584
22.23414
22.4127
22.74824
23.48983
24.66038
26.07415
27.48964
28.74487
29.81711
30.83252
31.91635
33.06824
34.10069
34.7016
34.59001
33.65646
32.02668
29.94563
27.66948
25.24387
22.48125
19.12526
14.98872
10.19611
5.139818
0.41609
-3.458162
-6.221939
-8.041752
-9.410448
-10.9504
-13.16969
-16.25435
-20.03465
-24.0328
-27.76996
-30.94616
-33.5871
-36.02705
-38.66082
-41.87324
-45.80667
-50.40724
-55.41716
-60.38056
-64.59128
-67.09873
-66.91302
-63.29084
-56.11844
-46.03604
-34.34678
-22.58011
-12.05297
-3.483843
3.02442
7.851492
11.56482
14.68656
17.54382
20.24941
22.73464
24.83855
26.3814
27.29469
27.6928
27.87592
28.17146
28.79921
29.75813
30.83153
31.78939
32.46595
32.84596
32.98739
32.89295
32.45049
31.48217
29.931
27.9224
25.774
23.85305
22.3257
21.04192
19.56852
17.40895
14.29519
10.41553
6.340338
2.788141
0.2673273
-1.197351
-2.09712
-3.193746
-5.174225
-8.321604
-12.42402
-16.95712
-21.37511
-25.39754
-29.0826
-32.72847
-36.67408
-41.16881
-46.27416
-51.88194
-57.62825
-62.81837
-66.38192
-67.1095
-64.06057
-57.0224
-46.76481
-34.86615
-23.15121
-13.0139
-5.040774
1.012155
5.763638
9.777934
13.25671
16.09854
18.15316
19.43584
20.18772
20.76169
21.41395
22.24069
23.18883
24.20653
25.28608
26.48393
27.89925
29.55502
31.42817
33.35609
35.15166
36.53691
37.22766
36.99337
35.79759
33.83804
31.50874
29.2489
27.35972
25.84552
24.44041
22.79148
20.63793
17.98938
15.11628
12.3857
10.04544
8.145184
6.452101
4.586721
2.173342
-0.9725761
-4.784687
-8.993631
-13.21629
-17.13241
-20.64147
-23.88848
-27.25961
-31.26598
-36.30515
-42.4954
-49.52638
-56.61274
-62.60946
-66.30998
-66.70027
-63.33284
-56.40488
-46.77777
-35.69794
-24.53041
-14.42797
-6.09083
0.2473831
4.82238
8.146788
10.79778
13.2335
15.68129
18.09638
20.32975
22.22375
23.71611
24.92747
26.00577
27.08152
28.22796
29.44518
30.72308
32.05593
33.39101
34.59946
35.49164
35.82355
35.43283
34.29393
32.54582
30.45668
28.33784
26.43831
24.90974
23.77614
22.88249
21.98748
20.79772
19.07995
16.82029
14.21641
11.60776
9.290243
7.298349
5.339842
2.95772
-0.2497444
-4.372059
-9.071564
-13.73992
-17.83659
-21.07344
-23.5984
-25.88289
-28.52815
-32.09668
-36.92678
-42.98389
-49.80476
-56.40759
-61.41105
-63.38268
-61.30706
-55.03907
-45.40865
-33.95799
-22.40212
-12.08423
-3.629559
2.996326
8.215263
12.5163
16.14376
19.12236
21.32501
22.6271
23.01533
22.67951
22.01087
21.49977
21.60598
22.58691
24.34821
26.54994
28.72033
30.43492
31.42708
31.62178
31.05618
29.84089
28.11352
26.07551
23.98243
22.11045
20.64204
19.54553
18.58007
17.38538
15.65354
13.29104
10.47639
7.53758
4.78752
2.338411
0.06994343
-2.336504
-5.186108
-8.624096
-12.57664
-16.7838
-20.89466
-24.6573
-27.95152
-30.79442
-33.36903
-35.95746
-38.93262
-42.63043
-47.18681
-52.29471
-57.06101
-60.16743
-60.22146
-56.35505
-48.57945
-37.94453
-26.10861
-14.81004
-5.271703
2.068313
7.455768
11.50259
14.80226
17.69654
20.23516
22.33429
23.89904
24.93154
25.58006
26.08672
26.67356
27.45685
28.43727
29.50175
30.50605
31.38643
32.10696
32.64376
32.94621
32.88475
32.31441
31.22285
29.71336
28.02207
26.35274
24.79268
23.24109
21.48074
19.30011
16.6529
13.74295
10.94586
8.670458
7.176128
6.422389
6.001858
5.300551
3.676423
0.7023602
-3.681134
-9.199058
-15.31074
-21.38732
-26.87973
-31.44004
-35.00527
-37.82698
-40.46632
-43.60238
-47.78273
-53.0255
-58.6849
-63.48161
-65.91566
-64.79726
-59.69814
-51.15713
-40.4249
-29.07837
-18.44744
-9.37273
-2.109667
3.519073
7.904106
11.4441
14.40035
16.95973
19.13052
20.9223
22.33309
23.45223
24.47382
25.58875
26.89514
28.2994
29.57581
30.46463
30.85287
30.84525
30.68846
30.63874
30.7742
30.92422
30.73064
29.89626
28.28537
26.08571
23.70827
21.60545
20.11969
19.29352
18.9277
18.60345
17.87884
16.40446
14.08135
11.07441
7.70587
4.328033
1.133862
-1.861567
-4.819035
-7.894537
-11.17126
-14.61205
-18.11429
-21.57043
-24.93187
-28.25073
-31.65521
-35.36019
-39.63962
-44.70406
-50.47902
-56.39103
-61.29538
-63.68753
-62.27764
-56.54981
-47.13221
-35.66006
-24.15289
-14.30091
-6.897793
-1.739124
2.019609
5.33563
8.803661
12.47279
15.96941
18.79729
20.60531
21.38569
21.41804
21.14567
20.96424
21.07698
21.48912
22.08941
22.78521
23.57548
24.52614
25.67082
26.91661
28.04063
28.7889
29.00027
28.67024
27.95771
27.09116
26.24442
25.43667
24.53887
23.36561
21.78863
19.81531
17.58313
15.29756
13.11188
11.04168
8.956951
6.659687
3.98143
0.8789864
-2.589802
-6.309261
-10.16365
-14.07117
-17.96571
-21.74323
-25.31711
-28.6399
-31.82325
-35.15971
-39.01999
-43.66125
-48.92173
-54.09353
-57.9699
-59.23774
-56.9623
-51.00873
-42.13712
-31.71255
-21.24163
-11.84262
-4.047943
2.171963
7.092777
11.00486
14.09579
16.48324
18.28793
19.65797
20.71363
21.50559
22.05611
22.39815
22.67463
23.0514
23.6478
24.41621
25.16426
25.72956
26.04884
26.29705
26.69403
27.35718
28.0893
28.45409
28.00717
26.52349
24.18275
21.48571
19.0054
17.1323
15.88523
14.96715
13.93122
12.44377
10.41114
7.968578
5.391834
2.955883
0.8161087
-1.067616
-2.888428
-4.955803
-7.539619
-10.72805
-14.37097
-18.1367
-21.65115
-24.73643
-27.54783
-30.47453
-34.05082
-38.60471
-44.10313
-50.00452
-55.37663
-59.08928
-60.09589
-57.75656
-52.00003
-43.44552
-33.20961
-22.61163
-12.75458
-4.308685
2.594543
8.145531
12.62589
16.18283
18.75771
20.23717
20.63171
20.18001
19.37202
18.75864
18.75704
19.50966
20.81665
22.25815
23.40357
24.023
24.14441
24.01228
23.88771
23.91109
23.98596
23.84322
23.16962
21.80077
19.78194
17.33291
14.75836
12.28239
10.00157
7.879601
5.826965
3.69738
1.362511
-1.311302
-4.407143
-7.923126
-11.70939
-15.49882
-18.96546
-21.908
-24.3744
-26.66177
-29.21663
-32.41392
-36.46143
-41.26152
-46.45876
-51.38211
-55.12475
-56.65455
-55.04594
-49.84653
-41.33576
-30.54543
-18.97997
-8.128296
0.9723091
7.980244
13.1437
17.01152
20.09933
22.68729
24.79387
26.29355
27.04307
27.06368
26.578
25.97224
25.61141
25.68344
26.10244
26.56203
26.72639
26.46109
25.94334
25.55178
25.64035
26.26255
27.05053
27.38956
26.67452
24.64411
21.4872
17.79879
14.25528
11.31675
9.079109
7.244267
5.3507
2.992298
0.0001029968
-3.583801
-7.557751
-11.72452
-15.95448
-20.15748
-24.30674
-28.34762
-32.27105
-36.13546
-40.12235
-44.49951
-49.49036
-54.99011
-60.39428
-64.62862
-66.3112
-64.33237
-58.25237
-48.57782
-36.65718
-24.17147
-12.59978
-2.821426
4.959652
10.99546
15.68882
19.34558
22.13126
24.11666
25.37305
26.03422
26.29572
26.38114
26.49019
26.74057
27.14482
27.64528
28.14403
28.6079
29.0885
29.70149
30.55202
31.55874
32.47458
32.89885
32.47784
31.00222
28.52913
25.31546
21.75018
18.26994
15.19211
12.67868
10.64421
8.825344
6.812775
4.269441
1.041415
-2.789651
-6.96383
-11.18194
-15.23284
-19.07621
-22.76463
-26.39333
-30.07531
-33.95496
-38.2548
-43.20205
-48.85845
-54.85839
-60.28844
-63.8485
-64.23447
-60.6943
-53.32986
-43.11347
-31.54674
-20.15827
-10.02056
-1.624718
5.062802
10.39282
14.72998
18.35321
21.38285
23.84019
25.65175
26.7784
27.28611
27.39323
27.42132
27.6798
28.37126
29.48049
30.85382
32.28286
33.61043
34.73376
35.6082
36.17401
36.29945
35.87569
34.82111
33.18662
31.16374
29.03751
27.03152
25.31513
23.86123
22.52633
21.07466
19.29232
17.03159
14.27331
11.07329
7.498539
3.600903
-0.6438065
-5.235828
-10.11504
-15.0448
-19.73438
-23.90479
-27.45283
-30.53829
-33.5403
-36.95172
-41.17407
-46.36493
-52.31839
-58.37639
-63.52067
-66.58723
-66.55244
-62.87257
-55.70137
-45.88976
-34.72077
-23.56119
-13.41632
-4.790127
2.349667
8.283012
13.27544
17.39825
20.57013
22.67081
23.74793
24.12233
24.3189
24.8445
25.96418
27.59322
29.35962
30.88484
32.00174
32.85997
33.76923
34.98833
36.51408
38.03133
39.08097
39.28235
38.49558
36.91478
34.89415
32.82396
30.95601
29.3312
27.80062
26.11436
24.02798
21.37703
18.22796
14.84552
11.62741
8.919563
6.83271
5.14529
3.366997
0.926548
-2.519569
-6.921215
-11.88781
-16.86932
-21.4721
-25.62747
-29.6163
-33.80183
-38.55385
-44.03606
-50.1697
-56.65119
-62.88052
-67.94142
-70.69679
-70.07152
-65.38969
-56.78564
-45.20958
-32.18216
-19.2631
-7.61919
2.201096
10.15694
16.45257
21.3414
24.97654
27.47241
28.97349
29.6967
29.90152
29.86012
29.76147
29.7336
29.80762
29.93598
30.06791
30.13382
30.14201
30.1492
30.24974
30.46111
30.67046
30.62433
30.04837
28.74723
26.73736
24.228
21.53055
18.93416
16.57354
14.45501
12.4508
10.44852
8.379061
6.186304
3.821808
1.158823
-1.9594
-5.655439
-9.923641
-14.59542
-19.31359
-23.65227
-27.27923
-30.10122
-32.36116
-34.55383
-37.32619
-41.17542
-46.23631
-52.17595
-58.09077
-62.75532
-64.89461
-63.57248
-58.40643
-49.76878
-38.63533
-26.31939
-14.17906
-3.268564
5.785851
12.82925
18.02774
21.70849
24.16726
25.60452
26.15209
25.93987
25.1934
24.30306
23.75175
23.9086
24.90493
26.49754
28.19375
29.5051
30.15013
30.16531
29.83102
29.38431
28.86032
27.98647
26.41875
23.91588
20.56494
16.70717
12.76628
9.048296
5.605333
2.27129
-1.244473
-5.181606
-9.699051
-14.7264
-20.05057
-25.28975
-29.96817
-33.63316
-35.97935
-37.00666
-37.06782
-36.83351
-37.14124
-38.72917
-41.94199
-46.52352
-51.56292
-55.67162
-57.42943
-55.83807
-50.6698
-42.46579
-32.3049
-21.41001
-10.73382
-0.8486176
8.043964
15.93846
22.86191
28.756
33.48275
36.85161
38.74873
39.27143
38.73777
37.66781
36.57301
35.80434
35.40435
35.16566
34.81835
34.24554
33.55767
33.01548
32.76609
32.67249
32.3376
31.19971
28.83376
25.17955
20.54424
15.57444
10.93907
7.155228
4.353458
2.259125
0.2743416
-2.263264
-5.811214
-10.42869
-15.74532
-21.16624
-26.08292
-30.19939
-33.58685
-36.67601
-40.03011
-44.19191
-49.5123
-56.01524
-63.24664
-70.19361
-75.45783
-77.52395
-75.25369
-68.30936
-57.34505
-43.82099
-29.53805
-16.09798
-4.462433
5.082329
12.80808
19.1781
24.58658
29.16625
32.83662
35.44063
36.93005
37.47518
37.45956
37.34045
37.42835
37.78661
38.22281
38.48785
38.45572
38.19837
37.98347
38.01785
38.33755
38.68932
38.67612
37.89896
36.18237
33.58975
30.40791
27.01977
23.75286
20.80563
18.21596
15.82729
13.34799
10.44765
6.82402
2.326324
-2.958481
-8.747551
-14.60658
-20.11188
-24.98708
-29.18051
-32.89439
-36.51121
-40.56155
-45.51328
-51.63432
-58.67911
-65.77621
-71.45418
-74.00191
-72.07678
-65.24039
-54.25094
-40.80945
-26.96983
-14.40909
-3.952835
4.425003
11.24149
17.02788
22.00514
26.06136
29.02953
30.88838
31.94644
32.69124
33.60068
34.86975
36.39421
37.84778
38.90938
39.50291
39.83623
40.29234
41.18083
42.54646
44.06631
45.18857
45.39806
44.42122
42.41714
39.84363
37.2563
35.06137
33.37997
31.98502
30.48624
28.46178
25.67108
22.13998
18.17725
14.21368
10.61153
7.490158
4.635223
1.635696
-1.936569
-6.325562
-11.39205
-16.74297
-21.83827
-26.31069
-30.06021
-33.3129
-36.48867
-40.05634
-44.4864
-50.09968
-56.9698
-64.72615
-72.39078
-78.47543
-81.30579
-79.56673
-72.84529
-61.85463
-48.19067
-33.85737
-20.57376
-9.376907
-0.5035019
6.362686
11.75499
16.10108
19.60488
22.28497
24.10303
25.1338
25.62325
25.96189
26.56166
27.69022
29.37228
31.3997
33.44573
35.25447
36.75246
38.02961
39.21449
40.34538
41.2662
41.68949
41.3268
40.07275
38.0927
35.77585
33.563
31.75617
30.38931
29.21289
27.83646
25.92815
23.3663
20.3159
17.15919
14.31839
12.08062
10.46432
9.167976
7.732758
5.682121
2.727661
-1.141472
-5.691025
-10.53586
-15.34955
-19.88318
-24.0858
-27.96102
-31.60838
-35.15562
-38.85151
-43.0339
-48.06596
-54.07425
-60.61011
-66.57695
-70.33223
-70.29942
-65.59145
-56.47488
-44.30949
-31.06218
-18.54979
-7.883564
0.6422501
7.335377
12.58517
16.63832
19.51421
21.22067
21.94991
22.1003
22.09812
22.22733
22.5345
22.92293
23.28281
23.61326
24.0308
24.74253
25.89716
27.47939
29.29724
31.01057
32.21388
32.58191
32.00399
30.58813
28.67315
26.70253
25.01841
23.74379
22.76093
21.73549
20.33787
18.35696
15.75151
12.6742
9.354172
6.023331
2.84358
-0.1372223
-2.990618
-5.849461
-8.846458
-12.02382
-15.35504
-18.67743
-21.83498
-24.72539
-27.38612
-30.0182
-32.94403
-36.49999
-40.93642
-46.229
-51.94352
-57.19334
-60.73808
-61.30701
-58.04429
-50.83561
-40.47583
-28.4147
-16.31068
-5.476227
3.405941
10.30079
15.53751
19.45331
22.20105
23.78039
24.21601
23.72693
22.7699
21.82831
21.27138
21.20654
21.46316
21.79114
22.00967
22.10419
22.17764
22.32058
22.53446
22.68419
22.64726
22.34882
21.81357
21.10687
20.24577
19.15239
17.69942
15.8049
13.43684
10.71114
7.80019
4.903194
2.155418
-0.4293823
-2.919075
-5.456333
-8.198513
-11.23468
-14.53238
-17.93133
-21.2193
-24.23213
-26.93606
-29.4789
-32.15059
-35.275
-39.14606
-43.871
-49.23948
-54.68132
-59.1761
-61.51411
-60.58502
-55.80449
-47.42635
-36.53953
-24.70664
-13.4632
-3.873413
3.700878
9.495373
13.97266
17.50312
20.20225
21.98275
22.74094
22.60016
21.90679
21.16871
20.82994
21.09051
21.86308
22.8597
23.74459
24.32218
24.59345
24.70307
24.81558
24.98967
25.08459
24.86408
24.04843
22.50224
20.25643
17.50095
14.48761
11.44263
8.488773
5.660637
2.936226
0.2983284
-2.281712
-4.868111
-7.582905
-10.60819
-14.07271
-17.98169
-22.14308
-26.23266
-29.91074
-33.02874
-35.68769
-38.25561
-41.23989
-45.08974
-49.99406
-55.71265
-61.45846
-65.98346
-67.85947
-65.91386
-59.67767
-49.63112
-37.17051
-24.14218
-12.22548
-2.458157
4.955044
10.42619
14.61625
18.07691
21.03054
23.45213
25.19239
26.21402
26.63271
26.76945
27.00642
27.65654
28.84087
30.46296
32.26101
33.92826
35.2412
36.12111
36.58747
36.65126
36.26514
35.31435
33.70673
31.47398
28.79611
25.89169
22.96502
20.09579
17.27604
14.4542
11.61212
8.774292
5.971018
3.168819
0.2230873
-3.062134
-6.811696
-11.00716
-15.45194
-19.82209
-23.81392
-27.24933
-30.18502
-32.90652
-35.82741
-39.3699
-43.82865
-49.2228
-55.26424
-61.29636
-66.33495
-69.20231
-68.85069
-64.64842
-56.67266
-45.74945
-33.21995
-20.5865
-9.089622
0.5241327
8.093506
13.83651
18.2035
21.65572
24.5044
26.92368
28.92001
30.42169
31.40932
32.00797
32.47443
33.12494
34.12272
35.39561
36.68236
37.7048
38.37025
38.79927
39.19247
39.60907
39.82598
39.4607
38.17935
36.00928
33.35923
30.88624
29.11042
28.14109
27.58639
26.75689
25.01923
22.0878
18.21132
13.99903
10.13908
7.061272
4.741852
2.712711
0.325264
-2.919884
-7.161129
-12.09678
-17.16374
-21.83157
-25.82088
-29.12081
-32.00717
-34.86935
-38.1049
-42.09391
-47.11948
-53.21958
-59.99836
-66.48731
-71.22495
-72.64703
-69.62434
-61.94987
-50.55954
-37.22444
-23.99413
-12.50288
-3.556835
2.933979
7.653999
11.44442
14.87426
18.1241
21.02733
23.35796
24.99944
26.06956
26.87198
27.72111
28.83811
30.20737
31.63518
32.89025
33.83588
34.49552
35.07451
35.7766
36.67134
37.6341
38.32453
38.42291
37.74407
36.38977
34.71619
33.17377
32.11149
31.60024
31.38637
30.99968
29.9479
27.8999
24.8345
21.03836
16.99335
13.18141
9.941429
7.335052
5.156216
3.059654
0.6939812
-2.168964
-5.556007
-9.356529
-13.39896
-17.49896
-21.49711
-25.31725
-28.98705
-32.70512
-36.86668
-41.90263
-48.06959
-55.09446
-61.99831
-67.22232
-69.11958
-66.59592
-59.61626
-49.23705
-37.26093
-25.53312
-15.35442
-7.20303
-0.9200096
3.945259
7.776901
10.72549
12.81913
14.09507
14.72039
15.02632
15.38723
16.1022
17.30997
18.98562
20.96169
23.05644
25.1126
27.05833
28.88918
30.62901
32.22089
33.57383
34.52808
34.92663
34.71486
33.96695
32.86981
31.69203
30.63282
29.79823
29.14762
28.50075
27.64709
26.38717
24.63221
22.42449
19.91281
17.32309
14.85039
12.60251
10.51362
8.40556
6.048004
3.261065
-0.006820679
-3.66692
-7.515477
-11.36776
-15.10879
-18.75955
-22.43042
-26.34208
-30.71874
-35.73902
-41.396
-47.31557
-52.68161
-56.35808
-57.18921
-54.39033
-47.94944
-38.65979
-27.88861
-17.12896
-7.569416
0.175437
6.044795
10.32088
13.36115
15.43847
16.72333
17.35461
17.5063
17.39785
17.29734
17.4264
17.92471
18.79432
19.92665
21.13933
22.26063
23.20166
23.98668
24.72815
25.48661
26.21887
26.66242
26.51276
25.58281
23.9408
21.93353
20.04496
18.61013
17.60078
16.61205
15.0769
12.61324
9.224041
5.379955
1.731972
-1.153687
-3.059967
-4.17054
-4.904045
-5.713905
-6.938271
-8.717918
-11.02943
-13.71378
-16.54055
-19.26839
-21.7203
-23.8536
-25.82681
-27.97602
-30.71278
-34.32384
-38.69142
-43.25233
-46.99571
-48.7514
-47.59019
-43.17967
-35.91611
-26.81744
-17.20114
-8.208046
-0.5884857
5.472221
10.09212
13.54562
15.97739
17.38244
17.69992
16.93256
15.34814
13.44193
11.89175
11.2949
11.9707
13.77857
16.18156
18.46375
20.05887
20.76318
20.78452
20.53972
20.40396
20.47934
20.5762
20.35095
19.48555
17.8611
15.60764
12.98503
10.25078
7.583572
5.018356
2.465668
-0.2763214
-3.441757
-7.227722
-11.63687
-16.39899
-21.00217
-24.823
-27.43414
-28.75175
-29.12152
-29.1282
-29.39233
-30.35278
-32.19489
-34.91003
-38.3004
-41.93288
-45.05084
-46.63454
-45.59959
-41.26817
-33.72855
-23.93951
-13.45204
-3.855896
3.761978
9.088165
12.46413
14.53812
15.85805
16.68707
17.04962
16.93593
16.45418
15.90749
15.63939
15.90457
16.71057
17.83366
18.94002
19.76759
20.2485
20.47952
20.6113
20.66293
20.47348
19.70976
18.02829
15.29228
11.69366
7.73877
4.052078
1.166718
-0.6869354
-1.606598
-1.965652
-2.261078
-2.96698
-4.375916
-6.560867
-9.353317
-12.41071
-15.38959
-18.01991
-20.25362
-22.25406
-24.32071
-26.75905
-29.78978
-33.51065
-37.88466
-42.69917
-47.43004
-51.21992
-52.98485
-51.7027
-46.89296
-38.92038
-29.00162
-18.78827
-9.78685
-2.860413
1.929047
5.150726
7.572754
9.806137
12.0912
14.39037
16.4856
18.14525
19.2121
19.67093
19.64372
19.38161
19.17413
19.27338
19.81606
20.75294
21.88289
22.93013
23.65698
23.91225
23.66917
22.9707
21.91789
20.63795
19.23878
17.78903
16.29401
14.7332
13.07999
11.3654
9.665634
8.044769
6.564178
5.175934
3.774628
2.217743
0.3213806
-2.025421
-4.87207
-8.146225
-11.71521
-15.35239
-18.81311
-21.87654
-24.46918
-26.75732
-29.09087
-31.998
-35.90814
-40.9375
-46.63786
-52.00629
-55.65938
-56.28693
-53.12785
-46.27777
-36.74821
-26.09654
-15.89471
-7.258102
-0.6353378
4.164711
7.623291
10.2258
12.28719
13.89153
15.03439
15.71853
16.03222
16.14619
16.26797
16.58102
17.20223
18.16104
19.41866
20.87591
22.47637
24.18699
26.01684
27.90302
29.6671
30.99939
31.55527
31.15433
29.86259
28.0349
26.16164
24.65107
23.66467
23.0601
22.52563
21.73647
20.48946
18.79006
16.74974
14.52315
12.2168
9.806938
7.171448
4.13047
0.5937119
-3.339981
-7.366737
-11.05956
-14.1037
-16.43784
-18.31659
-20.24612
-22.77103
-26.29065
-30.95192
-36.60577
-42.79365
-48.72835
-53.3369
-55.42042
-54.019
-48.80877
-40.39174
-30.17812
-19.91864
-11.10194
-4.476418
0.02713013
3.050758
5.341682
7.400063
9.325554
10.97438
12.18597
12.96563
13.47876
13.98727
14.69778
15.69364
16.93281
18.28508
19.63563
20.95316
22.26202
23.61261
24.98941
26.29091
27.33448
27.9329
28.01881
27.69134
27.2012
26.76904
26.47852
26.17466
25.54226
24.2793
22.29493
19.81291
17.23606
14.93274
13.03115
11.35384
9.497627
7.068226
3.89748
0.1005402
-3.973957
-7.897377
-11.36429
-14.2774
-16.73217
-18.99856
-21.44353
-24.44639
-28.29116
-32.98854
-38.18302
-43.12987
-46.77634
-48.04649
-46.21328
-41.1888
-33.61863
-24.73665
-15.93158
-8.308071
-2.423111
1.771801
4.695557
6.840698
8.538036
9.92057
10.96851
11.68305
12.12711
12.43381
12.77026
13.29261
14.1332
15.39984
17.15672
19.36103
21.85162
24.40768
26.79059
28.82189
30.39017
31.3793
31.68154
31.21441
30.01371
28.32765
26.53193
24.99612
23.85316
22.95195
21.93545
20.46624
18.44141
16.04252
13.6358
11.55979
9.89138
8.423588
6.752705
4.475483
1.406219
-2.32925
-6.339024
-10.07531
-13.08423
-15.15813
-16.43727
-17.38481
-18.64592
-20.80049
-24.16722
-28.69984
-33.85535
-38.68092
-41.97551
-42.60449
-39.87002
-33.80598
-25.27539
-15.70119
-6.672081
0.6136627
5.615608
8.528587
9.998886
10.73518
11.21698
11.58505
11.73199
11.53521
11.02021
10.40224
10.01662
10.17901
11.06181
12.65623
14.76221
17.07421
19.25282
21.01664
22.1336
22.4642
21.9537
20.69435
18.9099
16.86087
14.79925
12.84016
10.95233
9.008484
6.90818
4.676041
2.515526
0.684227
-0.6376877
-1.469482
-2.050232
-2.773781
-4.038635
-6.072235
-8.861847
-12.2064
-15.75873
-19.1375
-21.94654
-23.84095
-24.61869
-24.31123
-23.28467
-22.15644
-21.56841
-21.82867
-22.6805
-23.32343
-22.75636
-20.2724
-15.82092
-10.09813
-4.194763
0.8517532
4.475693
6.692589
7.866577
8.391846
8.498566
8.218506
7.520416
6.471252
5.312729
4.381836
3.951553
4.146271
4.904633
6.045547
7.335922
8.58876
9.687637
10.60367
11.36646
11.97888
12.42212
12.61046
12.44699
11.82106
10.71063
9.179733
7.377518
5.466705
3.52301
1.498322
-0.7561035
-3.299622
-6.07724
-8.796768
-11.00548
-12.27512
-12.41379
-11.58315
-10.35535
-9.621017
-10.26222
-12.95679
-17.88402
-24.58714
-31.98715
-38.58228
-42.89772
-43.87849
-41.29767
-35.72723
-28.27843
-20.16928
-12.36913
-5.446167
0.4177399
5.205399
8.975998
11.77298
13.63263
14.63126
14.87616
14.51892
13.72308
12.70705
11.6566
10.7233
9.958771
9.308517
8.695145
8.117813
7.69458
7.602753
7.989822
8.783707
9.654007
10.17242
9.99707
9.047821
7.5186
5.732635
3.898743
2.029648
-0.07839966
-2.64679
-5.731491
-9.139221
-12.4713
-15.31096
-17.45819
-19.03619
-20.47046
-22.34215
-25.18413
-29.16376
-33.95198
-38.64995
-41.98842
-42.72017
-40.0753
-34.08199
-25.58647
-16.05243
-6.950218
0.6278839
6.274155
10.17052
12.84872
14.82069
16.4069
17.65343
18.47554
18.81861
18.7459
18.47643
18.30419
18.46184
18.97508
19.68115
20.28722
20.55669
20.47817
20.23265
20.08997
20.22868
20.54891
20.68536
20.16043
18.68657
16.29129
13.40846
10.59864
8.292244
6.556274
5.055801
3.236198
0.65271
-2.755295
-6.670204
-10.53452
-13.87147
-16.49588
-18.53523
-20.34436
-22.28992
-24.66505
-27.66473
-31.42217
-35.91582
-40.81513
-45.33994
-48.30036
-48.45105
-44.97441
-37.88968
-28.21151
-17.58847
-7.744316
0.117981
5.584244
9.009537
11.13828
12.73707
14.287
15.89413
17.43871
18.70628
19.60678
20.17181
20.56842
20.98675
21.55131
22.28749
23.10194
23.89767
24.58087
25.14267
25.5854
25.94759
26.20354
26.27773
26.06925
25.49016
24.54261
23.31164
21.98546
20.77332
19.82208
19.12401
18.54232
17.80705
16.67976
15.00708
12.81953
10.31403
7.719849
5.201267
2.748417
0.2176781
-2.590492
-5.759888
-9.214699
-12.71368
-15.97401
-18.82182
-21.30355
-23.69807
-26.47098
-30.10516
-34.9142
-40.82482
-47.17923
-52.79208
-56.18439
-56.06133
-51.80356
-43.8056
-33.36302
-22.31195
-12.36978
-4.67487
0.522049
3.684425
5.684528
7.352001
9.199589
11.36914
13.67
15.84375
17.65269
19.06577
20.1782
21.16957
22.15358
23.15387
24.13929
25.01121
25.78784
26.50082
27.23085
27.94442
28.49806
28.66753
28.254
27.23635
25.76217
24.16431
22.77913
21.8189
21.33113
21.21596
21.31114
21.45644
21.50397
21.31362
20.76382
19.79015
18.37404
16.64578
14.75996
12.84182
10.90718
8.89761
6.675041
4.151722
1.303032
-1.878059
-5.348228
-9.048637
-12.79519
-16.3223
-19.29565
-21.55238
-23.20823
-24.69291
-26.66787
-29.72482
-34.16906
-39.75563
-45.69705
-50.78945
-53.71552
-53.39283
-49.37315
-42.05194
-32.57812
-22.57332
-13.57694
-6.603554
-1.91272
0.874649
2.511265
3.718971
4.896133
6.158043
7.428452
8.621056
9.725471
10.85653
12.11163
13.54314
15.04053
16.39758
17.39235
17.92818
18.08384
18.13055
18.40305
19.11567
20.26595
21.65162
22.96768
23.93622
24.42936
24.44783
24.10168
23.53393
22.87506
22.20414
21.59436
21.04871
20.51493
19.86578
18.92358
17.60902
15.94801
14.08772
12.20371
10.42146
8.741692
7.07122
5.293999
3.319359
1.123306
-1.300003
-3.965897
-6.895004
-10.01709
-13.17329
-16.11005
-18.61396
-20.63199
-22.37417
-24.28099
-26.90196
-30.61682
-35.39939
-40.65766
-45.30003
-48.00479
-47.67303
-43.84458
-36.94149
-28.15583
-19.09187
-11.21761
-5.414063
-1.846848
-0.03806305
0.7579727
1.208755
1.705208
2.302917
2.902191
3.307137
3.508255
3.680618
4.157654
5.259735
7.151253
9.714363
12.56617
15.23296
17.31304
18.68507
19.48653
20.05246
20.67917
21.51276
22.47816
23.38753
24.0629
24.43
24.52563
24.41719
24.11442
23.56113
22.59966
21.11332
19.07828
16.63712
14.02788
11.53182
9.355576
7.563484
6.076248
4.713036
3.248161
1.500664
-0.585495
-2.950943
-5.430969
-7.801834
-9.930634
-11.79994
-13.59211
-15.65741
-18.41337
-22.15581
-26.86623
-32.02877
-36.70638
-39.71592
-40.01163
-37.06215
-31.00978
-22.68227
-13.32945
-4.259079
3.459152
9.152863
12.61966
14.02443
13.79535
12.50032
10.68022
8.732681
6.844559
5.050247
3.351837
1.837646
0.7791443
0.5118561
1.302658
3.191513
5.908249
9.003311
11.96165
14.36598
15.95128
16.59116
16.23065
14.91905
12.81494
10.23399
7.583649
5.274597
3.603912
2.615158
2.153793
1.955978
1.778976
1.460464
0.9708405
0.2866974
-0.6462708
-1.937012
-3.705994
-5.970596
-8.664322
-11.54118
-14.32872
-16.76927
-18.72198
-20.19244
-21.38524
-22.5952
-24.16631
-26.41571
-29.48776
-33.26312
-37.22438
-40.48557
-41.98299
-40.82257
-36.63547
-29.81696
-21.44847
-12.93277
-5.513855
0.1322021
3.987488
6.54335
8.394836
9.932251
11.20839
12.03799
12.23788
11.80753
11.01227
10.2881
10.05751
10.53773
11.61255
12.90784
13.93736
14.40257
14.3098
13.99019
13.88493
14.23528
14.89243
15.36392
15.0751
13.70238
11.38416
8.624924
6.044754
4.077927
2.737259
1.700912
0.4827118
-1.299957
-3.794235
-6.843277
-10.12749
-13.27203
-15.97221
-18.06841
-19.60547
-20.80646
-22.04947
-23.76613
-26.33414
-29.87892
-34.19757
-38.5932
-42.03912
-43.41232
-41.87645
-37.23389
-30.02963
-21.38835
-12.61313
-4.795776
1.491776
6.140411
9.41571
11.62303
12.99493
13.65202
13.68463
13.27017
12.69099
12.28593
12.27444
12.77
13.6559
14.73633
15.78716
16.6991
17.455
18.08882
18.56612
18.71487
18.31435
17.16797
15.28643
12.92609
10.50876
8.411888
6.831879
5.64003
4.490334
2.994713
0.8849182
-1.892242
-5.181252
-8.727417
-12.25366
-15.55321
-18.49977
-21.09133
-23.47339
-25.97514
-29.02969
-32.94215
-37.64235
-42.46911
-46.20822
-47.47752
-45.22467
-39.21144
-30.18314
-19.63905
-9.305962
-0.594223
5.783737
9.843224
12.0698
13.12892
13.58231
13.79081
13.95609
14.17386
14.48843
14.93066
15.52548
16.29588
17.24129
18.32905
19.48521
20.61805
21.64911
22.53497
23.26761
23.80691
24.04015
23.73602
22.65951
20.70075
17.96759
14.75336
11.44871
8.315218
5.44632
2.717638
-0.07759285
-3.108112
-6.441977
-10.01397
-13.68279
-17.26708
-20.59279
-23.55896
-26.25542
-28.96376
-32.09742
-36.00457
-40.67045
-45.53152
-49.49411
-51.24973
-49.71664
-44.54097
-36.1841
-25.81541
-14.8704
-4.623722
4.131147
11.17634
16.6867
21.03471
24.52194
27.28186
29.30601
30.56101
31.11669
31.19353
31.10718
31.10316
31.30509
31.65828
32.05565
32.40711
32.70853
33.01543
33.35342
33.64482
33.73797
33.48473
32.81484
31.73666
30.2734
28.40332
26.05507
23.1796
19.86344
16.36234
13.01656
10.10705
7.716408
5.666992
3.626572
1.255249
-1.636757
-5.00853
-8.643135
-12.30257
-15.8087
-19.15328
-22.43707
-25.78596
-29.29881
-33.04568
-37.10357
-41.59991
-46.62098
-52.01405
-57.20499
-61.1363
-62.49277
-60.19444
-53.85259
-44.04032
-32.15239
-19.87605
-8.616524
0.8552856
8.439606
14.47821
19.38304
23.42146
26.67549
29.12654
30.80598
31.83862
32.43137
32.81577
33.18887
33.68077
34.35959
35.20312
36.12959
37.04716
37.89993
38.65377
39.27047
39.6364
39.5549
38.816
37.30193
35.11351
32.59182
30.1424
28.07182
26.46819
25.12663
23.66725
21.72768
19.1266
15.95081
12.55445
9.371498
6.714569
4.597961
2.690529
0.4611588
-2.5933
-6.656136
-11.51338
-16.61143
-21.34629
-25.29018
-28.40012
-30.95775
-33.43613
-36.33115
-40.03065
-44.74253
-50.3539
-56.33407
-61.70434
-65.16021
-65.45683
-61.80457
-54.21062
-43.55008
-31.36001
-19.32081
-8.843193
-0.6682968
5.222328
9.359985
12.48704
15.20937
17.78354
20.15553
22.09863
23.4516
24.24952
24.77836
25.39936
26.37386
27.7322
29.26453
30.66346
31.71022
32.34854
32.70224
32.98932
33.34242
33.73028
33.93984
33.65543
32.66153
30.98077
28.88077
26.77861
25.01003
23.66265
22.53271
21.25494
19.51432
17.21712
14.56464
11.90118
9.535385
7.547432
5.777382
3.932251
1.752068
-0.896965
-4.002594
-7.462257
-11.15923
-14.94778
-18.69099
-22.29203
-25.74868
-29.21769
-32.99311
-37.41176
-42.63249
-48.44865
-54.18192
-58.79606
-61.11562
-60.20786
-55.67766
-47.80373
-37.53307
-26.1754
-15.07605
-5.277702
2.677483
8.758598
13.25338
16.56146
18.97327
20.62522
21.54801
21.80044
21.61711
21.40958
21.71572
22.97772
25.3444
28.53115
31.91968
34.78267
36.55375
37.01081
36.31322
34.82738
32.90237
30.73327
28.33049
25.62836
22.6625
19.60697
16.71156
14.13283
11.85458
9.672012
7.335381
4.729889
1.933548
-0.8249893
-3.293938
-5.348412
-7.062859
-8.650108
-10.3445
-12.29163
-14.46561
-16.68922
-18.70387
-20.24087
-21.09704
-21.17819
-20.54104
-19.35507
-17.8576
-16.28092
-14.79655
-13.5025
-12.42114
-11.51772
-10.75129
-10.06636
-9.416298
-8.776791
-8.11499
-7.422779
-6.723091
-6.044842
-5.431374
-4.909664
-4.483555
-4.122318
-3.791523
-3.451687
-3.084755
-2.701496
-2.322887
-1.985161
-1.707832
-1.499817
-1.3456
-1.222813
-1.105663
-0.9757538
-0.83675
-0.6945381
-0.5673065
-0.4645042
-0.3943062
-0.3488579
-0.3238716
-0.3035889
-0.2801018
-0.2517776
-0.2201729
-0.1893578
-0.1654243
-0.1512413
-0.1469345
-0.149929
-0.1570206
-0.1656189
-0.1712303
-0.1742668
-0.1749306
-0.1746597
-0.1738586
-0.1733894
-0.1728134
-0.1728783
-0.1701584
-0.1695862
-0.1689377
-0.1681328
-0.1681175
-0.1674118
-0.1673851
-0.1662521
-0.1671371
-0.1653252
-0.1654854
-0.1642838
-0.1630859
-0.1625023
-0.1618233
-0.1615181
-0.1616898
-0.1611481
-0.1611938
-0.1597977
-0.1588211
-0.1578407
-0.15765
-0.1568336
-0.1567841
-0.1561661
-0.1560364
-0.1551514
-0.1547279
-0.1543083
-0.1529198
-0.1528778
-0.1520348
-0.1513252
-0.151207
-0.1499138
-0.1506195
-0.1495705
-0.1493416
-0.1483727
-0.1477852
-0.1467934
-0.14645
-0.145916
-0.1448059
-0.1451759
-0.1444054
-0.1429749
-0.144001
-0.1439209
-0.1424446
-0.1417999
-0.1409225
-0.1403503
-0.1397133
-0.1388702
-0.1382637
-0.1384735
-0.1385269
-0.1376953
-0.1387634
-0.1364021
-0.1364479
-0.1356239
-0.1348305
-0.1339569
-0.134388
-0.1326027
-0.1325264
-0.1326942
-0.1324196
-0.132164
-0.1327133
-0.131813
-0.1305428
-0.1307869
-0.1291084
-0.128643
-0.1282768
-0.1275597
-0.1280403
-0.1278992
-0.1282005
-0.1269455
-0.1277962
-0.1266975
-0.1261139
-0.1255913
-0.1243687
-0.1227207
-0.1227531
-0.1226616
-0.1225414
-0.1228695
-0.1220341
-0.1223793
-0.1226139
-0.1210155
-0.1205235
-0.120594
-0.1183186
-0.1187153
-0.1164436
-0.1172104
-0.1166229
-0.1160755
-0.1166363
-0.1157207
-0.1166286
-0.1160126
-0.1155834
-0.1137905
-0.1140385
-0.11339
-0.1117611
-0.1116543
-0.1109467
-0.1113091
-0.1108246
-0.1106396
-0.1111774
-0.1112404
-0.1104546
-0.1105652
-0.1098957
-0.1093254
-0.1077824
-0.1073494
-0.1073151
-0.1057434
-0.1067562
-0.1051178
-0.1056385
-0.1052723
-0.1044197
-0.1032047
-0.1028137
-0.10289
-0.1021118
-0.1028271
-0.1026897
-0.1025047
-0.09744835
-0.08926582
-0.07467079
-0.05682564
-0.03687859
-0.01432991
0.005573273
0.02798271
0.05109978
0.07528305
0.104372
0.1387787
0.17799
0.2187386
0.2628536
0.305254
0.3489323
0.3940048
0.4465694
0.5107059
0.5889645
0.6802769
0.7784729
0.8741875
0.9559383
1.016899
1.059704
1.097694
1.149229
1.2314
1.353733
1.510904
1.686514
1.86165
2.024681
2.175386
2.333357
2.529751
2.790482
3.129663
3.537786
3.980598
4.415701
4.808681
5.154549
5.482212
5.852839
6.32494
6.938227
7.685598
8.507376
9.295199
9.953313
10.40519
10.67024
10.87355
11.19728
11.83224
12.84604
14.12084
15.32454
16.02997
15.84332
14.58371
12.35799
9.479462
6.355827
3.290499
0.3934016
-2.460387
-5.518424
-9.003407
-12.97295
-17.26624
-21.57626
-25.59171
-29.15565
-32.29917
-35.28994
-38.50325
-42.33026
-47.0638
-52.74333
-59.0264
-65.04781
-69.55026
-71.10509
-68.6195
-61.76319
-51.26221
-38.70241
-26.00911
-14.82105
-5.976439
0.5655737
5.479459
9.632575
13.66929
17.79379
21.81607
25.33816
27.9927
29.65253
30.47874
30.9031
31.38251
32.2247
33.45115
34.82311
36.02392
36.85442
37.30603
37.57481
37.89629
38.33105
38.76967
38.94505
38.60511
37.69009
36.31781
34.75966
33.26398
31.94041
30.6993
29.2995
27.45436
24.99017
21.92573
18.45178
14.90364
11.59551
8.718592
6.289141
4.157242
2.095284
-0.1522808
-2.751332
-5.789082
-9.256094
-13.03241
-16.96397
-20.83393
-24.43237
-27.65999
-30.59163
-33.5228
-36.93573
-41.33548
-46.97281
-53.65297
-60.55292
-66.35605
-69.57192
-69.06644
-64.4431
-56.2263
-45.68547
-34.38184
-23.65424
-14.28804
-6.497062
-0.07593155
5.27198
9.752863
13.37755
16.12103
18.01117
19.19942
19.95774
20.51963
21.05492
21.58101
22.07471
22.45329
22.75383
23.06579
23.56852
24.48377
26.08596
28.59989
32.16452
36.71291
41.85599
46.93979
51.11457
53.57635
53.82458
51.82796
48.02238
43.17308
38.11362
33.43405
29.36496
25.74623
22.2048
18.42261
14.32083
10.12159
6.236775
3.011324
0.5078087
-1.56476
-3.648767
-6.138683
-9.162886
-12.59861
-16.16115
-19.59077
-22.76985
-25.77574
-28.76456
-31.88475
-35.25581
-38.96598
-43.14482
-47.84547
-52.90167
-57.77576
-61.49846
-62.89549
-61.0402
-55.60403
-47.091
-36.7396
-26.04227
-16.28175
-8.168995
-1.774193
3.271637
7.416973
10.97582
14.00977
16.43039
18.13506
19.11189
19.52496
19.62753
19.74038
20.08445
20.7164
21.55264
22.41138
23.16721
23.77033
24.29898
24.88235
25.59687
26.371
27.00361
27.23369
26.88565
25.98341
24.68523
23.25225
21.9148
20.73132
19.63094
18.40789
16.83637
14.78538
12.30024
9.584869
6.906448
4.530998
2.566788
0.9603729
-0.4951096
-2.071243
-3.968254
-6.261681
-8.87072
-11.63558
-14.38956
-17.0749
-19.68731
-22.31987
-25.10405
-28.22219
-31.91177
-36.27724
-41.20136
-46.09567
-49.99101
-51.66294
-50.11655
-44.98711
-36.76494
-26.75954
-16.56749
-7.575409
-0.5258102
4.531944
8.037354
10.52231
12.31921
13.51755
14.08737
14.13866
13.96457
13.99593
14.59621
15.88461
17.66698
19.54904
21.1148
22.12636
22.56798
22.59492
22.4186
22.19193
21.92743
21.52527
20.8224
19.66101
17.96428
15.80453
13.32655
10.70386
8.05986
5.434921
2.812378
0.1609192
-2.458466
-4.959595
-7.272079
-9.367157
-11.35536
-13.38905
-15.61882
-18.06358
-20.62965
-23.10487
-25.30685
-27.19118
-28.88725
-30.73169
-33.12904
-36.38068
-40.43221
-44.7373
-48.24281
-49.70003
-48.13498
-43.20367
-35.453
-26.09944
-16.61913
-8.217896
-1.485504
3.610168
7.469574
10.52272
12.9938
14.80429
15.78256
15.86472
15.24677
14.3882
13.77713
13.80765
14.5092
15.66196
16.8714
17.81453
18.33751
18.51128
18.50574
18.43547
18.28542
17.84106
16.86028
15.18916
12.90309
10.27135
7.642883
5.253265
3.141739
1.098694
-1.215881
-4.079926
-7.531006
-11.33173
-15.04807
-18.26837
-20.81169
-22.77306
-24.54396
-26.64682
-29.54604
-33.47649
-38.27319
-43.29239
-47.53319
-49.84013
-49.27322
-45.42189
-38.58807
-29.71443
-20.1031
-10.9573
-3.043022
3.416702
8.599068
12.83835
16.36327
19.14195
21.02229
21.83815
21.62482
20.69069
19.51897
18.61414
18.33018
18.76286
19.76128
21.06277
22.41768
23.64838
24.69172
25.45834
25.81911
25.54681
24.43021
22.38287
19.53117
16.20319
12.8007
9.693092
7.053436
4.821831
2.744537
0.4465942
-2.361679
-5.801567
-9.711678
-13.72459
-17.3796
-20.33613
-22.52681
-24.26001
-26.09146
-28.65452
-32.39445
-37.32658
-42.97286
-48.38599
-52.35536
-53.71753
-51.68412
-46.10788
-37.60499
-27.37073
-16.83087
-7.234726
0.7022934
6.878033
11.63617
15.47248
18.73952
21.54874
23.81455
25.45264
26.51233
27.20781
27.85206
28.64445
29.63137
30.65209
31.45628
31.88161
31.95127
31.83451
31.75107
31.81712
31.94223
31.89599
31.39608
30.27259
28.53852
26.40756
24.14511
21.9889
20.03964
18.21698
16.36225
14.27251
11.87213
9.256386
6.65258
4.265991
2.169075
0.2414627
-1.862503
-4.455696
-7.694263
-11.42564
-15.27542
-18.78787
-21.65141
-23.80339
-25.44113
-26.98603
-28.93399
-31.78856
-35.91005
-41.33811
-47.61371
-53.71283
-58.2544
-59.88334
-57.78764
-51.99863
-43.35688
-33.15326
-22.63213
-12.65114
-3.641533
4.191601
10.66595
15.57436
18.85341
20.72274
21.69839
22.41712
23.31752
24.50371
25.75068
26.77283
27.41947
27.7959
28.1634
28.72468
29.50312
30.33556
31.00941
31.42365
31.66146
31.89628
32.26181
32.76254
33.23211
33.42991
33.16832
32.34753
31.0589
29.4685
27.78745
26.14556
24.59785
23.1198
21.60673
19.96407
18.09721
16.01292
13.77789
11.49232
9.22652
6.992704
4.723603
2.317688
-0.2924309
-3.151375
-6.236353
-9.510155
-12.92202
-16.43212
-19.99751
-23.58433
-27.17553
-30.80724
-34.61392
-38.82545
-43.65718
-49.1249
-54.85743
-59.98999
-63.35686
-63.82516
-60.71082
-54.13147
-44.97914
-34.6448
-24.56741
-15.77943
-8.714426
-3.326122
0.7357883
3.893545
6.463821
8.648556
10.58141
12.3084
13.819
15.10213
16.17293
17.12469
18.13686
19.34997
20.81328
22.43251
24.00947
25.35958
26.44449
27.37909
28.3336
29.40344
30.47549
31.29663
31.60384
31.25714
30.31535
29.01198
27.62321
26.33678
25.23699
24.29277
23.4092
22.46983
21.32985
19.86514
18.02137
15.87307
13.6304
11.60241
10.02122
8.921659
8.061661
7.018452
5.355322
2.848
-0.4683762
-4.353378
-8.498379
-12.66127
-16.71008
-20.65376
-24.55888
-28.52971
-32.71983
-37.29196
-42.34292
-47.72047
-52.87878
-56.88425
-58.60599
-57.14572
-52.23899
-44.42198
-34.89608
-25.09651
-16.18475
-8.781822
-2.988335
1.401848
4.6138
6.763386
7.944855
8.361717
8.392063
8.47942
8.953564
9.861515
11.00558
12.12349
13.0753
13.93049
14.91556
16.2266
17.90072
19.83003
21.79705
23.61817
25.16227
26.33038
27.05173
27.25186
26.96036
26.27043
25.43074
24.67992
24.14449
23.78662
23.38866
22.71229
21.5648
19.88856
17.74383
15.31384
12.84125
10.57203
8.684334
7.193596
5.903893
4.47197
2.544312
-0.08921051
-3.398216
-7.129295
-10.93167
-14.51054
-17.72512
-20.60393
-23.29536
-25.96581
-28.86126
-32.22484
-36.25561
-40.90815
-45.70434
-49.72854
-51.81516
-50.98973
-46.82079
-39.70005
-30.68143
-21.12583
-12.21649
-4.652336
1.39254
6.091988
9.684639
12.36437
14.18073
15.18725
15.49776
15.29597
14.83478
14.3381
13.96978
13.84132
14.0262
14.55885
15.48003
16.76654
18.29811
19.86518
21.22307
22.11993
22.38658
21.96581
20.90975
19.40108
17.69294
16.0434
14.68005
13.67175
12.86343
11.92716
10.4895
8.2836
5.346786
1.995544
-1.259338
-3.915314
-5.683624
-6.627457
-7.095726
-7.592949
-8.575684
-10.28158
-12.68235
-15.52823
-18.48178
-21.27987
-23.85616
-26.34111
-28.99935
-32.1433
-35.97084
-40.47427
-45.34627
-49.94088
-53.31642
-54.42561
-52.43974
-47.09119
-38.83939
-28.75188
-18.24367
-8.579933
-0.5961304
5.438736
9.692337
12.50817
14.19528
14.92542
14.84183
14.15425
13.26379
12.65945
12.83632
14.01745
16.06944
18.48932
20.54208
21.54677
21.08461
19.30054
16.91273
15.19412
15.60704
19.34281
26.788
37.23474
48.87569
59.31897
66.32392
68.47237
65.50844
58.1965
47.8718
35.90802
23.45179
11.36834
0.3294525
-9.089493
-16.47543
-21.73129
-25.18192
-27.46666
-29.35458
-31.44427
-33.99422
-36.87679
-39.72115
-42.11617
-43.83395
-45.02207
-46.15995
-47.93355
-50.83955
-54.84839
-59.19228
-62.48464
-63.19805
-60.22375
-53.42461
-43.64082
-32.43365
-21.44257
-11.84129
-4.09024
2.018219
6.966736
11.2131
14.88298
17.85737
19.91475
20.96436
21.14094
20.78254
20.34829
20.22691
20.60913
21.45071
22.5686
23.72009
24.74562
25.58895
26.24876
26.71482
26.90002
26.69205
25.99481
24.86978
23.46053
22.00607
20.63168
19.33517
17.96003
16.32848
14.35565
12.10365
9.747032
7.400169
5.097389
2.794449
0.4213181
-2.073021
-4.621399
-7.188377
-9.798515
-12.56602
-15.66547
-19.14101
-22.90115
-26.73199
-30.45358
-34.08713
-37.88945
-42.25347
-47.28812
-52.60916
-57.20654
-59.71067
-58.85839
-54.0602
-45.68298
-34.95966
-23.58293
-13.10397
-4.498749
1.98777
6.676292
10.14351
12.90018
15.22064
17.16031
18.64804
19.63496
20.21278
20.60077
21.08258
21.92698
23.22416
24.86692
26.60331
28.15864
29.37322
30.26182
30.96624
31.6367
32.28479
32.74792
32.78753
32.21397
31.01712
29.41778
27.74902
26.31715
25.3093
24.6938
24.20012
23.45497
22.06677
19.81336
16.76043
13.25149
9.803272
6.882946
4.726921
3.113003
1.543922
-0.5478401
-3.489807
-7.221539
-11.39071
-15.54552
-19.41003
-22.95299
-26.38386
-29.93525
-33.80539
-38.08554
-42.84713
-48.07038
-53.51242
-58.54985
-62.11987
-63.04113
-60.43155
-54.16948
-44.9959
-34.26809
-23.50744
-13.87468
-5.972061
0.1429691
4.720345
8.084162
10.56566
12.40963
13.87865
15.14095
16.29508
17.33091
18.23351
19.05315
19.90264
20.92349
22.16877
23.57186
24.97392
26.21832
27.25608
28.21444
29.27813
30.59644
32.13682
33.65006
34.80844
35.31835
35.06939
34.13248
32.73986
31.13304
29.45836
27.75764
25.93484
23.89185
21.6259
19.21941
16.8282
14.57992
12.50458
10.51821
8.457581
6.120798
3.394625
0.279242
-3.120773
-6.64476
-10.15037
-13.56029
-16.85944
-20.08696
-23.35124
-26.78306
-30.60097
-35.02323
-40.20306
-46.03984
-51.97536
-56.92829
-59.49793
-58.4449
-53.18204
-44.13602
-32.70932
-20.745
-9.911204
-1.189009
5.245632
9.716516
12.61903
14.1554
14.29266
13.09199
10.91713
8.509825
6.727664
6.174962
7.00566
8.876726
11.23585
13.59307
15.71447
17.67106
19.66605
21.8709
24.26557
26.63806
28.63155
29.93919
30.37249
29.99055
29.08417
28.04438
27.20732
26.66013
26.22082
25.50946
24.19437
22.11764
19.40791
16.37113
13.32006
10.43773
7.777447
5.309758
3.013499
0.880754
-1.149299
-3.233252
-5.603325
-8.441918
-11.75355
-15.34489
-18.91124
-22.21316
-25.18919
-27.99719
-30.89788
-34.17131
-38.04562
-42.56272
-47.50263
-52.2606
-55.86653
-57.18877
-55.26236
-49.74187
-41.06984
-30.4242
-19.30641
-9.016491
-0.336997
6.581958
11.98191
16.1635
19.27824
21.26773
22.00149
21.52503
20.18252
18.58608
17.42742
17.22284
18.07248
19.68003
21.5167
23.0969
24.15738
24.67151
24.76113
24.55479
24.09624
23.42016
22.5395
21.52141
20.45125
19.29538
17.90902
16.09921
13.74633
10.94792
7.977742
5.185549
2.794427
0.7794089
-1.091003
-3.165877
-5.772286
-9.067596
-13.01328
-17.36793
-21.74147
-25.73982
-29.09281
-31.76493
-34.03438
-36.40934
-39.45786
-43.58276
-48.74098
-54.35246
-59.34971
-62.43167
-62.42331
-58.70168
-51.41879
-41.4962
-30.33984
-19.36883
-9.627304
-1.542056
4.985278
10.29106
14.61627
18.00877
20.45878
22.109
23.40095
24.98174
27.34469
30.54375
34.08859
37.18135
39.13594
39.72735
39.27251
38.42657
37.7702
37.47684
37.26792
36.6283
35.06541
32.45215
29.05008
25.38968
22.05646
19.44431
17.64676
16.44655
15.43718
14.19781
12.42955
10.06692
7.239601
4.129734
0.8364296
-2.691841
-6.594585
-10.95586
-15.72305
-20.64906
-25.40821
-29.71164
-33.36592
-36.32743
-38.68001
-40.67085
-42.72481
-45.45541
-49.4462
-54.90577
-61.35751
-67.53722
-71.69965
-72.23024
-68.3045
-60.19254
-49.16283
-36.95143
-25.12954
-14.65007
-5.810143
1.56815
7.806786
13.13763
17.69678
21.49057
24.56302
26.93269
28.64165
29.74611
30.37339
30.72799
31.08521
31.71553
32.74117
34.11852
35.6128
36.93005
37.83385
38.23924
38.19315
37.79005
37.10047
36.14214
34.91437
33.48748
31.98425
30.57418
29.40872
28.50557
27.73664
26.83878
25.53885
23.65735
21.17048
18.22646
15.06965
11.93826
8.973793
6.098763
3.059898
-0.4989624
-4.896233
-10.21968
-16.2592
-22.50546
-28.32159
-33.21014
-36.99002
-39.89655
-42.47994
-45.47511
-49.53223
-54.99366
-61.70264
-68.91337
-75.3373
-79.40325
-79.66283
-75.29051
-66.43689
-54.25842
-40.56647
-27.21864
-15.56593
-6.127808
1.331528
7.412704
12.65967
17.3149
21.32809
24.52931
26.86427
28.48819
29.70892
30.8806
32.1938
33.70218
35.31612
36.91544
38.40479
39.73039
40.87042
41.77542
42.40704
42.68806
42.59996
42.11568
41.21184
39.83383
37.93788
35.54227
32.77145
29.92191
27.29343
25.10591
23.29192
21.46252
19.05359
15.62485
11.15697
6.178116
1.605148
-1.717361
-3.395111
-3.768585
-3.767075
-4.54953
-6.978455
-11.3544
-17.39072
-24.44054
-31.7084
-38.30887
-43.23474
-45.36363
-43.74733
-38.10867
-29.33092
-19.48227
-11.24968
-6.954956
-7.585724
-12.37294
-19.16745
-25.3728
-28.99799
-29.257
-26.54797
-21.92035
-16.46394
-10.93596
-5.724503
-1.032913
2.958115
6.040909
8.09198
9.224854
9.854935
10.59302
12.05089
14.64911
18.39915
22.93893
27.60716
31.72432
34.77429
36.60803
37.42824
37.70566
37.92917
38.36324
38.91325
39.20667
38.80406
37.46133
35.30344
32.84113
30.74391
29.52626
29.28525
29.65317
30.0128
29.76035
28.57956
26.51044
23.79926
20.68819
17.26616
13.51511
9.472137
5.386581
1.68576
-1.25238
-3.29248
-4.757721
-6.275848
-8.472061
-11.67426
-15.7617
-20.28371
-24.68065
-28.5831
-31.90596
-34.84729
-37.74649
-40.97733
-44.85138
-49.53922
-54.97289
-60.63609
-65.54591
-68.36813
-67.78183
-62.98033
-54.06015
-42.13162
-28.99194
-16.5444
-6.153763
1.677719
7.294968
11.52113
15.14775
18.62868
21.96233
24.94519
27.36894
29.21722
30.67247
31.96605
33.18277
34.24269
34.96727
35.22462
35.10012
34.84321
34.75241
34.95684
35.26599
35.24987
34.4599
32.67363
30.00562
26.81753
23.54784
20.41847
17.44685
14.52567
11.5961
8.782501
6.335114
4.50351
3.309319
2.530251
1.699989
0.3029251
-2.053055
-5.534607
-10.0286
-15.19977
-20.56626
-25.65345
-30.10255
-33.76389
-36.73505
-39.31603
-41.95982
-45.11942
-49.14294
-54.08412
-59.6016
-64.88325
-68.78586
-70.0618
-67.78454
-61.6847
-52.24174
-40.57641
-28.06234
-15.92075
-4.988266
4.359589
12.04852
18.14351
22.72138
25.8626
27.70984
28.49909
28.59859
28.38011
28.20744
28.29604
28.76234
29.55988
30.58677
31.73214
32.88281
34.01009
35.03851
35.84103
36.20831
35.94517
34.90472
33.16289
30.95172
28.58046
26.3206
24.27616
22.36838
20.39202
18.16972
15.60311
12.72165
9.680428
6.631729
3.662483
0.7504501
-2.292526
-5.655052
-9.546043
-14.00357
-18.88829
-23.87146
-28.5887
-32.71634
-36.0979
-38.84116
-41.25275
-43.85208
-47.18723
-51.66167
-57.26776
-63.46488
-69.08247
-72.61318
-72.62655
-68.30685
-59.761
-48.0449
-34.80069
-21.74078
-10.17258
-0.6863861
6.747635
12.54495
17.19275
21.02378
24.15239
26.58024
28.26753
29.2993
29.865
30.22616
30.60486
31.15727
31.9106
32.77235
33.64861
34.44433
35.16364
35.82466
36.40655
36.77567
36.70878
35.93029
34.30334
31.93185
29.15405
26.44803
24.2179
22.60288
21.39913
20.15453
18.40521
15.9114
12.75436
9.312973
6.042336
3.291634
1.106133
-0.7403641
-2.725677
-5.30323
-8.757706
-13.08193
-18.04971
-23.25259
-28.28535
-32.87566
-36.92953
-40.54891
-43.98502
-47.57278
-51.71252
-56.70536
-62.55554
-68.79665
-74.37356
-77.79517
-77.63654
-73.02288
-64.072
-51.90044
-38.27654
-25.01477
-13.40651
-4.00563
3.332687
9.093208
13.78919
17.76933
21.17074
24.03876
26.39132
28.26582
29.69978
30.74588
31.45589
31.94009
32.37038
32.92328
33.76077
34.93042
36.37841
37.94828
39.44312
40.67198
41.47304
41.71447
41.33077
40.32311
38.75964
36.81194
34.70552
32.66505
30.86449
29.32893
27.98101
26.64146
25.09537
23.18575
20.83343
18.0799
15.10384
12.13791
9.376732
6.891479
4.580238
2.214096
-0.4600525
-3.62912
-7.376801
-11.66988
-16.37756
-21.29714
-26.18526
-30.78234
-34.88631
-38.44215
-41.62257
-44.84554
-48.64477
-53.46988
-59.38889
-65.84787
-71.63521
-75.18562
-75.05369
-70.47308
-61.69316
-49.93172
-36.99348
-24.66122
-14.1738
-5.990646
0.08323669
4.622604
8.231834
11.35374
14.19865
16.78678
19.05377
20.94855
22.52087
23.88261
25.20236
26.57146
27.94477
29.17773
30.17588
31.01259
31.91879
33.21626
35.03187
37.18354
39.16274
40.39962
40.52856
39.55507
37.81073
35.76202
33.76571
31.97688
30.40695
28.98081
27.63531
26.31721
24.95046
23.41536
21.57909
19.39006
16.90961
14.28508
11.66655
9.110619
6.587036
3.987747
1.171257
-1.994469
-5.617203
-9.773659
-14.45273
-19.48854
-24.5711
-29.35806
-33.62602
-37.41372
-41.11325
-45.33338
-50.64734
-57.21968
-64.59291
-71.60965
-76.69102
-78.25961
-75.29848
-67.73268
-56.51448
-43.30265
-29.91614
-17.77562
-7.601742
0.5465279
7.001961
12.11821
16.10803
19.02979
20.89687
21.82845
22.06425
21.98785
21.98402
22.40259
23.45773
25.16689
27.35805
29.684
31.78754
33.42388
34.57007
35.34907
35.9535
36.43848
36.69429
36.49127
35.64779
34.20369
32.40901
30.65379
29.23216
28.21268
27.36737
26.33858
24.78544
22.57712
19.81436
16.74514
13.6377
10.64364
7.795578
4.991222
2.119694
-0.8942947
-4.068699
-7.397091
-10.87199
-14.5037
-18.25691
-22.06659
-25.79023
-29.30418
-32.52624
-35.59598
-38.83036
-42.6563
-47.36218
-52.79625
-58.21662
-62.31516
-63.63812
-61.09241
-54.47554
-44.55578
-32.8504
-21.07632
-10.54688
-1.910786
4.855213
10.11655
14.2025
17.25119
19.24908
20.21325
20.316
19.92523
19.46798
19.29906
19.58435
20.27236
21.22649
22.30961
23.44883
24.60541
25.76118
26.84336
27.70193
28.16467
28.0508
27.29759
25.91386
24.02975
21.79659
19.39466
16.98632
14.64639
12.42248
10.29968
8.258844
6.202873
3.992662
1.498056
-1.439747
-4.893444
-8.811295
-12.974
-17.10765
-20.91257
-24.20339
-26.99564
-29.51616
-32.13951
-35.30354
-39.37545
-44.44474
-50.22755
-55.9854
-60.5757
-62.73284
-61.4169
-56.20113
-47.44371
-36.24512
-24.07973
-12.41244
-2.268728
5.897234
12.14699
16.82724
20.29074
22.76606
24.31773
24.99238
24.91824
24.36896
23.70636
23.27941
23.28044
23.72372
24.41352
25.14346
25.75786
26.21342
26.52568
26.72847
26.76486
26.48134
25.7368
24.45323
22.68899
20.63537
18.5121
16.45778
14.46357
12.34846
9.803226
6.509312
2.260559
-2.921589
-8.762112
-14.79634
-20.4858
-25.41235
-29.42259
-32.69211
-35.65985
-38.92062
-43.02289
-48.24302
-54.41959
-60.79687
-66.15041
-69.00464
-68.09476
-62.80616
-53.46757
-41.27578
-27.85965
-14.78176
-3.073296
6.800724
14.84728
21.24351
26.16897
29.73208
32.0306
33.29464
33.79665
33.88738
33.84713
33.85122
33.9489
34.04045
33.9686
33.58128
32.8494
31.86263
30.82324
29.88938
29.08021
28.15683
26.7345
24.46484
21.20625
17.12207
12.64516
8.283287
4.422012
1.206635
-1.539589
-4.170975
-7.075249
-10.45953
-14.28562
-18.29108
-22.1545
-25.68666
-28.9632
-32.32449
-36.27101
-41.26088
-47.53126
-54.88348
-62.56583
-69.33429
-73.65925
-74.12465
-69.92393
-61.17149
-48.97379
-35.13261
-21.50072
-9.481865
0.3525391
8.19619
14.66719
20.33389
25.39864
29.6928
32.82529
34.60968
35.18281
35.08117
34.94756
35.23885
36.04317
37.12602
38.14449
38.88773
39.39308
39.81682
40.29826
40.84592
41.33519
41.70276
42.08534
42.7859
44.11916
46.17252
48.60542
50.73131
51.73657
50.96341
48.16544
43.50066
37.43617
30.50824
23.19302
15.84314
8.72496
2.089005
-3.836746
-8.915619
-13.25616
-17.17184
-21.12933
-25.52385
-30.43863
-35.58224
-40.40536
-44.41464
-47.43767
-49.84651
-52.42096
-56.09738
-61.46596
-68.39641
-75.91237
-82.34062
-85.81641
-84.8615
-78.93834
-68.59254
-55.35313
-41.13058
-27.62854
-15.86432
-6.093216
2.024155
8.997513
15.15971
20.59645
25.13472
28.63182
31.1151
32.81786
34.09889
35.28842
36.54561
37.8609
39.20116
40.52867
41.93138
43.51003
45.31703
47.2485
49.01721
50.24373
50.599
49.97133
48.44778
46.3047
43.88844
41.4644
39.2571
37.30878
35.60313
34.03627
32.49194
30.84026
29.03329
27.07501
25.04771
23.00623
20.9343
18.71272
16.19843
13.27022
9.936279
6.377716
2.830032
-0.4969025
-3.553894
-6.513733
-9.655624
-13.24072
-17.37358
-21.92745
-26.59789
-31.08167
-35.17326
-38.86307
-42.35156
-45.9575
-50.02972
-54.8733
-60.54247
-66.68748
-72.50467
-76.78345
-78.17602
-75.68266
-69.0181
-58.863
-46.69038
-34.27891
-23.11587
-13.98964
-6.899109
-1.293053
3.516937
8.007111
12.27264
16.09631
19.18642
21.40421
22.88231
24.00592
25.20724
26.80218
28.86961
31.24414
33.65118
35.89798
37.92389
39.81754
41.6993
43.61948
45.46148
46.97528
47.87681
47.95865
47.22598
45.86076
44.16497
42.41496
40.74557
39.07939
37.19646
34.91637
32.21295
29.30057
26.50349
24.08514
22.08092
20.24709
18.19568
15.58709
12.3308
8.647995
4.940147
1.635071
-1.031166
-3.121334
-4.982353
-7.098408
-9.87484
-13.46698
-17.74542
-22.29922
-26.63389
-30.35521
-33.38926
-35.99441
-38.72141
-42.15522
-46.69717
-52.25297
-58.17829
-63.29168
-66.22888
-65.83063
-61.60556
-53.87381
-43.67822
-32.43097
-21.4893
-11.83797
-3.917883
2.285599
7.035829
10.69448
13.51401
15.61235
17.0018
17.68809
17.78094
17.54737
17.38922
17.69674
18.69989
20.31804
22.24189
24.09311
25.6242
26.78036
27.65778
28.35057
28.80523
28.82407
28.14274
26.6153
24.31318
21.54406
18.6996
16.13976
14.05004
12.37027
10.87091
9.26984
7.361568
5.13892
2.758705
0.4587631
-1.573505
-3.363838
-5.205067
-7.521778
-10.69992
-14.85588
-19.68936
-24.56783
-28.77653
-31.80609
-33.64062
-34.69767
-35.69926
-37.36485
-40.12793
-43.9318
-48.22532
-52.12665
-54.56542
-54.62454
-51.72618
-45.87898
-37.7363
-28.42357
-19.19064
-10.9614
-4.059593
1.858871
7.424683
13.15704
19.09852
24.80267
29.51591
32.57146
33.66405
32.91818
30.84518
28.10027
25.27105
22.78549
20.9186
19.70635
19.05443
18.78353
18.7336
18.81367
18.97797
19.2233
19.44984
19.49353
19.15154
18.26535
16.80216
14.8438
12.53293
9.991318
7.290817
4.456818
1.519234
-1.417595
-4.171631
-6.555679
-8.481171
-10.00002
-11.35446
-12.83183
-14.70423
-17.1004
-19.92229
-22.88684
-25.67962
-28.09814
-30.17574
-32.27501
-34.91946
-38.62765
-43.64059
-49.64867
-55.71687
-60.39319
-62.14674
-59.92056
-53.57215
-44.00018
-32.83658
-21.86185
-12.3873
-4.912132
0.82061
5.457664
9.607811
13.53197
17.1244
20.06934
22.06126
23.00211
23.04805
22.55075
21.95562
21.59731
21.62172
21.97581
22.48188
22.97881
23.4565
23.99529
24.66956
25.43374
26.08276
26.32401
25.92735
24.90336
23.4698
21.97151
20.67021
19.61287
18.61296
17.39905
15.70982
13.46224
10.78547
7.962578
5.275803
2.929268
0.9454651
-0.8517685
-2.753769
-5.069397
-8.009666
-11.55469
-15.4763
-19.41301
-23.02567
-26.16655
-28.98218
-31.87727
-35.36143
-39.80443
-45.14037
-50.74238
-55.43095
-57.80637
-56.75021
-51.87068
-43.66658
-33.44803
-22.8054
-13.10357
-5.129005
0.9984283
5.567741
8.959488
11.45348
13.21394
14.36096
15.10263
15.68938
16.34587
17.15778
18.0965
19.06201
19.98051
20.87482
21.7892
22.82169
24.01649
25.34663
26.73089
28.02954
29.06992
29.67475
29.71106
29.14237
28.08426
26.75425
25.36108
24.06792
22.9026
21.75606
20.48088
18.98111
17.23135
15.30613
13.30631
11.23614
9.004341
6.426155
3.331749
-0.3204193
-4.385979
-8.556526
-12.50412
-15.96409
-18.92437
-21.55225
-24.14333
-26.98526
-30.28173
-34.13414
-38.56161
-43.40453
-48.25248
-52.34491
-54.64381
-54.15832
-50.34756
-43.41132
-34.30282
-24.42113
-15.08891
-7.12854
-0.762886
4.227623
8.156151
11.14775
13.1516
14.12802
14.23457
13.90076
13.72652
14.15928
15.34783
17.07938
18.91209
20.45954
21.58002
22.39201
23.20755
24.28658
25.66087
27.10937
28.24511
28.68791
28.28707
27.17937
25.71026
24.27044
23.09297
22.13223
21.14971
19.84529
18.06336
15.88766
13.65291
11.71012
10.34718
9.563293
9.075783
8.453384
7.282715
5.345474
2.660416
-0.5206375
-3.93483
-7.368774
-10.78812
-14.29322
-17.97192
-21.91431
-26.18716
-30.86899
-36.00713
-41.50596
-46.87872
-51.19218
-53.24619
-51.95645
-46.90974
-38.63194
-28.46309
-18.04714
-8.766373
-1.271904
4.464691
8.85894
12.35587
15.1418
17.20316
18.50488
19.10233
19.20254
19.01041
18.70945
18.35437
18.0126
17.76327
17.76253
18.14262
18.90548
19.89563
20.85669
21.5602
21.8571
21.72838
21.19601
20.3116
19.15845
17.81822
16.42935
15.14103
14.06219
13.17564
12.33376
11.29829
9.875122
8.010025
5.797455
3.436615
1.120529
-1.100525
-3.295685
-5.630905
-8.214996
-11.04153
-13.93903
-16.6627
-19.02237
-20.99739
-22.83699
-24.95024
-27.79945
-31.67032
-36.45818
-41.52786
-45.78015
-47.92429
-46.91122
-42.38902
-34.84708
-25.48412
-15.81442
-7.104889
-0.03536987
5.357956
9.4767
12.78267
15.5262
17.62514
18.85234
19.01225
18.21486
16.86212
15.55602
14.82521
14.90477
15.66823
16.67976
17.47461
17.78905
17.72632
17.58862
17.68239
18.08656
18.50385
18.44075
17.43155
15.33356
12.40601
9.219376
6.388641
4.255112
2.769943
1.509506
-0.05731201
-2.291
-5.222031
-8.558411
-11.89043
-14.85388
-17.3335
-19.39029
-21.24896
-23.10887
-25.17694
-27.67926
-30.84137
-34.80226
-39.33661
-43.75238
-46.87592
-47.45848
-44.61317
-38.26273
-29.26315
-19.06114
-9.186783
-0.6987915
6.003906
11.10179
14.99158
17.93806
19.9628
20.9062
20.71889
19.60722
18.06714
16.70293
15.97435
16.03459
16.68452
17.51828
18.15167
18.38986
18.25774
17.91928
17.54611
17.1787
16.73595
16.05659
14.98618
13.45264
11.48552
9.206421
6.780441
4.320419
1.853775
-0.730484
-3.602585
-6.89415
-10.58073
-14.46378
-18.19644
-21.47165
-24.17352
-26.5108
-28.93584
-32.04027
-36.22205
-41.44432
-47.11346
-52.10641
-55.03811
-54.73008
-50.61831
-43.03223
-33.12691
-22.46556
-12.45174
-3.954803
2.845398
8.272423
12.76695
16.59433
19.75298
22.02718
23.25444
23.46162
22.94862
22.14518
21.49657
21.22585
21.34094
21.63642
21.84566
21.83024
21.70415
21.78668
22.33657
23.37307
24.46693
24.89803
23.98991
21.45112
17.62691
13.33989
9.547012
6.834923
5.184677
3.940651
2.262955
-0.5113525
-4.505669
-9.322418
-14.30392
-18.85533
-22.74358
-26.06012
-29.08773
-32.09111
-35.20511
-38.52042
-42.10159
-45.98572
-49.96042
-53.4325
-55.33694
-54.55874
-50.34775
-42.76447
-32.7841
-21.94841
-11.76
-3.180916
3.561714
8.870853
13.3261
17.36422
21.08539
24.31435
26.80042
28.41197
29.26649
29.6522
29.94867
30.42068
31.13997
31.95878
32.66323
33.10119
33.31107
33.53846
34.04979
34.95751
36.06698
36.93055
36.99409
35.88532
33.58884
30.45276
27.06841
23.97536
21.49194
19.51142
17.63128
15.33883
12.26061
8.407066
4.147128
0.1060596
-3.095798
-5.070633
-5.762432
-5.393759
-4.346181
-2.982885
-1.584763
-0.350069
0.5307608
0.8214312
0.2819128
-1.351695
-4.286458
-8.686131
-14.63325
-22.05597
-30.63318
-39.68213
-48.10826
-54.5857
-57.88319
-57.24895
-52.72511
-45.14832
-35.8967
-26.47455
-18.03968
-11.14041
-5.726109
-1.353584
2.467987
6.041307
9.370268
12.24563
14.44662
15.89102
16.69657
17.17625
17.7071
18.59724
19.98963
21.83093
23.9463
26.13751
28.24458
30.18315
31.89412
33.32601
34.42666
35.11396
35.35311
35.14926
34.57934
33.76019
32.81216
31.81204
30.79519
29.76647
28.72366
27.6766
26.641
25.59155
24.43379
23.02756
21.23175
18.96811
16.29969
13.39977
10.48847
7.750853
5.162172
2.571533
-0.3174782
-3.72285
-7.680626
-11.98507
-16.26729
-20.17408
-23.49423
-26.27859
-28.76466
-31.3432
-34.45487
-38.45487
-43.48946
-49.36
-55.39759
-60.47966
-63.25528
-62.57271
-57.94913
-49.83681
-39.53397
-28.75577
-19.03679
-11.24524
-5.465037
-1.21951
2.175197
5.198122
8.023911
10.55521
12.59826
14.05982
15.00004
15.63754
16.2024
16.89153
17.77825
18.85507
20.08239
21.42777
22.90681
24.50919
26.19085
27.76723
29.02854
29.78127
29.98548
29.76582
29.35235
28.97807
28.71471
28.50566
28.14623
27.44246
26.28595
24.71591
22.84387
20.80381
18.67272
16.46201
14.19648
11.93236
9.765471
7.799873
6.022095
4.276743
2.288778
-0.2017422
-3.334728
-6.999435
-10.93191
-14.84134
-18.48456
-21.81211
-24.93982
-28.13954
-31.7588
-36.13765
-41.33887
-47.0323
-52.37061
-56.12975
-57.11392
-54.55572
-48.50464
-39.82316
-29.9204
-20.21585
-11.78244
-5.075706
-0.04871368
3.616692
6.321186
8.351204
9.893414
11.01002
11.76353
12.21465
12.48054
12.77826
13.34234
14.34317
15.82293
17.63923
19.51085
21.19857
22.5482
23.52774
24.14488
24.32464
23.89041
22.67234
20.7085
18.29217
15.9506
14.22566
13.41932
13.42588
13.80541
13.98292
13.53738
12.41763
10.86538
9.249092
7.844444
6.645309
5.404045
3.745384
1.424469
-1.538666
-4.902153
-8.284103
-11.39452
-14.09946
-16.50529
-18.8345
-21.38171
-24.39442
-28.01341
-32.21095
-36.67464
-40.74887
-43.50261
-44.00912
-41.62603
-36.31083
-28.71107
-19.96985
-11.3682
-3.914085
1.888779
6.028046
8.812843
10.67872
11.9444
12.83448
13.42017
13.72124
13.78071
13.70821
13.69982
13.96693
14.63666
15.65087
16.77366
17.68918
18.15427
18.11874
17.74373
17.23875
16.72433
16.13934
15.25431
13.84117
11.83167
9.386467
6.847488
4.570801
2.776085
1.426544
0.2650681
-1.060501
-2.827332
-5.113647
-7.766647
-10.51305
-13.11736
-15.45866
-17.60831
-19.76368
-22.16611
-25.05886
-28.56772
-32.68536
-37.13728
-41.32507
-44.3345
-45.1434
-42.97459
-37.65958
-29.81861
-20.70049
-11.80608
-4.30056
1.319214
5.248222
8.104294
10.50269
12.70784
14.53757
15.61333
15.62859
14.68457
13.28525
12.11166
11.72755
12.31371
13.59177
14.99913
16.00489
16.35525
16.10142
15.52716
14.89149
14.32909
13.78001
13.13466
12.2097
10.89111
9.021683
6.461288
3.149765
-0.7964172
-5.032722
-9.069412
-12.456
-15.00742
-16.90308
-18.66074
-20.86353
-23.99682
-28.25072
-33.50463
-39.30346
-44.86436
-49.19668
-51.23093
-50.17583
-45.73876
-38.3585
-29.11516
-19.4079
-10.52959
-3.274712
2.191849
6.249023
9.5075
12.48996
15.40659
18.08051
20.10047
21.07033
20.83595
19.62525
18.00619
16.64389
16.01759
16.25695
17.10543
18.12266
18.90108
19.21909
19.05399
18.51424
17.63545
16.35386
14.59216
12.33257
9.703529
6.936897
4.244064
1.717979
-0.7076988
-3.207104
-5.900211
-8.781712
-11.71618
-14.5661
-17.33965
-20.25123
-23.66659
-27.9268
-33.06315
-38.68453
-43.92132
-47.66901
-48.89726
-46.95282
-41.82257
-34.14533
-25.00412
-15.60121
-6.928528
0.457634
6.395159
11.05734
14.75009
17.72364
20.14845
22.08212
23.54455
24.54668
25.16967
25.55342
25.93322
26.54806
27.51486
28.78311
30.12399
31.26512
32.02924
32.42577
32.62717
32.84221
33.19198
33.57559
33.6966
33.21798
31.9029
29.73248
26.95426
23.95593
21.11016
18.63676
16.46924
14.33918
11.87913
8.823853
5.172361
1.168704
-2.815769
-6.511196
-9.862329
-13.0614
-16.41702
-20.17105
-24.44111
-29.19703
-34.36912
-39.82225
-45.28936
-50.20264
-53.66591
-54.61661
-52.26412
-46.52965
-38.18558
-28.67605
-19.59571
-12.09043
-6.575925
-2.714211
0.1924276
2.791668
5.387701
7.926813
10.18455
11.96998
13.29141
14.31766
15.28544
16.41415
17.79322
19.37859
21.04391
22.65436
24.13634
25.54142
26.98707
28.51248
30.06418
31.44842
32.42576
32.8355
32.65672
32.03065
31.18587
30.36204
29.68039
29.14268
28.66372
28.07429
27.14171
25.68206
23.6222
21.05982
18.29828
15.67521
13.3857
11.36968
9.278258
6.70538
3.385367
-0.5868578
-4.822796
-8.804968
-12.12943
-14.69411
-16.70216
-18.57965
-20.78041
-23.71352
-27.59473
-32.34963
-37.55956
-42.36983
-45.64666
-46.26069
-43.54707
-37.58359
-29.32222
-20.2426
-11.84859
-5.159741
-0.4490376
2.691443
4.992585
7.073334
9.220848
11.36666
13.22512
14.57109
15.35682
15.73485
15.97553
16.39824
17.19799
18.38146
19.80918
21.2049
22.34929
23.11852
23.53776
23.74082
23.83399
23.84029
23.6448
23.12004
22.18912
20.9407
19.59898
18.40258
17.47362
16.73742
15.94309
14.73271
12.83978
10.20947
7.112652
4.055496
1.58448
0.02934647
-0.7019005
-1.091606
-1.82151
-3.404747
-5.991829
-9.223816
-12.4482
-15.08298
-16.82623
-17.81371
-18.44811
-19.26291
-20.69111
-23.058
-26.44505
-30.67577
-35.20843
-39.12808
-41.3086
-40.72398
-36.91672
-30.19054
-21.63941
-12.75874
-4.949577
0.9221649
4.688606
6.73539
7.717888
8.228905
8.624809
9.055832
9.496445
9.919159
10.31677
10.74285
11.27205
11.99125
12.9193
13.98173
15.01268
15.76889
16.11185
16.00829
15.61335
15.13939
14.80288
14.64691
14.54921
14.25563
13.44576
11.96834
9.890869
7.522186
5.327194
3.739105
2.934891
2.750305
2.689545
2.128769
0.6107025
-1.960571
-5.304306
-8.867859
-12.14006
-14.83095
-16.91545
-18.57274
-20.06425
-21.59326
-23.33958
-25.46564
-28.09062
-31.2135
-34.52737
-37.33861
-38.66382
-37.58247
-33.58183
-26.90501
-18.53857
-9.915405
-2.403915
3.124725
6.531662
8.281891
9.094711
9.611755
10.1317
10.64558
10.967
10.93065
10.55779
10.06393
9.762192
9.916046
10.57755
11.50365
12.28638
12.51817
12.00998
10.92746
9.681107
8.67009
8.048965
7.624084
6.970032
5.742294
3.882172
1.719177
-0.2159729
-1.478409
-1.967575
-1.987045
-2.107086
-2.909973
-4.685806
-7.384018
-10.6149
-13.85924
-16.65125
-18.76941
-20.25403
-21.43307
-22.77539
-24.77153
-27.80383
-31.98737
-37.02956
-42.17999
-46.29874
-48.16736
-46.89194
-42.25092
-34.81769
-25.80559
-16.66989
-8.615509
-2.330078
2.149994
5.160019
7.141937
8.424606
9.162506
9.416046
9.275757
8.892822
8.473343
8.219177
8.273117
8.703934
9.456268
10.45461
11.60127
12.8084
14.02385
15.21194
16.33084
17.32976
18.11772
18.5437
18.4548
17.73824
16.44484
14.75562
12.98051
11.38731
10.15729
9.243988
8.444458
7.454071
5.985001
3.898056
1.221909
-1.845901
-5.029968
-8.036774
-10.69029
-12.96619
-14.99495
-17.07338
-19.54312
-22.70036
-26.66922
-31.26418
-35.87631
-39.56488
-41.26921
-40.16408
-36.08797
-29.62833
-21.95995
-14.44032
-8.074509
-3.221283
0.3756409
3.252014
5.855682
8.250275
10.21971
11.50549
12.0145
11.92943
11.63982
11.48167
11.64999
12.1652
12.88301
13.67406
14.42661
15.11594
15.79005
16.55447
17.48264
18.56831
19.72198
20.71697
21.30433
21.32581
20.77422
19.83346
18.76906
17.78016
16.93036
16.17797
15.36533
14.36104
13.01421
11.19593
8.851746
6.001099
2.7995
-0.4662704
-3.471054
-6.010635
-8.111572
-10.02724
-12.22631
-15.1731
-19.17902
-24.2132
-29.78954
-35.03062
-38.81217
-40.11041
-38.33611
-33.56971
-26.56578
-18.4607
-10.43668
-3.340317
2.408371
6.769249
9.908829
12.09064
13.54157
14.5062
15.14249
15.56877
15.82243
15.93048
16.00653
16.25719
16.9
18.01904
19.46257
20.85381
21.77314
21.97531
21.52634
20.75269
20.04695
19.60441
19.31784
18.91853
18.10622
16.80455
15.19975
13.6601
12.58628
12.16654
12.31253
12.66289
12.74983
12.14422
10.6247
8.250237
5.290283
2.130066
-0.8676453
-3.448898
-5.569702
-7.362
-9.12915
-11.22955
-14.03722
-17.76113
-22.33215
-27.25444
-31.59363
-34.21554
-34.12321
-30.8794
-24.79308
-16.86977
-8.469734
-0.8646774
5.13298
9.308197
11.93443
13.48407
14.37979
14.83354
14.86438
14.43713
13.57853
12.50161
11.53261
11.03949
11.23027
12.04379
13.1785
14.25293
14.95508
15.23403
15.18565
14.93075
14.45621
13.60162
12.15844
10.04339
7.409515
4.606125
2.037834
-0.009483337
-1.473267
-2.535599
-3.474945
-4.564606
-5.921539
-7.547668
-9.252739
-10.83314
-12.15761
-13.27332
-14.44513
-16.06956
-18.53884
-22.06957
-26.50726
-31.28365
-35.46622
-37.98114
-37.92044
-34.83237
-28.93442
-21.08098
-12.50211
-4.44577
2.18853
7.041862
10.26202
12.29453
13.59007
14.45576
14.97199
15.08871
14.78393
14.16171
13.47717
13.05019
13.13733
13.77728
14.76182
15.71732
16.26337
16.18298
15.48827
14.36747
13.06641
11.70753
10.24645
8.528442
6.456398
4.097374
1.661125
-0.6056595
-2.592712
-4.379913
-6.203262
-8.292053
-10.73734
-13.39597
-15.96777
-18.18761
-19.93564
-21.34689
-22.73694
-24.54012
-27.14484
-30.72047
-35.10416
-39.66052
-43.35446
-44.9578
-43.47433
-38.56167
-30.80199
-21.5821
-12.61918
-5.355247
-0.4426117
2.353249
3.860703
4.988853
6.24884
7.664078
8.877304
9.560478
9.616241
9.278809
8.922417
8.881927
9.29644
10.10426
11.19113
12.42744
13.74577
15.06854
16.28087
17.21239
17.68253
17.61575
17.03314
16.09562
15.02711
14.01716
13.14572
12.38456
11.60437
10.63445
9.322891
7.549561
5.288986
2.637939
-0.2747154
-3.213478
-5.957344
-8.360626
-10.3774
-12.18069
-14.11034
-16.54502
-19.76468
-23.78528
-28.24471
-32.41902
-35.34312
-36.07106
-34.0427
-29.2656
-22.41941
-14.65871
-7.211407
-0.9945068
3.604965
6.703712
8.735947
10.12664
11.13103
11.83038
12.20618
12.33084
12.38007
12.58627
13.13378
14.09855
15.382
16.81466
18.21396
19.41903
20.38999
21.20796
21.93992
22.64171
23.2346
23.55437
23.38209
22.56061
21.04987
19.0111
16.76586
14.69704
13.17666
12.38158
12.29036
12.62777
12.96145
12.80201
11.79958
9.839462
7.085733
3.95498
0.8423252
-1.928713
-4.294342
-6.373196
-8.4405
-10.84586
-13.91375
-17.82627
-22.47945
-27.39742
-31.66479
-34.12043
-33.71576
-29.94317
-23.15189
-14.49294
-5.585804
2.064441
7.528341
10.67115
12.01415
12.36318
12.43058
12.58334
12.85367
13.0489
13.03495
12.78648
12.48442
12.357
12.62461
13.2908
14.16206
14.97269
15.46004
15.64662
15.76072
16.16169
17.08622
18.42681
19.71286
20.30299
19.74123
18.00309
15.60353
13.30035
11.75968
11.19587
11.29984
11.41953
10.92513
9.470688
7.123699
4.238449
1.239063
-1.531506
-3.914787
-5.922783
-7.651207
-9.244141
-10.86246
-12.69988
-14.94868
-17.79404
-21.29803
-25.20971
-28.98796
-31.77895
-32.67295
-31.01791
-26.68294
-20.17322
-12.51269
-4.911221
1.627167
6.546799
9.8265
11.79449
12.86976
13.37767
13.47021
13.17434
12.504
11.55847
10.54963
9.747391
9.373985
9.508018
10.03344
10.72959
11.35663
11.77981
11.98498
12.03481
11.96445
11.71816
11.13974
10.0637
8.43544
6.340202
4.026253
1.779045
-0.1859436
-1.809601
-3.233856
-4.719643
-6.515503
-8.722061
-11.21262
-13.6453
-15.62226
-16.86711
-17.41949
-17.66003
-18.18733
-19.59467
-22.2158
-25.98091
-30.37341
-34.52387
-37.42251
-38.1412
-36.10461
-31.25531
-24.17764
-15.88865
-7.6241
-0.4894867
4.851776
8.297043
10.18676
11.05446
11.3932
11.42926
11.1657
10.53162
9.513191
8.326248
7.335777
6.916504
7.235947
8.169762
9.311317
10.22219
10.63772
10.58276
10.33125
10.18577
10.27467
10.46526
10.42413
9.809433
8.488899
6.600197
4.518234
2.656502
1.279388
0.366394
-0.3576508
-1.28405
-2.765091
-4.940506
-7.653191
-10.53979
-13.17429
-15.25923
-16.71915
-17.75413
-18.71321
-20.05811
-22.20608
-25.3969
-29.59379
-34.31958
-38.67706
-41.48843
-41.69974
-38.75313
-32.90037
-25.15276
-16.91051
-9.438889
-3.481644
0.8859177
3.990356
6.243187
7.892799
8.948723
9.346748
9.166618
8.666641
8.23661
8.215279
8.739265
9.668648
10.73802
11.65322
12.26534
12.61027
12.83562
13.15272
13.68063
14.41879
15.14835
15.59338
15.4754
14.71957
13.47655
12.08561
10.91099
10.13013
9.685593
9.258839
8.480469
7.045994
4.925945
2.292679
-0.5728111
-3.377563
-5.961941
-8.307522
-10.46496
-12.55735
-14.76111
-17.29896
-20.41751
-24.26871
-28.68154
-33.08516
-36.5213
-37.90499
-36.36835
-31.67677
-24.36814
-15.65544
-7.057236
0.1456833
5.245636
8.229527
9.638035
10.1803
10.42822
10.64359
10.83265
10.9069
10.85824
10.81099
10.96897
11.47926
12.33623
13.39871
14.48326
15.47006
16.3672
17.2727
18.29066
19.37655
20.32678
20.84266
20.63238
19.65323
18.10324
16.3982
14.98009
14.13217
13.80793
13.66661
13.25252
12.15217
10.22734
7.589423
4.570922
1.56007
-1.087337
-3.191584
-4.728375
-5.8629
-6.958489
-8.474234
-10.85647
-14.39252
-19.00159
-24.09883
-28.67217
-31.49977
-31.53286
-28.3797
-22.44723
-14.8834
-7.119922
-0.368587
4.793735
8.423864
10.96596
12.88989
14.39672
15.42594
15.83917
15.62291
14.98301
14.25775
13.773
13.70004
14.04321
14.68335
15.46367
16.24648
16.91383
17.39122
17.66768
17.75581
17.69276
17.45763
16.99812
16.29148
15.3926
14.43228
13.57296
12.90867
12.37222
11.73299
10.6956
9.012456
6.609689
3.658976
0.45505
-2.662285
-5.44982
-7.866727
-10.04844
-12.26383
-14.80382
-17.85773
-21.37241
-25.00646
-28.14617
-30.01896
-29.95181
-27.52372
-22.79782
-16.3128
-9.025606
-1.976409
4.016507
8.542451
11.6195
13.52652
14.56871
14.91731
14.58749
13.53767
11.87849
9.95425
8.272988
7.353713
7.468489
8.543648
10.12624
11.5792
12.3206
12.08125
11.02709
9.641703
8.467098
7.856445
7.786777
7.886171
7.674309
6.771029
5.086031
2.778921
0.122921
-2.662043
-5.463161
-8.270645
-11.04764
-13.66258
-16.00223
-18.04807
-20.00167
-22.23804
-25.06588
-28.46907
-31.90746
-34.40437
-34.86185
-32.51701
-27.32474
-20.02238
-11.87953
-4.262211
1.847237
6.082434
8.599821
9.870911
10.33744
10.23986
9.632576
8.550352
7.108257
5.576296
4.279127
3.433882
3.023932
2.818987
2.527819
1.953079
1.11285
0.1805363
-0.6320801
-1.289444
-1.954977
-2.979328
-4.716261
-7.269886
-10.44351
-13.75595
-16.65287
-18.75564
-19.99108
-20.6075
-21.0958
-21.99607
-23.73881
-26.51279
-30.14921
-34.12523
-37.56239
-39.4554
-38.93587
-35.59021
-29.65584
-21.96958
-13.74149
-6.110389
0.1508629
4.774053
7.92796
9.977725
11.26838
12.00407
12.27837
12.11509
11.60425
10.93678
10.33846
10.01163
10.0253
10.26417
10.52664
10.54941
10.16209
9.28331
7.975788
6.328682
4.419033
2.306564
-0.01194763
-2.486164
-5.025345
-7.490601
-9.787384
-11.90642
-14.03407
-16.46997
-19.51823
-23.30021
-27.55405
-31.60919
-34.44804
-35.05284
-32.77621
-27.59101
-20.20844
-11.80083
-3.641022
3.361221
8.842995
12.99427
16.27113
19.073
21.52272
23.46741
24.6387
24.85342
24.18428
22.95536
21.6144
20.5396
19.90011
19.63559
19.51039
19.25529
18.67345
17.67679
16.27094
14.49199
12.33852
9.788467
6.858963
3.634308
0.3506317
-2.705765
-5.262253
-7.225586
-8.77533
-10.36501
-12.61816
-16.04248
-20.81479
-26.46104
-31.90596
-35.66974
-36.38362
-33.29726
-26.59894
-17.40269
-7.296646
2.180099
10.06938
16.12959
20.67815
24.24673
27.24687
29.79404
31.77362
33.06557
33.68188
33.85904
33.95132
34.25816
34.89912
35.72589
36.41273
36.57619
35.99544
34.65765
32.81595
30.82973
28.93266
27.15408
25.29819
23.09407
20.33876
17.02533
13.30209
9.42247
5.59935
1.966156
-1.451859
-4.646057
-7.635529
-10.42393
-13.05147
-15.61929
-18.3093
-21.35017
-24.93854
-29.13185
-33.66479
-37.88419
-40.80629
-41.32091
-38.63303
-32.61259
-23.93211
-13.88748
-3.930771
4.824844
11.88603
17.37923
21.79247
25.58109
28.94467
31.84245
34.10963
35.63268
36.42589
36.60625
36.29204
35.65044
34.82829
33.98337
33.27713
32.79349
32.50774
32.25702
31.79121
30.90163
29.55508
27.86806
26.07747
24.41977
23.02458
21.84555
20.73987
19.51955
18.07242
16.40135
14.57556
12.66206
10.70834
8.688568
6.530914
4.171875
1.539261
-1.413513
-4.691223
-8.290863
-12.13301
-16.03113
-19.74826
-23.0686
-25.86919
-28.27577
-30.65172
-33.51239
-37.31696
-42.19807
-47.76234
-53.08675
-56.90077
-57.9902
-55.63866
-49.88527
-41.53296
-31.8461
-22.15625
-13.51141
-6.4646
-1.111801
2.813385
5.701019
7.957321
9.87236
11.60524
13.16475
14.47447
15.46472
16.15411
16.65198
17.09589
17.59215
18.16748
18.79807
19.48654
20.29224
21.29031
22.48711
23.77008
24.88684
25.58038
25.67705
25.18899
24.27283
23.14132
21.96728
20.81799
19.67618
18.47371
17.15106
15.68084
14.06676
12.358
10.57799
8.785019
6.96167
5.039131
2.871559
0.2637329
-2.907379
-6.608215
-10.5824
-14.43813
-17.78507
-20.45573
-22.61117
-24.73617
-27.4447
-31.18031
-35.99847
-41.40082
-46.40595
-49.82227
-50.64291
-48.3306
-43.03477
-35.55746
-27.06784
-18.81682
-11.7604
-6.380371
-2.634041
-0.1276703
1.657234
3.185112
4.656986
6.083652
7.314972
8.226341
8.851078
9.392872
10.14381
11.33646
13.01013
15.00197
17.04757
18.89423
20.41508
21.61347
22.50587
23.07153
23.26764
23.04218
22.43119
21.55802
20.6034
19.70339
18.87766
18.0225
16.97972
15.6688
14.09566
12.4076
10.7517
9.248089
7.827682
6.286013
4.319605
1.719664
-1.48415
-5.005903
-8.351282
-11.05855
-12.85408
-13.82878
-14.34711
-14.9914
-16.34392
-18.80629
-22.40931
-26.6712
-30.73289
-33.49972
-34.01731
-31.7772
-26.93159
-20.22908
-12.76142
-5.5912
0.5507164
5.332216
8.765131
11.08099
12.57045
13.48525
14.02483
14.30266
14.35313
14.17593
13.82484
13.43465
13.20429
13.32701
13.84009
14.63628
15.50622
16.26249
16.82557
17.24858
17.56826
17.70226
17.38462
16.30969
14.28486
11.43587
8.211994
5.200253
2.882992
1.423267
0.6106529
-0.02952194
-0.9558716
-2.427879
-4.473763
-6.905197
-9.465073
-11.9324
-14.18938
-16.17273
-17.8817
-19.3913
-20.87555
-22.63948
-25.00013
-28.11466
-31.76785
-35.30168
-37.73611
-38.05842
-35.65141
-30.50615
-23.31229
-15.1879
-7.307632
-0.5369492
4.752007
8.620476
11.35625
13.246
14.4047
14.81482
14.38951
13.20788
11.53864
9.848946
8.637497
8.241135
8.722145
9.872391
11.31406
12.65894
13.63458
14.12547
14.12952
13.69223
12.7937
11.37914
9.379868
6.814468
3.82019
0.6601715
-2.361008
-4.979523
-7.078613
-8.79335
-10.38786
-12.18362
-14.34477
-16.82903
-19.407
-21.88777
-24.27548
-26.81284
-29.82683
-33.31898
-36.78523
-39.22119
-39.49692
-36.84546
-31.29462
-23.6713
-15.27527
-7.360352
-0.7326355
4.386093
8.137573
10.77179
12.42923
13.12657
12.88397
11.83463
10.26677
8.590469
7.212494
6.413498
6.327789
6.885925
7.838684
8.85849
9.589264
9.796494
9.425949
8.627106
7.637863
6.67363
5.799377
4.858429
3.585129
1.750671
-0.6932831
-3.55394
-6.482147
-9.131897
-11.33063
-13.13065
-14.82005
-16.77098
-19.28842
-22.5448
-26.54874
-31.09235
-35.718
-39.71358
-42.19936
-42.35074
-39.61916
-34.04005
-26.23254
-17.25342
-8.289413
-0.295166
6.191803
11.05042
14.43022
16.57492
17.68077
17.87096
17.25424
16.01482
14.41884
12.83118
11.56851
10.8205
10.5733
10.61421
10.65552
10.48471
10.05956
9.541153
9.131485
8.970398
8.998062
8.979721
8.593521
7.613968
5.980026
3.791595
1.268814
-1.355164
-3.926453
-6.361496
-8.631348
-10.7775
-12.8822
-15.07379
-17.54436
-20.46391
-23.89523
-27.70879
-31.45097
-34.39307
-35.68665
-34.57452
-30.70769
-24.33048
-16.24696
-7.612999
0.4284897
7.040382
11.89562
15.08638
16.93828
17.76802
17.79146
17.13058
15.89114
14.2979
12.7048
11.51466
11.08158
11.55418
12.78984
14.43654
16.03912
17.17059
17.61734
17.39948
16.68391
15.73253
14.74023
13.75652
12.70241
11.39846
9.687309
7.534393
5.047859
2.424408
-0.108757
-2.409012
-4.440048
-6.314713
-8.248703
-10.5177
-13.3509
-16.8997
-21.14553
-25.78525
-30.21745
-33.56492
-34.84808
-33.28535
-28.60906
-21.24572
-12.29161
-3.227356
4.566231
10.19736
13.50605
15.04233
15.66708
16.14666
16.83624
17.59696
17.99357
17.64231
16.48632
14.85221
13.3758
12.62189
12.87328
14.01537
15.63015
17.20455
18.36514
18.97942
19.0957
18.84543
18.28791
17.41838
16.19757
14.65594
12.90087
11.06648
9.194763
7.175415
4.798882
1.903053
-1.473274
-5.032043
-8.351498
-11.07316
-13.11027
-14.72248
-16.43094
-18.71
-21.74006
-25.2178
-28.38557
-30.2752
-30.02504
-27.16225
-21.84022
-14.75647
-6.919708
0.5735588
6.849091
11.42364
14.2505
15.57853
15.82475
15.37095
14.4962
13.38062
12.18493
11.11055
10.39186
10.2665
10.7884
11.83364
13.07792
14.20023
15.0264
15.59052
16.09536
16.72005
17.47615
18.12386
18.34041
17.86684
16.70815
15.09297
13.3545
11.82215
10.58687
9.531834
8.362679
6.820492
4.748142
2.186512
-0.6701431
-3.564968
-6.275585
-8.694317
-10.79342
-12.69399
-14.57363
-16.73649
-19.49568
-23.02281
-27.14253
-31.16282
-34.00064
-34.48178
-31.85213
-26.13991
-18.21478
-9.502529
-1.4394
4.998741
9.493469
12.26946
13.81539
14.5641
14.74613
14.40046
13.49776
12.09351
10.4292
8.909286
7.973141
7.942387
8.838051
10.37474
12.1043
13.63255
14.80354
15.71255
16.55968
17.43679
18.18729
18.45716
17.93376
16.52597
14.47933
12.2682
10.31504
8.809639
7.653214
6.513115
5.079071
3.207253
1.009193
-1.24221
-3.224365
-4.786758
-5.977859
-7.042564
-8.315887
-10.11504
-12.66842
-16.07412
-20.25603
-24.84492
-29.18403
-32.35053
-33.3912
-31.65799
-27.07616
-20.17866
-12.02355
-3.780853
3.569313
9.458778
13.7337
16.50699
17.94845
18.20971
17.44335
15.85302
13.77147
11.61678
9.811501
8.690765
8.403412
8.871742
9.863197
11.0913
12.28171
13.17329
13.58804
13.4093
12.62043
11.32141
9.692757
7.952461
6.291962
4.77243
3.297142
1.688828
-0.2231903
-2.495193
-5.035431
-7.633064
-10.07667
-12.24856
-14.1845
-16.05167
-18.08819
-20.5117
-23.47153
-26.87082
-30.38522
-33.3867
-35.10332
-34.79056
-32.01471
-26.85139
-19.91212
-12.21719
-4.807434
1.502289
6.323891
9.649658
11.60268
12.26352
11.56238
9.412292
5.916489
1.609398
-2.622925
-5.826103
-7.333878
-7.093887
-5.627045
-3.783554
-2.258331
-1.310852
-0.6341858
0.4117737
2.410912
5.619675
9.722916
13.99181
17.45418
19.26627
18.92912
16.43233
12.19833
6.890106
1.137421
-4.673141
-10.37899
-15.92064
-21.20734
-25.99181
-29.96148
-32.86391
-34.55688
-34.98356
-34.07063
-31.70187
-27.75774
-22.39166
-16.13288
-9.840454
-4.428024
-0.4805145
2.029266
3.698441
5.406097
7.902344
11.44269
15.73985
20.10113
23.75502
26.1246
27.00338
26.5239
24.98667
22.74199
20.03285
17.04375
13.95401
10.99586
8.42234
6.431862
5.051247
4.098923
3.197563
1.922554
-0.0753479
-2.908249
-6.423775
-10.23507
-13.81495
-16.6731
-18.50675
-19.34935
-19.56078
-19.78224
-20.72449
-22.93241
-26.57226
-31.2478
-36.00674
-39.52987
-40.57397
-38.37666
-33.00064
-25.25844
-16.45268
-7.877434
-0.4255371
5.548828
10.14816
13.64131
16.24968
18.04459
19.02522
19.23175
18.78189
17.91912
16.89127
15.90428
15.11147
14.55113
14.15799
13.78923
13.23892
12.31763
10.92587
9.122093
7.086258
5.110142
3.439648
2.158394
1.107491
-0.03282166
-1.607742
-3.80513
-6.514946
-9.419407
-12.12971
-14.38738
-16.2
-17.77374
-19.40866
-21.34624
-23.72969
-26.63298
-30.15404
-34.30057
-38.92415
-43.50549
-47.11728
-48.65155
-47.16097
-42.24947
-34.23282
-24.11448
-13.22341
-2.857012
6.035051
13.01757
18.08123
21.50726
23.62124
24.70752
24.90911
24.31418
23.06424
21.47102
20.03492
19.28381
19.57417
20.91876
22.96945
25.1769
27.08557
28.49523
29.46438
30.18322
30.76945
31.15506
31.12626
30.48393
29.17054
27.34584
25.3068
23.29712
21.42173
19.63052
17.82317
15.90439
13.88391
11.83679
9.844852
7.907452
5.8661
3.472176
0.4959946
-3.148548
-7.350246
-11.76831
-15.98536
-19.66671
-22.69252
-25.21429
-27.60703
-30.38084
-33.98384
-38.61463
-44.02213
-49.45076
-53.71062
-55.4735
-53.70203
-48.1045
-39.29302
-28.6396
-17.79725
-8.123238
-0.355484
5.474358
9.809998
13.23627
16.16191
18.79921
21.19106
23.29369
25.06825
26.46252
27.42598
27.93645
28.05209
27.92417
27.82767
28.0377
28.71058
29.81609
31.14729
32.40755
33.3064
33.67202
33.42163
32.5723
31.25845
29.64601
28.03622
26.72375
25.91239
25.61239
25.55531
25.29442
24.32471
22.39796
19.62634
16.48447
13.54834
11.25536
9.673164
8.47345
7.071106
4.902573
1.652771
-2.61216
-7.458626
-12.31187
-16.64694
-20.17206
-22.9262
-25.2642
-27.69928
-30.7945
-35.01701
-40.50765
-46.9632
-53.55907
-59.00668
-61.90393
-61.18395
-56.50149
-48.42764
-38.22435
-27.37937
-17.11592
-8.141068
-0.6201706
5.530182
10.40681
14.00752
16.29328
17.37366
17.58234
17.39815
17.29423
17.57628
18.27723
19.27764
20.38702
21.46469
22.49402
23.51803
24.57928
25.69233
26.79591
27.76931
28.4808
28.84232
28.8261
28.51385
28.05043
27.58143
27.18676
26.80726
26.21995
25.1335
23.30202
20.69927
17.57091
14.38156
11.62393
9.584755
8.181992
7.001213
5.501404
3.267708
0.1886673
-3.508881
-7.429321
-11.16231
-14.48726
-17.40602
-20.0901
-22.7646
-25.68216
-29.06705
-33.08978
-37.83217
-43.08184
-48.24969
-52.38609
-54.33876
-53.13832
-48.3995
-40.55205
-30.68428
-20.2286
-10.42257
-1.990463
4.94268
10.633
15.37449
19.27525
22.16354
23.833
24.19495
23.45013
22.08248
20.7079
19.85617
19.79369
20.49077
21.6802
23.01692
24.22466
25.20914
26.0029
26.6961
27.27006
27.56557
27.34933
26.45314
24.87865
22.83261
20.66781
18.69041
17.06707
15.75072
14.57257
13.36168
12.02521
10.55453
8.95256
7.213234
5.248619
2.942131
0.2442322
-2.7696
-5.876984
-8.821037
-11.38476
-13.54301
-15.48211
-17.59732
-20.37353
-24.27672
-29.51781
-35.894
-42.65226
-48.51399
-52.00271
-51.83295
-47.41144
-39.09966
-28.20057
-16.50566
-5.829025
2.547798
8.104477
11.03346
11.98158
11.7249
10.93761
10.08547
9.443474
9.201164
9.45631
10.27228
11.57081
13.15386
14.67886
15.82366
16.40211
16.47977
16.32224
16.18781
16.17465
16.1037
15.62154
14.39811
12.37606
9.835938
7.257442
5.07711
3.451656
2.233547
1.033241
-0.5300674
-2.669491
-5.373581
-8.431019
-11.64308
-14.83463
-17.90426
-20.77478
-23.40609
-25.80577
-28.12594
-30.66769
-33.77927
-37.7135
-42.26462
-46.70059
-49.79956
-50.22585
-47.0411
-40.13161
-30.32238
-19.09785
-8.103745
1.430687
8.906136
14.37558
18.2078
20.76034
22.20424
22.52633
21.74825
20.06636
17.96673
16.07098
14.97298
15.06038
16.31881
18.38588
20.63974
22.41678
23.25712
23.04488
21.98231
20.45432
18.83442
17.2365
15.5645
13.54916
10.89927
7.504349
3.481617
-0.8707466
-5.164043
-9.113052
-12.59342
-15.66716
-18.53839
-21.47432
-24.76492
-28.65851
-33.32999
-38.79079
-44.74626
-50.50578
-55.00802
-57.04514
-55.65704
-50.49199
-41.99853
-31.31297
-19.88954
-9.009544
0.5188751
8.436089
14.8524
19.92963
23.73219
26.10661
26.91227
26.18066
24.26343
21.80932
19.58166
18.18916
17.87405
18.46017
19.46468
20.35355
20.72436
20.46965
19.68156
18.54874
17.1783
15.52111
13.44827
10.80136
7.543121
3.766617
-0.3582535
-4.618538
-8.845634
-12.90538
-16.74918
-20.34843
-23.77149
-27.15501
-30.76745
-34.9475
-39.99104
-45.91565
-52.28963
-58.15666
-62.16187
-63.00548
-59.83478
-52.5865
-42.09006
-29.7549
-17.12811
-5.447464
4.575089
12.77008
19.23393
24.16708
27.7187
29.97705
31.048
31.12059
30.4814
29.50671
28.56477
27.95294
27.81573
28.12991
28.70226
29.31972
29.80751
30.04164
30.00316
29.63657
28.82623
27.42285
25.30522
22.48903
19.16478
15.59496
11.94981
8.246231
4.300888
-0.07762146
-4.943207
-10.12285
-15.25165
-19.9984
-24.2083
-27.99239
-31.67542
-35.69221
-40.43687
-46.09384
-52.54852
-59.20203
-64.96957
-68.43872
-68.22675
-63.48135
-54.29214
-41.75127
-27.59297
-13.66705
-1.316956
8.85849
16.93817
23.36615
28.53372
32.62341
35.58096
37.31381
37.86151
37.56259
36.95148
36.63315
37.03491
38.24216
40.06311
42.1012
43.9931
45.48044
46.48456
46.94559
46.80301
45.96555
44.3728
42.13037
39.49091
36.80704
34.33893
32.1619
30.1394
28.03391
25.62073
22.79272
19.59985
16.19394
12.73489
9.332092
5.982025
2.60498
-0.931366
-4.743286
-8.908203
-13.39807
-18.11835
-22.93939
-27.72964
-32.4426
-37.11014
-41.88043
-47.00159
-52.73895
-59.2113
-66.20441
-73.02847
-78.50919
-81.2569
-80.01813
-74.13895
-63.86505
-50.32181
-35.22757
-20.38803
-7.208801
3.580139
11.94223
18.33606
23.4068
27.69513
31.47244
34.77847
37.51111
39.59753
41.07919
42.08246
42.71481
42.99902
42.91403
42.47879
41.87802
41.4389
41.5036
42.21677
43.41641
44.63727
45.39349
45.3801
44.60031
43.32355
41.86118
40.38089
38.86707
37.15823
35.0751
32.5394
29.53555
26.08157
22.24277
18.15298
14.02359
10.16467
6.84903
4.118317
1.708008
-0.8945923
-4.26651
-8.727509
-14.22037
-20.29538
-26.29492
-31.70551
-36.34909
-40.50543
-44.75784
-49.74976
-55.81949
-62.75891
-69.71561
-75.3038
-77.98383
-76.51462
-70.39093
-60.05563
-46.74716
-32.13937
-17.8476
-5.050995
5.655121
14.1337
20.54446
25.14618
28.20648
30.02634
30.92346
31.21417
31.17856
31.02606
30.89963
30.90405
31.12952
31.68204
32.63205
33.96753
35.61624
37.38086
39.03067
40.3031
40.95197
40.83444
39.92923
38.38358
36.44952
34.42038
32.51981
30.78384
29.07852
27.1575
24.79703
21.91812
18.60889
15.10327
11.70105
8.620056
5.959137
3.649048
1.444366
-0.9542847
-3.844086
-7.375458
-11.5097
-16.02078
-20.55423
-24.75525
-28.42603
-31.62003
-34.71616
-38.33066
-43.12161
-49.40967
-56.83878
-64.27997
-69.94827
-72.01624
-69.23706
-61.48755
-49.8201
-36.06177
-22.12549
-9.403473
1.413727
10.26929
17.32352
22.70505
26.42575
28.47934
29.01761
28.42337
27.21271
25.87518
24.80487
24.16376
24.00299
24.26457
24.882
25.77988
26.87318
28.10373
29.37254
30.61739
31.73792
32.63113
33.19475
33.30844
32.94421
32.13161
30.98291
29.62898
28.12666
26.37094
24.1575
21.24719
17.46584
12.87856
7.720428
2.362915
-2.840591
-7.627823
-11.87556
-15.5421
-18.60973
-21.10426
-23.08473
-24.71523
-26.1933
-27.75153
-29.60605
-32.01207
-35.29958
-39.74399
-45.3904
-51.68967
-57.40472
-60.82149
-60.29437
-54.9565
-45.14873
-32.37837
-18.72394
-6.093384
4.364548
12.39455
18.31812
22.59367
25.45148
26.85152
26.67419
25.01358
22.3365
19.42082
17.15637
16.21106
16.80243
18.60669
20.97365
23.14006
24.62518
25.34102
25.51118
25.46423
25.33716
24.97151
24.03482
22.22858
19.51608
16.14832
12.58801
9.262413
6.432892
4.079987
1.959312
-0.2834473
-3.015083
-6.488876
-10.69499
-15.34255
-19.92363
-23.87227
-26.79497
-28.67641
-29.87461
-30.98607
-32.66297
-35.36483
-39.22363
-43.9789
-48.95972
-53.18623
-55.52667
-54.96423
-50.95403
-43.66988
-33.96844
-23.1777
-12.62739
-3.265465
4.525131
10.78893
15.7719
19.58208
22.14385
23.24504
22.78776
20.99152
18.43353
15.96468
14.34244
13.9682
14.7163
16.0381
17.26155
17.87211
17.69734
16.89549
15.76844
14.53714
13.22069
11.72229
9.887306
7.593872
4.773499
1.384987
-2.57515
-7.017467
-11.68702
-16.21476
-20.20334
-23.35966
-25.67417
-27.4538
-29.2452
-31.71058
-35.38224
-40.45152
-46.6278
-52.98559
-58.18025
-60.69971
-59.36326
-53.6892
-44.11562
-31.88234
-18.62156
-5.933933
5.021965
13.68683
20.05784
24.43998
27.2247
28.71125
29.08405
28.49341
27.11514
25.24826
23.31174
21.74368
20.88143
20.82178
21.39606
22.22689
22.88445
23.03919
22.55493
21.50761
20.10596
18.55244
16.87381
14.964
12.5974
9.601906
5.960876
1.826424
-2.503899
-6.796104
-10.91178
-14.88371
-18.81216
-22.79118
-26.82967
-30.86865
-34.89656
-39.0389
-43.56706
-48.67859
-54.23026
-59.54882
-63.43404
-64.48801
-61.6086
-54.50238
-43.84995
-31.10932
-18.01555
-5.973862
4.248055
12.55556
19.23783
24.65358
28.95239
32.12051
34.0801
34.8832
34.76875
34.12872
33.34011
32.6696
32.22235
31.98168
31.85001
31.77303
31.7286
31.77368
32.00658
32.51
33.31795
34.3366
35.30434
35.7968
35.29935
33.39233
29.90547
25.07629
19.47775
13.88002
8.977882
5.189972
2.528473
0.727684
-0.6625443
-2.066742
-3.755707
-5.848831
-8.314369
-11.05411
-13.97629
-17.01736
-20.15487
-23.40237
-26.81152
-30.43436
-34.35955
-38.7147
-43.6832
-49.29984
-55.287
-60.81433
-64.55691
-65.02505
-61.16286
-52.80534
-40.88709
-27.17036
-13.5822
-1.636887
7.972565
15.27754
20.70177
24.64519
27.32599
28.77238
29.03667
28.38358
27.27394
26.25636
25.78648
26.09079
27.08232
28.5036
29.98184
31.25165
32.1857
32.80389
33.22696
33.59576
33.95903
34.27766
34.43318
34.25462
33.63918
32.6145
31.32964
30.03349
29.01497
28.43913
28.24994
28.20953
27.888
26.86818
24.88579
21.95435
18.35248
14.55046
10.99258
7.921829
5.323692
2.892815
0.2365799
-2.987129
-6.916397
-11.42711
-16.22749
-20.97188
-25.38242
-29.38985
-33.08899
-36.76239
-40.79577
-45.57899
-51.32698
-57.89355
-64.59718
-70.24074
-73.33243
-72.6033
-67.437
-58.15662
-45.97523
-32.58324
-19.63816
-8.323364
0.7936096
7.712593
12.70532
16.17719
18.46067
19.83662
20.52551
20.74663
20.72641
20.68148
20.85296
21.43469
22.56724
24.27129
26.44569
28.8969
31.36952
33.62117
35.456
36.74586
37.39339
37.38649
36.72476
35.45954
33.69593
31.6086
29.45656
27.52876
26.08301
25.20866
24.75098
24.31766
23.44371
21.76316
19.22508
16.12086
12.90835
10.01986
7.587456
5.405983
3.068306
0.1937408
-3.385857
-7.566582
-11.95788
-16.12611
-19.71675
-22.58209
-24.83227
-26.82285
-29.05269
-32.05272
-36.2872
-41.8841
-48.53827
-55.35096
-60.91063
-63.62572
-62.20356
-56.12886
-45.93871
-33.10523
-19.55328
-7.078373
3.155689
10.81227
16.19188
19.87601
22.37719
23.96956
24.70527
24.57732
23.68363
22.34496
21.05393
20.28029
20.32374
21.11479
22.28877
23.36875
24.02409
24.22206
24.22536
24.37804
24.81385
25.34689
25.57178
25.13173
23.93816
22.25719
20.5275
19.08559
18.0067
17.09951
16.04946
14.61708
12.76098
10.56789
8.202698
5.766373
3.278583
0.7015209
-2.035563
-4.957232
-8.065695
-11.28617
-14.48995
-17.52923
-20.24534
-22.57355
-24.60669
-26.58326
-28.87268
-31.87203
-35.81841
-40.69047
-46.01962
-50.87568
-54.03767
-54.3174
-51.0226
-44.24117
-34.89561
-24.40252
-14.23046
-5.361614
1.87965
7.654026
12.30132
16.00601
18.69105
20.18238
20.4236
19.64686
18.37725
17.21332
16.59406
16.67585
17.33751
18.30195
19.29639
20.13982
20.75904
21.16438
21.41029
21.49517
21.37952
20.94778
20.04044
18.51932
16.34556
13.61018
10.55039
7.501991
4.748451
2.473846
0.6065292
-1.141624
-3.128708
-5.654846
-8.783684
-12.29322
-15.79724
-18.98012
-21.71141
-24.16685
-26.71999
-29.7533
-33.51696
-38.03855
-43.16367
-48.54209
-53.66348
-57.74265
-59.77567
-58.75333
-54.03507
-45.70027
-34.65103
-22.36167
-10.41719
-0.04252625
8.185242
14.24946
18.44642
21.10131
22.44334
22.63622
21.90957
20.59485
19.09921
17.83034
17.03747
16.7793
16.94391
17.39989
18.02171
18.77368
19.6478
20.59747
21.4874
22.08038
22.07642
21.22693
19.41434
16.71078
13.35492
9.697426
6.048714
2.663071
-0.4183655
-3.31144
-6.246941
-9.431564
-12.91483
-16.56905
-20.08582
-23.20712
-25.78966
-28.01252
-30.28496
-33.2261
-37.39818
-43.05134
-49.87438
-56.83455
-62.40446
-64.89704
-63.18408
-57.07468
-47.49169
-36.11768
-24.73392
-14.63979
-6.319298
0.4347687
6.147743
11.22073
15.78272
19.68761
22.73055
24.82968
26.07687
26.69477
26.92478
26.9827
26.9483
26.83722
26.60398
26.1953
25.59583
24.87605
24.17396
23.6185
23.28165
23.06188
22.71516
21.93301
20.46662
18.25061
15.46951
12.47188
9.633034
7.188744
5.078239
2.993042
0.4770737
-2.859726
-7.147728
-12.20229
-17.54696
-22.62116
-26.9489
-30.34213
-32.93632
-35.1774
-37.70403
-41.11805
-45.84062
-51.8081
-58.32875
-64.07516
-67.4043
-66.82547
-61.59507
-52.05281
-39.54522
-26.04355
-13.38427
-2.757437
5.538849
11.90312
17.02476
21.44384
25.40152
28.81022
31.48673
33.3189
34.38699
34.96467
35.38201
35.94254
36.79033
37.89186
39.09847
40.22685
41.16072
41.86806
42.38336
42.71219
42.75898
42.37148
41.34622
39.62889
37.32203
34.70819
32.11793
29.81366
27.87372
26.17269
24.46326
22.43507
19.8601
16.71261
13.15314
9.541643
6.306368
3.762576
1.943007
0.5339298
-1.051859
-3.421632
-6.954793
-11.61531
-16.94011
-22.25859
-26.97986
-30.85636
-34.0976
-37.30062
-41.25946
-46.71797
-54.06061
-63.03418
-72.64628
-81.22965
-86.80521
-87.64301
-82.841
-72.72397
-58.75266
-43.10293
-27.93659
-14.77854
-4.246136
3.890049
10.26588
15.53269
20.03851
23.84808
26.87601
29.06844
30.57532
31.69614
32.75676
33.95851
35.31209
36.65996
37.82303
38.70816
39.36149
39.95355
40.62687
41.38034
42.04811
42.3761
42.14655
41.2818
39.82923
37.96075
35.90503
33.87175
32.04755
30.55434
29.37536
28.36464
27.28988
25.9227
24.16278
22.09027
19.83813
17.55585
15.34009
13.15674
10.90167
8.451279
5.648773
2.388073
-1.411304
-5.770924
-10.59926
-15.64617
-20.61786
-25.18989
-29.17494
-32.58789
-35.6204
-38.62545
-42.05928
-46.33422
-51.64347
-57.76175
-63.88437
-68.74826
-70.8987
-69.2157
-63.3006
-53.75574
-41.95024
-29.63813
-18.38003
-9.096645
-1.996258
3.302208
7.418732
10.88893
13.96902
16.68845
18.90786
20.53688
21.64803
22.48742
23.37119
24.54721
26.04499
27.72372
29.34512
30.72748
31.82038
32.72168
33.56497
34.42897
35.27481
35.96176
36.35417
36.3791
36.03343
35.37953
34.4999
33.42531
32.20348
30.89957
29.61304
28.41204
27.28326
26.07797
24.56492
22.56047
20.01385
17.08208
14.05801
11.22422
8.705479
6.40369
4.004471
1.110262
-2.513571
-6.893375
-11.73872
-16.61263
-21.03999
-24.71794
-27.58186
-29.83721
-31.96969
-34.56075
-38.21381
-43.19729
-49.32245
-55.75778
-61.1003
-63.77722
-62.55192
-57.03516
-47.83698
-36.45671
-24.61283
-13.77254
-4.704617
2.501693
8.16659
12.65212
16.1234
18.61786
20.09102
20.66947
20.61908
20.32564
20.16012
20.37032
21.04953
22.14403
23.54992
25.11307
26.68869
28.11747
29.23203
29.85312
29.85103
29.18584
27.9272
26.26823
24.4662
22.81151
21.49182
20.53638
19.78035
18.89295
17.52147
15.41072
12.52905
9.121252
5.602865
2.458519
-0.002466202
-1.737282
-2.986076
-4.162117
-5.65797
-7.697418
-10.26327
-13.17171
-16.18311
-19.16257
-22.10242
-25.10535
-28.29314
-31.75766
-35.51476
-39.48081
-43.4558
-47.10331
-49.83386
-50.92749
-49.66226
-45.59503
-38.78099
-29.89024
-19.98859
-10.27348
-1.69487
5.276577
10.56442
14.4033
17.0581
18.69489
19.3995
19.23228
18.40283
17.28397
16.37075
16.07339
16.57185
17.68313
18.96035
19.87955
20.09756
19.61868
18.77641
18.09344
17.97919
18.51186
19.37248
19.95785
19.65842
18.09901
15.32195
11.73319
7.944748
4.512787
1.750526
-0.3482742
-2.045967
-3.667061
-5.478096
-7.584648
-9.945923
-12.46889
-15.06997
-17.73988
-20.5481
-23.59695
-27.00823
-30.91961
-35.42593
-40.42203
-45.49371
-49.82484
-52.35737
-52.09557
-48.52424
-41.84215
-32.96976
-23.18578
-13.67479
-5.225639
1.876228
7.655724
12.24997
15.70715
18.0501
19.32365
19.67761
19.37409
18.72556
18.00455
17.42847
17.14449
17.16869
17.44543
17.85271
18.28776
18.70334
19.11366
19.47675
19.66379
19.40833
18.44105
16.65372
14.22426
11.59243
9.212883
7.274086
5.589081
3.657761
0.9704132
-2.687912
-7.112587
-11.76446
-16.04113
-19.56752
-22.35835
-24.7936
-27.40811
-30.74296
-35.12911
-40.55694
-46.62489
-52.48097
-56.92342
-58.67374
-56.73473
-50.77764
-41.3458
-29.74467
-17.66732
-6.650803
2.331177
9.028786
13.77867
17.17525
19.75823
21.76394
23.12881
23.63492
23.17225
21.86932
20.1343
18.50994
17.47862
17.30064
17.92891
19.08065
20.40331
21.60131
22.51221
23.08015
23.24219
22.89859
21.88158
20.08858
17.59387
14.61234
11.45965
8.310898
5.096123
1.505219
-2.837086
-8.074642
-13.93037
-19.67441
-24.48134
-27.79934
-29.66378
-30.76295
-32.17608
-34.91032
-39.45651
-45.52901
-52.04381
-57.43587
-60.12206
-58.99215
-53.75755
-45.03259
-34.06058
-22.30082
-11.0217
-1.014942
7.376171
14.17364
19.52434
23.61286
26.61416
28.72638
30.18514
31.17961
31.85063
32.27477
32.46427
32.47742
32.38949
32.31838
32.3233
32.37497
32.38505
32.25117
31.92787
31.41893
30.7574
29.95642
28.96032
27.65835
25.97314
23.90628
21.54237
19.03215
16.45863
13.84005
11.16239
8.440569
5.757568
3.289554
1.090929
-0.9244862
-3.074537
-5.773846
-9.277973
-13.54948
-18.22504
-22.77126
-26.76107
-30.06379
-32.89658
-35.71469
-39.0685
-43.40653
-48.95412
-55.52259
-62.39075
-68.29058
-71.68585
-71.18513
-66.08955
-56.74963
-44.51672
-31.30608
-18.95555
-8.63525
-0.6572342
5.38448
10.20805
14.37351
18.02387
20.90174
22.60888
22.94885
22.13147
20.77607
19.6814
19.50708
20.5487
22.85602
26.37334
31.22887
37.70325
45.97094
55.69439
65.804
74.6146
80.36725
81.88432
78.94334
72.33463
63.48323
53.89801
44.73898
36.68083
29.99694
24.74761
21.00657
18.81377
18.15951
18.87675
20.53239
22.46134
23.85039
23.95642
22.32224
18.92766
14.19499
8.874985
3.735561
-0.7577858
-4.606186
-8.218098
-12.1159
-16.63959
-21.70674
-26.884
-31.66766
-35.78046
-39.37481
-42.96958
-47.24422
-52.68726
-59.36538
-66.78642
-73.98764
-79.71693
-82.70351
-81.95554
-77.0478
-68.30566
-56.77856
-43.971
-31.44461
-20.42526
-11.50945
-4.667885
0.553194
4.77894
8.503166
12.0077
15.34845
18.42424
21.08227
23.19728
24.71756
25.70453
26.34543
26.86879
27.50492
28.38313
29.50774
30.80262
32.14814
33.45309
34.65857
35.72157
36.57466
37.10831
37.25378
37.00782
36.49803
35.85659
35.13159
34.2144
32.94758
31.22186
29.11348
26.92568
24.99232
23.4975
22.3353
21.17042
19.56538
17.3146
14.47161
11.31932
8.190842
5.242936
2.403839
-0.5899391
-4.001355
-7.96152
-12.34852
-16.85883
-21.14673
-24.94959
-28.23223
-31.1653
-34.10968
-37.53661
-41.91975
-47.53866
-54.30883
-61.59776
-68.18607
-72.51849
-73.12494
-69.13726
-60.65409
-48.79557
-35.28213
-21.96174
-10.2492
-0.8710079
6.068709
10.89177
14.05334
15.95082
16.88428
17.09868
16.81803
16.31093
15.83334
15.60517
15.75877
16.32245
17.24209
18.42626
19.80881
21.34933
23.03262
24.79215
26.4638
27.8285
28.68359
28.99233
28.89169
28.61898
28.43207
28.45278
28.59287
28.62724
28.29777
27.45845
26.15721
24.59173
22.99206
21.49737
20.12501
18.73681
17.15478
15.26556
13.07248
10.72699
8.415325
6.272171
4.261318
2.21962
-0.1032257
-2.871098
-6.122124
-9.733635
-13.51281
-17.29649
-21.01664
-24.65595
-28.2775
-32.0076
-36.02114
-40.5382
-45.68425
-51.25662
-56.585
-60.50138
-61.66476
-59.02685
-52.30086
-42.16059
-30.08545
-17.87059
-7.055054
1.421234
7.319878
10.94789
12.87141
13.69461
13.91911
13.86943
13.71153
13.48714
13.18227
12.80814
12.47794
12.37237
12.7351
13.71759
15.31914
17.38632
19.67361
21.89816
23.83636
25.31809
26.21646
26.46259
26.02007
24.97108
23.53073
22.03532
20.84253
20.22263
20.20148
20.48331
20.56947
19.91618
18.17318
15.39939
12.03812
8.731491
6.007103
3.997261
2.412201
0.7429123
-1.478065
-4.340996
-7.609886
-10.85217
-13.71679
-16.14817
-18.36234
-20.68946
-23.40163
-26.69164
-30.59431
-35.12405
-40.12192
-45.21883
-49.68898
-52.54118
-52.78328
-49.82231
-43.69498
-35.09532
-25.16803
-15.08879
-5.819443
2.092407
8.440857
13.26607
16.70786
18.88617
19.95157
20.0089
19.25523
17.97487
16.51962
15.29181
14.58104
14.50412
14.96252
15.72984
16.52045
17.18675
17.72621
18.20837
18.6974
19.10226
19.20937
18.74651
17.55974
15.63071
13.15234
10.40051
7.667023
5.188995
3.055222
1.264343
-0.3102722
-1.886581
-3.735504
-6.089676
-9.026367
-12.41953
-15.89413
-19.05025
-21.56651
-23.41052
-24.81419
-26.23344
-28.12869
-30.85742
-34.55865
-39.08488
-44.06747
-48.79498
-52.30418
-53.54822
-51.6969
-46.45784
-38.31725
-28.44807
-18.31673
-9.238129
-1.921265
3.56073
7.579254
10.57567
12.75534
14.01563
14.16785
13.18127
11.34631
9.320816
7.83667
7.433289
8.261551
10.0336
12.17046
14.05612
15.26237
15.62437
15.2515
14.33334
13.04439
11.50543
9.796204
7.996033
6.207565
4.483536
2.800262
1.067825
-0.8767395
-3.144241
-5.738281
-8.599686
-11.61757
-14.72119
-17.88795
-21.10556
-24.35573
-27.65758
-31.09404
-34.83151
-39.02336
-43.56573
-47.90117
-51.00603
-51.62613
-48.74565
-42.09242
-32.32028
-20.8356
-9.318947
0.8684464
9.073669
15.34426
20.14304
23.96971
27.02461
29.20601
30.21638
29.85155
28.20016
25.68739
22.93549
20.58121
19.09828
18.69659
19.3621
20.88828
22.94152
25.04073
26.65959
27.26752
26.53752
24.46156
21.36472
17.81078
14.32567
11.19524
8.326233
5.412003
2.096512
-1.782776
-6.143456
-10.7187
-15.22441
-19.52372
-23.67519
-27.92665
-32.5807
-37.80558
-43.51359
-49.19758
-53.98819
-56.80127
-56.64699
-52.97099
-45.89656
-36.25507
-25.31952
-14.46246
-4.6796
3.556866
10.32672
15.95659
20.77871
24.92933
28.33074
30.84249
32.39242
33.13235
33.37661
33.53172
33.90903
34.62219
35.52101
36.3122
36.67088
36.43317
35.66898
34.61946
33.55948
32.63513
31.76823
30.68319
29.0602
26.70142
23.65133
20.1692
16.65227
13.46881
10.83507
8.711356
6.795006
4.635263
1.787736
-1.984232
-6.571445
-11.57089
-16.41428
-20.64489
-24.06156
-26.82192
-29.36377
-32.24625
-35.96242
-40.8161
-46.85659
-53.73973
-60.73457
-66.67638
-70.18549
-69.96908
-65.28835
-56.28364
-44.01292
-30.15249
-16.51759
-4.534712
5.104858
12.43626
17.95518
22.31181
26.00171
29.24096
31.98357
34.0968
35.45321
36.06887
36.13851
35.95147
35.84645
36.07836
36.74828
37.79544
39.05619
40.33327
41.45803
42.28626
42.64233
42.3315
41.19034
39.1832
36.48806
33.53484
30.8694
28.93285
27.90266
27.58666
27.55079
27.34586
26.63176
25.32516
23.49292
21.26986
18.73655
15.98792
13.07172
10.07626
7.046581
3.983635
0.7818871
-2.711117
-6.627316
-11.00608
-15.70772
-20.5179
-25.08103
-29.01971
-31.99917
-33.84414
-34.67116
-34.97487
-35.60339
-37.50181
-41.45927
-47.74588
-55.84818
-64.51128
-71.92725
-76.27468
-76.21068
-71.31109
-62.1827
-50.22676
-37.21622
-24.72943
-13.86042
-5.052895
1.731407
6.856663
10.7558
13.85876
16.53324
19.02694
21.44677
23.74821
25.77087
27.33665
28.3892
29.02617
29.53295
30.19722
31.2276
32.65434
34.28978
35.82874
36.95179
37.45989
37.31293
36.6255
35.62283
34.53438
33.5501
32.73848
32.11063
31.57677
31.02054
30.32613
29.39652
28.14992
26.5117
24.4429
21.94007
19.08831
16.0662
13.13162
10.52135
8.339466
6.519836
4.811211
2.918358
0.602562
-2.226128
-5.524529
-9.134544
-12.89674
-16.71948
-20.52739
-24.32568
-28.13452
-32.02645
-36.17719
-40.8146
-46.151
-52.22675
-58.71058
-64.76031
-69.14305
-70.53024
-67.95256
-61.2234
-51.05842
-38.90158
-26.43045
-15.03697
-5.440142
2.262625
8.357473
13.15132
16.73945
19.0499
20.02955
19.83178
18.88858
17.7453
16.82388
16.28174
15.98541
15.62687
14.95984
13.9305
12.69071
11.52148
10.66725
10.2014
10.01287
9.876778
9.559601
8.941895
8.059917
7.069778
6.168037
5.495258
5.081905
4.854237
4.675785
4.416702
4.013592
3.486187
2.91637
2.402241
2.012405
1.758419
1.602306
1.479668
1.332973
1.132591
0.8903313
0.6360817
0.4087715
0.2344093
0.1148682
0.0404129
-0.01005936
-0.05223846
-0.09330368
-0.1309509
-0.159359
-0.1766472
-0.1795349
-0.1735535
-0.162632
-0.1541328
-0.1475677
-0.1456337
-0.1447754
-0.1454086
-0.1465912
-0.1458282
-0.1447601
-0.1435127
-0.1430969
-0.1420174
-0.1416054
-0.1410522
-0.1411743
-0.1409264
-0.1410866
-0.1403847
-0.1401367
-0.1394463
-0.1382408
-0.1381035
-0.136898
-0.1364403
-0.1370773
-0.1363792
-0.1367645
-0.1350441
-0.1362038
-0.1352463
-0.1343002
-0.1337814
-0.133049
-0.1319847
-0.1315804
-0.131218
-0.1313744
-0.1308174
-0.1306953
-0.1314812
-0.1283493
-0.1293411
-0.1274872
-0.1276894
-0.1262398
-0.1259766
-0.1250267
-0.1246605
-0.1243286
-0.1245804
-0.1254349
-0.1244087
-0.1248055
-0.1239128
-0.1235695
-0.1231194
-0.1218948
-0.1205368
-0.1204033
-0.1202087
-0.1194515
-0.1208038
-0.1189537
-0.1188488
-0.1193275
-0.1183491
-0.1187496
-0.1166611
-0.1167736
-0.1149693
-0.1153965
-0.1137314
-0.1144104
-0.1132832
-0.1146374
-0.113018
-0.1144695
-0.1130733
-0.1135235
-0.1124172
-0.1120682
-0.1114292
-0.1105576
-0.110466
-0.1094322
-0.1084328
-0.1088829
-0.1087723
-0.1082344
-0.1088409
-0.1082306
-0.107502
-0.1082726
-0.1067886
-0.1068516
-0.1066322
-0.10536
-0.1050892
-0.1045532
-0.1031876
-0.1034222
-0.1037273
-0.1029892
-0.1029873
-0.1032562
-0.1033936
-0.10355
-0.1029701
-0.103199
-0.1015987
-0.102066
-0.1007957
-0.09961319
-0.09928513
-0.09804916
-0.09830284
-0.09781265
-0.09807396
-0.09798241
-0.09802055
-0.09761047
-0.09783554
-0.09752846
-0.0970459
-0.09604073
-0.09507942
-0.09402847
-0.09368134
-0.09317589
-0.09278488
-0.09140396
-0.09148979
-0.09118271
-0.09127045
-0.09169006
-0.09243393
-0.09153366
-0.09183884
-0.09187889
-0.09180641
-0.09173393
-0.09132195
-0.09034729
-0.09026718
-0.08838844
-0.08697319
-0.08688545
-0.08710289
-0.08806229
-0.0890274
-0.08838272
-0.08322716
-0.07548714
-0.0599823
-0.04221916
-0.0226326
-0.001207352
0.02109528
0.04306412
0.06435966
0.08614922
0.1108189
0.1389923
0.173111
0.2151508
0.261591
0.3069954
0.3455601
0.3689785
0.3738956
0.3623505
0.3389435
0.3165226
0.3029842
0.3028049
0.3171558
0.3404312
0.365591
0.3884735
0.4148388
0.4488964
0.5029793
0.5857449
0.6924419
0.8189144
0.9478016
1.061901
1.153358
1.229979
1.309984
1.428829
1.612
1.861959
2.155218
2.439531
2.654072
2.760431
2.76277
2.70891
2.691
2.803669
3.079262
3.480875
3.883911
4.125053
4.078652
3.726076
3.200218
2.751725
2.612479
2.851723
3.273401
3.440746
2.823279
1.008035
-2.128602
-6.37796
-11.2738
-16.29423
-20.98122
-25.08923
-28.58289
-31.68121
-34.77751
-38.38747
-42.98011
-48.69284
-55.11307
-61.14318
-65.23499
-65.85584
-62.07903
-53.9717
-42.62362
-29.79322
-17.27179
-6.375259
2.341904
8.995506
14.04999
18.00588
21.21069
23.83212
25.91547
27.47835
28.55331
29.18668
29.45838
29.4736
29.33501
29.12248
28.88245
28.63654
28.43877
28.35387
28.4734
28.85725
29.44432
30.04292
30.3616
30.13042
29.18024
27.49828
25.226
22.56504
19.75428
17.0551
14.67336
12.70273
11.06781
9.479843
7.529182
4.807747
1.100212
-3.503799
-8.638779
-13.79835
-18.54112
-22.6683
-26.2829
-29.78105
-33.68678
-38.45296
-44.27204
-50.82382
-57.23723
-62.25291
-64.53218
-63.06407
-57.5592
-48.52262
-37.09727
-24.72758
-12.72254
-2.041252
6.837585
13.79935
19.01232
22.77975
25.48384
27.48144
29.02855
30.23817
31.0638
31.43992
31.35655
30.96603
30.54772
30.37522
30.62148
31.30964
32.32934
33.50011
34.65839
35.61528
36.21959
36.30812
35.83392
34.83468
33.47133
31.97751
30.51923
29.18185
27.9136
26.56197
24.95567
22.93865
20.45914
17.52966
14.27641
10.88984
7.56012
4.402191
1.406982
-1.568932
-4.744171
-8.230858
-12.05188
-16.07776
-20.11094
-23.95676
-27.55919
-31.04963
-34.72186
-38.97137
-44.11167
-50.17236
-56.68884
-62.61691
-66.52793
-67.08857
-63.51379
-55.91264
-45.32106
-33.31074
-21.46978
-10.95201
-2.273422
4.562248
9.820015
13.80346
16.7539
18.8911
20.45448
21.68782
22.77426
23.74464
24.45456
24.72347
24.43774
23.68866
22.74871
22.01306
21.85681
22.46136
23.8146
25.69446
27.73969
29.52914
30.66151
30.9146
30.33579
29.26676
28.25246
27.8359
28.30116
29.53802
31.02776
32.03295
31.91233
30.30918
27.23411
22.98471
17.97654
12.63091
7.280983
2.194305
-2.450249
-6.575745
-10.22106
-13.50047
-16.56891
-19.55806
-22.55886
-25.68181
-29.0589
-32.91851
-37.4903
-42.90901
-49.0327
-55.38064
-61.14686
-65.3545
-67.06229
-65.57476
-60.59859
-52.33212
-41.47715
-29.0619
-16.32347
-4.48909
5.425934
12.79684
17.4455
19.64046
19.98434
19.20322
18.03252
17.01138
16.43865
16.35433
16.59211
16.81311
16.64257
15.82554
14.50858
13.41751
13.83287
17.19732
24.47978
35.59301
49.11613
62.6768
73.68475
80.21852
81.55138
78.21166
71.43728
62.57491
52.54534
41.73021
30.24984
18.31798
