19.20297
19.8283
20.0004
19.49379
18.2258
16.27576
13.93301
11.4518
9.009491
6.735153
4.527779
2.315689
0.08285141
-2.075176
-3.92725
-5.264446
-6.109245
-6.669128
-7.247299
-8.027794
-8.829323
-9.007713
-7.757454
-4.350967
1.399593
8.995083
17.41444
25.39202
31.90466
36.50899
39.44638
41.38623
43.19584
45.48681
48.27275
51.06425
52.96192
52.90332
50.24851
45.02417
37.94218
30.36749
23.85923
19.50891
17.6469
17.53552
17.62439
16.14197
11.79523
4.37753
-5.202657
-15.1978
-23.90278
-30.06963
-33.68135
-35.62123
-37.19094
-39.52433
-43.1423
-47.87539
-52.81722
-56.43834
-56.7404
-51.90295
-40.95788
-24.56237
-5.334854
12.59955
25.01268
29.08323
24.47927
13.33989
-0.7047386
-14.05576
-24.28586
-30.6792
-33.80761
-34.68348
-34.10118
-32.5207
-30.27
-27.66533
-25.39449
-24.21
-24.98221
-27.93719
-32.52866
-37.40504
-40.93839
-41.84385
-39.68261
-35.26315
-30.10701
-25.93484
-23.86306
-23.97138
-25.47614
-27.28307
-28.5442
-29.0468
-29.28176
-30.09973
-32.15132
-35.74553
-40.68704
-46.47919
-52.48972
-58.08614
-62.85661
-66.61528
-69.45297
-71.637
-73.47683
-75.04311
-76.25507
-76.67113
-75.73212
-73.08319
-68.68195
-62.81105
-55.91423
-48.3402
-40.00505
-30.6731
-19.99075
-7.903954
5.000519
17.62937
28.5771
36.65839
41.32795
42.95263
42.54708
41.39914
40.52827
40.36894
40.79575
41.3008
41.39581
40.83389
39.65005
37.98543
36.02498
33.81407
31.39523
28.87155
26.37903
24.06982
21.92523
19.77443
17.39014
14.71863
11.94058
9.400085
7.38443
5.898682
4.584106
2.935455
0.7934265
-1.23703
-1.858063
0.4537354
6.674744
16.59262
28.77628
40.97827
50.97925
57.32611
59.67432
58.52542
54.7843
49.31989
42.79636
35.76675
28.76645
22.43988
17.48874
14.45636
13.56586
14.66513
17.26633
20.59946
23.83826
26.23718
27.37167
27.3302
26.58893
25.86392
25.87134
26.87463
28.45599
29.80377
29.9791
28.37762
25.06519
20.59409
15.82376
11.41391
7.605286
4.195679
0.8799438
-2.55838
-6.037933
-9.282959
-12.07974
-14.25702
-15.86386
-17.01895
-17.75479
-18.0434
-17.85474
-17.29028
-16.58313
-16.10745
-16.07266
-16.40802
-16.75049
-16.54291
-15.25021
-12.66745
-9.00354
-4.723206
-0.488678
3.213654
6.169678
8.424408
10.17648
11.67252
12.99066
14.11813
15.05737
15.81845
16.55499
17.3913
18.39978
19.53333
20.59555
21.30469
21.48849
21.12543
20.32825
19.3226
18.32593
17.44781
16.71396
16.06378
15.35861
14.53723
13.60645
12.56155
11.53989
10.67218
9.991577
9.448303
8.842804
7.939331
6.635529
5.025543
3.35733
2.049927
1.340515
1.173553
1.263611
1.145844
0.3908691
-1.230347
-3.69339
-6.798065
-10.12146
-13.2438
-15.84622
-17.69403
-18.79758
-19.38626
-19.77328
-20.27899
-21.08118
-22.01453
-22.77316
-22.92886
-22.04453
-19.86996
-16.39572
-11.84854
-6.663635
-1.373505
3.495178
7.608612
10.84576
13.3313
15.26721
16.82703
18.03357
18.7514
18.84119
18.25174
17.18591
16.00467
15.16379
14.88641
15.24902
16.09204
17.12601
18.14066
18.96613
19.58002
20.00583
20.35852
20.58997
20.69177
20.58667
20.17972
19.44647
18.43152
17.31613
16.21069
15.29761
14.62378
14.20325
13.97437
13.85468
13.7121
13.42361
12.90805
12.10953
11.01633
9.66803
8.097992
6.227814
3.909393
1.075836
-2.235229
-5.787323
-9.18103
-12.08554
-14.27982
-15.88187
-17.24252
-18.75912
-20.54099
-22.35266
-23.66772
-23.92511
-22.76172
-20.14478
-16.36551
-11.85452
-7.010162
-2.039581
2.85733
7.475922
11.51785
14.69852
16.88834
18.10779
18.6058
18.68036
18.56018
18.28284
17.81091
17.13184
16.42554
16.0127
16.31293
17.61777
20.02151
23.17697
26.41397
28.92395
29.97342
29.24197
26.90717
23.69638
20.53568
18.14655
16.67697
15.68195
14.41541
12.13431
8.588135
4.027649
-0.8788452
-5.454987
-9.134369
-11.69858
-13.18839
-14.23657
-16.28391
-21.49686
-32.20117
-49.77344
-73.65277
-100.933
-126.951
-146.7846
-156.9672
-156.4721
-146.6072
-130.0207
-109.4951
-87.22745
-64.70367
-42.966
-22.97693
-5.685455
8.226654
18.64307
26.00281
31.17154
35.05194
38.27838
41.02588
43.08261
44.03168
43.59283
41.8728
39.30417
36.66696
34.72089
33.99402
34.51675
35.92444
37.68451
39.36453
40.75949
41.8287
42.66727
43.31421
43.69601
43.59314
42.7515
41.05334
38.56879
35.4776
31.95126
28.15448
24.20261
20.19592
16.30542
12.69312
9.525146
6.793915
4.357819
2.006836
-0.3124084
-2.430054
-4.081665
-4.931763
-4.911102
-4.222809
-3.330719
-2.688782
-2.589676
-3.0168
-3.717606
-4.486435
-5.122025
-5.667297
-6.350159
-7.444489
-9.094803
-11.25319
-13.67381
-15.873
-17.41815
-17.82294
-16.81088
-14.33228
-10.56337
-5.922653
-0.9913177
3.6353
7.522598
10.36566
12.16663
13.0257
13.10883
12.65263
11.82298
10.71667
9.463867
8.177505
6.949417
5.943634
5.244095
4.902908
5.009476
5.533493
6.466522
7.751144
9.259872
10.79216
12.11209
12.96022
13.13043
12.59979
11.41855
9.702744
7.621292
5.264542
2.714432
0.05078125
-2.661774
-5.366577
-7.948685
-10.30489
-12.31741
-13.7836
-14.58791
-14.6576
-14.06997
-13.12016
-12.19987
-11.64371
-11.63963
-12.07622
-12.68102
-13.15059
-13.31661
-13.23703
-13.148
-13.3182
-13.86781
-14.69807
-15.40032
-15.46905
-14.44125
-12.1419
-8.656448
-4.47057
-0.2245407
3.445877
6.140079
7.772259
8.608028
9.005577
9.225384
9.419033
9.486885
9.291615
8.801258
8.113476
7.414783
6.937162
6.778851
6.929241
7.338587
7.949869
8.722897
9.684479
10.74487
11.68579
12.24163
12.16889
11.38939
10.02022
8.28167
6.387997
4.436083
2.395335
0.1618576
-2.313031
-4.967401
-7.639629
-10.0911
-12.24702
-14.10329
-15.78602
-17.32858
-18.71891
-19.81674
-20.57749
-21.0207
-21.30362
-21.68398
-22.32856
-23.31727
-24.6289
-26.19986
-27.92603
-29.79517
-31.72151
-33.52362
-34.92078
-35.57621
-35.11283
-33.33012
-30.22417
-25.92454
-20.75923
-15.19854
-9.685844
-4.633644
-0.3245888
3.137638
5.770645
7.521526
8.448532
8.539406
7.716309
6.024399
3.458832
0.1553574
-3.693108
-7.647881
-11.19406
-13.75695
-14.93243
-14.62116
-13.02924
-10.63851
-7.924828
-5.292595
-2.880188
-0.6969833
1.345467
3.211868
4.774895
5.883858
6.37722
6.284111
5.729305
4.888126
3.950954
3.093197
2.446457
2.04747
1.925297
1.964096
2.014729
1.84256
1.242008
0.1539688
-1.327579
-2.841785
-4.026707
-4.614811
-4.609287
-4.19828
-3.742844
-3.450386
-3.335518
-3.167522
-2.491909
-0.9272003
1.654724
5.117321
9.098167
13.11981
16.7925
19.83393
22.05036
23.4355
24.07902
24.09805
23.76554
23.32659
22.97156
22.76376
22.55955
22.07397
21.06585
19.49001
17.5235
15.50599
13.69687
12.14849
10.7416
9.248413
7.543549
5.720139
4.056282
2.763222
1.891273
1.241493
0.4934998
-0.5040588
-1.714729
-2.90567
-3.752068
-4.102341
-4.069199
-3.957359
-4.098358
-4.723045
-5.74704
-6.916107
-7.95195
-8.678978
-9.177635
-9.730591
-10.63176
-12.04985
-13.98305
-16.22762
-18.43494
-20.35876
-21.72845
-22.45865
-22.56694
-22.16419
-21.40498
-20.46857
-19.44205
-18.1745
-16.50674
-14.10046
-10.76015
-6.49707
-1.563469
3.554039
8.263512
11.99796
14.41727
15.34715
14.96822
13.63483
11.74783
9.765594
7.962143
6.513763
5.411713
4.550018
3.762756
3.005905
2.348129
1.950424
2.064468
2.767624
3.99968
5.484268
6.878906
7.865372
8.305206
8.242966
7.781189
7.078415
6.210556
5.265747
4.340164
3.547714
2.956772
2.542175
2.187988
1.721558
1.055237
0.1211548
-0.951767
-1.97818
-2.822968
-3.47821
-4.088913
-4.876236
-6.032745
-7.607697
-9.637543
-11.95186
-14.33041
-16.46054
-18.10678
-19.10284
-19.47792
-19.38348
-19.10088
-18.90894
-18.87671
-18.85783
-18.46844
-17.23567
-14.81519
-11.22363
-6.69902
-1.840775
2.754196
6.653946
9.636597
11.7206
13.04079
13.71414
13.70393
12.98413
11.52997
9.483551
7.162125
4.916214
3.037537
1.744827
1.15181
1.36644
2.496628
4.685654
7.949753
12.10307
16.63896
20.90987
24.23917
26.09424
26.28079
24.89583
22.22293
18.57428
14.20999
9.226822
3.861801
-1.587067
-6.720215
-11.1725
-14.71811
-17.31056
-19.16318
-20.47058
-21.47159
-22.26187
-22.88016
-23.39726
-23.8756
-24.38176
-24.93799
-25.57397
-26.26276
-27.01457
-27.84908
-28.70149
-29.48602
-29.99155
-30.06917
-29.61758
-28.61948
-27.08017
-24.98624
-22.35402
-19.24501
-15.87343
-12.49289
-9.456055
-7.053909
-5.394791
-4.426743
-3.943954
-3.713943
-3.541779
-3.312103
-2.956436
-2.52652
-2.101181
-1.710037
-1.298965
-0.663208
0.4736481
2.339264
4.981812
8.230042
11.74449
15.13445
18.14935
20.61983
22.52602
23.87315
24.65424
24.84009
24.32643
23.04326
20.97841
18.26521
15.11655
11.9039
8.997528
6.613266
4.826782
3.572144
2.75795
2.290939
2.076653
1.906631
1.560806
0.7592621
-0.674736
-2.616951
-4.770485
-6.641861
-7.950081
-8.682823
-9.1231
-9.550629
-10.11066
-10.63273
-10.6101
-9.555412
-7.090355
-3.203903
1.748688
7.183495
12.4417
16.9313
20.19202
22.07969
22.59121
21.97266
20.58937
18.83166
16.95782
15.05553
13.07922
10.95776
8.779465
6.685516
4.939873
3.732765
3.142761
3.118927
3.497658
4.178566
5.08683
6.210732
7.431252
8.562607
9.326027
9.462547
8.767998
7.328239
5.363815
3.184151
1.114639
-0.7079697
-2.246071
-3.524834
-4.645203
-5.691162
-6.627876
-7.417122
-8.056801
-8.534523
-8.959106
-9.391426
-9.93969
-10.65726
-11.53474
-12.45638
-13.23318
-13.70525
-13.79082
-13.62129
-13.36324
-13.24884
-13.39372
-13.7625
-14.13595
-14.24052
-13.8274
-12.66164
-10.77287
-8.204041
-5.146385
-1.872314
1.299278
4.077156
6.219055
7.606964
8.356415
8.661491
8.795906
8.952057
9.110382
9.217178
9.128654
8.747528
8.053818
7.210571
6.425064
5.895233
5.696655
5.749092
5.925781
6.057274
6.05188
5.923141
5.865494
6.042076
6.568977
7.375656
8.238373
8.802452
8.756683
7.896973
6.238899
4.040222
1.620102
-0.7023849
-2.672134
-4.196556
-5.322456
-6.116386
-6.661331
-7.063049
-7.457008
-7.999054
-8.77961
-9.673256
-10.48263
-11.02014
-11.16283
-11.0123
-10.79871
-10.74771
-10.93546
-11.17445
-11.04556
-10.10352
-8.10791
-5.097275
-1.396584
2.521347
6.233269
9.397926
11.80197
13.31714
13.8598
13.39876
12.00507
9.835213
7.223404
4.566116
2.166061
0.1895294
-1.355331
-2.521545
-3.305649
-3.570259
-3.147469
-1.898598
0.1274261
2.637375
5.204697
7.445343
9.100189
10.07365
10.42018
10.18455
9.326591
7.730171
5.313309
2.092033
-1.70948
-5.767494
-9.696114
-13.18835
-16.11997
-18.48867
-20.4669
-22.17173
-23.63549
-24.83003
-25.81907
-26.69884
-27.67738
-29.03251
-30.83249
-32.99723
-35.16042
-36.87627
-37.74387
-37.63903
-36.64292
-34.96285
-32.86088
-30.41214
-27.61325
-24.3718
-20.70913
-16.71012
-12.51573
-8.260796
-3.975868
0.2670174
4.436283
8.386017
11.96968
15.09212
17.68031
19.88242
21.89213
23.84934
25.83921
27.8621
29.836
31.6209
33.27455
34.72659
36.04797
37.22163
38.05004
38.30059
37.7493
36.29072
33.94471
30.99277
27.67243
24.24906
20.87208
17.58237
14.42954
11.45676
8.678684
6.08033
3.654577
1.292536
-0.9999447
-3.195465
-5.240801
-7.019499
-8.493645
-9.725206
-10.76299
-11.75687
-12.78733
-13.84479
-14.75112
-15.33824
-15.2611
-14.30376
-12.30833
-9.316019
-5.610239
-1.625607
2.095654
5.150742
7.305557
8.61972
9.288807
9.592991
9.714001
9.723591
9.526962
9.055107
8.295059
7.362431
6.480534
5.760532
5.28447
5.020008
4.894447
4.830772
4.884747
5.1059
5.636364
6.551338
7.762035
9.146255
10.50401
11.61539
12.3103
12.4672
12.00606
10.95607
9.324677
7.22839
4.831467
2.253281
-0.3537292
-2.923485
-5.378788
-7.634689
-9.613251
-11.21595
-12.33581
-12.8722
-12.92197
-12.60456
-12.18076
-11.91113
-11.97557
-12.38338
-12.98119
-13.54867
-13.78619
-13.53825
-12.64632
-11.07655
-8.901089
-6.296375
-3.494862
-0.7474899
1.723816
3.876713
5.693806
7.269394
8.583004
9.578499
10.18851
10.38051
10.17479
9.656296
8.896957
7.923561
6.860825
5.819313
5.015793
4.641735
4.74316
5.207123
5.817177
6.352551
6.673809
6.793167
6.769478
6.577602
6.180706
5.472271
4.411728
3.098778
1.68615
0.3342056
-0.8215027
-1.724247
-2.417622
-2.964447
-3.419266
-3.858326
-4.315987
-4.825115
-5.387604
-5.955849
-6.548141
-7.255924
-8.180462
-9.34494
-10.68844
-12.00536
-13.00524
-13.40148
-12.95156
-11.54623
-9.229588
-6.1483
-2.529301
1.305813
5.073624
8.480835
11.24129
13.24958
14.51014
15.13774
15.29044
15.10264
14.62389
13.94963
13.13172
12.22063
11.35108
10.65942
10.29241
10.31256
10.73574
11.47631
12.47161
13.53078
14.54085
15.35509
15.85818
15.93699
15.50905
14.50046
12.85181
10.67455
8.043266
5.265411
2.645603
0.4032822
-1.42379
-2.936886
-4.408619
-6.216404
-8.552883
-11.50163
-14.81975
-18.08053
-20.88129
-22.93858
-24.19965
-24.80148
-25.03158
-25.10579
-25.12526
-25.10951
-24.95343
-24.56818
-23.79765
-22.52264
-20.61969
-18.08017
-14.98143
-11.67338
-8.63974
-6.298588
-4.964066
-4.525333
-4.64336
-4.78561
-4.411148
-3.167774
-1.064442
1.535622
4.166466
6.252415
7.451439
7.691887
7.13969
6.17757
5.2407
4.638252
4.484249
4.730793
5.169426
5.579224
5.863274
5.980003
5.995552
5.989258
5.940628
5.760353
5.453606
5.03997
4.764435
4.863449
5.395027
6.162491
6.814133
7.035149
6.731903
6.154236
5.63517
5.405235
5.397873
5.186874
4.322556
2.578766
0.07931519
-2.741821
-5.267868
-6.963501
-7.415024
-6.400574
-3.890091
-0.03898621
4.702103
9.690674
14.22663
17.82096
20.308
21.84968
22.80151
23.50975
24.13719
24.59327
24.63465
24.01759
22.63756
20.60471
18.11539
15.5155
13.02199
10.76038
8.757202
6.9739
5.476418
4.412354
3.93438
4.003792
4.532394
5.18306
5.640411
5.70071
5.395374
4.894604
4.393749
4.015507
3.674091
3.244556
2.542522
1.451393
-0.1060791
-2.105209
-4.466328
-7.111839
-9.878361
-12.61582
-15.18775
-17.49995
-19.50807
-21.21635
-22.60335
-23.61253
-24.16223
-24.10722
-23.32438
-21.75826
-19.37374
-16.22005
-12.39841
-8.140093
-3.750269
0.3766136
3.913069
6.582586
8.326105
9.28067
9.727253
9.947584
10.11096
10.20353
10.01512
9.459682
8.536385
7.477276
6.69314
6.560654
7.337534
9.011787
11.36501
13.97438
16.45631
18.4256
19.65134
20.00053
19.47328
18.24879
16.54836
14.59326
12.52276
10.42921
8.287123
6.15923
4.140345
2.231936
0.4091797
-1.505233
-3.690529
-6.178458
-8.822047
-11.34437
-13.48784
-15.02712
-16.07814
-16.76259
-17.31087
-17.84337
-18.29499
-18.56051
-18.50236
-18.03208
-17.04028
-15.56511
-13.69582
-11.70584
-9.834629
-8.246075
-6.993061
-5.947556
-4.943623
-3.819283
-2.690018
-1.707684
-1.160843
-1.1539
-1.561836
-2.11541
-2.441311
-2.286285
-1.593353
-0.4932861
0.9315071
2.532745
4.221367
5.912689
7.446888
8.668365
9.366821
9.345898
8.535301
7.07436
5.149261
2.995396
0.7955284
-1.473438
-3.85997
-6.523785
-9.586155
-12.99732
-16.56732
-20.06823
-23.29589
-26.04031
-28.31322
-30.0317
-31.16245
-31.57289
-31.16663
-29.94824
-28.09877
-25.9533
-23.79629
-21.88669
-20.20395
-18.61254
-16.79764
-14.55741
-11.80095
-8.61657
-5.240894
-1.918716
1.07988
3.671169
5.804634
7.582233
9.129379
10.50098
11.66543
12.5259
12.96421
12.96157
12.74591
12.61562
12.83431
13.61253
14.9039
16.51037
18.14625
19.57023
20.63773
21.37358
21.85668
22.1127
22.0771
21.65229
20.80812
19.54319
17.96095
16.20463
14.40166
12.57817
10.64913
8.461203
5.893665
3.033699
0.1119232
-2.580032
-4.760593
-6.38237
-7.614822
-8.766102
-10.00682
-11.3207
-12.39465
-12.77647
-12.09271
-10.14854
-7.031654
-3.029171
1.403088
5.874165
9.993076
13.44712
16.0135
17.60422
18.24665
18.03179
17.11489
15.64568
13.76067
11.59987
9.32811
7.109085
5.147915
3.585548
2.473915
1.801945
1.605312
1.837914
2.456348
3.40649
4.545357
5.649185
6.470108
6.77766
6.429546
5.537327
4.238472
2.775776
1.360424
0.07226181
-1.09359
-2.228996
-3.457687
-4.89679
-6.572128
-8.457474
-10.40295
-12.23495
-13.74771
-14.82901
-15.53908
-16.0243
-16.51746
-17.13463
-17.81548
-18.31252
-18.27525
-17.45059
-15.72355
-13.1983
-10.1409
-6.834137
-3.514702
-0.3285217
2.622314
5.235405
7.3647
8.925743
9.881073
10.27428
10.25686
10.0124
9.758888
9.685783
9.924988
10.51765
11.40052
12.41188
13.33539
13.96475
14.17763
13.9529
13.29469
12.25227
10.84474
9.105377
7.086426
4.998093
3.071968
1.562309
0.6135712
0.2161636
0.2240448
0.4562759
0.717659
0.8381424
0.8087158
0.5614853
0.06828308
-0.7009735
-1.766281
-3.138565
-4.768471
-6.617752
-8.7379
-11.08102
-13.63934
-16.20627
-18.45231
-19.92537
-20.28654
-19.38134
-17.41718
-14.93604
-12.62648
-11.0903
-10.60136
-11.02112
-11.86865
-12.51164
-12.39397
-11.15947
-8.752533
-5.305649
-1.177505
3.232407
7.508057
11.33443
14.52293
17.06238
19.06055
20.66634
21.98328
22.99956
23.64268
23.8307
23.47594
22.49361
20.83128
18.49931
15.63962
12.43459
9.131332
5.893677
2.767654
-0.3256378
-3.587036
-7.184448
-11.25636
-15.92351
-21.29556
-27.32701
-33.75748
-40.03348
-45.46501
-49.37012
-51.31911
-51.14674
-48.94978
-44.98141
-39.49081
-32.77771
-25.21143
-17.30563
-9.589859
-2.554901
3.489548
8.442932
12.19681
14.62543
15.49899
14.65431
12.09273
8.074478
2.994781
-2.640305
-8.307556
-13.53552
-17.89996
-21.09901
-22.96986
-23.55025
-23.08105
-21.99692
-20.73561
-19.72014
-19.1767
-19.2326
-19.90946
-21.13479
-22.74121
-24.5689
-26.58493
-28.82111
-31.37214
-34.20886
-37.08579
-39.51772
-40.91488
-40.79195
-39.00212
-35.84003
-31.81143
-27.33392
-22.51651
-17.12095
-10.76922
-3.239777
5.228874
14.09528
22.71479
30.66792
37.84097
44.32023
49.9815
54.3399
56.69113
56.30484
52.97281
47.23265
40.30534
33.73085
28.79473
26.15428
25.65591
26.60329
28.02177
29.05988
29.28164
28.64129
27.39292
25.82196
24.09362
22.14898
19.85415
17.14062
14.15018
11.2104
8.655611
6.68019
5.231098
4.062945
2.850916
1.426141
-0.1620001
-1.664644
-2.881824
-3.7732
-4.534059
-5.342365
-6.172016
-6.739923
-6.542472
-5.135812
-2.237172
1.957461
6.9302
11.94069
16.32041
19.62215
21.55927
22.12034
21.39258
19.69386
17.42318
14.97113
12.55113
10.24426
7.952704
5.591082
3.220095
1.104138
-0.4505843
-1.189567
-1.075197
-0.3456901
0.6796281
1.714445
2.600466
3.331682
3.972005
4.438396
4.648612
4.482275
4.003078
3.308692
2.607209
1.980761
1.452066
0.8794289
0.01695633
-1.22271
-2.870368
-4.746122
-6.692358
-8.531534
-10.15156
-11.45897
-12.47427
-13.2988
-14.04238
-14.8119
-15.59682
-16.1897
-16.2478
-15.3786
-13.30418
-10.08301
-6.132324
-2.070584
1.51588
4.166016
5.81091
6.661329
7.068541
7.282209
7.423786
7.39822
7.101604
6.46496
5.527481
4.451206
3.404148
2.509415
1.675251
0.8707504
0.03510666
-0.733408
-1.253658
-1.32251
-0.8089199
0.2314434
1.562889
2.852884
3.854744
4.423107
4.541046
4.213192
3.515177
2.490576
1.228472
-0.2213078
-1.696115
-3.018328
-4.047188
-4.753361
-5.245377
-5.695473
-6.292727
-7.125187
-8.200087
-9.385386
-10.5361
-11.58153
-12.56875
-13.512
-14.44079
-15.26332
-15.69526
-15.45643
-14.29275
-12.14741
-9.125132
-5.48353
-1.525311
2.389906
5.9093
8.819778
10.94427
12.18499
12.56143
12.15409
11.17494
9.874195
8.506231
7.224756
6.217537
5.63703
5.566711
6.089149
7.130251
8.555624
10.21993
11.90907
13.42368
14.58286
15.24538
15.29777
14.7482
13.61498
12.03521
10.18138
8.236816
6.303587
4.434286
2.706112
1.184872
0.04365349
-0.7059135
-1.147764
-1.42897
-1.787464
-2.427748
-3.439409
-4.823065
-6.51705
-8.335211
-10.1017
-11.67985
-12.93472
-13.93148
-14.73995
-15.51808
-16.32334
-17.02961
-17.3824
-17.05842
-15.87757
-13.83309
-11.20578
-8.333858
-5.554855
-3.074749
-0.9117813
0.9460716
2.528187
3.749935
4.552094
4.812592
4.444153
3.33205
1.269428
-1.857037
-5.920597
-10.51432
-14.88933
-18.14149
-19.6262
-18.98503
-16.3989
-12.46581
-7.860243
-3.203123
1.091621
4.749222
7.546747
9.267614
9.822001
9.175562
7.435705
4.822777
1.624134
-1.863541
-5.388884
-8.772673
-11.8537
-14.51404
-16.70355
-18.42835
-19.7581
-20.73444
-21.38861
-21.71213
-21.74679
-21.57515
-21.286
-20.95277
-20.57465
-19.98916
-19.02309
-17.39176
-14.84095
-11.25145
-6.749907
-1.642231
3.573355
8.410685
12.53864
15.84843
18.51647
20.86056
23.15792
25.49983
27.67063
29.30882
30.0758
29.73258
28.37925
26.37934
24.25501
22.51968
21.52072
21.33969
21.80066
22.71001
23.76285
24.72194
25.38641
25.58531
25.21065
24.20072
22.56993
20.39656
17.85523
15.17856
12.62255
10.3757
8.571287
7.242561
6.221003
5.229111
3.903437
1.999886
-0.5538578
-3.552561
-6.647509
-9.481722
-11.80202
-13.66326
-15.19893
-16.63308
-17.94669
-18.94924
-19.27399
-18.52934
-16.50311
-13.24902
-9.204
-4.883193
-0.8821907
2.427949
4.847771
6.372266
7.085718
7.18318
6.868558
6.252103
5.458964
4.55074
3.576894
2.607385
1.698645
0.9588194
0.5239625
0.5166874
1.014754
1.978865
3.223638
4.520907
5.670671
6.494423
6.94329
6.976346
6.625444
5.941521
4.968106
3.711131
2.222859
0.6708235
-0.8163947
-2.066475
-3.016493
-3.681366
-4.167182
-4.612179
-5.233897
-6.21525
-7.554803
-9.151693
-10.76811
-12.13235
-13.05462
-13.49105
-13.52946
-13.32173
-12.97082
-12.47941
-11.68654
-10.4147
-8.513279
-5.955021
-2.82439
0.628459
4.153652
7.426496
10.15322
12.14897
13.32878
13.77811
13.69066
13.29292
12.79752
12.3492
11.9489
11.57473
11.1662
10.69709
10.23439
9.866142
9.617735
9.516968
9.490719
9.418465
9.219112
8.787292
8.038351
6.934122
5.474014
3.67737
1.722073
-0.1718044
-1.737349
-2.761162
-3.217201
-3.289562
-3.302843
-3.620846
-4.548538
-6.128254
-8.209152
-10.51388
-12.66373
-14.53014
-16.13486
-17.60091
-19.04765
-20.48272
-21.64197
-22.17447
-21.80112
-20.28418
-17.69693
-14.27504
-10.39347
-6.513927
-3.113525
-0.5090561
1.099926
1.735733
1.613171
0.9843483
0.1029625
-0.9418106
-2.207718
-3.748268
-5.536362
-7.392071
-8.982956
-9.964462
-10.18472
-9.689182
-8.731281
-7.660919
-6.776703
-6.243942
-6.094349
-6.292786
-6.686954
-7.270199
-8.060909
-9.110645
-10.5125
-12.33483
-14.57972
-17.10957
-19.68686
-21.96222
-23.66186
-24.59057
-24.78521
-24.35524
-23.51887
-22.37844
-20.89958
-18.92497
-16.30447
-12.95401
-8.896685
-4.382693
0.3539839
5.014181
9.355836
13.19912
16.37203
18.7584
20.30752
21.12144
21.37902
21.33405
21.19062
21.01201
20.77227
20.34163
19.70579
18.92104
18.14211
17.56406
17.30058
17.37294
17.67871
18.20934
18.93363
19.92462
21.10235
22.24651
23.0405
23.11027
22.25536
20.39793
17.7243
14.42449
10.77677
6.985811
3.194204
-0.4143448
-3.728277
-6.589876
-8.92864
-10.73782
-12.14669
-13.19
-13.78384
-13.78387
-12.94928
-11.11588
-8.283197
-4.666916
-0.6873436
3.139875
6.33643
8.623384
9.839502
10.03995
9.396999
8.198421
6.766544
5.370958
4.267675
3.527855
3.141115
3.034441
3.157091
3.460749
3.886009
4.423468
4.974712
5.552872
6.123331
6.604925
6.965679
7.194111
7.270884
7.135685
6.836407
6.400375
5.903694
5.380308
4.7295
3.830683
2.55336
0.7857227
-1.523979
-4.228058
-7.075653
-9.719316
-11.84348
-13.31671
-14.08574
-14.26744
-14.03762
-13.52885
-12.74668
-11.67114
-10.20165
-8.248027
-5.837256
-3.004247
0.1225595
3.289474
6.233211
8.626501
10.1672
10.72483
10.3495
9.22661
7.659891
5.972303
4.352131
2.950697
1.750603
0.6560664
-0.3184228
-1.03591
-1.35231
-1.107675
-0.2570801
1.02789
2.516452
3.93222
5.068846
5.900178
6.489561
6.76316
6.632013
5.919607
4.465698
2.276446
-0.4353006
-3.385347
-6.208683
-8.672058
-10.75818
-12.51793
-14.12226
-15.71759
-17.36279
-19.01436
-20.57229
-21.85227
-22.70266
-22.99896
-22.68018
-21.80892
-20.59166
-19.22194
-17.84831
-16.49418
-15.00117
-13.12163
-10.75112
-7.963074
-5.090475
-2.58574
-0.7544355
0.2645526
0.5274534
0.2553864
-0.2728596
-0.9149017
-1.601631
-2.329423
-3.115756
-3.934046
-4.741062
-5.394877
-5.741947
-5.624788
-4.990738
-3.947004
-2.710329
-1.521742
-0.5446739
0.2074928
0.8277912
1.413403
1.924948
2.185442
2.072529
1.565964
0.9263954
0.5395851
0.7270622
1.524826
2.648392
3.545582
3.734325
3.116196
1.95047
0.7877007
0.1636887
0.3234978
1.068348
1.992348
2.664658
2.886036
2.763676
2.637985
2.912594
3.910294
5.780495
8.472328
11.81956
15.57499
19.38404
22.8497
25.60656
27.3531
27.9569
27.41935
25.9707
23.90911
21.64117
19.53825
17.85609
16.72919
16.11844
15.90023
15.85287
15.82591
15.67946
15.37285
14.93852
14.46589
13.98137
13.46579
12.85531
12.00077
10.83699
9.333694
7.531822
5.514732
3.403606
1.323792
-0.6298294
-2.323273
-3.722504
-4.884048
-5.896271
-6.968647
-8.241238
-9.771717
-11.35952
-12.72067
-13.55075
-13.70159
-13.34829
-12.74025
-12.23261
-11.98335
-12.04215
-12.24601
-12.36725
-12.20092
-11.59932
-10.47718
-8.742588
-6.397987
-3.486473
-0.3113289
2.721331
5.20694
6.860973
7.602598
7.5802
7.05868
6.301693
5.555134
4.878042
4.26613
3.732674
3.2745
2.982738
2.93836
3.202272
3.799847
4.684368
5.791283
6.976637
8.128035
9.102045
9.846903
10.35656
10.63328
10.64332
10.28821
9.456085
8.066119
6.135173
3.745293
1.133341
-1.387562
-3.540172
-5.133332
-6.168358
-6.717356
-6.951269
-7.006755
-7.002728
-6.96539
-6.84312
-6.635522
-6.347009
-6.118298
-6.106054
-6.468503
-7.251082
-8.339895
-9.553095
-10.62143
-11.3119
-11.34285
-10.53288
-8.798856
-6.29209
-3.339085
-0.3317556
2.345312
4.421467
5.771387
6.478079
6.633432
6.398876
5.829763
5.000874
4.048046
3.136759
2.514648
2.334974
2.687778
3.548815
4.731468
6.027578
7.14023
7.914652
8.282778
8.303755
8.11351
7.796406
7.373611
6.75983
5.851955
4.490158
2.676266
0.4244385
-2.069527
-4.629292
-7.074692
-9.330425
-11.43677
-13.45957
-15.5144
-17.56292
-19.51784
-21.13572
-22.26756
-22.86068
-23.04228
-23.08822
-23.28991
-23.82712
-24.64319
-25.48349
-25.98816
-25.72649
-24.44009
-21.9972
-18.54857
-14.51697
-10.50458
-7.074657
-4.708908
-3.514103
-3.333172
-3.717403
-4.164772
-4.316257
-4.041
-3.533363
-3.072762
-2.9547
-3.272255
-3.999372
-4.922598
-5.753498
-6.267647
-6.285185
-5.785326
-4.879707
-3.799969
-2.685097
-1.646755
-0.6664505
0.3894348
1.629557
3.103456
4.702791
6.224844
7.425051
8.285933
8.870371
9.356753
9.869346
10.36232
10.77317
10.90679
10.70167
10.214
9.695392
9.378559
9.349563
9.601155
9.907595
10.13463
10.17741
10.05791
9.992912
10.22907
11.00239
12.3457
14.16857
16.11751
17.83819
19.04764
19.56688
19.43675
18.77089
17.7725
16.55945
15.25174
13.87719
12.51052
11.2703
10.22711
9.456528
8.955497
8.760712
8.780484
8.922955
9.023079
8.900436
8.479127
7.718018
6.661025
5.413542
4.098079
2.754921
1.385803
-0.035326
-1.612605
-3.29232
-4.970297
-6.489191
-7.644639
-8.348985
-8.661613
-8.747829
-8.829244
-9.153421
-9.688002
-10.32255
-10.81775
-11.05566
-11.15048
-11.35565
-12.00884
-13.31762
-15.25319
-17.41653
-19.24381
-20.13203
-19.61168
-17.55777
-14.13455
-9.800797
-5.181137
-0.898571
2.621395
5.111439
6.530159
7.062172
6.951151
6.461554
5.816055
5.135509
4.441427
3.75532
3.041786
2.277723
1.599497
1.072456
0.9078979
1.118944
1.688093
2.448566
3.228542
3.948362
4.590948
5.258047
5.945393
6.614662
7.036098
7.010912
6.363567
5.0625
3.240149
1.111353
-1.037176
-3.028254
-4.707598
-6.025095
-7.039881
-7.799107
-8.362703
-8.73201
-8.904432
-8.949244
-9.070837
-9.471476
-10.32303
-11.6025
-13.0019
-14.14776
-14.6077
-14.1369
-12.72352
-10.57331
-7.940001
-5.111418
-2.27257
0.495882
3.069565
5.315607
7.086575
8.271461
8.840107
8.870918
8.474743
7.765268
6.935047
6.060513
5.2854
4.741365
4.5166
4.627205
4.988029
5.431622
5.737238
5.747089
5.323967
4.565289
3.620443
2.741892
2.133022
1.891336
1.99622
2.283541
2.562181
2.609118
2.306162
1.614513
0.4840202
-1.050018
-2.969025
-5.206829
-7.572037
-9.813358
-11.61597
-12.72784
-13.06949
-12.89922
-12.49126
-12.15046
-12.00861
-11.93486
-11.66318
-10.91799
-9.582811
-7.667675
-5.440956
-3.054621
-0.6772442
1.668318
3.99748
6.27706
8.371889
10.05103
11.13145
11.42174
10.93334
9.785482
8.18049
6.428251
4.795691
3.485173
2.647609
2.376422
2.601709
3.244296
4.190415
5.273386
6.35783
7.305921
7.949809
8.207786
8.052227
7.524358
6.76747
5.909382
5.03698
4.116905
3.092232
1.882859
0.4594975
-1.137296
-2.859006
-4.590922
-6.28785
-7.901541
-9.344668
-10.55676
-11.43645
-11.97449
-12.24938
-12.40131
-12.51063
-12.64837
-12.80824
-12.7836
-12.44513
-11.59861
-10.17863
-8.155272
-5.655834
-2.795238
0.2605886
3.345807
6.342579
9.066587
11.37133
13.09905
14.1709
14.51159
14.18058
13.27829
11.97804
10.47414
8.939361
7.57537
6.530815
5.828897
5.440528
5.25442
5.144135
4.978826
4.730062
4.409806
4.100864
3.880666
3.731048
3.592553
3.384746
3.021792
2.409475
1.617226
0.6292117
-0.5631869
-2.022695
-3.835546
-6.016609
-8.391904
-10.68205
-12.52324
-13.59474
-13.87581
-13.50554
-12.79491
-12.03913
-11.41166
-10.94755
-10.55501
-10.0798
-9.380898
-8.405581
-7.063595
-5.321872
-3.198278
-0.7946301
1.700173
4.013439
5.923947
7.332278
8.160002
8.504387
8.514863
8.268484
7.843935
7.253508
6.45646
5.520573
4.670354
4.148279
4.216093
4.981291
6.317099
8.017187
9.767593
11.27482
12.34078
12.9522
13.0722
12.7251
11.90189
10.63323
8.976858
7.075466
5.100713
3.20333
1.508182
-0.02008772
-1.391222
-2.774727
-4.235216
-5.739434
-7.087454
-8.006231
-8.29468
-7.997074
-7.44196
-6.967412
-6.923802
-7.397174
-8.295322
-9.377836
-10.42429
-11.31637
-11.97124
-12.2654
-11.90607
-10.65825
-8.423735
-5.381618
-2.00255
1.143024
3.568888
5.056988
5.650475
5.588702
5.106322
4.357946
3.465672
2.411448
1.296789
0.2927065
-0.3934851
-0.6086206
-0.3193226
0.282094
0.9437876
1.402531
1.49567
1.327945
1.100283
1.05131
1.183809
1.361416
1.236138
0.5133657
-0.9286442
-3.012084
-5.441782
-7.969814
-10.43221
-12.90638
-15.54206
-18.43807
-21.50811
-24.51051
-27.1784
-29.32699
-30.90184
-31.93278
-32.38338
-32.13236
-31.08658
-29.19645
-26.53632
-23.34706
-19.67947
-15.36613
-9.941883
-2.858337
6.134609
16.73078
27.97868
38.51959
46.80917
51.70802
52.57362
49.37555
42.59621
32.97618
21.50845
9.383698
-2.03717
-11.34098
-17.27459
-19.15499
-17.07821
-11.90468
-5.093212
1.733982
7.321468
10.971
12.62852
12.6656
11.50702
9.542038
7.079491
4.329842
1.549301
-0.9643326
-2.962219
-4.268936
-4.804047
-4.655136
-3.917351
-2.751335
-1.376663
-0.0812912
0.7982864
0.9137802
0.1135254
-1.461975
-3.471619
-5.33535
-6.490517
-6.548317
-5.319267
-2.852325
0.5798264
4.598
8.802628
12.71182
15.93761
18.19067
19.41312
19.76717
19.56036
19.11475
18.51804
17.77161
16.76826
15.46613
13.90717
12.22181
10.58431
9.103088
7.840187
6.747284
5.836037
5.094955
4.538979
4.094681
3.613525
2.949791
2.027199
0.8558502
-0.3892899
-1.509216
-2.349609
-2.864487
-3.115669
-3.364815
-3.897171
-4.91552
-6.461731
-8.362198
-10.23937
-11.70893
-12.54796
-12.70601
-12.48004
-12.2403
-12.26965
-12.63815
-13.23224
-13.73962
-13.84454
-13.34305
-12.11102
-10.1965
-7.783859
-5.11499
-2.469879
-0.1203613
1.782547
3.202934
4.223732
4.999321
5.625237
6.112595
6.420326
6.484047
6.29332
5.962517
5.604477
5.344048
5.297798
5.465874
5.789169
6.245018
6.807526
7.460457
8.244476
9.082207
9.889565
10.51448
10.82573
10.61282
9.788849
8.331207
6.331451
3.999428
1.510559
-0.9297638
-3.206398
-5.295723
-7.270584
-9.157272
-10.97436
-12.56656
-13.69351
-14.2299
-14.12244
-13.54868
-12.78282
-12.09921
-11.63918
-11.41219
-11.28736
-11.08438
-10.63712
-9.779167
-8.360832
-6.34832
-3.800949
-0.9570313
1.825249
4.14402
5.765152
6.687668
7.111015
7.315094
7.482353
7.668068
7.78231
7.711281
7.428696
6.985168
6.509308
6.139717
5.966904
5.972168
6.087326
6.231873
6.356285
6.419388
6.46907
6.538223
6.672409
6.941856
7.352905
7.736641
7.932045
7.691963
6.869896
5.47963
3.639519
1.579033
-0.4368744
-2.256966
-3.925613
-5.451416
-6.8918
-8.175224
-9.134407
-9.658371
-9.739418
-9.528564
-9.318077
-9.399239
-9.860924
-10.66175
-11.57033
-12.25929
-12.49104
-12.17449
-11.26852
-9.818596
-7.861824
-5.355316
-2.410881
0.7999573
4.037827
6.937454
9.175041
10.57692
11.1423
10.98827
10.40418
9.630814
8.836136
8.229477
7.90921
7.942993
8.38166
9.16555
10.16469
11.16948
11.93173
12.24251
12.00709
11.18212
9.857201
8.242706
6.496651
4.769394
3.112411
1.558037
0.09274292
-1.160789
-2.12043
-2.739174
-3.06488
-3.362175
-3.967575
-5.131805
-6.843246
-8.821068
-10.51672
-11.51514
-11.72533
-11.28743
-10.59442
-9.956375
-9.465866
-9.022591
-8.445969
-7.551865
-6.269089
-4.70903
-2.906387
-0.9711914
1.119446
3.322441
5.552353
7.631226
9.312309
10.48333
11.06915
11.19422
10.96883
10.58876
10.20953
9.879234
9.647644
9.499489
9.529449
9.762749
10.2401
10.82025
11.29338
11.46998
11.20457
10.53196
9.581505
8.56163
7.563286
6.539505
5.353271
3.839455
2.040237
0.07616425
-1.808968
-3.422256
-4.602539
-5.368141
-5.813393
-6.059448
-6.288284
-6.657104
-7.30632
-8.222084
-9.334076
-10.45394
-11.43837
-12.24077
-12.8819
-13.47745
-14.16125
-14.98458
-15.78214
-16.28915
-16.19572
-15.29739
-13.56068
-11.13211
-8.295837
-5.34726
-2.484177
0.2071228
2.735085
5.174858
7.629845
10.25616
13.11427
16.04177
18.74646
20.82068
21.82927
21.46116
19.74583
16.98829
13.66435
10.32892
7.321846
4.754333
2.345131
-0.7689056
-5.933891
-14.45076
-26.99419
-42.99841
-60.4487
-76.38045
-87.76527
-92.50649
-90.10983
-81.56112
-68.70537
-53.63376
-38.02758
-23.07409
-9.474617
2.298622
11.9565
19.37529
24.70941
28.27541
30.46187
31.65362
32.12905
32.06168
31.63348
30.97113
30.2424
29.73754
29.74464
30.48438
31.9954
34.10658
36.36038
38.25559
39.29197
39.24347
38.20072
36.53263
34.61185
32.68021
30.62529
28.12114
24.90449
20.86216
16.31589
11.77592
7.840485
4.901741
3.127579
2.37336
2.312065
2.663185
3.103462
3.541443
3.94651
4.303337
4.613792
4.751923
4.574051
3.948975
2.867714
1.329041
-0.507515
-2.551605
-4.822868
-7.243004
-9.760689
-12.15264
-14.09821
-15.26558
-15.59525
-15.13435
-14.29932
-13.51992
-13.04176
-12.93722
-13.00942
-13.01101
-12.65241
-11.78133
-10.21985
-7.920723
-4.973648
-1.56337
1.897705
4.932159
7.119911
8.218918
8.261497
7.544243
6.444405
5.280746
4.264763
3.372833
2.514633
1.603325
0.6224518
-0.2896042
-0.9049988
-1.090477
-0.7733612
-0.02445984
0.9445267
2.006371
3.051132
4.047745
4.959717
5.690804
6.099945
6.107262
5.681854
4.86837
3.819748
2.692238
1.583733
0.4957047
-0.6139946
-1.795769
-3.023052
-4.245586
-5.428734
-6.523651
-7.56094
-8.542759
-9.493778
-10.41284
-11.2593
-11.96862
-12.45643
-12.64993
-12.49556
-12.00049
-11.15886
-9.917336
-8.265499
-6.164806
-3.653324
-0.8452454
2.036999
4.75058
7.085659
9.006969
10.62307
12.01577
13.21301
14.10361
14.51784
14.30626
13.48444
12.24498
10.92953
9.834656
9.059917
8.555794
8.087765
7.395042
6.309628
4.815815
3.088758
1.331835
-0.2559757
-1.578817
-2.641068
-3.502226
-4.29862
-5.102127
-5.92873
-6.721636
-7.459377
-8.080145
-8.610149
-9.124619
-9.714874
-10.45109
-11.32469
-12.27542
-13.18438
-13.97039
-14.55378
-14.9415
-15.17116
-15.31699
-15.42363
-15.51552
-15.59794
-15.55588
-15.22221
-14.35496
-12.82151
-10.63005
-7.987726
-5.266746
-2.745346
-0.5860672
1.241597
2.824253
4.260532
5.465591
6.230179
6.326866
5.627493
4.214931
2.426828
0.7174015
-0.6070881
-1.249287
-1.186127
-0.5413647
0.4457035
1.541045
2.565418
3.40237
3.983109
4.175701
3.895418
3.058561
1.680912
-0.1743746
-2.288815
-4.381191
-6.249468
-7.761709
-8.992487
-10.12254
-11.41107
-12.98484
-14.77601
-16.56012
-18.02063
-18.96114
-19.33213
-19.25175
-18.84827
-18.19726
-17.30588
-16.05391
-14.4451
-12.48215
-10.28366
-7.867846
-5.192251
-2.148129
1.321808
5.104843
8.980764
12.64171
15.88178
18.59363
20.86382
22.71561
24.15323
25.07001
25.28894
24.67882
23.27848
21.33432
19.2218
17.35878
16.05453
15.4411
15.47956
15.97406
16.65508
17.2998
17.72719
17.82564
17.53838
16.85625
15.70642
14.10165
12.00476
9.449226
6.557716
3.519093
0.5459518
-2.154831
-4.484493
-6.469166
-8.208099
-9.818123
-11.26495
-12.41364
-13.09191
-13.26511
-13.0008
-12.60003
-12.36389
-12.48627
-12.89584
-13.30502
-13.34378
-12.75978
-11.46835
-9.511805
-7.090588
-4.375172
-1.565773
1.163399
3.616356
5.63953
7.080397
7.922085
8.21483
8.067072
7.624317
7.014698
6.297316
5.475639
4.575254
3.627752
2.735764
2.055866
1.701385
1.790974
2.29867
3.106018
4.039333
4.98834
5.881372
6.621473
7.123152
7.18627
6.73753
5.708649
4.18961
2.369893
0.4854555
-1.26459
-2.843975
-4.282589
-5.714169
-7.277422
-8.989088
-10.7419
-12.25052
-13.23087
-13.44274
-12.88575
-11.7555
-10.49181
-9.517713
-9.101692
-9.157501
-9.352306
-9.299692
-8.654818
-7.289254
-5.251837
-2.805618
-0.2064371
2.278565
4.442864
6.111012
7.163496
7.543823
7.284649
6.625137
5.848047
5.188543
4.786364
4.606901
4.488067
4.301222
3.920213
3.34903
2.718367
2.246501
2.078939
2.290649
2.929333
3.941883
5.264052
6.813106
8.359989
9.672785
10.46177
10.46354
9.623816
8.087383
6.172665
4.285229
2.803685
1.833972
1.367565
1.132568
0.7414695
-0.06079441
-1.440141
-3.407689
-5.667358
-7.899026
-9.900909
-11.52491
-12.85133
-13.99803
-14.99126
-15.83133
-16.54018
-17.01335
-17.17986
-17.00871
-16.30116
-14.87281
-12.61094
-9.534037
-5.984743
-2.575198
0.1682808
1.869759
2.460477
2.16673
1.352254
0.2398896
-0.9357197
-2.073761
-3.054576
-3.625512
-3.62324
-2.865137
-1.31628
0.8259804
3.188246
5.41231
7.172528
8.357612
9.036441
9.306032
9.345719
9.276232
9.045247
8.506292
7.54418
6.08443
4.231342
2.1696
0.02726769
-2.126071
-4.270819
-6.399125
-8.483025
-10.40535
-12.10048
-13.5482
-14.81034
-16.03362
-17.3607
-18.84564
-20.37364
-21.71566
-22.68166
-23.13759
-23.06398
-22.53157
-21.62624
-20.42218
-18.91657
-17.03962
-14.59381
-11.52898
-7.896919
-3.944717
0.01638031
3.663374
6.893299
9.680948
12.08732
14.13091
15.68848
16.62494
16.78716
16.34039
15.57346
14.97828
14.86503
15.35947
16.31355
17.46027
18.63663
19.76235
20.92991
22.2324
23.64999
24.91663
25.63974
25.43626
24.10294
21.73176
18.6715
15.27211
11.84903
8.603031
5.666409
3.105419
1.035492
-0.559803
-1.781582
-2.817463
-3.90667
-5.184155
-6.624981
-7.971687
-9.049801
-9.724735
-10.04721
-10.17601
-10.28276
-10.4557
-10.65907
-10.74522
-10.44103
-9.580196
-8.087486
-6.026012
-3.640285
-1.178078
1.102573
3.025417
4.47477
5.440918
5.941685
5.99287
5.66346
4.974091
4.085373
3.166142
2.366119
1.813145
1.611565
1.81086
2.428173
3.410858
4.517395
5.598495
6.481071
7.057064
7.381073
7.660915
7.98629
8.327461
8.521599
8.284573
7.50061
6.253273
4.759029
3.312767
2.127399
1.197575
0.3438377
-0.5732918
-1.665699
-2.888195
-4.097557
-5.226086
-6.185116
-7.056412
-7.900719
-8.764141
-9.579475
-10.32371
-10.93954
-11.44765
-11.96444
-12.44279
-12.88821
-13.17919
-13.132
-12.50361
-11.22456
-9.235897
-6.590088
-3.537092
-0.3469162
2.678585
5.267969
7.266056
8.658585
9.380518
9.461519
8.937601
7.871229
6.456091
4.969933
3.746456
3.079922
3.116068
3.868141
5.204212
6.964434
8.915493
10.89302
12.71393
14.17506
15.11917
15.31923
14.64389
13.05743
10.72714
7.854055
4.825247
1.919653
-0.6778984
-2.850676
-4.687462
-6.337683
-7.994543
-9.768305
-11.68326
-13.57095
-15.19827
-16.34021
-16.87342
-16.87042
-16.5543
-16.20595
-16.03608
-16.12653
-16.34724
-16.48403
-16.30914
-15.66147
-14.45419
-12.69441
-10.44241
-7.850208
-5.135534
-2.556366
-0.3879566
1.163681
2.095531
2.584862
2.945177
3.473267
4.256325
5.155636
5.909876
6.240572
6.084038
5.57004
4.9345
4.426788
4.175161
4.154966
4.208273
4.184196
3.930494
3.446766
2.754803
1.923817
1.022083
0.1276054
-0.7069397
-1.531738
-2.387646
-3.428562
-4.692074
-6.255142
-8.125095
-10.2429
-12.49579
-14.67264
-16.48413
-17.62784
-17.86979
-17.1199
-15.53754
-13.45542
-11.32213
-9.554459
-8.397564
-7.82753
-7.625599
-7.478271
-7.106621
-6.396694
-5.377537
-4.149769
-2.841751
-1.493103
-0.0695076
1.524303
3.407223
5.60247
8.014565
10.41171
12.57357
14.27555
15.4103
16.01115
16.25077
16.33738
16.46333
16.7756
17.34808
18.21258
19.28936
20.43797
21.44392
22.14861
22.41062
22.16511
21.4936
20.41819
19.0098
17.23273
15.13102
12.70678
10.07276
7.333725
4.548172
1.833878
-0.7271881
-2.989677
-4.850349
-6.196548
-7.040421
-7.476288
-7.730972
-8.050774
-8.603241
-9.477562
-10.45172
-11.22395
-11.42332
-10.73334
-9.061028
-6.537643
-3.489761
-0.2613449
2.719002
5.215942
7.084328
8.276176
8.858467
8.930908
8.668633
8.190445
7.640213
7.008667
6.291794
5.538704
4.813522
4.194557
3.798775
3.73143
4.016312
4.618187
5.327988
5.962921
6.316753
6.28091
5.792007
4.844185
3.541779
1.987038
0.3377113
-1.319302
-2.844948
-4.170692
-5.304226
-6.259663
-7.133728
-7.935284
-8.70396
-9.400913
-10.03822
-10.61832
-11.19534
-11.78106
-12.34227
-12.7995
-13.08295
-13.13857
-12.83693
-12.10563
-10.76255
-8.722748
-6.051735
-2.948215
0.2226105
3.048923
5.204208
6.551823
7.112869
7.092903
6.682083
6.024376
5.216171
4.277843
3.314354
2.487587
2.041035
2.144253
2.928368
4.368034
6.283176
8.421978
10.49649
12.31623
13.72533
14.68846
15.06585
14.82768
13.95453
12.46103
10.52095
8.27655
5.933987
3.634953
1.465141
-0.6009369
-2.566029
-4.450798
-6.237164
-7.848576
-9.251095
-10.30789
-10.97195
-11.26096
-11.2602
-11.13044
-10.99818
-10.96782
-11.02902
-11.17498
-11.28579
-11.24453
-10.84227
-9.85117
-8.131119
-5.641541
-2.681076
0.4094086
3.129311
5.11702
6.227497
6.494743
6.065083
5.047962
3.643215
2.009998
0.4233704
-0.8594933
-1.55851
-1.489861
-0.6013489
1.005692
3.048048
5.211588
7.164
8.654106
9.587164
10.0095
10.02499
9.797787
9.410549
8.722908
7.586958
5.884892
3.557976
0.7602901
-2.267385
-5.246681
-7.900818
-10.04367
-11.6534
-12.79743
-13.61257
-14.23701
-14.80437
-15.34981
-15.82398
-16.18113
-16.31918
-16.23146
-15.97452
-15.65944
-15.37843
-15.2065
-15.12527
-15.09238
-15.05948
-14.92167
-14.52745
-13.63134
-12.00852
-9.599068
-6.519436
-3.061562
0.3277626
3.299644
5.619495
7.248726
8.301826
8.899467
9.062279
8.792908
8.11692
7.144489
6.088623
5.272221
4.977444
5.335381
6.406433
8.003254
9.831623
11.59262
13.03567
14.00062
14.52064
14.61284
14.3155
13.63789
12.56767
11.14703
9.514397
7.798374
6.163567
4.729504
3.409622
2.115238
0.745491
-0.6632729
-1.902653
-2.672817
-2.792709
-2.221436
-1.132668
0.03561401
0.8551292
1.045116
0.6169472
-0.2000046
-1.03331
-1.526081
-1.419373
-0.5571251
1.000881
3.203506
5.922066
8.986996
12.09408
14.87936
16.99459
18.18803
18.39972
17.69708
16.32593
14.51463
12.50909
10.47298
8.534447
6.77652
5.265354
4.082733
3.290432
2.981277
3.147327
3.674429
4.419903
5.188663
5.873871
6.42621
6.879183
7.216087
7.403189
7.271368
6.628466
5.457788
3.833563
2.013229
0.2189541
-1.336507
-2.589748
-3.569332
-4.361905
-5.083426
-5.892979
-6.92494
-8.239134
-9.820642
-11.44013
-12.80105
-13.65123
-13.91227
-13.65134
-13.04017
-12.23452
-11.31288
-10.24017
-8.945674
-7.378351
-5.612345
-3.764562
-2.004427
-0.3529005
1.141513
2.4821
3.655633
4.643278
5.419131
5.947039
6.281578
6.416737
6.446453
6.369034
6.146633
5.701538
5.024078
4.220327
3.491396
3.07073
3.091774
3.544563
4.21435
4.821119
5.096163
4.955994
4.550911
4.160812
4.005375
4.142536
4.470631
4.769295
4.802898
4.476826
3.742481
2.683762
1.39595
-0.05272675
-1.675396
-3.436226
-5.297832
-7.1558
-8.777222
-10.00895
-10.71947
-10.91996
-10.73149
-10.36317
-9.988392
-9.75362
-9.686802
-9.656494
-9.480751
-8.965244
-7.94418
-6.349663
-4.242165
-1.81488
0.6232605
2.760674
4.382179
5.354355
5.679634
5.412788
4.623672
3.398499
1.807304
-0.01891327
-1.917419
-3.672394
-5.121384
-6.053131
-6.30658
-5.797401
-4.537239
-2.625984
-0.2591095
2.335648
4.861954
7.002235
8.498619
9.2062
9.020676
7.959648
6.184944
3.875854
1.259743
-1.484406
-4.230057
-6.851814
-9.188698
-11.16537
-12.81074
-14.18058
-15.46927
-16.84617
-18.39985
-20.06944
-21.6849
-22.90849
-23.5235
-23.45031
-22.75144
-21.65033
-20.35804
-19.001
-17.55339
-15.93958
-13.98225
-11.60307
-8.937614
-6.252014
-3.887146
-2.064133
-0.8219223
0.01171112
0.6085892
1.20118
1.872086
2.599312
3.281281
3.751244
3.919624
3.789558
3.497505
3.266167
3.45047
4.275826
5.806496
7.936081
10.2818
12.53855
14.43841
15.88107
16.88357
17.53128
17.8446
17.77923
17.3713
16.52264
15.18338
13.36761
11.11675
8.478065
5.622993
2.746719
-0.01718903
-2.482857
-4.60305
-6.341179
-7.666275
-8.506393
-8.898796
-8.932098
-8.73848
-8.453354
-8.012749
-7.263451
-5.981773
-3.986145
-1.286278
1.908882
5.248657
8.308952
10.81023
12.63158
13.72804
14.22027
14.23849
13.93611
13.40776
12.74052
11.92052
10.92617
9.815102
8.700417
7.739868
7.120895
6.874794
6.87986
6.977722
6.951424
6.650459
6.104782
5.374481
4.57235
3.777191
3.011818
2.2547
1.551994
0.8612747
0.1761551
-0.4382553
-1.035706
-1.567741
-2.145248
-2.793594
-3.660423
-4.785728
-6.180367
-7.756561
-9.321587
-10.79154
-12.07938
-13.23022
-14.19556
-14.91377
-15.22105
-14.94592
-13.95545
-12.24781
-9.922783
-7.111313
-4.065941
-1.042595
1.658699
3.726555
4.989059
5.453522
5.361168
5.032761
4.783714
4.698143
4.671463
4.558472
4.218262
3.704056
3.100433
2.586334
2.246811
2.130508
2.28363
2.694046
3.42334
4.437897
5.626968
6.720428
7.438202
7.546204
6.971237
5.837082
4.335144
2.672943
0.9154663
-0.8804474
-2.790665
-4.815735
-6.845383
-8.768753
-10.45345
-11.84468
-12.89253
-13.6272
-14.05861
-14.32051
-14.55151
-14.83345
-15.18922
-15.53192
-15.75783
-15.68465
-15.21364
-14.26303
-12.79263
-10.75641
-8.278046
-5.57077
-3.017563
-0.9953003
0.286972
0.8862
1.026718
0.9949646
0.9743347
0.8856506
0.5532837
-0.1132355
-1.026733
-1.904144
-2.355484
-2.106293
-1.08403
0.5489655
2.485291
4.386322
6.020355
7.220047
7.86438
7.896439
7.292847
6.060867
4.287399
2.101196
-0.2980042
-2.7276
-5.192917
-7.71109
-10.37062
-13.18089
-16.04039
-18.66452
-20.8042
-22.17923
-22.71304
-22.60258
-22.0168
-21.19283
-20.18617
-18.89789
-17.13168
-14.79181
-11.85573
-8.514053
-5.172661
-2.15448
0.3206558
2.251022
3.773941
5.130951
6.40461
7.565086
8.432648
8.732277
8.352814
7.309021
5.833527
4.337059
3.216545
2.805595
3.262138
4.560478
6.451691
8.707863
10.98546
13.05112
14.81822
16.11887
16.9172
17.18973
16.97724
16.31252
15.34065
14.05743
12.442
10.44094
7.958664
5.083946
2.056534
-0.7311554
-2.908173
-4.223244
-4.787659
-4.836037
-4.744995
-4.744347
-4.849327
-4.888283
-4.585831
-3.667313
-1.961838
0.4990845
3.619934
7.120659
10.61098
13.73247
16.17637
17.73279
18.40612
18.30531
17.60316
16.50878
15.1461
13.46017
11.41996
9.009842
6.403801
3.893715
1.832558
0.4675751
-0.09689331
-0.05014801
0.2422485
0.4517746
0.3339844
-0.1260147
-0.8716125
-1.776772
-2.80851
-3.883308
-4.964615
-5.945381
-6.677956
-7.027679
-6.951347
-6.522675
-5.963463
-5.547333
-5.461815
-5.767715
-6.333847
-6.999069
-7.586334
-7.970482
-8.135712
-8.120491
-8.066452
-8.021805
-7.974693
-7.831245
-7.475563
-6.839279
-5.860771
-4.576553
-3.015175
-1.260979
0.643692
2.642494
4.721115
6.811447
8.750618
10.41491
11.64404
12.42282
12.66091
12.35705
11.50249
10.16988
8.572853
7.04425
5.987755
5.615517
6.038925
7.000168
8.120979
8.991959
9.312859
8.992645
7.996796
6.329895
3.923706
0.8387222
-2.771706
-6.501175
-9.84613
-12.2864
-13.5535
-13.75797
-13.28411
-12.70615
-12.37386
-12.38844
-12.52084
-12.49644
-12.14162
-11.53307
-10.98566
-10.79368
-11.06422
-11.59983
-11.98551
-11.7789
-10.67075
-8.61248
-5.801468
-2.593307
0.6102524
3.486076
5.834854
7.612877
8.834084
9.624229
10.0264
10.01338
9.488831
8.388412
6.64032
4.308434
1.743172
-0.5752411
-2.163139
-2.679703
-2.066147
-0.6072311
1.208641
2.910316
4.130157
4.892616
5.346977
5.611023
5.673103
5.315094
4.250229
2.230484
-0.7179031
-4.36705
-8.266167
-11.99944
-15.36319
-18.3156
-20.95985
-23.37651
-25.59687
-27.46203
-28.79272
-29.42039
-29.32906
-28.64799
-27.50478
-25.96398
-23.98579
-21.47109
-18.40005
-15.01578
-11.67138
-8.774487
-6.544605
-4.934612
-3.729053
-2.666355
-1.609039
-0.5930367
0.1678238
0.5325546
0.5565338
0.6121635
1.250713
2.930313
5.893986
9.981316
14.60765
18.96157
22.39866
24.54823
25.51278
25.73749
25.60407
25.28051
24.5349
22.99883
20.30041
16.56344
12.26359
8.099721
4.73618
2.436315
1.164542
0.5318031
0.2328463
0.007521629
-0.1588626
-0.1950917
-0.09890699
0.06905222
0.1824868
0.2556663
0.4237412
1.069097
2.544125
5.061344
8.516491
12.46309
16.23205
19.08208
20.56567
20.58042
19.4714
17.81805
16.19838
14.97081
14.18475
13.72993
13.41281
13.1473
12.95856
12.89742
12.96648
13.00999
12.83198
12.24666
11.28164
10.04171
8.76739
7.628364
6.691139
5.948549
5.292341
4.595432
3.769028
2.794332
1.618013
0.2456028
-1.325148
-3.076818
-4.975489
-7.009818
-9.133664
-11.32891
-13.5621
-15.83861
-18.12582
-20.38393
-22.49527
-24.30621
-25.58656
-26.0763
-25.55001
-23.91225
-21.20463
-17.62681
-13.50027
-9.146219
-4.867156
-0.9359169
2.439198
5.135559
7.035234
8.139663
8.486541
8.180284
7.356893
6.247221
5.063528
3.991005
3.225677
2.868778
2.946926
3.398515
4.13975
5.028943
5.995835
6.952433
7.863292
8.594812
8.977615
8.851824
8.097855
6.710183
4.812767
2.634563
0.422575
-1.5722
-3.262352
-4.599969
-5.601594
-6.299854
-6.856168
-7.436669
-8.253878
-9.468113
-11.13305
-13.10055
-15.02802
-16.39343
-16.70055
-15.64884
-13.23404
-9.760351
-5.785412
-1.92713
1.371176
3.872482
5.65844
6.891776
7.854805
8.705716
9.488365
10.08885
10.37769
10.32572
10.01797
9.669626
9.426847
9.427562
9.617642
9.868081
9.959049
9.841934
9.592354
9.329961
9.214023
9.239745
9.366045
9.488474
9.550958
9.578282
9.509537
9.264257
8.566471
7.120343
4.671805
1.290588
-2.689356
-6.72845
-10.20011
-12.76456
-14.38983
-15.27603
-15.68662
-15.85555
-15.78532
-15.3844
-14.52537
-13.16903
-11.5102
-9.847622
-8.507253
-7.633747
-7.245828
-7.135696
-7.022763
-6.574142
-5.568353
-4.001941
-1.980284
0.2552011
2.52244
4.702177
6.682526
8.31176
9.44031
9.991226
9.887654
9.278358
8.405048
7.539456
6.858579
6.35657
5.819755
4.98318
3.722981
2.053669
0.1504331
-1.764075
-3.618702
-5.402851
-7.158357
-8.97895
-10.89383
-12.78859
-14.52908
-16.02378
-17.29046
-18.43639
-19.52008
-20.58579
-21.52396
-22.22261
-22.50197
-22.35463
-21.88197
-21.30262
-20.71846
-20.0428
-19.06451
-17.46693
-15.20532
-12.42543
-9.564447
-7.049974
-5.134768
-3.76499
-2.688103
-1.626188
-0.408947
0.8827972
2.073753
2.985497
3.611683
4.1031
4.706844
5.660923
7.112251
9.114639
11.5716
14.33502
17.2452
20.06769
22.57881
24.48936
25.55758
25.65561
24.86172
23.35432
21.44236
19.40049
17.31873
15.18394
12.94405
10.57554
8.198242
6.017315
4.134956
2.617119
1.461723
0.5764923
-0.01781464
-0.2642975
-0.1380463
0.3067932
0.9949341
1.768738
2.541435
3.365623
4.337349
5.616882
7.292511
9.300446
11.38004
13.28896
14.75864
15.64079
15.95969
15.8688
15.53585
15.09559
14.54185
13.76443
12.7151
11.39873
9.945763
8.556847
7.405212
6.570686
5.975853
5.455879
4.802925
3.879784
2.632256
1.133034
-0.3605537
-1.651539
-2.578346
-3.106098
-3.33083
-3.376194
-3.33186
-3.210686
-2.981815
-2.621216
-2.257839
-2.161304
-2.590305
-3.731102
-5.556103
-7.892017
-10.42318
-12.87729
-15.09021
-16.97684
-18.50885
-19.55444
-19.99593
-19.66196
-18.45336
-16.36426
-13.53535
-10.19836
-6.657417
-3.226852
-0.109108
2.495914
4.5495
6.095673
7.192913
7.974236
8.538891
8.966991
9.190952
9.138081
8.734005
8.057457
7.279655
6.726421
6.714336
7.402298
8.710159
10.3031
11.79322
12.89001
13.48777
13.54562
13.08926
12.09912
10.5202
8.369514
5.814423
3.173328
0.824131
-0.9154854
-2.014496
-2.663326
-3.227844
-4.091846
-5.39386
-7.07489
-8.878036
-10.4952
-11.8021
-12.82175
-13.68743
-14.50795
-15.33995
-15.98168
-16.3303
-16.30913
-15.91019
-15.08498
-13.73267
-11.70732
-8.937023
-5.552633
-1.858334
1.660444
4.568611
6.635777
7.872353
8.440212
8.54619
8.263435
7.59099
6.526588
5.139774
3.655369
2.472811
1.858347
1.993456
2.799515
3.997305
5.297665
6.479694
7.53026
8.47398
9.460197
10.46544
11.45472
12.27587
12.76218
12.805
12.37452
11.52772
10.31013
8.818069
7.064131
5.105869
2.968868
0.6418571
-1.836279
-4.395512
-6.985552
-9.524594
-11.89778
-14.01944
-15.77961
-17.10052
-17.92411
-18.20168
-17.83183
-16.76858
-14.99907
-12.57217
-9.651898
-6.443674
-3.180541
-0.08950233
2.630418
4.806601
6.357237
7.259989
7.566994
7.370164
6.880621
6.285042
5.678177
5.162327
4.70892
4.294102
3.969403
3.789035
3.752166
3.893668
4.119366
4.237049
4.132966
3.739924
3.083255
2.27034
1.480767
0.7281366
0.04678707
-0.6518687
-1.519774
-2.654981
-4.052109
-5.640419
-7.344922
-9.033814
-10.70876
-12.41003
-14.10852
-15.7224
-17.10815
-18.11144
-18.68575
-18.89416
-18.88919
-18.83238
-18.84564
-18.89003
-18.78932
-18.32232
-17.21398
-15.33919
-12.62531
-9.207574
-5.392362
-1.554091
1.960746
4.822961
6.871789
8.095013
8.521283
8.315055
7.608118
6.42168
4.726644
2.57803
0.03841019
-2.577283
-4.777357
-6.143474
-6.365244
-5.404091
-3.572828
-1.300548
0.9845848
2.896973
4.243107
5.047777
5.374632
5.301504
4.915432
4.204681
3.242601
2.1486
1.063202
0.1944599
-0.2139778
-0.0526619
0.667469
1.788271
3.027323
4.120726
4.889086
5.178921
4.948536
4.258762
3.195175
1.9879
0.9522171
0.4642982
0.8125458
2.180058
4.465919
7.374962
10.44356
13.15492
15.16729
16.28081
16.51715
15.99177
14.9312
13.51402
11.89301
10.12194
8.213486
6.354431
4.695229
3.511436
2.899803
2.875595
3.242069
3.814919
4.431011
5.078781
5.886616
6.864265
7.910561
8.674229
8.850922
8.158585
6.692886
4.789421
2.86298
1.198837
-0.1558571
-1.324009
-2.539394
-3.902222
-5.373241
-6.715073
-7.649082
-8.051296
-8.083958
-8.076073
-8.412184
-9.324751
-10.78728
-12.44527
-13.82524
-14.42392
-13.99208
-12.51722
-10.15247
-7.152449
-3.818201
-0.4864082
2.490053
4.777899
6.138433
6.513224
6.153032
5.442839
4.765745
4.273724
3.854637
3.269741
2.323635
1.069145
-0.1870689
-0.9356461
-0.8108253
0.2307072
1.87644
3.621944
5.024334
5.901819
6.357805
6.585913
6.736958
6.766041
6.423498
5.523705
4.059278
2.176235
0.1585789
-1.768818
-3.575661
-5.348482
-7.193226
-9.016724
-10.53277
-11.41653
-11.54626
-11.06401
-10.37162
-9.954206
-10.16037
-11.07322
-12.41003
-13.6411
-14.27042
-14.01429
-12.78251
-10.69065
-7.976482
-4.925875
-1.82494
1.035444
3.501095
5.414732
6.73353
7.548326
8.041769
8.419373
8.825781
9.279829
9.700319
9.991743
10.11784
10.1179
10.16332
10.34412
10.6418
10.96958
11.1503
11.03029
10.54934
9.768148
8.806946
7.821476
6.890484
6.045382
5.290607
4.541777
3.68705
2.634594
1.341043
-0.2143192
-1.943321
-3.802055
-5.649738
-7.334183
-8.716503
-9.679344
-10.21471
-10.36858
-10.3532
-10.329
-10.47042
-10.77582
-11.10182
-11.30799
-11.20266
-10.69541
-9.705179
-8.268574
-6.457542
-4.388096
-2.264158
-0.274374
1.407635
2.780212
3.898594
4.925081
5.97184
7.018585
7.942335
8.524338
8.675585
8.41246
7.913872
7.416145
7.063576
6.9083
6.888723
6.896097
6.84992
6.771339
6.697954
6.649784
6.573269
6.287207
5.695904
4.662216
3.281109
1.658731
-0.0009403229
-1.59173
-3.061218
-4.452728
-5.809904
-7.146248
-8.529491
-9.930193
-11.3969
-12.92453
-14.49332
-16.02539
-17.43636
-18.62571
-19.57265
-20.31077
-20.83407
-21.07182
-20.82489
-19.86559
-17.97239
-15.21883
-11.84471
-8.279072
-4.944956
-2.071571
0.2825928
2.135754
3.577812
4.707554
5.494419
5.959515
6.064796
5.788166
5.228077
4.515526
3.875671
3.560585
3.746735
4.43996
5.446621
6.43824
7.083546
7.281223
7.035023
6.544312
5.941013
5.233006
4.339832
3.13055
1.555729
-0.3719139
-2.508514
-4.7314
-6.874043
-8.800632
-10.38829
-11.50259
-12.05557
-12.08881
-11.6669
-10.911
-9.979298
-8.969936
-7.890774
-6.715069
-5.301498
-3.538857
-1.311974
1.454475
4.789825
8.590752
12.58293
16.44994
19.84251
22.52152
24.29803
25.13387
25.1134
24.37263
23.06481
21.3351
19.34072
17.29829
15.39667
13.805
12.61305
11.83736
11.38778
11.15906
11.14629
11.34605
11.86562
12.72815
13.81745
14.81885
15.37467
15.11996
13.90285
11.8599
9.255447
6.438759
3.61657
0.9541016
-1.590195
-4.024315
-6.384064
-8.621155
-10.53866
-11.99871
-12.87436
-13.27809
-13.33681
-13.27726
-13.2553
-13.27578
-13.27391
-13.01161
-12.31456
-11.06599
-9.307697
-7.138836
-4.704582
-2.167999
0.2936859
2.453793
4.153179
5.291836
5.868942
6.030502
5.996994
5.941967
5.920029
5.89093
5.68174
5.181973
4.379433
3.452122
2.679974
2.281708
2.353546
2.817425
3.568081
4.42453
5.21706
5.829544
6.215336
6.420471
6.424118
6.269802
5.98373
5.594387
5.124165
4.589588
3.956146
3.130474
2.100098
0.7767754
-0.8521156
-2.715092
-4.621574
-6.326214
-7.538368
-8.052876
-7.919302
-7.284384
-6.430475
-5.626543
-5.016083
-4.580738
-4.155416
-3.52706
-2.523212
-1.059996
0.8386173
3.060497
5.462761
7.810423
9.782642
11.12865
11.64127
11.25229
10.08936
8.438263
6.623095
4.964908
3.664845
2.713647
2.015275
1.344766
0.5762298
-0.2895858
-1.097995
-1.588708
-1.615208
-1.176702
-0.484493
0.1058922
0.2487078
-0.1021752
-0.8133197
-1.607739
-2.213273
-2.554495
-2.731396
-2.893804
-3.19129
-3.762753
-4.627388
-5.79511
-7.203554
-8.787395
-10.4024
-11.90192
-13.17874
-14.22641
-15.14383
-16.01215
-16.91386
-17.75224
-18.39484
-18.63037
-18.29443
-17.22079
-15.37733
-12.73843
-9.418106
-5.744473
-2.09531
1.141186
3.668205
5.398005
6.415348
6.782986
6.599131
5.912344
4.764658
3.261837
1.586893
-0.1056404
-1.622892
-2.804501
-3.526464
-3.76132
-3.584188
-3.179605
-2.792048
-2.719019
-3.182859
-4.20743
-5.71487
-7.467863
-9.264547
-10.95077
-12.45907
-13.70352
-14.74139
-15.63339
-16.4624
-17.33166
-18.21355
-19.01771
-19.55427
-19.66274
-19.1823
-18.13223
-16.59499
-14.754
-12.84699
-11.00131
-9.180472
-7.269734
-5.099968
-2.483244
0.6103644
4.144874
7.925059
11.64038
15.04473
17.95912
20.30778
22.05332
23.27062
24.04294
24.59511
25.12835
25.6915
26.24562
26.5048
26.1958
25.14357
23.4637
21.48952
19.62347
18.11617
16.89321
15.75838
14.4439
12.92522
11.47642
10.40629
9.941517
10.03999
10.50707
11.06505
11.56749
11.94989
12.14059
12.0213
11.31915
9.802332
7.395822
4.356678
1.128388
-1.765336
-4.11223
-6.00118
-7.702729
-9.54154
-11.57507
-13.60732
-15.20325
-15.99868
-15.71624
-14.33127
-11.9897
-8.883185
-5.282008
-1.408132
2.425481
5.906588
8.710329
10.59137
11.45323
11.33331
10.45042
9.091812
7.545946
6.038864
4.683573
3.539619
2.566179
1.802788
1.23078
0.8810577
0.741291
0.7662735
0.8659859
0.9049835
0.8012657
0.4569283
-0.1390381
-1.034565
-2.20668
-3.673344
-5.351295
-7.057625
-8.596256
-9.784683
-10.56935
-10.99955
-11.27948
-11.57621
-12.00235
-12.5192
-12.89661
-12.88118
-12.32983
-11.32628
-10.1431
-9.086842
-8.383743
-8.020729
-7.769417
-7.180408
-5.918274
-3.868343
-1.183647
1.729248
4.527786
6.899979
8.695599
9.830761
10.26612
9.905109
8.780857
7.0494
4.937325
2.788681
0.85606
-0.7362785
-1.98135
-2.874012
-3.394653
-3.391403
-2.674126
-1.252556
0.7207642
2.932976
5.023308
6.752785
7.967133
8.631287
8.818863
8.56012
7.802734
6.508675
4.74102
2.643661
0.5353546
-1.365707
-2.927635
-4.160378
-5.237686
-6.313324
-7.378784
-8.268013
-8.772049
-8.765137
-8.377144
-7.915482
-7.701675
-7.876778
-8.362793
-8.852432
-9.003052
-8.517952
-7.215607
-5.099045
-2.374733
0.6440887
3.540817
5.911942
7.460846
8.113365
8.013779
7.422783
6.628464
5.791054
4.983383
4.225601
3.540306
2.994415
2.624931
2.456665
2.436348
2.453636
2.384377
2.15184
1.769203
1.278732
0.7425308
0.2572556
-0.2032928
-0.6346283
-1.066399
-1.493301
-1.869041
-2.133865
-2.342499
-2.587646
-2.979156
-3.710205
-4.830635
-6.317017
-8.083092
-10.04227
-12.01611
-13.96011
-15.76659
-17.28482
-18.43041
-19.13248
-19.36449
-19.21837
-18.84657
-18.27944
-17.48082
-16.2558
-14.36922
-11.74312
-8.476196
-4.85936
-1.448372
1.303391
3.182266
4.172035
4.503983
4.427567
4.066971
3.531822
2.825363
1.853157
0.544014
-1.038406
-2.8302
-4.559914
-5.89312
-6.509926
-6.114609
-4.666008
-2.410828
0.1744995
2.619553
4.416855
5.353889
5.430885
4.764961
3.55677
2.036003
0.3440475
-1.38958
-3.001534
-4.467918
-5.71846
-6.745796
-7.568924
-8.153282
-8.463852
-8.456566
-8.092598
-7.343231
-6.319382
-5.16684
-4.01886
-3.010468
-2.135929
-1.383545
-0.6259079
0.259243
1.484451
3.176224
5.386189
8.037994
10.88295
13.64796
16.00672
17.78006
18.89277
19.48912
19.74578
19.87955
19.95475
19.9127
19.64618
19.01278
17.95626
16.52047
14.88887
13.2489
11.79672
10.6437
9.797153
9.248268
8.945751
8.740067
8.457317
7.922501
6.994118
5.660049
4.074936
2.42017
0.8912735
-0.459156
-1.651302
-2.796906
-4.011097
-5.424641
-7.128719
-9.100761
-11.22776
-13.28069
-15.03838
-16.29221
-16.99586
-17.2568
-17.28058
-17.20998
-17.04457
-16.60874
-15.56493
-13.62016
-10.65628
-6.803787
-2.394283
2.084831
6.246445
9.748463
12.29675
13.7894
14.21251
13.72645
12.60837
11.19888
9.750282
8.422268
7.223228
6.07291
5.013729
4.23447
3.992764
4.434303
5.442928
6.687717
7.787621
8.418011
8.454723
7.959454
7.11116
6.034115
4.755718
3.265053
1.585545
-0.1977539
-1.990086
-3.691074
-5.233818
-6.591488
-7.748505
-8.640923
-9.219814
-9.441151
-9.376305
-9.191956
-9.034256
-8.974899
-8.979248
-8.940514
-8.711342
-8.333595
-7.953083
-7.761013
-7.898052
-8.324974
-8.880394
-9.306644
-9.379639
-8.923771
-7.930782
-6.477451
-4.635365
-2.493141
-0.1557388
2.163033
4.286495
6.012878
7.232033
7.965034
8.258724
8.223637
7.970085
7.602421
7.176708
6.855942
6.748299
6.941002
7.456417
8.080711
8.616489
8.904961
8.951775
8.892235
8.919846
9.138241
9.506832
9.905563
10.04601
9.722122
8.710079
6.952099
4.482994
1.440205
-1.911812
-5.303036
-8.398388
-11.03933
-13.1954
-14.93729
-16.36163
-17.46119
-18.17624
-18.44525
-18.29166
-17.78036
-17.13221
-16.44232
-15.71541
-14.95669
-14.07268
-13.09527
-12.113
-11.14275
-10.05608
-8.696434
-6.936234
-4.791393
-2.556499
-0.5694275
0.8685341
1.66946
1.983425
2.055084
2.113297
2.221405
2.363289
2.403809
2.267395
2.053452
1.991352
2.289001
3.044445
4.155926
5.290417
6.150517
6.434078
6.101261
5.3293
4.371822
3.475548
2.69101
1.996487
1.322636
0.6056404
-0.2271996
-1.211632
-2.406765
-3.877411
-5.582031
-7.439896
-9.284216
-10.92614
-12.34959
-13.6332
-14.84961
-16.02795
-17.14023
-18.03222
-18.59849
-18.78187
-18.57391
-17.94388
-16.87086
-15.33396
-13.36098
-11.07686
-8.558897
-5.863153
-2.974247
0.1407828
3.390266
6.591563
9.433116
11.67501
13.18429
14.01848
14.35528
14.30076
13.88809
13.01237
11.6508
9.825281
7.727321
5.683531
4.085765
3.221366
3.278739
4.299594
6.14106
8.632256
11.53886
14.6188
17.648
20.44088
22.71905
24.22838
24.74384
24.13803
22.49361
20.06211
17.18268
14.26001
11.60229
9.316441
7.354053
5.578367
3.876213
2.178366
0.5283318
-1.063606
-2.516724
-3.806934
-4.968243
-6.064449
-7.167843
-8.403767
-9.833973
-11.43882
-13.1403
-14.67974
-15.7425
-16.02029
-15.27043
-13.38134
-10.45384
-6.7351
-2.632393
1.322197
4.623615
6.902393
8.020596
8.12149
7.551052
6.687149
5.858742
5.223328
4.779419
4.508816
4.399406
4.51429
4.976177
5.860909
7.081139
8.425533
9.583084
10.27831
10.42996
10.10098
9.480549
8.770054
8.075397
7.403156
6.716335
5.95533
5.157509
4.364883
3.687691
3.126377
2.611313
2.025398
1.20071
0.1269646
-1.180809
-2.592522
-4.025494
-5.389153
-6.681259
-7.939526
-9.160149
-10.33218
-11.38001
-12.2406
-12.95464
-13.55936
-14.05432
-14.37645
-14.44488
-14.0719
-13.14617
-11.59745
-9.42625
-6.80476
-3.978596
-1.271973
1.115452
2.998154
4.384472
5.322174
5.868446
6.044029
5.807377
5.184441
4.224052
3.19138
2.376221
2.079567
2.47332
3.507938
5.001896
6.688465
8.328972
9.691742
10.612
11.04192
10.96931
10.43363
9.518925
8.343311
6.99839
5.592415
4.239285
3.031437
2.141056
1.691639
1.719547
2.166626
2.859299
3.606098
4.233559
4.721794
4.998783
4.980469
4.485703
3.356758
1.568996
-0.7053413
-3.086315
-5.254532
-6.952343
-8.1576
-9.027855
-9.729633
-10.29251
-10.66936
-10.78664
-10.56709
-10.11892
-9.503941
-8.783352
-7.894142
-6.738533
-5.216309
-3.345222
-1.300179
0.7387695
2.544044
3.977863
5.042767
5.772903
6.286873
6.574722
6.65567
6.431351
5.818974
4.824142
3.53759
2.197201
1.035664
0.3078957
0.1013908
0.4097099
1.069767
1.889793
2.66058
3.233715
3.574112
3.619488
3.475563
3.143761
2.630844
1.834496
0.67873
-0.8707237
-2.737198
-4.708866
-6.60183
-8.26873
-9.704445
-10.98441
-12.13457
-13.14148
-13.83384
-14.12864
-13.98735
-13.57232
-13.13402
-12.90278
-13.02827
-13.35754
-13.74583
-13.9646
-13.8914
-13.48539
-12.7775
-11.78451
-10.50334
-8.927063
-6.920723
-4.461189
-1.608856
1.435951
4.343269
6.70491
8.243378
8.866844
8.672562
7.900246
6.804626
5.507729
4.120659
2.764732
1.700989
1.21489
1.525253
2.586906
4.063797
5.451096
6.277359
6.324829
5.590981
4.399384
3.030052
1.668137
0.3722916
-0.8729095
-2.085732
-3.183952
-4.018318
-4.518394
-4.7034
-4.721954
-4.814781
-5.177193
-5.848389
-6.715202
-7.566032
-8.16433
-8.364532
-8.155411
-7.58329
-6.775269
-5.858887
-4.921524
-3.990089
-2.997498
-1.8311
-0.3233337
1.643669
4.080246
6.896805
9.886848
12.79615
15.41378
17.57259
19.13623
20.07275
20.35293
19.99865
19.14765
17.93649
16.54998
15.16174
13.91832
12.91286
12.23541
11.87042
11.83469
12.08752
12.59726
13.29131
14.07314
14.75941
15.18948
15.2683
14.90144
14.10872
12.97939
11.59908
10.06667
8.44281
6.751495
5.074005
3.453857
1.884201
0.2768097
-1.510483
-3.618042
-6.059479
-8.666077
-11.18793
-13.29507
-14.83643
-15.83012
-16.46475
-16.96428
-17.4913
-18.07589
-18.63815
-19.04169
-19.15409
-18.83665
-17.97018
-16.41226
-14.04791
-10.95663
-7.322578
-3.527275
0.0422821
3.019844
5.192093
6.584946
7.361275
7.783234
8.098129
8.437263
8.795418
9.126534
9.366837
9.524185
9.690804
9.951706
10.26038
10.53828
10.55171
10.18185
9.408112
8.411957
7.412048
6.613464
6.056313
5.645752
5.211716
4.541107
3.562965
2.261246
0.7559509
-0.8128891
-2.25209
-3.487404
-4.501534
-5.32901
-6.118805
-6.924637
-7.76651
-8.597633
-9.327927
-9.892815
-10.35969
-10.83006
-11.38532
-12.11002
-12.97025
-13.84235
-14.65506
-15.24948
-15.45378
-15.07547
-13.88506
-11.7173
-8.612167
-4.789108
-0.5928497
3.49295
7.115433
10.099
12.38208
14.01695
15.04738
15.44785
15.13304
14.16161
12.66756
11.02502
9.704956
9.081451
9.289154
10.19138
11.46115
12.70921
13.68924
14.31035
14.70728
15.03409
15.32492
15.50623
15.33779
14.62147
13.22192
11.2011
8.759666
6.162483
3.639282
1.277832
-0.9165802
-3.030937
-5.103149
-7.110046
-8.977631
-10.60199
-11.91382
-12.89413
-13.64387
-14.29424
-15.0813
-16.20007
-17.72406
-19.57256
-21.52839
-23.33334
-24.69775
-25.41679
-25.27336
-24.20728
-22.20785
-19.36361
-15.81237
-11.7296
-7.34684
-2.863457
1.433029
5.230164
8.220673
10.136
10.88342
10.59586
9.617516
8.29689
6.986877
5.921181
5.235245
5.01799
5.340965
6.191597
7.395515
8.699356
9.791107
10.41044
10.35986
9.648537
8.33149
6.528618
4.38797
2.044556
-0.3287659
-2.535889
-4.422638
-5.90593
-6.944061
-7.59787
-8.075394
-8.535095
-9.132996
-9.927429
-10.85031
-11.79379
-12.69064
-13.53191
-14.44456
-15.64626
-17.23502
-19.13789
-21.07472
-22.68457
-23.63136
-23.72176
-22.93834
-21.33067
-19.06172
-16.25191
-12.99092
-9.335938
-5.352631
-1.169128
2.950638
6.734528
9.912415
12.30882
13.91246
14.80954
15.23479
15.42014
15.5309
15.59174
15.68794
15.91997
16.4341
17.37395
18.75229
20.47871
22.25174
23.76846
24.67537
24.79213
24.10637
22.68445
20.74484
18.54381
16.29842
14.18114
12.30345
10.68567
9.29808
8.029755
6.700104
5.175201
3.330612
1.172394
-1.152084
-3.418808
-5.407684
-7.005936
-8.253342
-9.317291
-10.30739
-11.35876
-12.4536
-13.41882
-14.03973
-14.10103
-13.49518
-12.18443
-10.22527
-7.620819
-4.505356
-1.083527
2.410904
5.678009
8.447327
10.56096
11.98685
12.842
13.30046
13.44287
13.26575
12.7419
11.87822
10.81908
9.800308
9.02832
8.6586
8.672287
8.860443
9.05542
9.169662
9.192139
9.197388
9.182007
9.025009
8.595993
7.749985
6.445633
4.848755
3.155884
1.54213
0.1066895
-1.158585
-2.359039
-3.594498
-4.938446
-6.438309
-8.00264
-9.484665
-10.7014
-11.51408
-11.91522
-12.0403
-12.05943
-12.11133
-12.28516
-12.55508
-12.87521
-13.17758
-13.33319
-13.25652
-12.78389
-11.77255
-10.16483
-8.002014
-5.415878
-2.664597
0.01922607
2.522232
4.686584
6.504868
7.901901
8.814468
9.229019
9.233749
8.865448
8.248276
7.541626
6.888153
6.492249
6.435226
6.70871
7.231308
7.844009
8.322983
8.598465
8.696777
8.740219
8.798279
8.920639
8.955444
8.855835
8.547897
8.012039
7.339478
6.584869
5.747864
4.807053
3.748459
2.442841
0.9361572
-0.7365875
-2.455276
-4.030884
-5.341782
-6.455368
-7.412445
-8.375778
-9.487793
-10.67734
-11.79409
-12.60928
-12.85172
-12.45848
-11.53799
-10.21082
-8.685822
-7.039192
-5.192307
-3.075691
-0.7629089
1.603004
3.643585
5.002663
5.545815
5.354973
4.757141
4.180145
3.852112
3.751266
3.762039
3.722443
3.583366
3.5028
3.661964
4.155945
4.974304
5.80632
6.353096
6.439087
6.104301
5.455788
4.62767
3.568665
2.092484
0.09796143
-2.459824
-5.328857
-8.15963
-10.66611
-12.73408
-14.50378
-16.17902
-17.91972
-19.57768
-20.84591
-21.38821
-20.98228
-19.73026
-17.92149
-15.99633
-14.30817
-13.14712
-12.54351
-12.50137
-12.93842
-13.65873
-14.44221
-14.97493
-14.95376
-14.13017
-12.52216
-10.24185
-7.59594
-4.939316
-2.493713
-0.4003677
1.337624
2.736778
3.837257
4.569748
4.906387
4.971001
4.946426
5.207268
6.052864
7.70546
10.13355
13.0583
16.09528
18.87197
21.17451
22.87431
23.89805
24.1258
23.49229
22.01756
19.78871
17.09721
14.27493
11.65795
9.367073
7.403809
5.567909
3.672523
1.636612
-0.4960556
-2.572159
-4.412727
-5.836533
-6.839775
-7.418922
-7.691071
-7.824661
-7.909599
-7.970009
-7.933548
-7.619148
-6.763596
-5.147118
-2.646423
0.608078
4.214821
7.661186
10.47401
12.31611
13.10549
13.05119
12.43264
11.47055
10.31861
9.007355
7.626144
6.255325
4.995239
3.959503
3.2528
2.912048
2.975235
3.428696
4.301682
5.572708
7.120636
8.691933
10.01475
10.79534
10.92157
10.40466
9.303673
7.711761
5.749535
3.503281
1.098526
-1.269821
-3.469955
-5.455765
-7.263321
-8.977371
-10.69816
-12.34
-13.69736
-14.52996
-14.69154
-14.28645
-13.59293
-12.95987
-12.63922
-12.72157
-13.08637
-13.4357
-13.3816
-12.63697
-11.06765
-8.762848
-5.954033
-2.98172
-0.1883163
2.081062
3.689194
4.663025
5.161819
5.439926
5.742256
6.211067
6.905739
7.686768
8.34623
8.787048
8.965508
8.988312
9.02063
9.161942
9.386887
9.554138
9.446495
8.871933
7.792908
6.265648
4.470726
2.635067
0.9585838
-0.4193039
-1.487003
-2.245937
-2.746662
-2.966946
-2.940372
-2.732727
-2.444332
-2.266869
-2.291618
-2.579971
-3.051365
-3.595654
-4.116451
-4.62442
-5.185249
-5.847187
-6.66988
-7.559097
-8.459919
-9.315212
-10.07457
-10.64697
-10.83798
-10.45022
-9.299671
-7.376846
-4.81596
-1.933243
0.9662209
3.693245
6.099571
8.202618
9.933559
11.18207
11.7741
11.61982
10.80714
9.631306
8.560059
7.934326
7.971516
8.659481
9.787664
11.05625
12.205
13.07258
13.57585
13.70015
13.37858
12.5813
11.3017
9.56543
7.486317
5.145449
2.620165
-0.05919647
-2.853106
-5.675236
-8.345154
-10.69181
-12.61781
-14.12107
-15.3016
-16.27595
-17.07604
-17.6113
-17.71364
-17.24484
-16.24842
-14.9756
-13.68055
-12.56219
-11.74776
-11.16643
-10.72251
-10.32038
-9.843764
-9.240555
-8.425325
-7.24249
-5.648664
-3.723572
-1.654568
0.2279952
1.736484
2.770126
3.327514
3.457532
3.23288
2.623311
1.655882
0.4208124
-0.9473162
-2.253193
-3.333341
-4.093755
-4.46047
-4.390895
-3.907348
-3.075627
-2.007145
-0.9460697
-0.1396029
0.1854875
-0.1054618
-1.05347
-2.544079
-4.448225
-6.529944
-8.492162
-10.1572
-11.3151
-11.89408
-11.93221
-11.57247
-11.09521
-10.78822
-10.78208
-10.97592
-11.1447
-10.92434
-10.1105
-8.744548
-7.104397
-5.655257
-4.738487
-4.448472
-4.584353
-4.739576
-4.50793
-3.609684
-1.96533
0.3917055
3.27913
6.574633
10.03756
13.42455
16.42904
18.75343
20.22203
20.83364
20.78351
20.32006
19.68782
18.92845
17.99879
16.79676
15.38069
14.01047
13.06363
12.8321
13.36866
14.49127
15.78959
16.91636
17.66998
18.0392
18.12189
18.0036
17.60658
16.78982
15.38238
13.30749
10.65036
7.683161
4.687177
2.025297
-0.06174898
-1.546973
-2.496212
-3.193659
-3.890561
-4.713457
-5.578081
-6.385278
-6.948396
-7.229305
-7.434411
-7.795382
-8.630789
-10.12552
-12.16328
-14.44141
-16.57675
-18.12158
-18.76788
-18.31988
-16.73101
-14.06708
-10.5563
-6.490667
-2.279947
1.656298
4.967297
7.433664
9.039749
9.960697
10.41575
10.61582
10.69204
10.61493
10.31375
9.680584
8.609417
7.081814
5.31905
3.524338
1.971275
0.8480835
0.1607285
-0.1430855
-0.1189003
0.1796455
0.7549973
1.629211
2.647015
3.59013
4.201511
4.318645
3.915459
3.116318
2.065758
0.8838348
-0.3737717
-1.773819
-3.313343
-4.927109
-6.511021
-7.927452
-9.107166
-10.01178
-10.67566
-11.08261
-11.34906
-11.47854
-11.54535
-11.64093
-11.79472
-12.05129
-12.32329
-12.50957
-12.43241
-11.9493
-10.95525
-9.401817
-7.32737
-4.760574
-1.847946
1.25721
4.304871
7.048813
9.286514
10.90807
11.93647
12.43948
12.58641
12.39687
11.82391
10.81203
9.399818
7.795265
6.335915
5.377632
5.028648
5.23893
5.599731
5.734367
5.381485
4.59774
3.680809
2.981514
2.738571
2.894897
3.242088
3.456039
3.284309
2.636383
1.608604
0.4474792
-0.5815964
-1.309364
-1.637413
-1.588814
-1.340248
-1.112602
-1.118164
-1.529907
-2.387299
-3.572449
-4.946091
-6.308281
-7.502396
-8.484543
-9.296135
-10.00277
-10.72061
-11.53336
-12.42465
-13.27357
-13.88788
-13.99164
-13.38953
-12.00411
-9.882629
-7.235291
-4.374107
-1.619278
0.7515869
2.530045
3.627594
4.032875
3.924911
3.527512
3.054321
2.632561
2.256996
1.846703
1.344284
0.8458862
0.5087051
0.5589752
1.094475
2.025162
3.109261
4.073425
4.68663
4.84317
4.570549
3.956161
3.044708
1.914719
0.6242828
-0.7647934
-2.152664
-3.513184
-4.819977
-6.075615
-7.287323
-8.53318
-9.908936
-11.54741
-13.52355
-15.84332
-18.36269
-20.86732
-23.0521
-24.70857
-25.74364
-26.18511
-26.09464
-25.57789
-24.66744
-23.35295
-21.6291
-19.48183
-16.98277
-14.17628
-11.17078
-8.027534
-4.854103
-1.716522
1.315712
4.179726
6.778526
8.948372
10.55817
11.52489
11.85088
11.6609
11.17609
10.61102
10.12339
9.784805
9.614449
9.671371
9.990707
10.56696
11.34398
12.28802
13.28761
14.26645
15.1317
15.77187
16.01007
15.63662
14.49329
12.55325
10.01596
7.193604
4.443291
2.00721
0.04644012
-1.45253
-2.598824
-3.528641
-4.273628
-4.815582
-5.163925
-5.324875
-5.41227
-5.506615
-5.699059
-6.030403
-6.382828
-6.490944
-6.039253
-4.792671
-2.6548
0.202446
3.389786
6.443405
8.951256
10.74947
11.87845
12.53283
12.8907
13.00804
12.85455
12.28355
11.19813
9.680717
7.914673
6.161804
4.655083
3.574059
2.979256
2.864929
3.139778
3.675781
4.36467
4.992447
5.311089
5.078033
4.217834
2.760788
0.8987427
-1.116959
-3.011948
-4.61821
-5.926117
-7.037437
-8.071098
-9.111481
-10.23546
-11.37886
-12.44995
-13.29228
-13.71802
-13.71141
-13.33926
-12.78026
-12.28799
-11.98667
-11.87093
-11.825
-11.65564
-11.14826
-10.2209
-8.860977
-7.074211
-4.982925
-2.682968
-0.3379745
1.830681
3.597916
4.869804
5.6362
5.998833
6.160767
6.223373
6.198059
6.032684
5.680016
5.164558
4.705093
4.476837
4.616859
5.133713
5.821037
6.492165
6.873108
6.855133
6.473557
5.850632
5.110626
4.358482
3.643509
2.91481
2.195946
1.473869
0.7201385
-0.06196594
-0.9768143
-2.169296
-3.736832
-5.651108
-7.702827
-9.513123
-10.70178
-11.16135
-10.94862
-10.36104
-9.695892
-9.15667
-8.744316
-8.411873
-8.10054
-7.795349
-7.531647
-7.209579
-6.688499
-5.744659
-4.27758
-2.381119
-0.3745575
1.373512
2.696014
3.603729
4.374527
5.190758
6.134186
7.065956
7.753586
8.070114
8.062019
8.0588
8.36232
9.181175
10.41346
11.65428
12.48199
12.49605
11.63624
10.10098
8.175659
6.006004
3.629349
0.9400635
-2.149033
-5.492271
-8.849113
-11.78283
-13.85738
-14.80872
-14.67578
-13.61369
-11.87609
-9.776947
-7.550392
-5.47147
-3.824078
-2.823914
-2.58094
-3.09639
-4.166313
-5.476097
-6.801201
-7.90274
-8.705276
-9.120495
-9.004257
-8.240009
-6.790833
-4.812511
-2.651775
-0.7406731
0.6724815
1.518501
1.984047
2.332085
2.757141
3.208241
3.459171
3.286598
2.632351
1.724934
0.9350395
0.604641
0.8467789
1.49234
2.222366
2.688229
2.716877
2.323616
1.653828
0.8769646
0.02993774
-0.9367676
-2.107754
-3.43936
-4.798033
-5.919098
-6.590141
-6.767128
-6.643831
-6.648886
-7.181129
-8.454206
-10.40716
-12.69884
-14.92062
-16.8121
-18.26974
-19.38803
-20.36978
-21.29489
-22.06313
-22.41298
-21.98358
-20.48441
-17.87135
-14.2977
-10.04903
-5.521713
-1.032135
3.243317
7.179791
10.70165
13.72531
16.11418
17.74303
18.57741
18.66077
18.1545
17.32152
16.37598
15.63679
15.27351
15.39654
16.03228
17.11646
18.52843
20.13532
21.7022
22.92296
23.51358
23.25224
22.05069
20.04447
17.47622
14.66806
11.90166
9.372868
7.145393
5.234737
3.564316
1.989952
0.4015427
-1.306648
-3.085918
-4.74934
-6.062737
-6.883068
-7.235008
-7.298351
-7.298622
-7.325855
-7.375603
-7.265678
-6.796551
-5.780231
-4.167519
-1.953377
0.7770081
3.796368
6.798752
9.388603
11.18938
12.04786
12.1132
11.68447
11.16839
10.76846
10.45477
10.02329
9.23262
8.004669
6.463814
4.892754
3.53949
2.574234
1.961082
1.620323
1.501625
1.664963
2.264091
3.354874
4.87384
6.507904
7.892509
8.677681
8.688255
8.037529
6.94413
5.693657
4.483772
3.428917
2.444901
1.499229
0.5306854
-0.5167999
-1.598785
-2.721291
-3.767967
-4.712967
-5.458389
-6.044342
-6.477623
-6.813637
-7.194092
-7.699661
-8.437855
-9.360645
-10.38867
-11.294
-11.89075
-11.91534
-11.13089
-9.484707
-7.002781
-3.923084
-0.5510635
2.715275
5.540001
7.702747
9.15712
10.05401
10.4746
10.57332
10.31214
9.601616
8.344261
6.607536
4.657078
2.917301
1.849483
1.593769
2.204693
3.413136
4.911499
6.440266
7.883572
9.244038
10.51067
11.54863
12.0935
11.92843
10.92954
9.170235
6.949875
4.619862
2.516148
0.8178673
-0.4202232
-1.300655
-1.927334
-2.369083
-2.755417
-3.050556
-3.244934
-3.38047
-3.484653
-3.642193
-3.948086
-4.477154
-5.261349
-6.326527
-7.535446
-8.746372
-9.778118
-10.49892
-10.83185
-10.68919
-10.00392
-8.706898
-6.742966
-4.131397
-1.101559
2.029156
4.828663
7.026184
8.515282
9.444576
10.04002
10.46428
10.79367
10.92453
10.73793
10.25478
9.662514
9.162773
8.937923
8.977459
9.083717
8.962791
8.381369
7.269012
5.80969
4.353031
3.201359
2.556421
2.472849
2.801687
3.276564
3.61154
3.579885
3.086996
2.116762
0.802454
-0.7517033
-2.375818
-3.992975
-5.540241
-7.097858
-8.80131
-10.72121
-12.78451
-14.71021
-16.11239
-16.65927
-16.33944
-15.36162
-14.15703
-13.15664
-12.58526
-12.3952
-12.37189
-12.23783
-11.84887
-11.17887
-10.21862
-9.035624
-7.675453
-6.149135
-4.528047
-2.862216
-1.203015
0.3802996
1.816822
3.040833
3.940252
4.432799
4.468613
4.036273
3.224278
2.138577
0.9902682
0.01759338
-0.4765964
-0.2668858
0.790894
2.578821
4.667819
6.541923
7.683294
7.79024
6.878031
5.188253
3.021951
0.638041
-1.833305
-4.366896
-6.879772
-9.207068
-11.18506
-12.62827
-13.52644
-13.96068
-14.1037
-14.07369
-13.92929
-13.5617
-12.77763
-11.45179
-9.522832
-7.161472
-4.616361
-2.217609
-0.1503944
1.472033
2.73625
3.809846
4.919758
6.263321
7.980083
10.07363
12.44386
14.92266
17.24816
19.19067
20.54289
21.18193
21.15676
20.6643
19.94745
19.20694
18.5105
17.75999
16.70879
15.17387
13.16269
10.99783
9.102802
7.870782
7.449812
7.690535
8.303329
8.927114
9.39257
9.676715
9.869999
10.04734
10.12411
9.91188
9.19777
7.910447
6.106802
4.014219
1.851126
-0.2538919
-2.33922
-4.556207
-7.04199
-9.798465
-12.59149
-15.068
-16.90342
-17.91657
-18.20346
-17.98841
-17.51208
-16.91402
-16.20394
-15.24721
-13.94355
-12.19574
-10.01237
-7.485556
-4.629625
-1.535692
1.630024
4.723053
7.469463
9.655247
11.15895
11.95839
12.11172
11.75504
10.96898
9.800388
8.294182
6.478844
4.524368
2.620037
1.017609
-0.03224945
-0.3961716
-0.04073715
0.8482132
2.029926
3.156136
4.051975
4.589855
4.694695
4.423119
3.785004
2.838276
1.558945
0.07852554
-1.505917
-2.987164
-4.13586
-4.929657
-5.39035
-5.763466
-6.264603
-7.017899
-7.95903
-8.888687
-9.553864
-9.816406
-9.757614
-9.565636
-9.565651
-9.93441
-10.67805
-11.63594
-12.52763
-13.11983
-13.20654
-12.63565
-11.30119
-9.232155
-6.547714
-3.519081
-0.5292969
2.151505
4.326012
6.01532
7.378571
8.554443
9.567238
10.2728
10.50058
10.09364
9.1511
7.860481
6.488533
5.228333
4.196236
3.446373
2.953743
2.68602
2.551453
2.475677
2.394333
2.264015
2.030464
1.667084
1.090256
0.2906952
-0.8163986
-2.178467
-3.699005
-5.209335
-6.551895
-7.633865
-8.417427
-8.922699
-9.050789
-8.80204
-8.20459
-7.378296
-6.561996
-6.005783
-5.854988
-6.105186
-6.634659
-7.168282
-7.415489
-7.138367
-6.220993
-4.740456
-2.907715
-1.07502
0.4894257
1.579987
2.198708
2.495094
2.672134
2.879593
3.029083
3.030159
2.712036
2.08577
1.282913
0.5999374
0.302948
0.4764862
1.071815
1.753311
2.252678
2.376656
2.084198
1.517014
0.8299332
0.1284103
-0.6541595
-1.604324
-2.807503
-4.194031
-5.596909
-6.800957
-7.701637
-8.350967
-8.835999
-9.394463
-10.11559
-11.02437
-12.06532
-13.19607
-14.35625
-15.53537
-16.70931
-17.70478
-18.43229
-18.76388
-18.64632
-18.04546
-16.88707
-15.16002
-12.83514
-10.10953
-7.287476
-4.792191
-3.000389
-2.128021
-2.079819
-2.555771
-3.193062
-3.671928
-3.900261
-3.92408
-3.823639
-3.560631
-2.974968
-1.840385
-0.01282501
2.428421
5.188377
7.845978
9.930069
11.13374
11.46414
11.12595
10.49142
9.905777
9.52356
9.384331
9.34491
9.225372
8.893684
8.26783
7.391289
6.368134
5.272446
4.132828
2.927124
1.57235
0.06308746
-1.546356
-3.127113
-4.485657
-5.467163
-6.008179
-6.023438
-5.463905
-4.253029
-2.237648
0.6130371
4.136646
7.936581
11.52195
14.45208
16.53592
17.80267
18.41146
18.56296
18.34652
17.70279
16.57403
14.94427
12.98492
11.00785
9.354195
8.239815
7.624973
7.326591
7.068977
6.647579
6.001995
5.228901
4.418621
3.609543
2.757637
1.634304
0.1417961
-1.582962
-3.268509
-4.60387
-5.34642
-5.5457
-5.389778
-5.132107
-4.980198
-5.001991
-5.141621
-5.356224
-5.68042
-6.198551
-6.906494
-7.748287
-8.525013
-9.053173
-9.200558
-8.952084
-8.319565
-7.220127
-5.658882
-3.633137
-1.327229
0.9588432
2.819073
4.047771
4.613365
4.677277
4.601143
4.63282
4.770164
4.921761
4.881508
4.471756
3.731331
2.772507
1.824051
1.170403
0.9814148
1.209625
1.710716
2.185524
2.401604
2.334663
2.005135
1.599159
1.244949
0.9186325
0.5283356
0.002197266
-0.7000275
-1.433586
-2.047371
-2.489944
-2.832291
-3.191261
-3.743439
-4.581795
-5.635544
-6.815292
-7.96344
-8.928947
-9.675095
-10.20022
-10.53927
-10.75253
-10.8572
-10.82279
-10.57912
-9.957813
-8.690491
-6.639236
-3.781261
-0.3518829
3.197968
6.37632
8.79615
10.29418
11.00024
11.20578
11.16148
10.9716
10.60794
9.995621
9.063499
7.845486
6.460003
5.089893
3.946804
3.160568
2.797913
2.812355
3.097008
3.469112
3.841492
4.143753
4.263477
4.137184
3.615139
2.631882
1.218731
-0.3894844
-1.875221
-2.862286
-3.186321
-2.990314
-2.651409
-2.5499
-2.978664
-3.970638
-5.304253
-6.714653
-8.016129
-9.187706
-10.36232
-11.67233
-13.12793
-14.71737
-16.39022
-18.08776
-19.75227
-21.18627
-22.12111
-22.20176
-21.07393
-18.6079
-14.93288
-10.46816
-5.724075
-1.279175
2.486908
5.344677
7.320057
8.600712
9.418175
9.966679
10.33147
10.58755
10.72295
10.79788
10.8936
11.03307
11.13501
11.05707
10.62485
9.734581
8.406891
6.72464
4.863136
2.962013
1.063469
-0.795311
-2.65609
-4.481895
-6.227949
-7.81391
-9.236832
-10.57372
-11.94524
-13.57508
-15.52832
-17.79394
-20.14927
-22.28405
-23.90268
-24.78383
-24.92716
-24.36647
-23.23238
-21.65402
-19.72232
-17.56642
-15.26206
-12.74627
-9.862769
-6.473109
-2.469857
2.001377
6.589294
10.8521
14.34296
16.74756
18.09453
18.56653
18.43691
18.11125
17.86908
17.9297
18.40591
19.31734
20.56152
22.00318
23.50293
24.95518
26.27489
27.37792
28.08669
28.29584
27.88703
26.81324
25.12829
22.8999
20.28472
17.39272
14.29088
11.05355
7.871395
4.903296
2.288874
0.06178665
-1.857981
-3.561054
-5.090698
-6.416439
-7.440903
-8.084684
-8.401083
-8.552111
-8.744242
-9.083775
-9.518265
-9.888008
-9.969198
-9.591669
-8.616524
-6.894613
-4.395844
-1.178715
2.434845
5.919779
8.676819
10.27906
10.6045
9.933233
8.808933
7.6992
6.896065
6.370462
5.874138
5.225746
4.444487
3.68302
3.236269
3.326077
3.902573
4.784616
5.688759
6.319889
6.553288
6.402376
5.965073
5.377556
4.710341
3.920413
2.987531
1.93698
0.8485565
-0.0843544
-0.7127323
-0.9925537
-1.030352
-1.077356
-1.451866
-2.30575
-3.59622
-5.149201
-6.640686
-7.891498
-8.878409
-9.69947
-10.48128
-11.25099
-11.922
-12.32494
-12.33047
-11.88689
-10.9744
-9.63272
-7.891676
-5.813006
-3.446982
-0.9591355
1.398726
3.37774
4.779475
5.590584
5.926718
6.013486
6.029225
6.098243
6.278061
6.543735
6.891936
7.317863
7.824557
8.364126
8.923442
9.358734
9.569294
9.492247
9.170103
8.708009
8.133186
7.511298
6.800834
5.966792
4.925602
3.681302
2.258611
0.8078165
-0.4983277
-1.580918
-2.340009
-2.807404
-3.041572
-3.227836
-3.480849
-3.889182
-4.436879
-4.909547
-5.114264
-4.888577
-4.268871
-3.419463
-2.72753
-2.487221
-2.836731
-3.780796
-5.02116
-6.276215
-7.22632
-7.708548
-7.634592
-7.016531
-5.903273
-4.356495
-2.554667
-0.6130295
1.197584
2.654308
3.50177
3.576881
2.843313
1.416035
-0.4517097
-2.536272
-4.53229
-6.255527
-7.517065
-8.16501
-8.081955
-7.178152
-5.451757
-3.011318
-0.2048473
2.570368
4.879255
6.351515
6.798464
6.159342
4.611382
2.459272
0.0783844
-2.216133
-4.175329
-5.646795
-6.613224
-7.071636
-7.190464
-7.130487
-7.148903
-7.479393
-8.273499
-9.559168
-11.21357
-13.04596
-14.75873
-16.24122
-17.42423
-18.39554
-19.20393
-19.7733
-19.93713
-19.48802
-18.35395
-16.55111
-14.32414
-11.91783
-9.545992
-7.289156
-5.126871
-3.071611
-1.137903
0.5010986
1.741243
2.491993
2.853006
2.872526
2.66781
2.317742
1.791354
1.190826
0.6781502
0.4962502
0.9445744
2.284982
4.515941
7.435154
10.73195
13.99404
16.94504
19.36626
21.15269
22.33096
22.93907
23.00204
22.51612
21.53899
20.08192
18.30364
16.3655
14.43104
12.5965
10.81781
8.928318
6.847854
4.650965
2.504425
0.7634821
-0.4153943
-1.101366
-1.54962
-2.046942
-2.762387
-3.595606
-4.355527
-4.832605
-4.743292
-3.98467
-2.523655
-0.4501922
2.034492
4.609247
6.935039
8.634245
9.470999
9.517949
8.989787
8.147348
7.232636
6.300075
5.311336
4.274819
3.136588
1.983691
1.03649
0.4952004
0.5222402
1.227353
2.451066
3.938388
5.340697
6.283787
6.562842
6.182622
5.268127
4.092543
2.893336
1.710663
0.5341854
-0.6265869
-1.787839
-2.844661
-3.675074
-4.31501
-4.806638
-5.360923
-6.198613
-7.416702
-8.82481
-10.16648
-11.10525
-11.47245
-11.3685
-10.94733
-10.49483
-10.15671
-9.939554
-9.640425
-9.151323
-8.345871
-7.283571
-6.031649
-4.597147
-3.043585
-1.402531
0.1802711
1.538368
2.419128
2.79615
2.672152
2.203196
1.583765
0.9270954
0.2903271
-0.3212414
-0.9123325
-1.439735
-1.7693
-1.796984
-1.481205
-0.8486137
0.04410934
1.074224
2.103943
3.01885
3.756111
4.315084
4.740158
5.053699
5.273615
5.335588
5.211882
4.845251
4.255325
3.490007
2.578588
1.520235
0.3022957
-1.042542
-2.542885
-4.066788
-5.545254
-6.888277
-8.042795
-9.01721
-9.862852
-10.64658
-11.3652
-12.02619
-12.51531
-12.68293
-12.33781
-11.31619
-9.584795
-7.276875
-4.71962
-2.242659
-0.1250496
1.533239
2.809496
3.882631
4.958122
6.037836
7.02813
7.661139
7.750422
7.192499
6.153273
4.949453
3.91662
3.322187
3.168617
3.350449
3.657763
3.938774
4.018677
3.883799
3.57519
3.144445
2.737411
2.429445
2.307289
2.398397
2.612051
2.800894
2.744656
2.315079
1.419859
0.05638313
-1.732866
-3.852013
-6.159933
-8.543842
-10.86382
-12.9909
-14.77625
-16.14622
-17.0055
-17.35797
-17.21076
-16.49164
-15.16767
-13.15462
-10.39575
-6.923737
-2.997486
1.006622
4.591281
7.319081
9.003776
9.659037
9.643873
9.315985
8.963744
8.64314
8.24101
7.692481
7.042431
6.500824
6.28265
6.534765
7.068237
7.498013
7.411722
6.565609
5.039688
3.149472
1.318683
-0.1449347
-1.018728
-1.354265
-1.270613
-0.9792643
-0.6751738
-0.549511
-0.7542391
-1.369364
-2.382008
-3.594207
-4.844244
-6.043643
-7.216961
-8.449594
-9.751456
-10.9864
-11.89975
-12.21301
-11.8172
-10.7741
-9.259216
-7.496029
-5.669797
-3.817502
-1.946406
-0.0886445
1.684938
3.235815
4.473764
5.340017
5.84163
5.938352
5.682598
5.053427
4.104562
3.031918
2.032506
1.419105
1.417248
2.1398
3.382235
4.851693
6.153886
7.061586
7.534447
7.630889
7.502954
7.132568
6.510002
5.571665
4.275404
2.637842
0.7873802
-1.0928
-2.847538
-4.333956
-5.488554
-6.269974
-6.712376
-6.873238
-6.888733
-6.826956
-6.717871
-6.589329
-6.475952
-6.39567
-6.340931
-6.231808
-5.939304
-5.314165
-4.288593
-2.910713
-1.327787
0.2604389
1.759851
3.111488
4.352434
5.460407
6.409649
7.071217
7.323841
7.149933
6.665955
6.04871
5.483696
5.095837
4.888622
4.848747
4.828445
4.706703
4.370003
3.912395
3.464146
3.172375
3.054531
3.016735
2.881222
2.424061
1.588951
0.479847
-0.6817284
-1.617176
-2.190849
-2.468811
-2.685379
-3.09866
-3.854141
-4.934059
-6.150764
-7.331089
-8.364662
-9.217739
-9.861687
-10.25273
-10.20223
-9.508965
-8.005604
-5.748909
-3.029537
-0.2763367
2.171051
4.141788
5.698395
7.067886
8.492218
10.11423
11.88192
13.59978
14.90341
15.66216
15.72916
15.24131
14.3294
13.12099
11.64708
9.953991
8.046604
5.971638
3.949612
2.030895
0.2564507
-1.495785
-3.399319
-5.50547
-7.652702
-9.556965
-10.8781
-11.40878
-11.18476
-10.43388
-9.45771
-8.491978
-7.665165
-6.976067
-6.378845
-5.821255
-5.256992
-4.636768
-3.954006
-3.101768
-2.08046
-0.8733749
0.4406738
1.776482
3.002136
3.969818
4.520584
4.542946
4.052536
3.123924
2.030937
1.037453
0.4047089
0.2736206
0.6256561
1.316345
2.123116
2.826225
3.212761
3.180161
2.681564
1.75499
0.4346085
-1.202065
-3.114769
-5.324982
-7.796135
-10.51036
-13.3092
-15.93736
-18.08663
-19.55592
-20.18587
-20.02732
-19.35938
-18.44603
-17.57334
-16.8519
-16.23724
-15.54373
-14.64908
-13.32458
-11.42689
-8.93956
-5.908234
-2.603897
0.5485687
3.178917
5.077148
6.213867
6.856308
7.253143
7.565079
7.77166
7.683815
7.136223
6.197647
5.156509
4.401711
4.257774
4.832268
6.019028
7.585846
9.263153
10.86497
12.35583
13.7075
14.92465
15.95171
16.73138
17.12213
17.00696
16.29642
14.98933
13.22272
11.21967
9.290298
7.756577
6.78772
6.351883
6.23407
6.149857
5.87027
5.242935
4.272064
3.067902
1.846176
0.8730469
0.4411621
0.7995148
2.080643
4.28006
7.126282
10.2494
13.16687
15.43597
16.77699
17.08376
16.43687
15.02379
13.09538
10.94423
8.845535
7.005157
5.514969
4.448105
3.872803
3.864517
4.434296
5.495911
6.864212
8.283981
9.462387
10.13231
10.15997
9.492706
8.12973
6.180908
3.78775
1.148827
-1.453255
-3.743637
-5.556671
-6.850204
-7.803108
-8.675415
-9.653084
-10.81731
-12.09865
-13.37294
-14.53456
-15.58692
-16.57543
-17.50935
-18.30121
-18.67488
-18.32143
-17.02356
-14.69614
-11.46862
-7.603592
-3.461517
0.6074677
4.297241
7.385536
9.757576
11.34409
12.22228
12.45328
12.13171
11.34026
10.16886
8.770958
7.317322
5.943565
4.766319
3.902985
3.388237
3.253128
3.487694
4.069199
4.859833
5.717499
6.446426
6.948738
7.191689
7.154068
6.801613
6.076462
4.987755
3.640152
2.237305
0.9783249
-0.002906799
-0.7414398
-1.372063
-2.065498
-2.859528
-3.670967
-4.321831
-4.720505
-4.88871
-4.987152
-5.187714
-5.561432
-6.038231
-6.428505
-6.509697
-6.103783
-5.098053
-3.504433
-1.41674
0.993515
3.468086
5.718124
7.449997
8.505516
8.892845
8.751251
8.328217
7.803871
7.272133
6.690575
5.993134
5.133072
4.175674
3.296997
2.630196
2.270309
2.154869
2.167938
2.200272
2.228966
2.251884
2.222336
2.032372
1.496048
0.43647
-1.250893
-3.436859
-5.840153
-8.134098
-10.0769
-11.59768
-12.79177
-13.83717
-14.84973
-15.90531
-16.96347
-17.96057
-18.85985
-19.60634
-20.14803
-20.36456
-20.15448
-19.47927
-18.40482
-17.05704
-15.57074
-14.04856
-12.46424
-10.80255
-9.088676
-7.431049
-6.014935
-4.944134
-4.192001
-3.623432
-3.073631
-2.469021
-1.935917
-1.756626
-2.21701
-3.464905
-5.329014
-7.367142
-9.004219
-9.775757
-9.53487
-8.569946
-7.258457
-6.032974
-5.146561
-4.580643
-4.156197
-3.644386
-2.904709
-1.880852
-0.7507019
0.4118423
1.492798
2.512802
3.600288
4.928398
6.620209
8.616287
10.72736
12.55831
13.76113
14.08807
13.51791
12.20634
10.43178
8.505814
6.699631
5.298409
4.540161
4.703293
5.905556
8.119919
11.14001
14.50299
17.71309
20.35665
22.1582
22.99735
22.98246
22.27401
21.0377
19.47118
17.67828
15.8483
14.11125
12.65621
11.58344
10.96578
10.82658
11.07793
11.5689
12.13939
12.61024
12.76981
12.47386
11.61568
10.20637
8.41288
6.421524
4.376015
2.34861
0.3234863
-1.810547
-4.070946
-6.368912
-8.518127
-10.32908
-11.60562
-12.29844
-12.46707
-12.25462
-11.87168
-11.48523
-11.22105
-11.14132
-11.2295
-11.3535
-11.3349
-11.03167
-10.36862
-9.294346
-7.774586
-5.869576
-3.658279
-1.293186
1.022228
3.09362
4.784988
5.955296
6.63644
6.859566
6.64978
6.08886
5.284409
4.348721
3.423847
2.676319
2.223091
2.119434
2.354946
2.832035
3.445724
3.976376
4.282654
4.277369
3.899397
3.198215
2.164087
0.8340378
-0.7967281
-2.629871
-4.624266
-6.637939
-8.503866
-10.09744
-11.3244
-12.23617
-12.87661
-13.22892
-13.20308
-12.76621
-11.94001
-10.87608
-9.759066
-8.713759
-7.75877
-6.771784
-5.546069
-3.922508
-1.904333
0.3270578
2.46516
4.15718
5.260988
5.710574
5.653307
5.360476
5.092879
4.977653
4.973892
4.943174
4.67939
4.186378
3.579969
3.106415
2.954491
3.180316
3.66403
4.168997
4.398923
4.225243
3.732939
3.119572
2.581797
2.233052
2.010823
1.751839
1.313929
0.5667663
-0.448391
-1.60149
-2.790942
-3.966422
-5.083053
-6.108037
-7.004304
-7.68455
-8.107792
-8.335713
-8.481497
-8.682556
-8.988269
-9.320015
-9.504281
-9.443385
-9.109814
-8.443304
-7.453933
-6.032002
-4.071794
-1.561707
1.3273
4.17107
6.521332
8.034914
8.676937
8.657209
8.35301
8.055534
7.84174
7.600231
7.07626
6.132296
4.734837
3.124079
1.595659
0.3920822
-0.3623772
-0.8143406
-1.124741
-1.365824
-1.415724
-1.133949
-0.3955135
0.6899338
1.806448
2.672659
2.962238
2.583784
1.663
0.4260845
-0.9361458
-2.346167
-3.828394
-5.379915
-6.903461
-8.281649
-9.351507
-10.04018
-10.35272
-10.43858
-10.4451
-10.49805
-10.65823
-10.8114
-10.8901
-10.78968
-10.43772
-9.75119
-8.635189
-6.986042
-4.768959
-2.202187
0.4150734
2.674713
4.303345
5.241539
5.669552
5.889492
6.129074
6.440117
6.586578
6.265625
5.303059
3.782192
1.995659
0.4124565
-0.6246529
-1.030125
-0.9127731
-0.5973969
-0.3620605
-0.3821106
-0.7130108
-1.36257
-2.298916
-3.512243
-5.023674
-6.755789
-8.65723
-10.64886
-12.6527
-14.61476
-16.47784
-18.12433
-19.39517
-20.20829
-20.49198
-20.37806
-20.05064
-19.69267
-19.36923
-18.97208
-18.42163
-17.66686
-16.7473
-15.67789
-14.46629
-12.91212
-10.75545
-7.82113
-4.077129
0.2249403
4.717557
9.039123
13.0311
16.68679
20.10572
23.29527
26.00663
27.88074
28.56041
27.87756
25.94226
23.19481
20.2486
17.6981
15.99196
15.22833
15.30749
15.96685
16.92817
17.90931
18.62649
18.93813
18.69197
17.88659
16.53312
14.68486
12.39768
9.761008
6.871118
3.825352
0.8267007
-1.964684
-4.348706
-6.251367
-7.683136
-8.754068
-9.611371
-10.36272
-11.06533
-11.6731
-12.11081
-12.22028
-11.93291
-11.14171
-9.758484
-7.719901
-4.977872
-1.667522
1.922586
5.312287
8.058853
9.86692
10.67157
10.71031
10.25069
9.549389
8.706238
7.710716
6.505091
5.200349
4.021807
3.237149
3.081252
3.43287
4.094286
4.6957
4.956954
4.720741
4.062809
3.172503
2.274671
1.571822
1.009876
0.5481367
-0.0005578995
-0.7509575
-1.739219
-2.894354
-4.135405
-5.461521
-6.91181
-8.560162
-10.34176
-12.09231
-13.58608
-14.61049
-15.08722
-15.08403
-14.73058
-14.11793
-13.27975
-12.17671
-10.8231
-9.259238
-7.491676
-5.688881
-3.93434
-2.305737
-0.8412628
0.4289045
1.510486
2.427809
3.19784
3.935571
4.693375
5.510193
6.35428
7.142121
7.682104
7.840499
7.579893
6.987557
6.262373
5.5977
5.175493
5.042233
5.224396
5.64966
6.279121
6.970015
7.585301
7.955418
7.917394
7.458895
6.601856
5.459568
4.196651
2.935613
1.650219
0.2531977
-1.394574
-3.369564
-5.60041
-7.902972
-10.06481
-11.89545
-13.30948
-14.27203
-14.73612
-14.64678
-13.93791
-12.62049
-10.79725
-8.665239
-6.406488
-4.107838
-1.733662
0.8093948
3.506174
6.199717
8.601576
10.37848
11.28
11.29742
10.61374
9.46747
8.141159
6.802387
5.529781
4.327398
3.248083
2.393269
1.948908
2.102903
2.869667
4.114403
5.493477
6.69253
7.433264
7.631201
7.437103
7.080383
6.76969
6.526205
6.225847
5.678322
4.769558
3.527548
2.06028
0.5445652
-0.9830513
-2.627178
-4.558725
-6.885609
-9.507296
-12.1289
-14.37938
-15.97399
-16.84496
-17.10144
-17.0412
-16.89848
-16.81361
-16.66866
-16.25461
-15.27188
-13.54452
-11.08447
-8.123259
-5.041464
-2.187256
0.1373272
1.961245
3.401781
4.738039
6.188314
7.796801
9.415236
10.83287
11.90801
12.61594
13.15045
13.80334
14.86917
16.50513
18.61586
20.8242
22.70386
23.85903
24.0754
23.32016
21.79979
19.81269
17.71677
15.71504
13.8407
11.97506
9.878296
7.358925
4.378239
1.14698
-2.088264
-5.083008
-7.889881
-10.8298
-14.38976
-19.06241
-24.94732
-31.66853
-38.49557
-44.52736
-48.77279
-50.43837
-48.98443
-44.30221
-36.8432
-27.69767
-18.41095
-10.72647
-6.24507
-5.979433
-10.1718
-18.21505
-28.97422
-41.04183
-53.16383
-64.5737
-74.98961
-84.39742
-92.43697
-97.98543
-99.06872
-93.54012
-79.84659
-57.67193
-27.85389
8.178325
48.76622
92.0295
135.167
173.906
202.875
216.8833
212.9408
191.5891
157.0151
115.4674
73.35813
35.47433
4.300912
-19.4025
-35.83632
-45.43605
-48.76332
-46.58838
-40.25301
-31.53718
-22.35421
-14.40606
-8.719104
-5.500246
-4.219035
-3.926312
-3.53592
-2.399419
-0.4735599
1.719529
3.356752
3.755096
2.627344
0.05203724
-3.634723
-8.126476
-13.28704
-19.14871
-25.55633
-32.15754
-38.12074
-42.4956
-44.70293
-44.72377
-43.49091
-42.39522
-42.77505
-45.19171
-49.21087
-53.47902
-56.35012
-56.76979
-54.57611
-50.58935
-46.04427
-41.99455
-38.86904
-36.50033
-34.35561
-31.83427
-28.54928
-24.24294
-18.79985
-12.20717
-4.620247
3.551991
11.72237
19.15101
25.35959
30.13386
33.69299
36.38303
38.509
40.27496
41.65554
42.63251
43.1072
43.11705
42.69028
41.93578
40.97688
39.91352
38.92012
38.13215
37.66148
37.43382
37.23099
36.74332
35.72104
34.06082
31.85776
29.40341
27.00235
24.88811
23.10843
21.51752
19.86256
17.86588
15.44566
12.6312
9.694496
7.039169
5.046913
4.017441
4.077133
5.13221
6.894043
9.041458
11.15246
12.85977
13.88467
14.13453
13.66927
12.74306
11.62268
10.50285
9.495171
8.53894
7.489464
6.206474
4.67617
3.047783
1.531212
0.3329315
-0.4167328
-0.7225113
-0.7224197
-0.6068344
-0.5780563
-0.8257828
-1.362152
-2.200264
-3.377907
-4.82515
-6.497166
-8.232048
-9.85424
-11.24558
-12.49115
-13.6904
-14.99836
-16.43377
-17.75595
-18.55715
-18.43718
-17.14447
-14.65674
-11.33231
-7.570244
-3.884575
-0.7082291
1.713196
3.25333
3.919746
3.904301
3.498611
2.889175
2.323881
1.850836
1.429865
1.052492
0.6597462
0.2434883
-0.1516781
-0.5388412
-0.9608135
-1.435936
-1.987175
-2.651419
-3.43849
-4.414074
-5.619205
-7.042274
-8.54616
-9.896736
-10.78686
-11.00636
-10.60325
-9.728128
-8.75468
-7.961675
-7.491045
-7.367054
-7.474984
-7.588273
-7.432468
-6.72189
-5.156654
-2.752809
0.2510247
3.356658
5.968029
7.638922
8.26518
8.129677
7.681835
7.384192
7.327933
7.40587
7.400019
7.133497
6.62183
6.04276
5.63214
5.45633
5.458014
5.448607
5.249947
4.833827
4.190732
3.453256
2.664139
1.812776
0.784368
-0.4418287
-1.803921
-3.189367
-4.427844
-5.515737
-6.449079
-7.397047
-8.469463
-9.647883
-10.71466
-11.31744
-11.17077
-10.13357
-8.316368
-5.935284
-3.285467
-0.5699215
2.123999
4.752316
7.292749
9.530823
11.19808
12.07916
12.09587
11.41934
10.40038
9.415749
8.692293
8.277592
8.007036
7.676714
7.090681
6.101948
4.76226
3.201324
1.5952
0.06546783
-1.340977
-2.633759
-3.845345
-4.997898
-6.173588
-7.376919
-8.569763
-9.698616
-10.69799
-11.47781
-11.98526
-12.20902
-12.2081
-12.16788
-12.20916
-12.35429
-12.49024
-12.40982
-11.81224
-10.58498
-8.674213
-6.202671
-3.443687
-0.6469765
1.970158
4.218056
5.998646
7.329712
8.307388
9.251362
10.56003
12.55958
15.40021
18.92811
22.63303
25.8623
27.98124
28.58366
27.60085
25.25341
21.84696
17.79187
13.45119
9.249527
5.540039
2.597069
0.5027542
-0.8575439
-1.74659
-2.543922
-3.484673
-4.718155
-6.090622
-7.353928
-8.232239
-8.629593
-8.636848
-8.488052
-8.445076
-8.55674
-8.695953
-8.53302
-7.752327
-6.178581
-3.886505
-1.16993
1.622925
4.135696
6.066986
7.206383
7.393387
6.675789
5.278763
3.609695
2.024017
0.7941895
-0.06338501
-0.7355194
-1.398575
-2.133644
-2.76712
-3.068871
-2.812317
-2.062897
-1.097366
-0.3594666
-0.2265625
-0.7695313
-1.793213
-2.968887
-3.991959
-4.722748
-5.189865
-5.541168
-6.032196
-6.907715
-8.275162
-10.1613
-12.4819
-14.95619
-17.32538
-19.26031
-20.5303
-21.09195
-21.02441
-20.52577
-19.84003
-19.15807
-18.47479
-17.67711
-16.5118
-14.74837
-12.24438
-9.164978
-5.918579
-3.064835
-1.072525
-0.1326599
-0.1698151
-0.8851776
-1.909882
-2.874527
-3.541443
-3.853806
-3.863037
-3.669891
-3.372925
-3.022354
-2.622086
-2.084351
-1.438583
-0.6669159
0.1560974
0.9032135
1.532104
2.036041
2.513626
3.04158
3.698074
4.336426
4.805756
4.945984
4.65889
4.035522
3.334091
2.862122
2.846588
3.410736
4.378479
5.478104
6.454666
7.147461
7.559036
7.807144
8.082581
8.537628
9.319046
10.4671
11.93521
13.60048
15.20741
16.47559
17.12746
17.06737
16.39729
15.3931
14.35172
13.44298
12.689
11.9418
11.0435
9.906555
8.652435
7.501587
6.689636
6.296524
6.223328
6.267517
6.194183
5.897171
5.403854
4.863297
4.388626
3.990417
3.57164
2.891296
1.792389
0.1756592
-1.897842
-4.271423
-6.702286
-8.9944
-10.93842
-12.33022
-13.06879
-13.11426
-12.6301
-11.96614
-11.55882
-11.64253
-12.20978
-12.86557
-13.06546
-12.36194
-10.48358
-7.572037
-4.013962
-0.2748566
3.249207
6.278915
8.690277
10.42847
11.45602
11.83934
11.62094
10.85841
9.704147
8.257782
6.608017
4.867264
3.160431
1.602814
0.3626556
-0.4921417
-1.025665
-1.343521
-1.6064
-1.992493
-2.495651
-3.067307
-3.618973
-4.052612
-4.330643
-4.511261
-4.656509
-4.819946
-5.048279
-5.271484
-5.535583
-5.838623
-6.25528
-6.817505
-7.587692
-8.525894
-9.60878
-10.7547
-11.83417
-12.86507
-13.74492
-14.3857
-14.66687
-14.37709
-13.30429
-11.36841
-8.591156
-5.153198
-1.451294
2.109131
5.175629
7.459961
8.938782
9.706177
9.942261
9.796326
9.417755
8.823975
8.014832
7.04834
6.00589
5.072815
4.384033
3.970581
3.732086
3.516541
3.119629
2.473694
1.569061
0.5260925
-0.4638672
-1.381653
-2.275085
-3.282104
-4.52475
-6.023651
-7.693634
-9.382965
-10.98709
-12.36591
-13.60257
-14.77029
-15.94693
-17.14682
-18.2558
-19.15964
-19.73792
-20.00891
-19.98157
-19.81003
-19.53082
-19.05194
-18.13019
-16.49533
-13.97745
-10.70313
-7.072601
-3.555786
-0.641571
1.484131
2.876343
3.772278
4.427399
4.891052
5.039459
4.662079
3.604584
1.903961
-0.168457
-2.196167
-3.806305
-4.687469
-4.872711
-4.536652
-3.929413
-3.289703
-2.737885
-2.25
-1.786407
-1.365265
-0.971344
-0.6936035
-0.5697937
-0.6684265
-0.9512939
-1.392456
-1.824554
-2.154877
-2.285309
-2.140228
-1.727234
-1.099152
-0.3717651
0.3892822
1.196762
2.25943
3.73378
5.78006
8.433945
11.52103
14.74559
17.73758
20.10095
21.5853
22.18141
21.94771
21.07619
19.77478
18.086
16.00534
13.56731
10.82806
8.026962
5.509949
3.562042
2.381088
1.96579
2.182617
2.808136
3.617142
4.368866
4.891907
5.069748
4.855865
4.274567
3.399033
2.28653
1.005829
-0.4378967
-2.086151
-3.859436
-5.64563
-7.25177
-8.520081
-9.448288
-10.14917
-10.76254
-11.46744
-12.36176
-13.41068
-14.39317
-15.03662
-15.04051
-14.22328
-12.53867
-10.03529
-6.968933
-3.611542
-0.3399811
2.545929
4.809418
6.424103
7.436218
7.996552
8.248856
8.288895
8.169342
7.865921
7.375458
6.691498
5.89592
5.098572
4.374451
3.69603
2.983582
2.16655
1.194031
0.1377411
-0.8916931
-1.746414
-2.383728
-2.936935
-3.642273
-4.747086
-6.254288
-7.989502
-9.591522
-10.73883
-11.24649
-11.15387
-10.69705
-10.12543
-9.700378
-9.473831
-9.415146
-9.322662
-8.985733
-8.206253
-6.891708
-5.071686
-2.871338
-0.5048676
1.793137
3.816162
5.378433
6.412766
6.869171
6.832138
6.401871
5.727493
4.974396
4.250458
3.585388
2.974533
2.397858
1.870041
1.54129
1.47728
1.733047
2.201813
2.680222
3.021973
3.165253
3.150177
3.010941
2.819992
2.463577
1.77713
0.6353607
-0.9828491
-2.902588
-4.858124
-6.621368
-8.177551
-9.548141
-10.83022
-12.09169
-13.19447
-13.93208
-14.04788
-13.32919
-11.71806
-9.347183
-6.474594
-3.474533
-0.700058
1.672485
3.503311
4.838394
5.752197
6.303986
6.51944
6.344131
5.722321
4.730316
3.56636
2.394836
1.436279
0.7668915
0.2828522
-0.108963
-0.5120239
-0.9460602
-1.318924
-1.579681
-1.768311
-2.06337
-2.653854
-3.762299
-5.445251
-7.578247
-9.914688
-12.20207
-14.29497
-16.10997
-17.74959
-19.17186
-20.4111
-21.34306
-21.82269
-21.73209
-20.96518
-19.49492
-17.33949
-14.66187
-11.70641
-8.828369
-6.307312
-4.396423
-3.098984
-2.198013
-1.448181
-0.6573639
0.1559448
0.8404083
1.276016
1.431793
1.406448
1.377274
1.514694
1.887115
2.474121
3.151535
3.82753
4.49176
5.086914
5.682999
6.206512
6.538864
6.497131
5.961807
4.909897
3.496155
2.013199
0.7222443
-0.15802
-0.6093674
-0.7592545
-0.849205
-1.045303
-1.465889
-2.050056
-2.6166
-2.902061
-2.538574
-1.299431
0.9192886
3.982384
7.529846
11.0492
14.10648
16.3923
17.77988
18.40878
18.39237
17.83051
16.82057
15.43336
13.79669
12.14926
10.70375
9.612144
8.911964
8.489281
8.260017
8.163963
8.18808
8.312302
8.468834
8.547852
8.457321
8.188103
7.791534
7.401726
7.070251
6.66798
6.001461
4.82473
2.977089
0.5215187
-2.337387
-5.334827
-8.165054
-10.57303
-12.43538
-13.6702
-14.35713
-14.64455
-14.73978
-14.81142
-14.94238
-15.02676
-14.8228
-14.03995
-12.45257
-10.11315
-7.269379
-4.334007
-1.686577
0.3953247
1.833115
2.731594
3.272692
3.615955
3.787693
3.76124
3.494301
3.021746
2.494516
2.097412
1.964361
2.130663
2.49255
2.91544
3.27272
3.537953
3.807111
4.290998
5.088771
6.207708
7.450727
8.512608
9.170136
9.317527
8.984865
8.249969
7.220611
5.873391
4.164656
2.109477
-0.1940198
-2.521512
-4.67306
-6.556757
-8.200003
-9.727896
-11.26349
-12.83445
-14.32249
-15.6074
-16.55751
-17.05364
-16.96125
-16.10433
-14.26825
-11.37822
-7.569674
-3.190594
1.237289
5.265915
8.547684
10.98873
12.61634
13.56076
13.92115
13.75515
13.18756
12.29009
11.21855
10.09594
9.093582
8.370537
8.058075
8.256111
8.958694
10.07253
11.3529
12.49195
13.22423
13.3709
12.91368
11.92894
10.51869
8.776688
6.81395
4.648621
2.298515
-0.1868286
-2.745232
-5.360214
-8.002151
-10.64791
-13.26031
-15.67999
-17.75044
-19.30287
-20.19744
-20.52544
-20.49138
-20.34871
-20.20498
-20.10054
-19.83738
-19.15311
-17.85246
-15.82299
-13.2364
-10.314
-7.326225
-4.44326
-1.818039
0.4368896
2.248215
3.586411
4.435562
4.875069
5.052979
5.130188
5.247978
5.445595
5.716019
5.953766
6.048294
5.942551
5.630859
5.14859
4.590881
4.048889
3.654922
3.525345
3.675247
4.015915
4.409271
4.675919
4.656036
4.287781
3.500595
2.279602
0.6392059
-1.385162
-3.754684
-6.250748
-8.588959
-10.47191
-11.62526
-11.91019
-11.33652
-10.05264
-8.267822
-6.279434
-4.343475
-2.634415
-1.208847
0.08918762
1.504135
3.306274
5.616516
8.317001
11.1265
13.74158
16.00461
17.99521
19.92813
22.03386
24.27455
26.43674
28.11734
29.02351
29.06354
28.35159
27.11459
25.62827
24.07472
22.53357
21.1221
19.92181
19.04242
18.46689
18.06866
17.57327
16.76439
15.53851
13.92902
12.14749
10.37578
8.701935
7.121353
5.604767
4.099838
2.62117
1.222412
-0.1270752
-1.431427
-2.790314
-4.248459
-5.742218
-7.181503
-8.471222
-9.68811
-10.88962
-12.21046
-13.58348
-14.85597
-15.67918
-15.65675
-14.56651
-12.38203
-9.380295
-5.914536
-2.421707
0.7906189
3.434387
5.365936
6.528488
6.984192
6.881714
6.437988
5.954941
5.62941
5.574387
5.732224
5.960464
6.123886
6.109192
5.964172
5.707855
5.436462
5.214966
5.078278
5.031509
4.981857
4.868805
4.523453
3.933746
3.129822
2.228394
1.430878
0.8919067
0.6367798
0.4923706
0.2496338
-0.3578796
-1.363907
-2.751602
-4.307602
-5.896591
-7.371384
-8.718124
-10.00237
-11.26758
-12.54204
-13.79535
-14.96869
-15.80258
-16.05205
-15.40602
-13.66568
-10.93652
-7.519028
-3.886688
-0.508255
2.276367
4.363708
5.820297
6.789856
7.456085
7.956192
8.412979
8.925217
9.612076
10.5148
11.62199
12.83928
13.94814
14.76813
15.05301
14.76071
13.92763
12.85735
11.85178
11.0824
10.47174
9.7677
8.750748
7.169388
5.089996
2.551605
-0.286026
-3.350082
-6.621307
-10.04715
-13.41316
-16.3429
-18.5856
-19.97986
-20.71361
-21.1368
-21.5408
-22.09599
-22.72449
-23.31215
-23.71698
-23.87967
-23.69769
-23.09746
-21.90828
-19.96242
-17.25578
-13.96107
-10.50781
-7.268951
-4.465546
-2.085419
0.007766724
1.947495
3.817429
5.503235
6.869202
7.792694
8.330902
8.672394
9.065598
9.636948
10.37355
11.09352
11.52647
11.49541
10.97133
10.02667
8.835922
7.459396
5.977295
4.393173
2.710968
1.017227
-0.5155334
-1.746857
-2.664841
-3.368713
-4.055908
-4.868439
-5.892487
-7.146393
-8.477814
-9.71405
-10.62015
-11.10388
-11.14508
-10.8548
-10.47763
-10.15164
-9.94339
-9.695923
-9.14212
-7.97171
-5.977081
-3.106628
0.4779358
4.452301
8.430634
12.06363
15.09943
17.39969
19.0173
20.01151
20.51889
20.5954
20.25558
19.53696
18.59351
17.65887
16.9838
16.78018
17.10709
17.90665
19.01404
20.21313
21.34637
22.23779
22.72363
22.73163
22.14758
20.97794
19.29517
17.22067
14.86703
12.35535
9.668732
6.790466
3.763733
0.6806946
-2.253113
-4.801727
-6.749878
-8.12674
-9.059967
-9.88916
-10.93564
-12.36746
-14.06412
-15.71619
-16.89761
-17.19128
-16.41663
-14.60745
-11.97534
-8.846954
-5.593719
-2.579102
-0.05447388
1.803162
2.938599
3.407318
3.409485
3.217743
3.066803
3.124115
3.380737
3.82019
4.424469
5.181091
6.11235
7.241898
8.485428
9.663986
10.60539
11.16309
11.26695
10.96048
10.3179
9.455139
8.455429
7.324265
6.072372
4.712051
3.344421
2.043457
0.8840485
-0.14328
-1.059586
-1.940033
-2.835602
-3.735062
-4.599564
-5.375046
-6.085419
-6.827118
-7.798706
-9.141464
-10.90468
-13.00815
-15.17207
-17.11858
-18.517
-19.06737
-18.56203
-16.884
-14.13017
-10.5791
-6.691116
-2.892288
0.3873291
2.961609
4.86554
6.248444
7.289886
8.080048
8.660446
9.070999
9.456329
9.923645
10.59427
11.4119
12.19481
12.76294
12.97881
12.93004
12.79263
12.77242
12.98074
13.32944
13.57832
13.46696
12.8714
11.80511
10.40169
8.769211
6.992859
5.122299
3.205872
1.353806
-0.3847046
-1.964722
-3.458313
-4.919724
-6.362473
-7.661606
-8.673279
-9.257584
-9.359222
-9.189423
-9.056168
-9.290924
-10.05359
-11.30792
-12.83914
-14.3129
-15.46295
-15.98769
-15.73134
-14.63898
-12.76303
-10.31076
-7.600418
-4.977829
-2.681152
-0.8519897
0.5229645
1.497345
2.18956
2.672836
2.983032
3.178314
3.296173
3.354645
3.2957
3.079575
2.652649
2.126144
1.673706
1.440125
1.569702
2.056381
2.740768
3.451508
4.01709
4.359238
4.403946
4.106674
3.389511
2.207153
0.6074677
-1.287643
-3.258133
-5.089203
-6.576691
-7.702652
-8.525223
-9.17128
-9.702667
-10.14503
-10.47745
-10.7093
-10.86375
-11.01816
-11.26947
-11.70451
-12.40007
-13.29144
-14.24339
-15.0314
-15.40852
-15.13205
-14.09261
-12.35564
-10.14308
-7.725174
-5.3936
-3.274094
-1.459579
0.014328
1.143555
1.857086
2.075256
1.832291
1.339523
0.8917389
0.8712158
1.557709
3.047455
5.181992
7.722488
10.29915
12.68118
14.68997
16.19472
17.16634
17.59476
17.48325
16.88055
15.90947
14.70151
13.44391
12.21378
11.03131
9.935165
8.959091
8.068542
7.271576
6.472183
5.539337
4.345978
2.781494
0.8378601
-1.37326
-3.618011
-5.733093
-7.560394
-9.017914
-10.11685
-10.78197
-10.79424
-9.914658
-7.878754
-4.596344
-0.3521576
4.236313
8.41835
11.5096
13.22659
13.67688
13.22774
12.26266
11.07207
9.732567
8.243912
6.683228
5.243546
4.253227
3.87854
4.127373
4.773773
5.544617
6.22908
6.734596
7.118706
7.401627
7.656639
7.822792
7.81089
7.584473
7.111275
6.353539
5.262268
3.837257
2.123238
0.334343
-1.284653
-2.547806
-3.433067
-4.146492
-4.982338
-6.165558
-7.667107
-9.263496
-10.59007
-11.40959
-11.7237
-11.79784
-12.04092
-12.68864
-13.73886
-14.96924
-16.09094
-16.83353
-17.05244
-16.66628
-15.62453
-13.87296
-11.34978
-8.098488
-4.371742
-0.58815
2.806595
5.487213
7.320847
8.365257
8.768318
8.765312
8.49213
7.983871
7.20853
6.138588
4.787273
3.250469
1.767654
0.5092964
-0.3640404
-0.8151588
-0.9599495
-0.9139748
-0.7184258
-0.4005432
0.08773422
0.7670898
1.529041
2.178177
2.554054
2.617435
2.365719
1.922962
1.343094
0.6396484
-0.2133636
-1.217163
-2.372623
-3.6157
-4.826546
-5.981995
-7.056847
-8.043522
-8.879002
-9.42791
-9.589863
-9.36441
-8.868481
-8.428635
-8.373066
-8.867601
-9.850388
-10.95528
-11.72445
-11.79771
-10.93688
-9.102015
-6.468641
-3.368973
-0.1581211
2.803251
5.201965
6.847712
7.665104
7.726591
7.260929
6.561913
5.837265
5.329424
5.195641
5.497234
6.24876
7.362558
8.6742
10.04646
11.32143
12.33113
12.94501
13.04071
12.60473
11.69485
10.48264
9.162368
7.927093
6.828589
5.826093
4.795589
3.575518
2.11533
0.4145665
-1.467076
-3.488146
-5.568767
-7.613572
-9.520504
-11.19154
-12.60177
-13.80168
-14.81607
-15.63508
-16.25918
-16.58049
-16.58234
-16.29399
-15.80788
-15.27656
-14.88523
-14.73775
-14.82537
-15.01406
-15.03151
-14.59115
-13.46061
-11.57392
-9.082031
-6.286092
-3.588744
-1.305499
0.3716664
1.380771
1.780375
1.714701
1.408959
1.043939
0.7912836
0.6725826
0.6693029
0.7301526
0.8900251
1.239001
1.853985
2.780293
3.867027
4.908042
5.614612
5.859527
5.655589
5.216643
4.854088
4.72301
4.835184
4.90567
4.653688
3.805167
2.396291
0.6650517
-0.9317415
-2.022649
-2.526135
-2.694182
-3.007815
-3.774682
-5.065582
-6.614525
-7.959764
-8.724284
-8.798439
-8.39348
-7.823905
-7.306149
-6.833431
-6.245845
-5.34313
-4.069953
-2.439791
-0.5066599
1.669683
4.077575
6.678385
9.316612
11.67015
13.40272
14.20675
14.06853
13.17871
11.87
10.45625
9.137592
8.032659
7.174361
6.595973
6.316806
6.354823
6.683245
7.260912
7.992975
8.753947
9.45546
10.07573
10.58082
10.93323
11.09293
11.03133
10.69709
10.11366
9.19084
7.858156
6.091753
3.928905
1.549136
-0.8417978
-2.960406
-4.642514
-5.770747
-6.389337
-6.616241
-6.575449
-6.347697
-5.985826
-5.566762
-5.131744
-4.748195
-4.540222
-4.614401
-5.061802
-5.92857
-7.118938
-8.434734
-9.645555
-10.49025
-10.74064
-10.27854
-9.083691
-7.249527
-4.987835
-2.523506
-0.1053467
2.067041
3.857668
5.275059
6.32398
7.08745
7.526905
7.607088
7.25045
6.389818
5.16172
3.733555
2.467148
1.635834
1.385498
1.604454
2.082012
2.553925
2.851139
3.001198
3.078728
3.149349
3.214058
3.196278
3.002201
2.629921
2.107418
1.489262
0.9115067
0.438446
0.09840393
-0.09985352
-0.1889153
-0.2043724
-0.2232513
-0.3903084
-0.8562317
-1.627754
-2.714733
-3.983612
-5.344067
-6.720097
-8.051788
-9.328991
-10.52769
-11.64398
-12.53046
-13.11322
-13.26347
-12.87909
-11.96359
-10.53135
-8.619381
-6.300152
-3.677738
-0.8501549
1.930222
4.420254
6.398048
7.685757
8.294838
8.420383
8.277298
8.025524
7.734272
7.30238
6.708427
6.097389
5.739628
5.965008
6.902218
8.432407
10.14777
11.59417
12.39473
12.39629
11.72545
10.54646
9.004311
7.141556
4.972412
2.564789
0.06622314
-2.326942
-4.472382
-6.250854
-7.746132
-9.023987
-10.15794
-11.12389
-11.83504
-12.2427
-12.33852
-12.18877
-11.89704
-11.63091
-11.4797
-11.52863
-11.77296
-12.18542
-12.68904
-13.14939
-13.42493
-13.45689
-13.30457
-13.01725
-12.66805
-12.24891
-11.66878
-10.78369
-9.423378
-7.583588
-5.414925
-3.260071
-1.471397
-0.2687912
0.254364
0.2445297
-0.138588
-0.6719208
-1.270782
-1.919876
-2.585403
-3.21994
-3.656342
-3.754082
-3.384331
-2.632782
-1.597069
-0.4688187
0.6479645
1.719017
2.73896
3.602119
4.139351
4.187675
3.603516
2.471199
0.9875031
-0.5637817
-1.935532
-3.006363
-3.784775
-4.332233
-4.650425
-4.717915
-4.530735
-4.177853
-3.80674
-3.57291
-3.618435
-3.916386
-4.351837
-4.751511
-4.92363
-4.799324
-4.388161
-3.771614
-3.04335
-2.320278
-1.621197
-0.911396
-0.05762863
1.054665
2.533863
4.349022
6.357098
8.31987
9.978828
11.17484
11.88454
12.18084
12.12822
11.79961
11.20939
10.4189
9.526009
8.764763
8.37302
8.49522
9.146511
10.20549
11.48012
12.79784
14.07023
15.1574
15.97345
16.33002
15.98435
14.81566
12.85587
10.34688
7.623219
5.10841
3.006123
1.365238
0.1043015
-0.9409142
-1.899975
-2.867798
-3.885319
-5.046787
-6.316593
-7.679729
-9.081593
-10.3786
-11.45698
-12.30605
-13.06073
-13.90686
-15.00819
-16.26554
-17.46548
-18.22521
-18.106
-16.8057
-14.18213
-10.39897
-5.839863
-1.101471
3.190655
6.468502
8.46413
9.210495
8.933609
8.033649
6.908009
5.862282
5.072578
4.638149
4.571518
4.87801
5.520409
6.292473
7.014679
7.558132
7.874542
7.950302
7.906124
7.862427
7.895699
8.005051
8.013699
7.799942
7.272511
6.426529
5.279598
3.942547
2.522774
1.029312
-0.4891968
-2.061333
-3.626339
-5.13343
-6.528278
-7.800465
-8.924232
-9.864391
-10.58004
-10.95333
-11.00307
-10.75302
-10.43984
-10.32173
-10.60456
-11.34668
-12.44086
-13.62432
-14.55584
-15.00098
-14.78279
-13.82255
-12.14728
-9.805134
-6.950001
-3.827805
-0.7623482
1.995819
4.206535
5.805836
6.88866
7.631077
8.214504
8.749462
9.265427
9.73785
10.17748
10.57962
10.93157
11.19083
11.33635
11.3523
11.2584
11.0693
10.80064
10.44609
9.926769
9.158195
8.070328
6.679634
5.099216
3.46364
1.924019
0.6202583
-0.385828
-1.044004
-1.405844
-1.579283
-1.712925
-1.986696
-2.582748
-3.614462
-5.057064
-6.766552
-8.502861
-10.00592
-11.15166
-11.99987
-12.77174
-13.71642
-14.97466
-16.43993
-17.78445
-18.65655
-18.70656
-17.81233
-16.06001
-13.66104
-10.93455
-8.178316
-5.63484
-3.442038
-1.733692
-0.6251373
-0.142704
-0.2033157
-0.5863514
-1.031498
-1.316406
-1.335046
-1.099079
-0.7422285
-0.3353329
0.1089163
0.6722431
1.45661
2.505846
3.704983
4.899577
5.907531
6.591798
6.924369
6.910652
6.584686
5.938328
5.000777
3.783074
2.331308
0.7482018
-0.8323088
-2.291357
-3.541707
-4.613878
-5.629085
-6.667721
-7.772488
-8.865985
-9.841797
-10.54653
-10.88823
-10.89928
-10.66388
-10.33752
-10.06953
-9.987896
-10.16009
-10.62904
-11.34554
-12.16835
-12.87172
-13.17192
-12.80983
-11.61527
-9.588512
-6.856888
-3.662502
-0.2774544
3.04459
6.154495
8.98119
11.47511
13.6485
15.44369
16.76649
17.60254
17.93453
17.93816
17.82941
17.85953
18.1193
18.50394
18.82462
18.77858
18.35194
17.58635
16.70071
15.89297
15.30171
14.87534
14.51604
14.10443
13.55604
12.92009
12.20221
11.42313
10.45496
9.266991
7.782532
5.996544
3.983917
1.835129
-0.2976456
-2.342102
-4.204193
-5.815834
-7.159203
-8.239952
-9.160774
-10.02395
-10.94696
-11.94237
-12.93958
-13.7077
-13.90117
-13.25367
-11.52094
-8.683601
-4.933235
-0.7434311
3.315987
6.711815
9.176468
10.66686
11.39997
11.62453
11.49105
11.09628
10.35957
9.30883
8.087288
6.92939
5.994347
5.391022
5.133995
5.063705
5.123322
5.224854
5.414375
5.791748
6.407173
7.207344
8.014091
8.615143
8.677422
8.09198
6.826759
5.052353
3.097092
1.253418
-0.2840195
-1.455154
-2.281898
-2.914948
-3.338165
-3.635841
-3.881813
-4.102722
-4.342484
-4.623215
-4.931213
-5.251846
-5.678436
-6.303329
-7.289177
-8.717583
-10.42838
-12.22396
-13.83639
-15.12596
-16.00936
-16.41451
-16.2128
-15.19509
-13.24796
-10.42539
-7.086617
-3.72525
-0.7782898
1.465469
3.021812
4.086288
4.895226
5.57753
6.174805
6.625763
6.913368
7.171257
7.501686
7.983543
8.622757
9.361938
10.02562
10.52553
10.82177
10.95679
11.0691
11.21564
11.43044
11.57971
11.57433
11.27387
10.65807
9.864647
9.016098
8.27282
7.693367
7.263893
6.836823
6.325203
5.645088
4.803398
3.812271
2.657684
1.337608
-0.1387329
-1.706039
-3.279373
-4.767273
-6.117928
-7.286545
-8.30616
-9.281395
-10.32347
-11.51349
-12.88338
-14.34076
-15.72141
-16.78095
-17.28455
-17.02567
-15.9768
-14.2263
-11.87836
-9.151329
-6.277817
-3.523643
-1.088959
0.8078384
2.108078
2.845245
3.111
3.077347
2.88726
2.698936
2.629257
2.79361
3.212723
3.794113
4.402351
4.850143
4.977852
4.747734
4.314667
3.879982
3.605759
3.526436
3.526031
3.467575
3.218933
2.713493
1.925079
0.9125214
-0.2093124
-1.388527
-2.566139
-3.680122
-4.711166
-5.68647
-6.645714
-7.668861
-8.807655
-10.03849
-11.26009
-12.33816
-13.13822
-13.59222
-13.82346
-14.01846
-14.36995
-15.00887
-15.90721
-16.83857
-17.44792
-17.42675
-16.49112
-14.52951
-11.575
-7.790283
-3.423035
1.153015
5.661087
9.843796
13.52408
16.56451
18.8318
20.27851
20.90792
20.81184
20.1273
19.05349
17.77572
16.46933
15.30434
14.37466
13.82921
13.79192
14.21469
14.94118
15.67352
16.1193
16.10799
15.63116
14.76859
13.64103
12.38796
11.02256
9.598526
8.11348
6.56739
5.034134
3.575928
2.236229
1.061859
0.05623627
-0.8857346
-1.792084
-2.64978
-3.479073
-4.178932
-4.699539
-5.088631
-5.454643
-5.971611
-6.862831
-8.145782
-9.674873
-11.21202
-12.38129
-12.90131
-12.62918
-11.51714
-9.717842
-7.474022
-5.072388
-2.758308
-0.7705688
0.8166351
1.901581
2.444717
2.503593
2.200737
1.718864
1.334641
1.269646
1.572754
2.227165
3.026993
3.791824
4.437668
5.025658
5.638588
6.394524
7.258369
8.119049
8.965416
9.758949
10.51276
11.18739
11.62111
11.56736
10.84397
9.340622
7.18898
4.711258
2.294014
0.2117157
-1.462646
-2.844887
-4.159531
-5.607574
-7.273155
-9.097626
-10.88947
-12.3692
-13.35053
-13.76614
-13.67845
-13.24204
-12.63088
-11.94793
-11.30969
-10.77348
-10.31424
-9.846519
-9.176399
-8.072678
-6.275635
-3.721535
-0.5612373
2.819374
5.877098
8.154327
9.394905
9.603394
8.939884
7.661175
5.992718
4.113346
2.242149
0.6219864
-0.4525108
-0.7882652
-0.3084183
0.9059258
2.541943
4.264725
5.796261
6.983898
7.846718
8.492195
8.953522
9.177658
9.087936
8.519184
7.41766
5.865822
4.076313
2.368694
1.059784
0.3636856
0.2670822
0.7110252
1.425648
2.189106
2.743256
2.964668
2.697514
1.850243
0.4604416
-1.448051
-3.648621
-5.989529
-8.328583
-10.63393
-12.91105
-15.19999
-17.52008
-19.69243
-21.48533
-22.57684
-22.72062
-21.76556
-19.70341
-16.67757
-12.9247
-8.823666
-4.806038
-1.326477
1.301682
2.928581
3.6399
3.731445
3.489147
3.167336
2.842079
2.512184
2.054646
1.496414
0.962513
0.6172562
0.6588974
1.11105
1.900581
2.870594
3.89695
4.822895
5.572369
6.165127
6.520512
6.569527
6.208485
5.376354
4.15522
2.750866
1.329594
-0.06365967
-1.463322
-3.062061
-4.925911
-7.012707
-9.156277
-11.11222
-12.72077
-13.97137
-15.00225
-15.89522
-16.73174
-17.37798
-17.68916
-17.61538
-17.08907
-16.16462
-14.94545
-13.48468
-11.7909
-9.91684
-7.819267
-5.479198
-2.950077
-0.2632866
2.406654
4.803032
6.709908
7.979679
8.543842
8.536575
8.170536
7.606087
7.013901
6.455666
5.986755
5.728302
5.779984
6.207748
7.034836
8.198921
9.541351
10.95672
12.3523
13.67342
14.97514
16.20715
17.28539
18.05602
18.39837
18.14679
17.32768
16.0399
14.4447
12.71316
10.92667
9.028297
6.877655
4.321625
1.323784
-1.842308
-4.858788
-7.234909
-8.755402
-9.446869
-9.618935
-9.612122
-9.682137
-9.904572
-10.18301
-10.42519
-10.48888
-10.28873
-9.661713
-8.439163
-6.427193
-3.617043
-0.2255478
3.303108
6.47348
8.882805
10.36696
10.94533
10.78985
10.10578
9.079453
7.865051
6.617767
5.499542
4.547333
3.818283
3.289543
3.06382
3.11805
3.525795
4.222008
5.148994
6.129982
6.952309
7.511055
7.726151
7.669609
7.320427
6.749382
5.954926
5.018967
4.055412
3.220551
2.669525
2.361893
2.175652
1.779961
0.9354782
-0.5046234
-2.496483
-4.86306
-7.338554
-9.617767
-11.51424
-12.85017
-13.6191
-13.89619
-13.9253
-13.9631
-14.18403
-14.59576
-14.93029
-14.90417
-14.24867
-12.8997
-10.93109
-8.565666
-5.994507
-3.317825
-0.6716919
1.852592
4.076637
5.890259
7.249016
8.256157
9.076622
9.755577
10.26979
10.4426
10.1831
9.56221
8.857643
8.364151
8.231075
8.413982
8.665855
8.766392
8.570728
8.156769
7.74947
7.546612
7.671776
7.980953
8.269741
8.308464
7.988552
7.293556
6.366829
5.351505
4.317719
3.261368
1.987747
0.4057426
-1.501148
-3.531269
-5.419327
-6.87439
-7.813408
-8.343742
-8.68298
-9.18523
-10.02325
-11.26557
-12.82504
-14.50951
-16.10691
-17.45327
-18.38244
-18.67457
-18.24358
-16.99133
-14.87463
-11.99763
-8.477341
-4.535374
-0.4562531
3.42799
6.809532
9.407551
11.03649
11.73968
11.62636
11.01088
10.11017
9.09766
8.049324
7.026737
6.130062
5.501488
5.297398
5.532654
6.191879
7.056774
7.864807
8.401733
8.542969
8.307232
7.816055
7.152412
6.349373
5.437706
4.384869
3.143539
1.738529
0.2636414
-1.063324
-2.082214
-2.71632
-3.069443
-3.418118
-4.033451
-5.092453
-6.520756
-8.081676
-9.440956
-10.44344
-11.09087
-11.62178
-12.27736
-13.22342
-14.41437
-15.70175
-16.85664
-17.69075
-18.13129
