1569657376.61037
1569657376.62599
1569657376.64162
1569657376.65725
1569657376.67287
1569657376.6885
1569657376.70412
1569657376.71975
1569657376.73537
1569657376.751
1569657376.76663
1569657376.78225
1569657376.79788
1569657376.8135
1569657376.82913
1569657376.84475
1569657376.86038
1569657376.87601
1569657376.89163
1569657376.90726
1569657376.92288
1569657376.93851
1569657376.95413
1569657376.96976
1569657376.98539
1569657377.00101
1569657377.01664
1569657377.03226
1569657377.04789
1569657377.06351
1569657377.07914
1569657377.09477
1569657377.11039
1569657377.12602
1569657377.14164
1569657377.15727
1569657377.17289
1569657377.18852
1569657377.20415
1569657377.21977
1569657377.2354
1569657377.25102
1569657377.26665
1569657377.28227
1569657377.2979
1569657377.31353
1569657377.32915
1569657377.34478
1569657377.3604
1569657377.37603
1569657377.39165
1569657377.40728
1569657377.42291
1569657377.43853
1569657377.45416
1569657377.46978
1569657377.48541
1569657377.50103
1569657377.51666
1569657377.53229
1569657377.54791
1569657377.56354
1569657377.57916
1569657377.59479
1569657377.61041
1569657377.62604
1569657377.64167
1569657377.65729
1569657377.67292
1569657377.68854
1569657377.70417
1569657377.7198
1569657377.73542
1569657377.75105
1569657377.76667
1569657377.7823
1569657377.79792
1569657377.81355
1569657377.82918
1569657377.8448
1569657377.86043
1569657377.87605
1569657377.89168
1569657377.9073
1569657377.92293
1569657377.93856
1569657377.95418
1569657377.96981
1569657377.98543
1569657378.00106
1569657378.01668
1569657378.03231
1569657378.04794
1569657378.06356
1569657378.07919
1569657378.09481
1569657378.11044
1569657378.12606
1569657378.14169
1569657378.15732
1569657378.17294
1569657378.18857
1569657378.20419
1569657378.21982
1569657378.23544
1569657378.25107
1569657378.2667
1569657378.28232
1569657378.29795
1569657378.31357
1569657378.3292
1569657378.34482
1569657378.36045
1569657378.37608
1569657378.3917
1569657378.40733
1569657378.42295
1569657378.43858
1569657378.4542
1569657378.46983
1569657378.48546
1569657378.50108
1569657378.51671
1569657378.53233
1569657378.54796
1569657378.56358
1569657378.57921
1569657378.59484
1569657378.61046
1569657378.62609
1569657378.64171
1569657378.65734
1569657378.67296
1569657378.68859
1569657378.70422
1569657378.71984
1569657378.73547
1569657378.75109
1569657378.76672
1569657378.78234
1569657378.79797
1569657378.8136
1569657378.82922
1569657378.84485
1569657378.86047
1569657378.8761
1569657378.89172
1569657378.90735
1569657378.92298
1569657378.9386
1569657378.95423
1569657378.96985
1569657378.98548
1569657379.0011
1569657379.01673
1569657379.03236
1569657379.04798
1569657379.06361
1569657379.07923
1569657379.09486
1569657379.11048
1569657379.12611
1569657379.14174
1569657379.15736
1569657379.17299
1569657379.18861
1569657379.20424
1569657379.21986
1569657379.23549
1569657379.25112
1569657379.26674
1569657379.28237
1569657379.29799
1569657379.31362
1569657379.32924
1569657379.34487
1569657379.3605
1569657379.37612
1569657379.39175
1569657379.40737
1569657379.423
1569657379.43862
1569657379.45425
1569657379.46988
1569657379.4855
1569657379.50113
1569657379.51675
1569657379.53238
1569657379.548
1569657379.56363
1569657379.57926
1569657379.59488
1569657379.61051
1569657379.62613
1569657379.64176
1569657379.65738
1569657379.67301
1569657379.68864
1569657379.70426
1569657379.71989
1569657379.73551
1569657379.75114
1569657379.76676
1569657379.78239
1569657379.79802
1569657379.81364
1569657379.82927
1569657379.84489
1569657379.86052
1569657379.87614
1569657379.89177
1569657379.9074
1569657379.92302
1569657379.93865
1569657379.95427
1569657379.9699
1569657379.98553
1569657380.00115
1569657380.01678
1569657380.0324
1569657380.04803
1569657380.06365
1569657380.07928
1569657380.09491
1569657380.11053
1569657380.12616
1569657380.14178
1569657380.15741
1569657380.17303
1569657380.18866
1569657380.20429
1569657380.21991
1569657380.23554
1569657380.25116
1569657380.26679
1569657380.28241
1569657380.29804
1569657380.31367
1569657380.32929
1569657380.34492
1569657380.36054
1569657380.37617
1569657380.39179
1569657380.40742
1569657380.42305
1569657380.43867
1569657380.4543
1569657380.46992
1569657380.48555
1569657380.50117
1569657380.5168
1569657380.53243
1569657380.54805
1569657380.56368
1569657380.5793
1569657380.59493
1569657380.61055
1569657380.62618
1569657380.64181
1569657380.65743
1569657380.67306
1569657380.68868
1569657380.70431
1569657380.71993
1569657380.73556
1569657380.75119
1569657380.76681
1569657380.78244
1569657380.79806
1569657380.81369
1569657380.82931
1569657380.84494
1569657380.86057
1569657380.87619
1569657380.89182
1569657380.90744
1569657380.92307
1569657380.93869
1569657380.95432
1569657380.96995
1569657380.98557
1569657381.0012
1569657381.01682
1569657381.03245
1569657381.04807
1569657381.0637
1569657381.07933
1569657381.09495
1569657381.11058
1569657381.1262
1569657381.14183
1569657381.15745
1569657381.17308
1569657381.18871
1569657381.20433
1569657381.21996
1569657381.23558
1569657381.25121
1569657381.26683
1569657381.28246
1569657381.29809
1569657381.31371
1569657381.32934
1569657381.34496
1569657381.36059
1569657381.37621
1569657381.39184
1569657381.40747
1569657381.42309
1569657381.43872
1569657381.45434
1569657381.46997
1569657381.48559
1569657381.50122
1569657381.51685
1569657381.53247
1569657381.5481
1569657381.56372
1569657381.57935
1569657381.59497
1569657381.6106
1569657381.62623
1569657381.64185
1569657381.65748
1569657381.6731
1569657381.68873
1569657381.70435
1569657381.71998
1569657381.73561
1569657381.75123
1569657381.76686
1569657381.78248
1569657381.79811
1569657381.81373
1569657381.82936
1569657381.84499
1569657381.86061
1569657381.87624
1569657381.89186
1569657381.90749
1569657381.92311
1569657381.93874
1569657381.95437
1569657381.96999
1569657381.98562
1569657382.00124
1569657382.01687
1569657382.03249
1569657382.04812
1569657382.06375
1569657382.07937
1569657382.095
1569657382.11062
1569657382.12625
1569657382.14188
1569657382.1575
1569657382.17313
1569657382.18875
1569657382.20438
1569657382.22
1569657382.23563
1569657382.25126
1569657382.26688
1569657382.28251
1569657382.29813
1569657382.31376
1569657382.32938
1569657382.34501
1569657382.36064
1569657382.37626
1569657382.39189
1569657382.40751
1569657382.42314
1569657382.43876
1569657382.45439
1569657382.47002
1569657382.48564
1569657382.50127
1569657382.51689
1569657382.53252
1569657382.54814
1569657382.56377
1569657382.5794
1569657382.59502
1569657382.61065
1569657382.62627
1569657382.6419
1569657382.65752
1569657382.67315
1569657382.68878
1569657382.7044
1569657382.72003
1569657382.73565
1569657382.75128
1569657382.7669
1569657382.78253
1569657382.79816
1569657382.81378
1569657382.82941
1569657382.84503
1569657382.86066
1569657382.87628
1569657382.89191
1569657382.90754
1569657382.92316
1569657382.93879
1569657382.95441
1569657382.97004
1569657382.98566
1569657383.00129
1569657383.01692
1569657383.03254
1569657383.04817
1569657383.06379
1569657383.07942
1569657383.09504
1569657383.11067
1569657383.1263
1569657383.14192
1569657383.15755
1569657383.17317
1569657383.1888
1569657383.20442
1569657383.22005
1569657383.23568
1569657383.2513
1569657383.26693
1569657383.28255
1569657383.29818
1569657383.3138
1569657383.32943
1569657383.34506
1569657383.36068
1569657383.37631
1569657383.39193
1569657383.40756
1569657383.42318
1569657383.43881
1569657383.45444
1569657383.47006
1569657383.48569
1569657383.50131
1569657383.51694
1569657383.53256
1569657383.54819
1569657383.56382
1569657383.57944
1569657383.59507
1569657383.61069
1569657383.62632
1569657383.64194
1569657383.65757
1569657383.6732
1569657383.68882
1569657383.70445
1569657383.72007
1569657383.7357
1569657383.75132
1569657383.76695
1569657383.78258
1569657383.7982
1569657383.81383
1569657383.82945
1569657383.84508
1569657383.8607
1569657383.87633
1569657383.89196
1569657383.90758
1569657383.92321
1569657383.93883
1569657383.95446
1569657383.97008
1569657383.98571
1569657384.00134
1569657384.01696
1569657384.03259
1569657384.04821
1569657384.06384
1569657384.07946
1569657384.09509
1569657384.11072
1569657384.12634
1569657384.14197
1569657384.15759
1569657384.17322
1569657384.18884
1569657384.20447
1569657384.2201
1569657384.23572
1569657384.25135
1569657384.26697
1569657384.2826
1569657384.29822
1569657384.31385
1569657384.32948
1569657384.3451
1569657384.36073
1569657384.37635
1569657384.39198
1569657384.4076
1569657384.42323
1569657384.43886
1569657384.45448
1569657384.47011
1569657384.48573
1569657384.50136
1569657384.51698
1569657384.53261
1569657384.54824
1569657384.56386
1569657384.57949
1569657384.59511
1569657384.61074
1569657384.62636
1569657384.64199
1569657384.65762
1569657384.67324
1569657384.68887
1569657384.70449
1569657384.72012
1569657384.73574
1569657384.75137
1569657384.767
1569657384.78262
1569657384.79825
1569657384.81387
1569657384.8295
1569657384.84513
1569657384.86075
1569657384.87638
1569657384.892
1569657384.90763
1569657384.92325
1569657384.93888
1569657384.95451
1569657384.97013
1569657384.98576
1569657385.00138
1569657385.01701
1569657385.03263
1569657385.04826
1569657385.06389
1569657385.07951
1569657385.09514
1569657385.11076
1569657385.12639
1569657385.14201
1569657385.15764
1569657385.17327
1569657385.18889
1569657385.20452
1569657385.22014
1569657385.23577
1569657385.25139
1569657385.26702
1569657385.28265
1569657385.29827
1569657385.3139
1569657385.32952
1569657385.34515
1569657385.36077
1569657385.3764
1569657385.39203
1569657385.40765
1569657385.42328
1569657385.4389
1569657385.45453
1569657385.47015
1569657385.48578
1569657385.50141
1569657385.51703
1569657385.53266
1569657385.54828
1569657385.56391
1569657385.57953
1569657385.59516
1569657385.61079
1569657385.62641
1569657385.64204
1569657385.65766
1569657385.67329
1569657385.68891
1569657385.70454
1569657385.72017
1569657385.73579
1569657385.75142
1569657385.76704
1569657385.78267
1569657385.79829
1569657385.81392
1569657385.82955
1569657385.84517
1569657385.8608
1569657385.87642
1569657385.89205
1569657385.90767
1569657385.9233
1569657385.93893
1569657385.95455
1569657385.97018
1569657385.9858
1569657386.00143
1569657386.01705
1569657386.03268
1569657386.04831
1569657386.06393
1569657386.07956
1569657386.09518
1569657386.11081
1569657386.12643
1569657386.14206
1569657386.15769
1569657386.17331
1569657386.18894
1569657386.20456
1569657386.22019
1569657386.23581
1569657386.25144
1569657386.26707
1569657386.28269
1569657386.29832
1569657386.31394
1569657386.32957
1569657386.34519
1569657386.36082
1569657386.37645
1569657386.39207
1569657386.4077
1569657386.42332
1569657386.43895
1569657386.45457
1569657386.4702
1569657386.48583
1569657386.50145
1569657386.51708
1569657386.5327
1569657386.54833
1569657386.56395
1569657386.57958
1569657386.59521
1569657386.61083
1569657386.62646
1569657386.64208
1569657386.65771
1569657386.67333
1569657386.68896
1569657386.70459
1569657386.72021
1569657386.73584
1569657386.75146
1569657386.76709
1569657386.78271
1569657386.79834
1569657386.81397
1569657386.82959
1569657386.84522
1569657386.86084
1569657386.87647
1569657386.89209
1569657386.90772
1569657386.92335
1569657386.93897
1569657386.9546
1569657386.97022
1569657386.98585
1569657387.00148
1569657387.0171
1569657387.03273
1569657387.04835
1569657387.06398
1569657387.0796
1569657387.09523
1569657387.11086
1569657387.12648
1569657387.14211
1569657387.15773
1569657387.17336
1569657387.18898
1569657387.20461
1569657387.22024
1569657387.23586
1569657387.25149
1569657387.26711
1569657387.28274
1569657387.29836
1569657387.31399
1569657387.32962
1569657387.34524
1569657387.36087
1569657387.37649
1569657387.39212
1569657387.40774
1569657387.42337
1569657387.439
1569657387.45462
1569657387.47025
1569657387.48587
1569657387.5015
1569657387.51712
1569657387.53275
1569657387.54838
1569657387.564
1569657387.57963
1569657387.59525
1569657387.61088
1569657387.6265
1569657387.64213
1569657387.65776
1569657387.67338
1569657387.68901
1569657387.70463
1569657387.72026
1569657387.73588
1569657387.75151
1569657387.76714
1569657387.78276
1569657387.79839
1569657387.81401
1569657387.82964
1569657387.84526
1569657387.86089
1569657387.87652
1569657387.89214
1569657387.90777
1569657387.92339
1569657387.93902
1569657387.95464
1569657387.97027
1569657387.9859
1569657388.00152
1569657388.01715
1569657388.03277
1569657388.0484
1569657388.06402
1569657388.07965
1569657388.09528
1569657388.1109
1569657388.12653
1569657388.14215
1569657388.15778
1569657388.1734
1569657388.18903
1569657388.20466
1569657388.22028
1569657388.23591
1569657388.25153
1569657388.26716
1569657388.28278
1569657388.29841
1569657388.31404
1569657388.32966
1569657388.34529
1569657388.36091
1569657388.37654
1569657388.39216
1569657388.40779
1569657388.42342
1569657388.43904
1569657388.45467
1569657388.47029
1569657388.48592
1569657388.50154
1569657388.51717
1569657388.5328
1569657388.54842
1569657388.56405
1569657388.57967
1569657388.5953
1569657388.61092
1569657388.62655
1569657388.64218
1569657388.6578
1569657388.67343
1569657388.68905
1569657388.70468
1569657388.7203
1569657388.73593
1569657388.75156
1569657388.76718
1569657388.78281
1569657388.79843
1569657388.81406
1569657388.82968
1569657388.84531
1569657388.86094
1569657388.87656
1569657388.89219
1569657388.90781
1569657388.92344
1569657388.93906
1569657388.95469
1569657388.97032
1569657388.98594
1569657389.00157
1569657389.01719
1569657389.03282
1569657389.04844
1569657389.06407
1569657389.0797
1569657389.09532
1569657389.11095
1569657389.12657
1569657389.1422
1569657389.15782
1569657389.17345
1569657389.18908
1569657389.2047
1569657389.22033
1569657389.23595
1569657389.25158
1569657389.26721
1569657389.28283
1569657389.29846
1569657389.31408
1569657389.32971
1569657389.34533
1569657389.36096
1569657389.37659
1569657389.39221
1569657389.40784
1569657389.42346
1569657389.43909
1569657389.45471
1569657389.47034
1569657389.48597
1569657389.50159
1569657389.51722
1569657389.53284
1569657389.54847
1569657389.56409
1569657389.57972
1569657389.59535
1569657389.61097
1569657389.6266
1569657389.64222
1569657389.65785
1569657389.67347
1569657389.6891
1569657389.70473
1569657389.72035
1569657389.73598
1569657389.7516
1569657389.76723
1569657389.78285
1569657389.79848
1569657389.81411
1569657389.82973
1569657389.84536
1569657389.86098
1569657389.87661
1569657389.89223
1569657389.90786
1569657389.92349
1569657389.93911
1569657389.95474
1569657389.97036
1569657389.98599
1569657390.00161
1569657390.01724
1569657390.03287
1569657390.04849
1569657390.06412
1569657390.07974
1569657390.09537
1569657390.11099
1569657390.12662
1569657390.14225
1569657390.15787
1569657390.1735
1569657390.18912
1569657390.20475
1569657390.22037
1569657390.236
1569657390.25163
1569657390.26725
1569657390.28288
1569657390.2985
1569657390.31413
1569657390.32975
1569657390.34538
1569657390.36101
1569657390.37663
1569657390.39226
1569657390.40788
1569657390.42351
1569657390.43913
1569657390.45476
1569657390.47039
1569657390.48601
1569657390.50164
1569657390.51726
1569657390.53289
1569657390.54851
1569657390.56414
1569657390.57977
1569657390.59539
1569657390.61102
1569657390.62664
1569657390.64227
1569657390.65789
1569657390.67352
1569657390.68915
1569657390.70477
1569657390.7204
1569657390.73602
1569657390.75165
1569657390.76727
1569657390.7829
1569657390.79853
1569657390.81415
1569657390.82978
1569657390.8454
1569657390.86103
1569657390.87665
1569657390.89228
1569657390.90791
1569657390.92353
1569657390.93916
1569657390.95478
1569657390.97041
1569657390.98603
1569657391.00166
1569657391.01729
1569657391.03291
1569657391.04854
1569657391.06416
1569657391.07979
1569657391.09541
1569657391.11104
1569657391.12667
1569657391.14229
1569657391.15792
1569657391.17354
1569657391.18917
1569657391.20479
1569657391.22042
1569657391.23605
1569657391.25167
1569657391.2673
1569657391.28292
1569657391.29855
1569657391.31417
1569657391.3298
1569657391.34543
1569657391.36105
1569657391.37668
1569657391.3923
1569657391.40793
1569657391.42355
1569657391.43918
1569657391.45481
1569657391.47043
1569657391.48606
1569657391.50168
1569657391.51731
1569657391.53293
1569657391.54856
1569657391.56419
1569657391.57981
1569657391.59544
1569657391.61106
1569657391.62669
1569657391.64231
1569657391.65794
1569657391.67357
1569657391.68919
1569657391.70482
1569657391.72044
1569657391.73607
1569657391.75169
1569657391.76732
1569657391.78295
1569657391.79857
1569657391.8142
1569657391.82982
1569657391.84545
1569657391.86107
1569657391.8767
1569657391.89233
1569657391.90795
1569657391.92358
1569657391.9392
1569657391.95483
1569657391.97046
1569657391.98608
1569657392.00171
1569657392.01733
1569657392.03296
1569657392.04858
1569657392.06421
1569657392.07984
1569657392.09546
1569657392.11109
1569657392.12671
1569657392.14234
1569657392.15796
1569657392.17359
1569657392.18922
1569657392.20484
1569657392.22047
1569657392.23609
1569657392.25172
1569657392.26734
1569657392.28297
1569657392.2986
1569657392.31422
1569657392.32985
1569657392.34547
1569657392.3611
1569657392.37672
1569657392.39235
1569657392.40798
1569657392.4236
1569657392.43923
1569657392.45485
1569657392.47048
1569657392.4861
1569657392.50173
1569657392.51736
1569657392.53298
1569657392.54861
1569657392.56423
1569657392.57986
1569657392.59548
1569657392.61111
1569657392.62674
1569657392.64236
1569657392.65799
1569657392.67361
1569657392.68924
1569657392.70486
1569657392.72049
1569657392.73612
1569657392.75174
1569657392.76737
1569657392.78299
1569657392.79862
1569657392.81424
1569657392.82987
1569657392.8455
1569657392.86112
1569657392.87675
1569657392.89237
1569657392.908
1569657392.92362
1569657392.93925
1569657392.95488
1569657392.9705
1569657392.98613
1569657393.00175
1569657393.01738
1569657393.033
1569657393.04863
1569657393.06426
1569657393.07988
1569657393.09551
1569657393.11113
1569657393.12676
1569657393.14238
1569657393.15801
1569657393.17364
1569657393.18926
1569657393.20489
1569657393.22051
1569657393.23614
1569657393.25176
1569657393.26739
1569657393.28302
1569657393.29864
1569657393.31427
1569657393.32989
1569657393.34552
1569657393.36114
1569657393.37677
1569657393.3924
1569657393.40802
1569657393.42365
1569657393.43927
1569657393.4549
1569657393.47052
1569657393.48615
1569657393.50178
1569657393.5174
1569657393.53303
1569657393.54865
1569657393.56428
1569657393.5799
1569657393.59553
1569657393.61116
1569657393.62678
1569657393.64241
1569657393.65803
1569657393.67366
1569657393.68928
1569657393.70491
1569657393.72054
1569657393.73616
1569657393.75179
1569657393.76741
1569657393.78304
1569657393.79866
1569657393.81429
1569657393.82992
1569657393.84554
1569657393.86117
1569657393.87679
1569657393.89242
1569657393.90804
1569657393.92367
1569657393.9393
1569657393.95492
1569657393.97055
1569657393.98617
1569657394.0018
1569657394.01742
1569657394.03305
1569657394.04868
1569657394.0643
1569657394.07993
1569657394.09555
1569657394.11118
1569657394.12681
1569657394.14243
1569657394.15806
1569657394.17368
1569657394.18931
1569657394.20493
1569657394.22056
1569657394.23619
1569657394.25181
1569657394.26744
1569657394.28306
1569657394.29869
1569657394.31431
1569657394.32994
1569657394.34557
1569657394.36119
1569657394.37682
1569657394.39244
1569657394.40807
1569657394.42369
1569657394.43932
1569657394.45495
1569657394.47057
1569657394.4862
1569657394.50182
1569657394.51745
1569657394.53307
1569657394.5487
1569657394.56433
1569657394.57995
1569657394.59558
1569657394.6112
1569657394.62683
1569657394.64245
1569657394.65808
1569657394.67371
1569657394.68933
1569657394.70496
1569657394.72058
1569657394.73621
1569657394.75183
1569657394.76746
1569657394.78309
1569657394.79871
1569657394.81434
1569657394.82996
1569657394.84559
1569657394.86121
1569657394.87684
1569657394.89247
1569657394.90809
1569657394.92372
1569657394.93934
1569657394.95497
1569657394.97059
1569657394.98622
1569657395.00185
1569657395.01747
1569657395.0331
1569657395.04872
1569657395.06435
1569657395.07997
1569657395.0956
1569657395.11123
1569657395.12685
1569657395.14248
1569657395.1581
1569657395.17373
1569657395.18935
1569657395.20498
1569657395.22061
1569657395.23623
1569657395.25186
1569657395.26748
1569657395.28311
1569657395.29873
1569657395.31436
1569657395.32999
1569657395.34561
1569657395.36124
1569657395.37686
1569657395.39249
1569657395.40811
1569657395.42374
1569657395.43937
1569657395.45499
1569657395.47062
1569657395.48624
1569657395.50187
1569657395.51749
1569657395.53312
1569657395.54875
1569657395.56437
1569657395.58
1569657395.59562
1569657395.61125
1569657395.62687
1569657395.6425
1569657395.65813
1569657395.67375
1569657395.68938
1569657395.705
1569657395.72063
1569657395.73625
1569657395.75188
1569657395.76751
1569657395.78313
1569657395.79876
1569657395.81438
1569657395.83001
1569657395.84563
1569657395.86126
1569657395.87689
1569657395.89251
1569657395.90814
1569657395.92376
1569657395.93939
1569657395.95501
1569657395.97064
1569657395.98627
1569657396.00189
1569657396.01752
1569657396.03314
1569657396.04877
1569657396.06439
1569657396.08002
1569657396.09565
1569657396.11127
1569657396.1269
1569657396.14252
1569657396.15815
1569657396.17377
1569657396.1894
1569657396.20503
1569657396.22065
1569657396.23628
1569657396.2519
1569657396.26753
1569657396.28315
1569657396.29878
1569657396.31441
1569657396.33003
1569657396.34566
1569657396.36128
1569657396.37691
1569657396.39253
1569657396.40816
1569657396.42379
1569657396.43941
1569657396.45504
1569657396.47066
1569657396.48629
1569657396.50191
1569657396.51754
1569657396.53317
1569657396.54879
1569657396.56442
1569657396.58004
1569657396.59567
1569657396.61129
1569657396.62692
1569657396.64255
1569657396.65817
1569657396.6738
1569657396.68942
1569657396.70505
1569657396.72067
1569657396.7363
1569657396.75193
1569657396.76755
1569657396.78318
1569657396.7988
1569657396.81443
1569657396.83006
1569657396.84568
1569657396.86131
1569657396.87693
1569657396.89256
1569657396.90818
1569657396.92381
1569657396.93944
1569657396.95506
1569657396.97069
1569657396.98631
1569657397.00194
1569657397.01756
1569657397.03319
1569657397.04882
1569657397.06444
1569657397.08007
1569657397.09569
1569657397.11132
1569657397.12694
1569657397.14257
1569657397.1582
1569657397.17382
1569657397.18945
1569657397.20507
1569657397.2207
1569657397.23632
1569657397.25195
1569657397.26758
1569657397.2832
1569657397.29883
1569657397.31445
1569657397.33008
1569657397.3457
1569657397.36133
1569657397.37696
1569657397.39258
1569657397.40821
1569657397.42383
1569657397.43946
1569657397.45508
1569657397.47071
1569657397.48634
1569657397.50196
1569657397.51759
1569657397.53321
1569657397.54884
1569657397.56446
1569657397.58009
1569657397.59572
1569657397.61134
1569657397.62697
1569657397.64259
1569657397.65822
1569657397.67384
1569657397.68947
1569657397.7051
1569657397.72072
1569657397.73635
1569657397.75197
1569657397.7676
1569657397.78322
1569657397.79885
1569657397.81448
1569657397.8301
1569657397.84573
1569657397.86135
1569657397.87698
1569657397.8926
1569657397.90823
1569657397.92386
1569657397.93948
1569657397.95511
1569657397.97073
1569657397.98636
1569657398.00198
1569657398.01761
1569657398.03324
1569657398.04886
1569657398.06449
1569657398.08011
1569657398.09574
1569657398.11136
1569657398.12699
1569657398.14262
1569657398.15824
1569657398.17387
1569657398.18949
1569657398.20512
1569657398.22074
1569657398.23637
1569657398.252
1569657398.26762
1569657398.28325
1569657398.29887
1569657398.3145
1569657398.33012
1569657398.34575
1569657398.36138
1569657398.377
1569657398.39263
1569657398.40825
1569657398.42388
1569657398.4395
1569657398.45513
1569657398.47076
1569657398.48638
1569657398.50201
1569657398.51763
1569657398.53326
1569657398.54888
1569657398.56451
1569657398.58014
1569657398.59576
1569657398.61139
1569657398.62701
1569657398.64264
1569657398.65826
1569657398.67389
1569657398.68952
1569657398.70514
1569657398.72077
1569657398.73639
1569657398.75202
1569657398.76764
1569657398.78327
1569657398.7989
1569657398.81452
1569657398.83015
1569657398.84577
1569657398.8614
1569657398.87702
1569657398.89265
1569657398.90828
1569657398.9239
1569657398.93953
1569657398.95515
1569657398.97078
1569657398.98641
1569657399.00203
1569657399.01766
1569657399.03328
1569657399.04891
1569657399.06453
1569657399.08016
1569657399.09579
1569657399.11141
1569657399.12704
1569657399.14266
1569657399.15829
1569657399.17391
1569657399.18954
1569657399.20517
1569657399.22079
1569657399.23642
1569657399.25204
1569657399.26767
1569657399.28329
1569657399.29892
1569657399.31455
1569657399.33017
1569657399.3458
1569657399.36142
1569657399.37705
1569657399.39267
1569657399.4083
1569657399.42393
1569657399.43955
1569657399.45518
1569657399.4708
1569657399.48643
1569657399.50205
1569657399.51768
1569657399.53331
1569657399.54893
1569657399.56456
1569657399.58018
1569657399.59581
1569657399.61143
1569657399.62706
1569657399.64269
1569657399.65831
1569657399.67394
1569657399.68956
1569657399.70519
1569657399.72081
1569657399.73644
1569657399.75207
1569657399.76769
1569657399.78332
1569657399.79894
1569657399.81457
1569657399.83019
1569657399.84582
1569657399.86145
1569657399.87707
1569657399.8927
1569657399.90832
1569657399.92395
1569657399.93957
1569657399.9552
1569657399.97083
1569657399.98645
1569657400.00208
1569657400.0177
1569657400.03333
1569657400.04895
1569657400.06458
1569657400.08021
1569657400.09583
1569657400.11146
1569657400.12708
1569657400.14271
1569657400.15833
1569657400.17396
1569657400.18959
1569657400.20521
1569657400.22084
1569657400.23646
1569657400.25209
1569657400.26771
1569657400.28334
1569657400.29897
1569657400.31459
1569657400.33022
1569657400.34584
1569657400.36147
1569657400.37709
1569657400.39272
1569657400.40835
1569657400.42397
1569657400.4396
1569657400.45522
1569657400.47085
1569657400.48647
1569657400.5021
1569657400.51773
1569657400.53335
1569657400.54898
1569657400.5646
1569657400.58023
1569657400.59585
1569657400.61148
1569657400.62711
1569657400.64273
1569657400.65836
1569657400.67398
1569657400.68961
1569657400.70523
1569657400.72086
1569657400.73649
1569657400.75211
1569657400.76774
1569657400.78336
1569657400.79899
1569657400.81461
1569657400.83024
1569657400.84587
1569657400.86149
1569657400.87712
1569657400.89274
1569657400.90837
1569657400.92399
1569657400.93962
1569657400.95525
1569657400.97087
1569657400.9865
1569657401.00212
1569657401.01775
1569657401.03337
1569657401.049
1569657401.06463
1569657401.08025
1569657401.09588
1569657401.1115
1569657401.12713
1569657401.14275
1569657401.15838
1569657401.17401
1569657401.18963
1569657401.20526
1569657401.22088
1569657401.23651
1569657401.25214
1569657401.26776
1569657401.28339
1569657401.29901
1569657401.31464
1569657401.33026
1569657401.34589
1569657401.36152
1569657401.37714
1569657401.39277
1569657401.40839
1569657401.42402
1569657401.43964
1569657401.45527
1569657401.4709
1569657401.48652
1569657401.50215
1569657401.51777
1569657401.5334
1569657401.54902
1569657401.56465
1569657401.58028
1569657401.5959
1569657401.61153
1569657401.62715
1569657401.64278
1569657401.6584
1569657401.67403
1569657401.68966
1569657401.70528
1569657401.72091
1569657401.73653
1569657401.75216
1569657401.76778
1569657401.78341
1569657401.79904
1569657401.81466
1569657401.83029
1569657401.84591
1569657401.86154
1569657401.87716
1569657401.89279
1569657401.90842
1569657401.92404
1569657401.93967
1569657401.95529
1569657401.97092
1569657401.98654
1569657402.00217
1569657402.0178
1569657402.03342
1569657402.04905
1569657402.06467
1569657402.0803
1569657402.09592
1569657402.11155
1569657402.12718
1569657402.1428
1569657402.15843
1569657402.17405
1569657402.18968
1569657402.2053
1569657402.22093
1569657402.23656
1569657402.25218
1569657402.26781
1569657402.28343
1569657402.29906
1569657402.31468
1569657402.33031
1569657402.34594
1569657402.36156
1569657402.37719
1569657402.39281
1569657402.40844
1569657402.42406
1569657402.43969
1569657402.45532
1569657402.47094
1569657402.48657
1569657402.50219
1569657402.51782
1569657402.53344
1569657402.54907
1569657402.5647
1569657402.58032
1569657402.59595
1569657402.61157
1569657402.6272
1569657402.64282
1569657402.65845
1569657402.67408
1569657402.6897
1569657402.70533
1569657402.72095
1569657402.73658
1569657402.7522
1569657402.76783
1569657402.78346
1569657402.79908
1569657402.81471
1569657402.83033
1569657402.84596
1569657402.86158
1569657402.87721
1569657402.89284
1569657402.90846
1569657402.92409
1569657402.93971
1569657402.95534
1569657402.97096
1569657402.98659
1569657403.00222
1569657403.01784
1569657403.03347
1569657403.04909
1569657403.06472
1569657403.08034
1569657403.09597
1569657403.1116
1569657403.12722
1569657403.14285
1569657403.15847
1569657403.1741
1569657403.18972
1569657403.20535
1569657403.22098
1569657403.2366
1569657403.25223
1569657403.26785
1569657403.28348
1569657403.2991
1569657403.31473
1569657403.33036
1569657403.34598
1569657403.36161
1569657403.37723
1569657403.39286
1569657403.40848
1569657403.42411
1569657403.43974
1569657403.45536
1569657403.47099
1569657403.48661
1569657403.50224
1569657403.51786
1569657403.53349
1569657403.54912
1569657403.56474
1569657403.58037
1569657403.59599
1569657403.61162
1569657403.62724
1569657403.64287
1569657403.6585
1569657403.67412
1569657403.68975
1569657403.70537
1569657403.721
1569657403.73662
1569657403.75225
1569657403.76788
1569657403.7835
1569657403.79913
1569657403.81475
1569657403.83038
1569657403.84601
1569657403.86163
1569657403.87726
1569657403.89288
1569657403.90851
1569657403.92413
1569657403.93976
1569657403.95539
1569657403.97101
1569657403.98664
1569657404.00226
1569657404.01789
1569657404.03351
1569657404.04914
1569657404.06477
1569657404.08039
1569657404.09602
1569657404.11164
1569657404.12727
1569657404.14289
1569657404.15852
1569657404.17415
1569657404.18977
1569657404.2054
1569657404.22102
1569657404.23665
1569657404.25227
1569657404.2679
1569657404.28353
1569657404.29915
1569657404.31478
1569657404.3304
1569657404.34603
1569657404.36165
1569657404.37728
1569657404.39291
1569657404.40853
1569657404.42416
1569657404.43978
1569657404.45541
1569657404.47103
1569657404.48666
1569657404.50229
1569657404.51791
1569657404.53354
1569657404.54916
1569657404.56479
1569657404.58041
1569657404.59604
1569657404.61167
1569657404.62729
1569657404.64292
1569657404.65854
1569657404.67417
1569657404.68979
1569657404.70542
1569657404.72105
1569657404.73667
1569657404.7523
1569657404.76792
1569657404.78355
1569657404.79917
1569657404.8148
1569657404.83043
1569657404.84605
1569657404.86168
1569657404.8773
1569657404.89293
1569657404.90855
1569657404.92418
1569657404.93981
1569657404.95543
1569657404.97106
1569657404.98668
1569657405.00231
1569657405.01793
1569657405.03356
1569657405.04919
1569657405.06481
1569657405.08044
1569657405.09606
1569657405.11169
1569657405.12731
1569657405.14294
1569657405.15857
1569657405.17419
1569657405.18982
1569657405.20544
1569657405.22107
1569657405.23669
1569657405.25232
1569657405.26795
1569657405.28357
1569657405.2992
1569657405.31482
1569657405.33045
1569657405.34607
1569657405.3617
1569657405.37733
1569657405.39295
1569657405.40858
1569657405.4242
1569657405.43983
1569657405.45545
1569657405.47108
1569657405.48671
1569657405.50233
1569657405.51796
1569657405.53358
1569657405.54921
1569657405.56483
1569657405.58046
1569657405.59609
1569657405.61171
1569657405.62734
1569657405.64296
1569657405.65859
1569657405.67421
1569657405.68984
1569657405.70547
1569657405.72109
1569657405.73672
1569657405.75234
1569657405.76797
1569657405.78359
1569657405.79922
1569657405.81485
1569657405.83047
1569657405.8461
1569657405.86172
1569657405.87735
1569657405.89297
1569657405.9086
1569657405.92423
1569657405.93985
1569657405.95548
1569657405.9711
1569657405.98673
1569657406.00235
1569657406.01798
1569657406.03361
1569657406.04923
1569657406.06486
1569657406.08048
1569657406.09611
1569657406.11174
1569657406.12736
1569657406.14299
1569657406.15861
1569657406.17424
1569657406.18986
1569657406.20549
1569657406.22112
1569657406.23674
1569657406.25237
1569657406.26799
1569657406.28362
1569657406.29924
1569657406.31487
1569657406.3305
1569657406.34612
1569657406.36175
1569657406.37737
1569657406.393
1569657406.40862
1569657406.42425
1569657406.43988
1569657406.4555
1569657406.47113
1569657406.48675
1569657406.50238
1569657406.518
1569657406.53363
1569657406.54926
1569657406.56488
1569657406.58051
1569657406.59613
1569657406.61176
1569657406.62738
1569657406.64301
1569657406.65864
1569657406.67426
1569657406.68989
1569657406.70551
1569657406.72114
1569657406.73676
1569657406.75239
1569657406.76802
1569657406.78364
1569657406.79927
1569657406.81489
1569657406.83052
1569657406.84614
1569657406.86177
1569657406.8774
1569657406.89302
1569657406.90865
1569657406.92427
1569657406.9399
1569657406.95552
1569657406.97115
1569657406.98678
1569657407.0024
1569657407.01803
1569657407.03365
1569657407.04928
1569657407.0649
1569657407.08053
1569657407.09616
1569657407.11178
1569657407.12741
1569657407.14303
1569657407.15866
1569657407.17428
1569657407.18991
1569657407.20554
1569657407.22116
1569657407.23679
1569657407.25241
1569657407.26804
1569657407.28366
1569657407.29929
1569657407.31492
1569657407.33054
1569657407.34617
1569657407.36179
1569657407.37742
1569657407.39304
1569657407.40867
1569657407.4243
1569657407.43992
1569657407.45555
1569657407.47117
1569657407.4868
1569657407.50242
1569657407.51805
1569657407.53368
1569657407.5493
1569657407.56493
1569657407.58055
1569657407.59618
1569657407.6118
1569657407.62743
1569657407.64306
1569657407.65868
1569657407.67431
1569657407.68993
1569657407.70556
1569657407.72118
1569657407.73681
1569657407.75244
1569657407.76806
1569657407.78369
1569657407.79931
1569657407.81494
1569657407.83056
1569657407.84619
1569657407.86182
1569657407.87744
1569657407.89307
1569657407.90869
1569657407.92432
1569657407.93994
1569657407.95557
1569657407.9712
1569657407.98682
1569657408.00245
1569657408.01807
1569657408.0337
1569657408.04932
1569657408.06495
1569657408.08058
1569657408.0962
1569657408.11183
1569657408.12745
1569657408.14308
1569657408.1587
1569657408.17433
1569657408.18996
1569657408.20558
1569657408.22121
1569657408.23683
1569657408.25246
1569657408.26809
1569657408.28371
1569657408.29934
1569657408.31496
1569657408.33059
1569657408.34621
1569657408.36184
1569657408.37747
1569657408.39309
1569657408.40872
1569657408.42434
1569657408.43997
1569657408.45559
1569657408.47122
1569657408.48685
1569657408.50247
1569657408.5181
1569657408.53372
1569657408.54935
1569657408.56497
1569657408.5806
1569657408.59623
1569657408.61185
1569657408.62748
1569657408.6431
1569657408.65873
1569657408.67435
1569657408.68998
1569657408.70561
1569657408.72123
1569657408.73686
1569657408.75248
1569657408.76811
1569657408.78373
1569657408.79936
1569657408.81499
1569657408.83061
1569657408.84624
1569657408.86186
1569657408.87749
1569657408.89311
1569657408.90874
1569657408.92437
1569657408.93999
1569657408.95562
1569657408.97124
1569657408.98687
1569657409.00249
1569657409.01812
1569657409.03375
1569657409.04937
1569657409.065
1569657409.08062
1569657409.09625
1569657409.11187
1569657409.1275
1569657409.14313
1569657409.15875
1569657409.17438
1569657409.19
1569657409.20563
1569657409.22125
1569657409.23688
1569657409.25251
1569657409.26813
1569657409.28376
1569657409.29938
1569657409.31501
1569657409.33063
1569657409.34626
1569657409.36189
1569657409.37751
1569657409.39314
1569657409.40876
1569657409.42439
1569657409.44001
1569657409.45564
1569657409.47127
1569657409.48689
1569657409.50252
1569657409.51814
1569657409.53377
1569657409.54939
1569657409.56502
1569657409.58065
1569657409.59627
1569657409.6119
1569657409.62752
1569657409.64315
1569657409.65877
1569657409.6744
1569657409.69003
1569657409.70565
1569657409.72128
1569657409.7369
1569657409.75253
1569657409.76815
1569657409.78378
1569657409.79941
1569657409.81503
1569657409.83066
1569657409.84628
1569657409.86191
1569657409.87753
1569657409.89316
1569657409.90879
1569657409.92441
1569657409.94004
1569657409.95566
1569657409.97129
1569657409.98691
1569657410.00254
1569657410.01817
1569657410.03379
1569657410.04942
1569657410.06504
1569657410.08067
1569657410.09629
1569657410.11192
1569657410.12755
1569657410.14317
1569657410.1588
1569657410.17442
1569657410.19005
1569657410.20567
1569657410.2213
1569657410.23693
1569657410.25255
1569657410.26818
1569657410.2838
1569657410.29943
1569657410.31505
1569657410.33068
1569657410.34631
1569657410.36193
1569657410.37756
1569657410.39318
1569657410.40881
1569657410.42443
1569657410.44006
1569657410.45569
1569657410.47131
1569657410.48694
1569657410.50256
1569657410.51819
1569657410.53381
1569657410.54944
1569657410.56507
1569657410.58069
1569657410.59632
1569657410.61194
1569657410.62757
1569657410.64319
1569657410.65882
1569657410.67445
1569657410.69007
1569657410.7057
1569657410.72132
1569657410.73695
1569657410.75257
1569657410.7682
1569657410.78383
1569657410.79945
1569657410.81508
1569657410.8307
1569657410.84633
1569657410.86195
1569657410.87758
1569657410.89321
1569657410.90883
1569657410.92446
1569657410.94008
1569657410.95571
1569657410.97134
1569657410.98696
1569657411.00259
1569657411.01821
1569657411.03384
1569657411.04946
1569657411.06509
1569657411.08072
1569657411.09634
1569657411.11197
1569657411.12759
1569657411.14322
1569657411.15884
1569657411.17447
1569657411.1901
1569657411.20572
1569657411.22135
1569657411.23697
1569657411.2526
1569657411.26822
1569657411.28385
1569657411.29948
1569657411.3151
1569657411.33073
1569657411.34635
1569657411.36198
1569657411.3776
1569657411.39323
1569657411.40886
1569657411.42448
1569657411.44011
1569657411.45573
1569657411.47136
1569657411.48698
1569657411.50261
1569657411.51824
1569657411.53386
1569657411.54949
1569657411.56511
1569657411.58074
1569657411.59636
1569657411.61199
1569657411.62762
1569657411.64324
1569657411.65887
1569657411.67449
1569657411.69012
1569657411.70574
1569657411.72137
1569657411.737
1569657411.75262
1569657411.76825
1569657411.78387
1569657411.7995
1569657411.81512
1569657411.83075
1569657411.84638
1569657411.862
1569657411.87763
1569657411.89325
1569657411.90888
1569657411.9245
1569657411.94013
1569657411.95576
1569657411.97138
1569657411.98701
1569657412.00263
1569657412.01826
1569657412.03388
1569657412.04951
1569657412.06514
1569657412.08076
1569657412.09639
1569657412.11201
1569657412.12764
1569657412.14326
1569657412.15889
1569657412.17452
1569657412.19014
1569657412.20577
1569657412.22139
1569657412.23702
1569657412.25264
1569657412.26827
1569657412.2839
1569657412.29952
1569657412.31515
1569657412.33077
1569657412.3464
1569657412.36202
1569657412.37765
1569657412.39328
1569657412.4089
1569657412.42453
1569657412.44015
1569657412.45578
1569657412.4714
1569657412.48703
1569657412.50266
1569657412.51828
1569657412.53391
1569657412.54953
1569657412.56516
1569657412.58078
1569657412.59641
1569657412.61204
1569657412.62766
1569657412.64329
1569657412.65891
1569657412.67454
1569657412.69016
1569657412.70579
1569657412.72142
1569657412.73704
1569657412.75267
1569657412.76829
1569657412.78392
1569657412.79954
1569657412.81517
1569657412.8308
1569657412.84642
1569657412.86205
1569657412.87767
1569657412.8933
1569657412.90892
1569657412.92455
1569657412.94018
1569657412.9558
1569657412.97143
1569657412.98705
1569657413.00268
1569657413.0183
1569657413.03393
1569657413.04956
1569657413.06518
1569657413.08081
1569657413.09643
1569657413.11206
1569657413.12769
1569657413.14331
1569657413.15894
1569657413.17456
1569657413.19019
1569657413.20581
1569657413.22144
1569657413.23707
1569657413.25269
1569657413.26832
1569657413.28394
1569657413.29957
1569657413.31519
1569657413.33082
1569657413.34645
1569657413.36207
1569657413.3777
1569657413.39332
1569657413.40895
1569657413.42457
1569657413.4402
1569657413.45583
1569657413.47145
1569657413.48708
1569657413.5027
1569657413.51833
1569657413.53395
1569657413.54958
1569657413.56521
1569657413.58083
1569657413.59646
1569657413.61208
1569657413.62771
1569657413.64333
1569657413.65896
1569657413.67459
1569657413.69021
1569657413.70584
1569657413.72146
1569657413.73709
1569657413.75271
1569657413.76834
1569657413.78397
1569657413.79959
1569657413.81522
1569657413.83084
1569657413.84647
1569657413.86209
1569657413.87772
1569657413.89335
1569657413.90897
1569657413.9246
1569657413.94022
1569657413.95585
1569657413.97147
1569657413.9871
1569657414.00273
1569657414.01835
1569657414.03398
1569657414.0496
1569657414.06523
1569657414.08085
1569657414.09648
1569657414.11211
1569657414.12773
1569657414.14336
1569657414.15898
1569657414.17461
1569657414.19023
1569657414.20586
1569657414.22149
1569657414.23711
1569657414.25274
1569657414.26836
1569657414.28399
1569657414.29961
1569657414.31524
1569657414.33087
1569657414.34649
1569657414.36212
1569657414.37774
1569657414.39337
1569657414.40899
1569657414.42462
1569657414.44025
1569657414.45587
1569657414.4715
1569657414.48712
1569657414.50275
1569657414.51837
1569657414.534
1569657414.54963
1569657414.56525
1569657414.58088
1569657414.5965
1569657414.61213
1569657414.62775
1569657414.64338
1569657414.65901
1569657414.67463
1569657414.69026
1569657414.70588
1569657414.72151
1569657414.73713
1569657414.75276
1569657414.76839
1569657414.78401
1569657414.79964
1569657414.81526
1569657414.83089
1569657414.84651
1569657414.86214
1569657414.87777
1569657414.89339
1569657414.90902
1569657414.92464
1569657414.94027
1569657414.95589
1569657414.97152
1569657414.98715
1569657415.00277
1569657415.0184
1569657415.03402
1569657415.04965
1569657415.06527
1569657415.0809
1569657415.09653
1569657415.11215
1569657415.12778
1569657415.1434
1569657415.15903
1569657415.17465
1569657415.19028
1569657415.20591
1569657415.22153
1569657415.23716
1569657415.25278
1569657415.26841
1569657415.28403
1569657415.29966
1569657415.31529
1569657415.33091
1569657415.34654
1569657415.36216
1569657415.37779
1569657415.39341
1569657415.40904
1569657415.42467
1569657415.44029
1569657415.45592
1569657415.47154
1569657415.48717
1569657415.50279
1569657415.51842
1569657415.53405
1569657415.54967
1569657415.5653
1569657415.58092
1569657415.59655
1569657415.61217
1569657415.6278
1569657415.64343
1569657415.65905
1569657415.67468
1569657415.6903
1569657415.70593
1569657415.72155
1569657415.73718
1569657415.75281
1569657415.76843
1569657415.78406
1569657415.79968
1569657415.81531
1569657415.83094
1569657415.84656
1569657415.86219
1569657415.87781
1569657415.89344
1569657415.90906
1569657415.92469
1569657415.94032
1569657415.95594
1569657415.97157
1569657415.98719
1569657416.00282
1569657416.01844
1569657416.03407
1569657416.0497
1569657416.06532
1569657416.08095
1569657416.09657
1569657416.1122
1569657416.12782
1569657416.14345
1569657416.15908
1569657416.1747
1569657416.19033
1569657416.20595
1569657416.22158
1569657416.2372
1569657416.25283
1569657416.26846
1569657416.28408
1569657416.29971
1569657416.31533
1569657416.33096
1569657416.34658
1569657416.36221
1569657416.37784
1569657416.39346
1569657416.40909
1569657416.42471
1569657416.44034
1569657416.45596
1569657416.47159
1569657416.48722
1569657416.50284
1569657416.51847
1569657416.53409
1569657416.54972
1569657416.56534
1569657416.58097
1569657416.5966
1569657416.61222
1569657416.62785
1569657416.64347
1569657416.6591
1569657416.67472
1569657416.69035
1569657416.70598
1569657416.7216
1569657416.73723
1569657416.75285
1569657416.76848
1569657416.7841
1569657416.79973
1569657416.81536
1569657416.83098
1569657416.84661
1569657416.86223
1569657416.87786
1569657416.89348
1569657416.90911
1569657416.92474
1569657416.94036
1569657416.95599
1569657416.97161
1569657416.98724
1569657417.00286
1569657417.01849
1569657417.03412
1569657417.04974
1569657417.06537
1569657417.08099
1569657417.09662
1569657417.11224
1569657417.12787
1569657417.1435
1569657417.15912
1569657417.17475
1569657417.19037
1569657417.206
1569657417.22162
1569657417.23725
1569657417.25288
1569657417.2685
1569657417.28413
1569657417.29975
1569657417.31538
1569657417.331
1569657417.34663
1569657417.36226
1569657417.37788
1569657417.39351
1569657417.40913
1569657417.42476
1569657417.44038
1569657417.45601
1569657417.47164
1569657417.48726
1569657417.50289
1569657417.51851
1569657417.53414
1569657417.54976
1569657417.56539
1569657417.58102
1569657417.59664
1569657417.61227
1569657417.62789
1569657417.64352
1569657417.65914
1569657417.67477
1569657417.6904
1569657417.70602
1569657417.72165
1569657417.73727
1569657417.7529
1569657417.76852
1569657417.78415
1569657417.79978
1569657417.8154
1569657417.83103
1569657417.84665
1569657417.86228
1569657417.8779
1569657417.89353
1569657417.90916
1569657417.92478
1569657417.94041
1569657417.95603
1569657417.97166
1569657417.98728
1569657418.00291
1569657418.01854
1569657418.03416
1569657418.04979
1569657418.06541
1569657418.08104
1569657418.09667
1569657418.11229
1569657418.12792
1569657418.14354
1569657418.15917
1569657418.17479
1569657418.19042
1569657418.20605
1569657418.22167
1569657418.2373
1569657418.25292
1569657418.26855
1569657418.28417
1569657418.2998
1569657418.31543
1569657418.33105
1569657418.34668
1569657418.3623
1569657418.37793
1569657418.39355
1569657418.40918
1569657418.42481
1569657418.44043
1569657418.45606
1569657418.47168
1569657418.48731
1569657418.50293
1569657418.51856
1569657418.53419
1569657418.54981
1569657418.56544
1569657418.58106
1569657418.59669
1569657418.61231
1569657418.62794
1569657418.64357
1569657418.65919
1569657418.67482
1569657418.69044
1569657418.70607
1569657418.72169
1569657418.73732
1569657418.75295
1569657418.76857
1569657418.7842
1569657418.79982
1569657418.81545
1569657418.83107
1569657418.8467
1569657418.86233
1569657418.87795
1569657418.89358
1569657418.9092
1569657418.92483
1569657418.94045
1569657418.95608
1569657418.97171
1569657418.98733
1569657419.00296
1569657419.01858
1569657419.03421
1569657419.04983
1569657419.06546
1569657419.08109
1569657419.09671
1569657419.11234
1569657419.12796
1569657419.14359
1569657419.15921
1569657419.17484
1569657419.19047
1569657419.20609
1569657419.22172
1569657419.23734
1569657419.25297
1569657419.26859
1569657419.28422
1569657419.29985
1569657419.31547
1569657419.3311
1569657419.34672
1569657419.36235
1569657419.37797
1569657419.3936
1569657419.40923
1569657419.42485
1569657419.44048
1569657419.4561
1569657419.47173
1569657419.48735
1569657419.50298
1569657419.51861
1569657419.53423
1569657419.54986
1569657419.56548
1569657419.58111
1569657419.59673
1569657419.61236
1569657419.62799
1569657419.64361
1569657419.65924
1569657419.67486
1569657419.69049
1569657419.70611
1569657419.72174
1569657419.73737
1569657419.75299
1569657419.76862
1569657419.78424
1569657419.79987
1569657419.81549
1569657419.83112
1569657419.84675
1569657419.86237
1569657419.878
1569657419.89362
1569657419.90925
1569657419.92487
1569657419.9405
1569657419.95613
1569657419.97175
1569657419.98738
1569657420.003
1569657420.01863
1569657420.03425
1569657420.04988
1569657420.06551
1569657420.08113
1569657420.09676
1569657420.11238
1569657420.12801
1569657420.14363
1569657420.15926
1569657420.17489
1569657420.19051
1569657420.20614
1569657420.22176
1569657420.23739
1569657420.25302
1569657420.26864
1569657420.28427
1569657420.29989
1569657420.31552
1569657420.33114
1569657420.34677
1569657420.3624
1569657420.37802
1569657420.39365
1569657420.40927
1569657420.4249
1569657420.44052
1569657420.45615
1569657420.47178
1569657420.4874
1569657420.50303
1569657420.51865
1569657420.53428
1569657420.5499
1569657420.56553
1569657420.58116
1569657420.59678
1569657420.61241
1569657420.62803
1569657420.64366
1569657420.65928
1569657420.67491
1569657420.69054
1569657420.70616
1569657420.72179
1569657420.73741
1569657420.75304
1569657420.76866
1569657420.78429
1569657420.79992
1569657420.81554
1569657420.83117
1569657420.84679
1569657420.86242
1569657420.87804
1569657420.89367
1569657420.9093
1569657420.92492
1569657420.94055
1569657420.95617
1569657420.9718
1569657420.98742
1569657421.00305
1569657421.01868
1569657421.0343
1569657421.04993
1569657421.06555
1569657421.08118
1569657421.0968
1569657421.11243
1569657421.12806
1569657421.14368
1569657421.15931
1569657421.17493
1569657421.19056
1569657421.20618
1569657421.22181
1569657421.23744
1569657421.25306
1569657421.26869
1569657421.28431
1569657421.29994
1569657421.31556
1569657421.33119
1569657421.34682
1569657421.36244
1569657421.37807
1569657421.39369
1569657421.40932
1569657421.42494
1569657421.44057
1569657421.4562
1569657421.47182
1569657421.48745
1569657421.50307
1569657421.5187
1569657421.53432
1569657421.54995
1569657421.56558
1569657421.5812
1569657421.59683
1569657421.61245
1569657421.62808
1569657421.6437
1569657421.65933
1569657421.67496
1569657421.69058
1569657421.70621
1569657421.72183
1569657421.73746
1569657421.75308
1569657421.76871
1569657421.78434
1569657421.79996
1569657421.81559
1569657421.83121
1569657421.84684
1569657421.86246
1569657421.87809
1569657421.89372
1569657421.90934
1569657421.92497
1569657421.94059
1569657421.95622
1569657421.97184
1569657421.98747
1569657422.0031
1569657422.01872
1569657422.03435
1569657422.04997
1569657422.0656
1569657422.08122
1569657422.09685
1569657422.11248
1569657422.1281
1569657422.14373
1569657422.15935
1569657422.17498
1569657422.1906
1569657422.20623
1569657422.22186
1569657422.23748
1569657422.25311
1569657422.26873
1569657422.28436
1569657422.29998
1569657422.31561
1569657422.33124
1569657422.34686
1569657422.36249
1569657422.37811
1569657422.39374
1569657422.40936
1569657422.42499
1569657422.44062
1569657422.45624
1569657422.47187
1569657422.48749
1569657422.50312
1569657422.51874
1569657422.53437
1569657422.55
1569657422.56562
1569657422.58125
1569657422.59687
1569657422.6125
1569657422.62812
1569657422.64375
1569657422.65938
1569657422.675
1569657422.69063
1569657422.70625
1569657422.72188
1569657422.7375
1569657422.75313
1569657422.76876
1569657422.78438
1569657422.80001
1569657422.81563
1569657422.83126
1569657422.84688
1569657422.86251
1569657422.87814
1569657422.89376
1569657422.90939
1569657422.92501
1569657422.94064
1569657422.95627
1569657422.97189
1569657422.98752
1569657423.00314
1569657423.01877
1569657423.03439
1569657423.05002
1569657423.06565
1569657423.08127
1569657423.0969
1569657423.11252
1569657423.12815
1569657423.14377
1569657423.1594
1569657423.17503
1569657423.19065
1569657423.20628
1569657423.2219
1569657423.23753
1569657423.25315
1569657423.26878
1569657423.28441
1569657423.30003
1569657423.31566
1569657423.33128
1569657423.34691
1569657423.36253
1569657423.37816
1569657423.39379
1569657423.40941
1569657423.42504
1569657423.44066
1569657423.45629
1569657423.47191
1569657423.48754
1569657423.50317
1569657423.51879
1569657423.53442
1569657423.55004
1569657423.56567
1569657423.58129
1569657423.59692
1569657423.61255
1569657423.62817
1569657423.6438
1569657423.65942
1569657423.67505
1569657423.69067
1569657423.7063
1569657423.72193
1569657423.73755
1569657423.75318
1569657423.7688
1569657423.78443
1569657423.80005
1569657423.81568
1569657423.83131
1569657423.84693
1569657423.86256
1569657423.87818
1569657423.89381
1569657423.90943
1569657423.92506
1569657423.94069
1569657423.95631
1569657423.97194
1569657423.98756
1569657424.00319
1569657424.01881
1569657424.03444
1569657424.05007
1569657424.06569
1569657424.08132
1569657424.09694
1569657424.11257
1569657424.12819
1569657424.14382
1569657424.15945
1569657424.17507
1569657424.1907
1569657424.20632
1569657424.22195
1569657424.23757
1569657424.2532
1569657424.26883
1569657424.28445
1569657424.30008
1569657424.3157
1569657424.33133
1569657424.34695
1569657424.36258
1569657424.37821
1569657424.39383
1569657424.40946
1569657424.42508
1569657424.44071
1569657424.45633
1569657424.47196
1569657424.48759
1569657424.50321
1569657424.51884
1569657424.53446
1569657424.55009
1569657424.56571
1569657424.58134
1569657424.59697
1569657424.61259
1569657424.62822
1569657424.64384
1569657424.65947
1569657424.67509
1569657424.69072
1569657424.70635
1569657424.72197
1569657424.7376
1569657424.75322
1569657424.76885
1569657424.78447
1569657424.8001
1569657424.81573
1569657424.83135
1569657424.84698
1569657424.8626
1569657424.87823
1569657424.89385
1569657424.90948
1569657424.92511
1569657424.94073
1569657424.95636
1569657424.97198
1569657424.98761
1569657425.00323
1569657425.01886
1569657425.03449
1569657425.05011
1569657425.06574
1569657425.08136
1569657425.09699
1569657425.11262
1569657425.12824
1569657425.14387
1569657425.15949
1569657425.17512
1569657425.19074
1569657425.20637
1569657425.222
1569657425.23762
1569657425.25325
1569657425.26887
1569657425.2845
1569657425.30012
1569657425.31575
1569657425.33138
1569657425.347
1569657425.36263
1569657425.37825
1569657425.39388
1569657425.4095
1569657425.42513
1569657425.44076
1569657425.45638
1569657425.47201
1569657425.48763
1569657425.50326
1569657425.51888
1569657425.53451
1569657425.55014
1569657425.56576
1569657425.58139
1569657425.59701
1569657425.61264
1569657425.62826
1569657425.64389
1569657425.65952
1569657425.67514
1569657425.69077
1569657425.70639
1569657425.72202
1569657425.73764
1569657425.75327
1569657425.7689
1569657425.78452
1569657425.80015
1569657425.81577
1569657425.8314
1569657425.84702
1569657425.86265
1569657425.87828
1569657425.8939
1569657425.90953
1569657425.92515
1569657425.94078
1569657425.9564
1569657425.97203
1569657425.98766
1569657426.00328
1569657426.01891
1569657426.03453
1569657426.05016
1569657426.06578
1569657426.08141
1569657426.09704
1569657426.11266
1569657426.12829
1569657426.14391
1569657426.15954
1569657426.17516
1569657426.19079
1569657426.20642
1569657426.22204
1569657426.23767
1569657426.25329
1569657426.26892
1569657426.28454
1569657426.30017
1569657426.3158
1569657426.33142
1569657426.34705
1569657426.36267
1569657426.3783
1569657426.39392
1569657426.40955
1569657426.42518
1569657426.4408
1569657426.45643
1569657426.47205
1569657426.48768
1569657426.5033
1569657426.51893
1569657426.53456
1569657426.55018
1569657426.56581
1569657426.58143
1569657426.59706
1569657426.61268
1569657426.62831
1569657426.64394
1569657426.65956
1569657426.67519
1569657426.69081
1569657426.70644
1569657426.72206
1569657426.73769
1569657426.75332
1569657426.76894
1569657426.78457
1569657426.80019
1569657426.81582
1569657426.83144
1569657426.84707
1569657426.8627
1569657426.87832
1569657426.89395
1569657426.90957
1569657426.9252
1569657426.94082
1569657426.95645
1569657426.97208
1569657426.9877
1569657427.00333
1569657427.01895
1569657427.03458
1569657427.0502
1569657427.06583
1569657427.08146
1569657427.09708
1569657427.11271
1569657427.12833
1569657427.14396
1569657427.15958
1569657427.17521
1569657427.19084
1569657427.20646
1569657427.22209
1569657427.23771
1569657427.25334
1569657427.26896
1569657427.28459
1569657427.30022
1569657427.31584
1569657427.33147
1569657427.34709
1569657427.36272
1569657427.37835
1569657427.39397
1569657427.4096
1569657427.42522
1569657427.44085
1569657427.45647
1569657427.4721
1569657427.48773
1569657427.50335
1569657427.51898
1569657427.5346
1569657427.55023
1569657427.56585
1569657427.58148
1569657427.59711
1569657427.61273
1569657427.62836
1569657427.64398
1569657427.65961
1569657427.67523
1569657427.69086
1569657427.70649
1569657427.72211
1569657427.73774
1569657427.75336
1569657427.76899
1569657427.78461
1569657427.80024
1569657427.81587
1569657427.83149
1569657427.84712
1569657427.86274
1569657427.87837
1569657427.89399
1569657427.90962
1569657427.92525
1569657427.94087
1569657427.9565
1569657427.97212
1569657427.98775
1569657428.00337
1569657428.019
1569657428.03463
1569657428.05025
1569657428.06588
1569657428.0815
1569657428.09713
1569657428.11275
1569657428.12838
1569657428.14401
1569657428.15963
1569657428.17526
1569657428.19088
1569657428.20651
1569657428.22213
1569657428.23776
1569657428.25339
1569657428.26901
1569657428.28464
1569657428.30026
1569657428.31589
1569657428.33151
1569657428.34714
1569657428.36277
1569657428.37839
1569657428.39402
1569657428.40964
1569657428.42527
1569657428.44089
1569657428.45652
1569657428.47215
1569657428.48777
1569657428.5034
1569657428.51902
1569657428.53465
1569657428.55027
1569657428.5659
1569657428.58153
1569657428.59715
1569657428.61278
1569657428.6284
1569657428.64403
1569657428.65965
1569657428.67528
1569657428.69091
1569657428.70653
1569657428.72216
1569657428.73778
1569657428.75341
1569657428.76903
1569657428.78466
1569657428.80029
1569657428.81591
1569657428.83154
1569657428.84716
1569657428.86279
1569657428.87841
1569657428.89404
1569657428.90967
1569657428.92529
1569657428.94092
1569657428.95654
1569657428.97217
1569657428.98779
1569657429.00342
1569657429.01905
1569657429.03467
1569657429.0503
1569657429.06592
1569657429.08155
1569657429.09717
1569657429.1128
1569657429.12843
1569657429.14405
1569657429.15968
1569657429.1753
1569657429.19093
1569657429.20655
1569657429.22218
1569657429.23781
1569657429.25343
1569657429.26906
1569657429.28468
1569657429.30031
1569657429.31593
1569657429.33156
1569657429.34719
1569657429.36281
1569657429.37844
1569657429.39406
1569657429.40969
1569657429.42531
1569657429.44094
1569657429.45657
1569657429.47219
1569657429.48782
1569657429.50344
1569657429.51907
1569657429.53469
1569657429.55032
1569657429.56595
1569657429.58157
1569657429.5972
1569657429.61282
1569657429.62845
1569657429.64407
1569657429.6597
1569657429.67533
1569657429.69095
1569657429.70658
1569657429.7222
1569657429.73783
1569657429.75345
1569657429.76908
1569657429.78471
1569657429.80033
1569657429.81596
1569657429.83158
1569657429.84721
1569657429.86283
1569657429.87846
1569657429.89409
1569657429.90971
1569657429.92534
1569657429.94096
1569657429.95659
1569657429.97222
1569657429.98784
1569657430.00347
1569657430.01909
1569657430.03472
1569657430.05034
1569657430.06597
1569657430.0816
1569657430.09722
1569657430.11285
1569657430.12847
1569657430.1441
1569657430.15972
1569657430.17535
1569657430.19098
1569657430.2066
1569657430.22223
1569657430.23785
1569657430.25348
1569657430.2691
1569657430.28473
1569657430.30036
1569657430.31598
1569657430.33161
1569657430.34723
1569657430.36286
1569657430.37848
1569657430.39411
1569657430.40974
1569657430.42536
1569657430.44099
1569657430.45661
1569657430.47224
1569657430.48786
1569657430.50349
1569657430.51912
1569657430.53474
1569657430.55037
1569657430.56599
1569657430.58162
1569657430.59724
1569657430.61287
1569657430.6285
1569657430.64412
1569657430.65975
1569657430.67537
1569657430.691
1569657430.70662
1569657430.72225
1569657430.73788
1569657430.7535
1569657430.76913
1569657430.78475
1569657430.80038
1569657430.816
1569657430.83163
1569657430.84726
1569657430.86288
1569657430.87851
1569657430.89413
1569657430.90976
1569657430.92538
1569657430.94101
1569657430.95664
1569657430.97226
1569657430.98789
1569657431.00351
1569657431.01914
1569657431.03476
1569657431.05039
1569657431.06602
1569657431.08164
1569657431.09727
1569657431.11289
1569657431.12852
1569657431.14414
1569657431.15977
1569657431.1754
1569657431.19102
1569657431.20665
1569657431.22227
1569657431.2379
1569657431.25352
1569657431.26915
1569657431.28478
1569657431.3004
1569657431.31603
1569657431.33165
1569657431.34728
1569657431.3629
1569657431.37853
1569657431.39416
1569657431.40978
1569657431.42541
1569657431.44103
1569657431.45666
1569657431.47228
1569657431.48791
1569657431.50354
1569657431.51916
1569657431.53479
1569657431.55041
1569657431.56604
1569657431.58166
1569657431.59729
1569657431.61292
1569657431.62854
1569657431.64417
1569657431.65979
1569657431.67542
1569657431.69104
1569657431.70667
1569657431.7223
1569657431.73792
1569657431.75355
1569657431.76917
1569657431.7848
1569657431.80042
1569657431.81605
1569657431.83168
1569657431.8473
1569657431.86293
1569657431.87855
1569657431.89418
1569657431.9098
1569657431.92543
1569657431.94106
1569657431.95668
1569657431.97231
1569657431.98793
1569657432.00356
1569657432.01918
1569657432.03481
1569657432.05044
1569657432.06606
1569657432.08169
1569657432.09731
1569657432.11294
1569657432.12856
1569657432.14419
1569657432.15982
1569657432.17544
1569657432.19107
1569657432.20669
1569657432.22232
1569657432.23795
1569657432.25357
1569657432.2692
1569657432.28482
1569657432.30045
1569657432.31607
1569657432.3317
1569657432.34733
1569657432.36295
1569657432.37858
1569657432.3942
1569657432.40983
1569657432.42545
1569657432.44108
1569657432.45671
1569657432.47233
1569657432.48796
1569657432.50358
1569657432.51921
1569657432.53483
1569657432.55046
1569657432.56609
1569657432.58171
1569657432.59734
1569657432.61296
1569657432.62859
1569657432.64421
1569657432.65984
1569657432.67547
1569657432.69109
1569657432.70672
1569657432.72234
1569657432.73797
1569657432.75359
1569657432.76922
1569657432.78485
1569657432.80047
1569657432.8161
1569657432.83172
1569657432.84735
1569657432.86297
1569657432.8786
1569657432.89423
1569657432.90985
1569657432.92548
1569657432.9411
1569657432.95673
1569657432.97235
1569657432.98798
1569657433.00361
1569657433.01923
1569657433.03486
1569657433.05048
1569657433.06611
1569657433.08173
1569657433.09736
1569657433.11299
1569657433.12861
1569657433.14424
1569657433.15986
1569657433.17549
1569657433.19111
1569657433.20674
1569657433.22237
1569657433.23799
1569657433.25362
1569657433.26924
1569657433.28487
1569657433.30049
1569657433.31612
1569657433.33175
1569657433.34737
1569657433.363
1569657433.37862
1569657433.39425
1569657433.40987
1569657433.4255
1569657433.44113
1569657433.45675
1569657433.47238
1569657433.488
1569657433.50363
1569657433.51925
1569657433.53488
1569657433.55051
1569657433.56613
1569657433.58176
1569657433.59738
1569657433.61301
1569657433.62863
1569657433.64426
1569657433.65989
1569657433.67551
1569657433.69114
1569657433.70676
1569657433.72239
1569657433.73801
1569657433.75364
1569657433.76927
1569657433.78489
1569657433.80052
1569657433.81614
1569657433.83177
1569657433.84739
1569657433.86302
1569657433.87865
1569657433.89427
1569657433.9099
1569657433.92552
1569657433.94115
1569657433.95677
1569657433.9724
1569657433.98803
1569657434.00365
1569657434.01928
1569657434.0349
1569657434.05053
1569657434.06615
1569657434.08178
1569657434.09741
1569657434.11303
1569657434.12866
1569657434.14428
1569657434.15991
1569657434.17553
1569657434.19116
1569657434.20679
1569657434.22241
1569657434.23804
1569657434.25366
1569657434.26929
1569657434.28491
1569657434.30054
1569657434.31617
1569657434.33179
1569657434.34742
1569657434.36304
1569657434.37867
1569657434.39429
1569657434.40992
1569657434.42555
1569657434.44117
1569657434.4568
1569657434.47242
1569657434.48805
1569657434.50367
1569657434.5193
1569657434.53493
1569657434.55055
1569657434.56618
1569657434.5818
1569657434.59743
1569657434.61305
1569657434.62868
1569657434.64431
1569657434.65993
1569657434.67556
1569657434.69118
1569657434.70681
1569657434.72244
1569657434.73806
1569657434.75369
1569657434.76931
1569657434.78494
1569657434.80056
1569657434.81619
1569657434.83182
1569657434.84744
1569657434.86307
1569657434.87869
1569657434.89432
1569657434.90994
1569657434.92557
1569657434.9412
1569657434.95682
1569657434.97245
1569657434.98807
1569657435.0037
1569657435.01932
1569657435.03495
1569657435.05058
1569657435.0662
1569657435.08183
1569657435.09745
1569657435.11308
1569657435.1287
1569657435.14433
1569657435.15996
1569657435.17558
1569657435.19121
1569657435.20683
1569657435.22246
1569657435.23808
1569657435.25371
1569657435.26934
1569657435.28496
1569657435.30059
1569657435.31621
1569657435.33184
1569657435.34746
1569657435.36309
1569657435.37872
1569657435.39434
1569657435.40997
1569657435.42559
1569657435.44122
1569657435.45684
1569657435.47247
1569657435.4881
1569657435.50372
1569657435.51935
1569657435.53497
1569657435.5506
1569657435.56622
1569657435.58185
1569657435.59748
1569657435.6131
1569657435.62873
1569657435.64435
1569657435.65998
1569657435.6756
1569657435.69123
1569657435.70686
1569657435.72248
1569657435.73811
1569657435.75373
1569657435.76936
1569657435.78498
1569657435.80061
1569657435.81624
1569657435.83186
1569657435.84749
1569657435.86311
1569657435.87874
1569657435.89436
1569657435.90999
1569657435.92562
1569657435.94124
1569657435.95687
1569657435.97249
1569657435.98812
1569657436.00374
1569657436.01937
1569657436.035
1569657436.05062
1569657436.06625
1569657436.08187
1569657436.0975
1569657436.11312
1569657436.12875
1569657436.14438
1569657436.16
1569657436.17563
1569657436.19125
1569657436.20688
1569657436.2225
1569657436.23813
1569657436.25376
1569657436.26938
1569657436.28501
1569657436.30063
1569657436.31626
1569657436.33188
1569657436.34751
1569657436.36314
1569657436.37876
1569657436.39439
1569657436.41001
1569657436.42564
1569657436.44126
1569657436.45689
1569657436.47252
1569657436.48814
1569657436.50377
1569657436.51939
1569657436.53502
1569657436.55064
1569657436.56627
1569657436.5819
1569657436.59752
1569657436.61315
1569657436.62877
1569657436.6444
1569657436.66002
1569657436.67565
1569657436.69128
1569657436.7069
1569657436.72253
1569657436.73815
1569657436.75378
1569657436.7694
1569657436.78503
1569657436.80066
1569657436.81628
1569657436.83191
1569657436.84753
1569657436.86316
1569657436.87878
1569657436.89441
1569657436.91004
1569657436.92566
1569657436.94129
1569657436.95691
1569657436.97254
1569657436.98816
1569657437.00379
1569657437.01942
1569657437.03504
1569657437.05067
1569657437.06629
1569657437.08192
1569657437.09755
1569657437.11317
1569657437.1288
1569657437.14442
1569657437.16005
1569657437.17567
1569657437.1913
1569657437.20693
1569657437.22255
1569657437.23818
1569657437.2538
1569657437.26943
1569657437.28505
1569657437.30068
1569657437.31631
1569657437.33193
1569657437.34756
1569657437.36318
1569657437.37881
1569657437.39443
1569657437.41006
1569657437.42569
1569657437.44131
1569657437.45694
1569657437.47256
1569657437.48819
1569657437.50381
1569657437.51944
1569657437.53507
1569657437.55069
1569657437.56632
1569657437.58194
1569657437.59757
1569657437.61319
1569657437.62882
1569657437.64445
1569657437.66007
1569657437.6757
1569657437.69132
1569657437.70695
1569657437.72257
1569657437.7382
1569657437.75383
1569657437.76945
1569657437.78508
1569657437.8007
1569657437.81633
1569657437.83195
1569657437.84758
1569657437.86321
1569657437.87883
1569657437.89446
1569657437.91008
1569657437.92571
1569657437.94133
1569657437.95696
1569657437.97259
1569657437.98821
1569657438.00384
1569657438.01946
1569657438.03509
1569657438.05071
1569657438.06634
1569657438.08197
1569657438.09759
1569657438.11322
1569657438.12884
1569657438.14447
1569657438.16009
1569657438.17572
1569657438.19135
1569657438.20697
1569657438.2226
1569657438.23822
1569657438.25385
1569657438.26947
1569657438.2851
1569657438.30073
1569657438.31635
1569657438.33198
1569657438.3476
1569657438.36323
1569657438.37885
1569657438.39448
1569657438.41011
1569657438.42573
1569657438.44136
1569657438.45698
1569657438.47261
1569657438.48823
1569657438.50386
1569657438.51949
1569657438.53511
1569657438.55074
1569657438.56636
1569657438.58199
1569657438.59761
1569657438.61324
1569657438.62887
1569657438.64449
1569657438.66012
1569657438.67574
1569657438.69137
1569657438.70699
1569657438.72262
1569657438.73825
1569657438.75387
1569657438.7695
1569657438.78512
1569657438.80075
1569657438.81637
1569657438.832
1569657438.84763
1569657438.86325
1569657438.87888
1569657438.8945
1569657438.91013
1569657438.92575
1569657438.94138
1569657438.95701
1569657438.97263
1569657438.98826
1569657439.00388
1569657439.01951
1569657439.03513
1569657439.05076
1569657439.06639
1569657439.08201
1569657439.09764
1569657439.11326
1569657439.12889
1569657439.14451
1569657439.16014
1569657439.17577
1569657439.19139
1569657439.20702
1569657439.22264
1569657439.23827
1569657439.2539
1569657439.26952
1569657439.28515
1569657439.30077
1569657439.3164
1569657439.33202
1569657439.34765
1569657439.36328
1569657439.3789
1569657439.39453
1569657439.41015
1569657439.42578
1569657439.4414
1569657439.45703
1569657439.47266
1569657439.48828
1569657439.50391
1569657439.51953
1569657439.53516
1569657439.55078
1569657439.56641
1569657439.58204
1569657439.59766
1569657439.61329
1569657439.62891
1569657439.64454
1569657439.66016
1569657439.67579
1569657439.69142
1569657439.70704
1569657439.72267
1569657439.73829
1569657439.75392
1569657439.76954
1569657439.78517
1569657439.8008
1569657439.81642
1569657439.83205
1569657439.84767
1569657439.8633
1569657439.87892
1569657439.89455
1569657439.91018
1569657439.9258
1569657439.94143
1569657439.95705
1569657439.97268
1569657439.9883
1569657440.00393
1569657440.01956
1569657440.03518
1569657440.05081
1569657440.06643
1569657440.08206
1569657440.09768
1569657440.11331
1569657440.12894
1569657440.14456
1569657440.16019
1569657440.17581
1569657440.19144
1569657440.20706
1569657440.22269
1569657440.23832
1569657440.25394
1569657440.26957
1569657440.28519
1569657440.30082
1569657440.31644
1569657440.33207
1569657440.3477
1569657440.36332
1569657440.37895
1569657440.39457
1569657440.4102
1569657440.42582
1569657440.44145
1569657440.45708
1569657440.4727
1569657440.48833
1569657440.50395
1569657440.51958
1569657440.5352
1569657440.55083
1569657440.56646
1569657440.58208
1569657440.59771
1569657440.61333
1569657440.62896
1569657440.64458
1569657440.66021
1569657440.67584
1569657440.69146
1569657440.70709
1569657440.72271
1569657440.73834
1569657440.75396
1569657440.76959
1569657440.78522
1569657440.80084
1569657440.81647
1569657440.83209
1569657440.84772
1569657440.86334
1569657440.87897
1569657440.8946
1569657440.91022
1569657440.92585
1569657440.94147
1569657440.9571
1569657440.97272
1569657440.98835
1569657441.00398
1569657441.0196
1569657441.03523
1569657441.05085
1569657441.06648
1569657441.0821
1569657441.09773
1569657441.11336
1569657441.12898
1569657441.14461
1569657441.16023
1569657441.17586
1569657441.19148
1569657441.20711
1569657441.22274
1569657441.23836
1569657441.25399
1569657441.26961
1569657441.28524
1569657441.30086
1569657441.31649
1569657441.33212
1569657441.34774
1569657441.36337
1569657441.37899
1569657441.39462
1569657441.41024
1569657441.42587
1569657441.4415
1569657441.45712
1569657441.47275
1569657441.48837
1569657441.504
1569657441.51962
1569657441.53525
1569657441.55088
1569657441.5665
1569657441.58213
1569657441.59775
1569657441.61338
1569657441.629
1569657441.64463
1569657441.66026
1569657441.67588
1569657441.69151
1569657441.70713
1569657441.72276
1569657441.73838
1569657441.75401
1569657441.76964
1569657441.78526
1569657441.80089
1569657441.81651
1569657441.83214
1569657441.84776
1569657441.86339
1569657441.87902
1569657441.89464
1569657441.91027
1569657441.92589
1569657441.94152
1569657441.95715
1569657441.97277
1569657441.9884
1569657442.00402
1569657442.01965
1569657442.03527
1569657442.0509
1569657442.06653
1569657442.08215
1569657442.09778
1569657442.1134
1569657442.12903
1569657442.14465
1569657442.16028
1569657442.17591
1569657442.19153
1569657442.20716
1569657442.22278
1569657442.23841
1569657442.25403
1569657442.26966
1569657442.28529
1569657442.30091
1569657442.31654
1569657442.33216
1569657442.34779
1569657442.36341
1569657442.37904
1569657442.39467
1569657442.41029
1569657442.42592
1569657442.44154
1569657442.45717
1569657442.47279
1569657442.48842
1569657442.50405
1569657442.51967
1569657442.5353
1569657442.55092
1569657442.56655
1569657442.58217
1569657442.5978
1569657442.61343
1569657442.62905
1569657442.64468
1569657442.6603
1569657442.67593
1569657442.69155
1569657442.70718
1569657442.72281
1569657442.73843
1569657442.75406
1569657442.76968
1569657442.78531
1569657442.80093
1569657442.81656
1569657442.83219
1569657442.84781
1569657442.86344
1569657442.87906
1569657442.89469
1569657442.91031
1569657442.92594
1569657442.94157
1569657442.95719
1569657442.97282
1569657442.98844
1569657443.00407
1569657443.01969
1569657443.03532
1569657443.05095
1569657443.06657
1569657443.0822
1569657443.09782
1569657443.11345
1569657443.12907
1569657443.1447
1569657443.16033
1569657443.17595
1569657443.19158
1569657443.2072
1569657443.22283
1569657443.23845
1569657443.25408
1569657443.26971
1569657443.28533
1569657443.30096
1569657443.31658
1569657443.33221
1569657443.34783
1569657443.36346
1569657443.37909
1569657443.39471
1569657443.41034
1569657443.42596
1569657443.44159
1569657443.45721
1569657443.47284
1569657443.48847
1569657443.50409
1569657443.51972
1569657443.53534
1569657443.55097
1569657443.56659
1569657443.58222
1569657443.59785
1569657443.61347
1569657443.6291
1569657443.64472
1569657443.66035
1569657443.67597
1569657443.6916
1569657443.70723
1569657443.72285
1569657443.73848
1569657443.7541
1569657443.76973
1569657443.78535
1569657443.80098
1569657443.81661
1569657443.83223
1569657443.84786
1569657443.86348
1569657443.87911
1569657443.89473
1569657443.91036
1569657443.92599
1569657443.94161
1569657443.95724
1569657443.97286
1569657443.98849
1569657444.00411
1569657444.01974
1569657444.03537
1569657444.05099
1569657444.06662
1569657444.08224
1569657444.09787
1569657444.1135
1569657444.12912
1569657444.14475
1569657444.16037
1569657444.176
1569657444.19162
1569657444.20725
1569657444.22288
1569657444.2385
1569657444.25413
1569657444.26975
1569657444.28538
1569657444.301
1569657444.31663
1569657444.33226
1569657444.34788
1569657444.36351
1569657444.37913
1569657444.39476
1569657444.41038
1569657444.42601
1569657444.44164
1569657444.45726
1569657444.47289
1569657444.48851
1569657444.50414
1569657444.51976
1569657444.53539
1569657444.55102
1569657444.56664
1569657444.58227
1569657444.59789
1569657444.61352
1569657444.62914
1569657444.64477
1569657444.6604
1569657444.67602
1569657444.69165
1569657444.70727
1569657444.7229
1569657444.73852
1569657444.75415
1569657444.76978
1569657444.7854
1569657444.80103
1569657444.81665
1569657444.83228
1569657444.8479
1569657444.86353
1569657444.87916
1569657444.89478
1569657444.91041
1569657444.92603
1569657444.94166
1569657444.95728
1569657444.97291
1569657444.98854
1569657445.00416
1569657445.01979
1569657445.03541
1569657445.05104
1569657445.06666
1569657445.08229
1569657445.09792
1569657445.11354
1569657445.12917
1569657445.14479
1569657445.16042
1569657445.17604
1569657445.19167
1569657445.2073
1569657445.22292
1569657445.23855
1569657445.25417
1569657445.2698
1569657445.28542
1569657445.30105
1569657445.31668
1569657445.3323
1569657445.34793
1569657445.36355
1569657445.37918
1569657445.3948
1569657445.41043
1569657445.42606
1569657445.44168
1569657445.45731
1569657445.47293
1569657445.48856
1569657445.50418
1569657445.51981
1569657445.53544
1569657445.55106
1569657445.56669
1569657445.58231
1569657445.59794
1569657445.61356
1569657445.62919
1569657445.64482
1569657445.66044
1569657445.67607
1569657445.69169
1569657445.70732
1569657445.72294
1569657445.73857
1569657445.7542
1569657445.76982
1569657445.78545
1569657445.80107
1569657445.8167
1569657445.83232
1569657445.84795
1569657445.86358
1569657445.8792
1569657445.89483
1569657445.91045
1569657445.92608
1569657445.9417
1569657445.95733
1569657445.97296
1569657445.98858
1569657446.00421
1569657446.01983
1569657446.03546
1569657446.05108
1569657446.06671
1569657446.08234
1569657446.09796
1569657446.11359
1569657446.12921
1569657446.14484
1569657446.16046
1569657446.17609
1569657446.19172
1569657446.20734
1569657446.22297
1569657446.23859
1569657446.25422
1569657446.26984
1569657446.28547
1569657446.3011
1569657446.31672
1569657446.33235
1569657446.34797
1569657446.3636
1569657446.37923
1569657446.39485
1569657446.41048
1569657446.4261
1569657446.44173
1569657446.45735
1569657446.47298
1569657446.48861
1569657446.50423
1569657446.51986
1569657446.53548
1569657446.55111
1569657446.56673
1569657446.58236
1569657446.59799
1569657446.61361
1569657446.62924
1569657446.64486
1569657446.66049
1569657446.67611
1569657446.69174
1569657446.70737
1569657446.72299
1569657446.73862
1569657446.75424
1569657446.76987
1569657446.78549
1569657446.80112
1569657446.81675
1569657446.83237
1569657446.848
1569657446.86362
1569657446.87925
1569657446.89487
1569657446.9105
1569657446.92613
1569657446.94175
1569657446.95738
1569657446.973
1569657446.98863
1569657447.00425
1569657447.01988
1569657447.03551
1569657447.05113
1569657447.06676
1569657447.08238
1569657447.09801
1569657447.11363
1569657447.12926
1569657447.14489
1569657447.16051
1569657447.17614
1569657447.19176
1569657447.20739
1569657447.22301
1569657447.23864
1569657447.25427
1569657447.26989
1569657447.28552
1569657447.30114
1569657447.31677
1569657447.33239
1569657447.34802
1569657447.36365
1569657447.37927
1569657447.3949
1569657447.41052
1569657447.42615
1569657447.44177
1569657447.4574
1569657447.47303
1569657447.48865
1569657447.50428
1569657447.5199
1569657447.53553
1569657447.55115
1569657447.56678
1569657447.58241
1569657447.59803
1569657447.61366
1569657447.62928
1569657447.64491
1569657447.66053
1569657447.67616
1569657447.69179
1569657447.70741
1569657447.72304
1569657447.73866
1569657447.75429
1569657447.76991
1569657447.78554
1569657447.80117
1569657447.81679
1569657447.83242
1569657447.84804
1569657447.86367
1569657447.87929
1569657447.89492
1569657447.91055
1569657447.92617
1569657447.9418
1569657447.95742
1569657447.97305
1569657447.98867
1569657448.0043
1569657448.01993
1569657448.03555
1569657448.05118
1569657448.0668
1569657448.08243
1569657448.09805
1569657448.11368
1569657448.12931
1569657448.14493
1569657448.16056
1569657448.17618
1569657448.19181
1569657448.20743
1569657448.22306
1569657448.23869
1569657448.25431
1569657448.26994
1569657448.28556
1569657448.30119
1569657448.31681
1569657448.33244
1569657448.34807
1569657448.36369
1569657448.37932
1569657448.39494
1569657448.41057
1569657448.42619
1569657448.44182
1569657448.45745
1569657448.47307
1569657448.4887
1569657448.50432
1569657448.51995
1569657448.53557
1569657448.5512
1569657448.56683
1569657448.58245
1569657448.59808
1569657448.6137
1569657448.62933
1569657448.64495
1569657448.66058
1569657448.67621
1569657448.69183
1569657448.70746
1569657448.72308
1569657448.73871
1569657448.75433
1569657448.76996
1569657448.78559
1569657448.80121
1569657448.81684
1569657448.83246
1569657448.84809
1569657448.86371
1569657448.87934
1569657448.89497
1569657448.91059
1569657448.92622
1569657448.94184
1569657448.95747
1569657448.97309
1569657448.98872
1569657449.00435
1569657449.01997
1569657449.0356
1569657449.05122
1569657449.06685
1569657449.08248
1569657449.0981
1569657449.11373
1569657449.12935
1569657449.14498
1569657449.1606
1569657449.17623
1569657449.19186
1569657449.20748
1569657449.22311
1569657449.23873
1569657449.25436
1569657449.26998
1569657449.28561
1569657449.30124
1569657449.31686
1569657449.33249
1569657449.34811
1569657449.36374
1569657449.37936
1569657449.39499
1569657449.41062
1569657449.42624
1569657449.44187
1569657449.45749
1569657449.47312
1569657449.48874
1569657449.50437
1569657449.52
1569657449.53562
1569657449.55125
1569657449.56687
1569657449.5825
1569657449.59812
1569657449.61375
1569657449.62938
1569657449.645
1569657449.66063
1569657449.67625
1569657449.69188
1569657449.7075
1569657449.72313
1569657449.73876
1569657449.75438
1569657449.77001
1569657449.78563
1569657449.80126
1569657449.81688
1569657449.83251
1569657449.84814
1569657449.86376
1569657449.87939
1569657449.89501
1569657449.91064
1569657449.92626
1569657449.94189
1569657449.95752
1569657449.97314
1569657449.98877
1569657450.00439
1569657450.02002
1569657450.03564
1569657450.05127
1569657450.0669
1569657450.08252
1569657450.09815
1569657450.11377
1569657450.1294
1569657450.14502
1569657450.16065
1569657450.17628
1569657450.1919
1569657450.20753
1569657450.22315
1569657450.23878
1569657450.2544
1569657450.27003
1569657450.28566
1569657450.30128
1569657450.31691
1569657450.33253
1569657450.34816
1569657450.36378
1569657450.37941
1569657450.39504
1569657450.41066
1569657450.42629
1569657450.44191
1569657450.45754
1569657450.47316
1569657450.48879
1569657450.50442
1569657450.52004
1569657450.53567
1569657450.55129
1569657450.56692
1569657450.58254
1569657450.59817
1569657450.6138
1569657450.62942
1569657450.64505
1569657450.66067
1569657450.6763
1569657450.69192
1569657450.70755
1569657450.72318
1569657450.7388
1569657450.75443
1569657450.77005
1569657450.78568
1569657450.8013
1569657450.81693
1569657450.83256
1569657450.84818
1569657450.86381
1569657450.87943
1569657450.89506
1569657450.91068
1569657450.92631
1569657450.94194
1569657450.95756
1569657450.97319
1569657450.98881
1569657451.00444
1569657451.02006
1569657451.03569
1569657451.05132
1569657451.06694
1569657451.08257
1569657451.09819
1569657451.11382
1569657451.12944
1569657451.14507
1569657451.1607
1569657451.17632
1569657451.19195
1569657451.20757
1569657451.2232
1569657451.23883
1569657451.25445
1569657451.27008
1569657451.2857
1569657451.30133
1569657451.31695
1569657451.33258
1569657451.34821
1569657451.36383
1569657451.37946
1569657451.39508
1569657451.41071
1569657451.42633
1569657451.44196
1569657451.45759
1569657451.47321
1569657451.48884
1569657451.50446
1569657451.52009
1569657451.53571
1569657451.55134
1569657451.56697
1569657451.58259
1569657451.59822
1569657451.61384
1569657451.62947
1569657451.64509
1569657451.66072
1569657451.67635
1569657451.69197
1569657451.7076
1569657451.72322
1569657451.73885
1569657451.75447
1569657451.7701
1569657451.78573
1569657451.80135
1569657451.81698
1569657451.8326
1569657451.84823
1569657451.86385
1569657451.87948
1569657451.89511
1569657451.91073
1569657451.92636
1569657451.94198
1569657451.95761
1569657451.97323
1569657451.98886
1569657452.00449
1569657452.02011
1569657452.03574
1569657452.05136
1569657452.06699
1569657452.08261
1569657452.09824
1569657452.11387
1569657452.12949
1569657452.14512
1569657452.16074
1569657452.17637
1569657452.19199
1569657452.20762
1569657452.22325
1569657452.23887
1569657452.2545
1569657452.27012
1569657452.28575
1569657452.30137
1569657452.317
1569657452.33263
1569657452.34825
1569657452.36388
1569657452.3795
1569657452.39513
1569657452.41075
1569657452.42638
1569657452.44201
1569657452.45763
1569657452.47326
1569657452.48888
1569657452.50451
1569657452.52013
1569657452.53576
1569657452.55139
1569657452.56701
1569657452.58264
1569657452.59826
1569657452.61389
1569657452.62951
1569657452.64514
1569657452.66077
1569657452.67639
1569657452.69202
1569657452.70764
1569657452.72327
1569657452.73889
1569657452.75452
1569657452.77015
1569657452.78577
1569657452.8014
1569657452.81702
1569657452.83265
1569657452.84827
1569657452.8639
1569657452.87953
1569657452.89515
1569657452.91078
1569657452.9264
1569657452.94203
1569657452.95765
1569657452.97328
1569657452.98891
1569657453.00453
1569657453.02016
1569657453.03578
1569657453.05141
1569657453.06703
1569657453.08266
1569657453.09829
1569657453.11391
1569657453.12954
1569657453.14516
1569657453.16079
1569657453.17641
1569657453.19204
1569657453.20767
1569657453.22329
1569657453.23892
1569657453.25454
1569657453.27017
1569657453.28579
1569657453.30142
1569657453.31705
1569657453.33267
1569657453.3483
1569657453.36392
1569657453.37955
1569657453.39517
1569657453.4108
1569657453.42643
1569657453.44205
1569657453.45768
1569657453.4733
1569657453.48893
1569657453.50455
1569657453.52018
1569657453.53581
1569657453.55143
1569657453.56706
1569657453.58268
1569657453.59831
1569657453.61393
1569657453.62956
1569657453.64519
1569657453.66081
1569657453.67644
1569657453.69206
1569657453.70769
1569657453.72332
1569657453.73894
1569657453.75457
1569657453.77019
1569657453.78582
1569657453.80144
1569657453.81707
1569657453.8327
1569657453.84832
1569657453.86395
1569657453.87957
1569657453.8952
1569657453.91082
1569657453.92645
1569657453.94208
1569657453.9577
1569657453.97333
1569657453.98895
1569657454.00458
1569657454.0202
1569657454.03583
1569657454.05146
1569657454.06708
1569657454.08271
1569657454.09833
1569657454.11396
1569657454.12958
1569657454.14521
1569657454.16084
1569657454.17646
1569657454.19209
1569657454.20771
1569657454.22334
1569657454.23896
1569657454.25459
1569657454.27022
1569657454.28584
1569657454.30147
1569657454.31709
1569657454.33272
1569657454.34834
1569657454.36397
1569657454.3796
1569657454.39522
1569657454.41085
1569657454.42647
1569657454.4421
1569657454.45772
1569657454.47335
1569657454.48898
1569657454.5046
1569657454.52023
1569657454.53585
1569657454.55148
1569657454.5671
1569657454.58273
1569657454.59836
1569657454.61398
1569657454.62961
1569657454.64523
1569657454.66086
1569657454.67648
1569657454.69211
1569657454.70774
1569657454.72336
1569657454.73899
1569657454.75461
1569657454.77024
1569657454.78586
1569657454.80149
1569657454.81712
1569657454.83274
1569657454.84837
1569657454.86399
1569657454.87962
1569657454.89524
1569657454.91087
1569657454.9265
1569657454.94212
1569657454.95775
1569657454.97337
1569657454.989
1569657455.00462
1569657455.02025
1569657455.03588
1569657455.0515
1569657455.06713
1569657455.08275
1569657455.09838
1569657455.114
1569657455.12963
1569657455.14526
1569657455.16088
1569657455.17651
1569657455.19213
1569657455.20776
1569657455.22338
1569657455.23901
1569657455.25464
1569657455.27026
1569657455.28589
1569657455.30151
1569657455.31714
1569657455.33276
1569657455.34839
1569657455.36402
1569657455.37964
1569657455.39527
1569657455.41089
1569657455.42652
1569657455.44214
1569657455.45777
1569657455.4734
1569657455.48902
1569657455.50465
1569657455.52027
1569657455.5359
1569657455.55152
1569657455.56715
1569657455.58278
1569657455.5984
1569657455.61403
1569657455.62965
1569657455.64528
1569657455.6609
1569657455.67653
1569657455.69216
1569657455.70778
1569657455.72341
1569657455.73903
1569657455.75466
1569657455.77028
1569657455.78591
1569657455.80154
1569657455.81716
1569657455.83279
1569657455.84841
1569657455.86404
1569657455.87966
1569657455.89529
1569657455.91092
1569657455.92654
1569657455.94217
1569657455.95779
1569657455.97342
1569657455.98904
1569657456.00467
1569657456.0203
1569657456.03592
1569657456.05155
1569657456.06717
1569657456.0828
1569657456.09843
1569657456.11405
1569657456.12968
1569657456.1453
1569657456.16093
1569657456.17655
1569657456.19218
1569657456.20781
1569657456.22343
1569657456.23906
1569657456.25468
1569657456.27031
1569657456.28593
1569657456.30156
1569657456.31719
1569657456.33281
1569657456.34844
1569657456.36406
1569657456.37969
1569657456.39531
1569657456.41094
1569657456.42657
1569657456.44219
1569657456.45782
1569657456.47344
1569657456.48907
1569657456.50469
1569657456.52032
1569657456.53595
1569657456.55157
1569657456.5672
1569657456.58282
1569657456.59845
1569657456.61407
1569657456.6297
1569657456.64533
1569657456.66095
1569657456.67658
1569657456.6922
1569657456.70783
1569657456.72345
1569657456.73908
1569657456.75471
1569657456.77033
1569657456.78596
1569657456.80158
1569657456.81721
1569657456.83283
1569657456.84846
1569657456.86409
1569657456.87971
1569657456.89534
1569657456.91096
1569657456.92659
1569657456.94221
1569657456.95784
1569657456.97347
1569657456.98909
1569657457.00472
1569657457.02034
1569657457.03597
1569657457.05159
1569657457.06722
1569657457.08285
1569657457.09847
1569657457.1141
1569657457.12972
1569657457.14535
1569657457.16097
1569657457.1766
1569657457.19223
1569657457.20785
1569657457.22348
1569657457.2391
1569657457.25473
1569657457.27035
1569657457.28598
1569657457.30161
1569657457.31723
1569657457.33286
1569657457.34848
1569657457.36411
1569657457.37973
1569657457.39536
1569657457.41099
1569657457.42661
1569657457.44224
1569657457.45786
1569657457.47349
1569657457.48911
1569657457.50474
1569657457.52037
1569657457.53599
1569657457.55162
1569657457.56724
1569657457.58287
1569657457.59849
1569657457.61412
1569657457.62975
1569657457.64537
1569657457.661
1569657457.67662
1569657457.69225
1569657457.70787
1569657457.7235
1569657457.73913
1569657457.75475
1569657457.77038
1569657457.786
1569657457.80163
1569657457.81725
1569657457.83288
1569657457.84851
1569657457.86413
1569657457.87976
1569657457.89538
1569657457.91101
1569657457.92663
1569657457.94226
1569657457.95789
1569657457.97351
1569657457.98914
1569657458.00476
1569657458.02039
1569657458.03601
1569657458.05164
1569657458.06727
1569657458.08289
1569657458.09852
1569657458.11414
1569657458.12977
1569657458.14539
1569657458.16102
1569657458.17665
1569657458.19227
1569657458.2079
1569657458.22352
1569657458.23915
1569657458.25477
1569657458.2704
1569657458.28603
1569657458.30165
1569657458.31728
1569657458.3329
1569657458.34853
1569657458.36416
1569657458.37978
1569657458.39541
1569657458.41103
1569657458.42666
1569657458.44228
1569657458.45791
1569657458.47354
1569657458.48916
1569657458.50479
1569657458.52041
1569657458.53604
1569657458.55166
1569657458.56729
1569657458.58292
1569657458.59854
1569657458.61417
1569657458.62979
1569657458.64542
1569657458.66104
1569657458.67667
1569657458.6923
1569657458.70792
1569657458.72355
1569657458.73917
1569657458.7548
1569657458.77042
1569657458.78605
1569657458.80168
1569657458.8173
1569657458.83293
1569657458.84855
1569657458.86418
1569657458.8798
1569657458.89543
1569657458.91106
1569657458.92668
1569657458.94231
1569657458.95793
1569657458.97356
1569657458.98918
1569657459.00481
1569657459.02044
1569657459.03606
1569657459.05169
1569657459.06731
1569657459.08294
1569657459.09856
1569657459.11419
1569657459.12982
1569657459.14544
1569657459.16107
1569657459.17669
1569657459.19232
1569657459.20794
1569657459.22357
1569657459.2392
1569657459.25482
1569657459.27045
1569657459.28607
1569657459.3017
1569657459.31732
1569657459.33295
1569657459.34858
1569657459.3642
1569657459.37983
1569657459.39545
1569657459.41108
1569657459.4267
1569657459.44233
1569657459.45796
1569657459.47358
1569657459.48921
1569657459.50483
1569657459.52046
1569657459.53608
1569657459.55171
1569657459.56734
1569657459.58296
1569657459.59859
1569657459.61421
1569657459.62984
1569657459.64546
1569657459.66109
1569657459.67672
1569657459.69234
1569657459.70797
1569657459.72359
1569657459.73922
1569657459.75484
1569657459.77047
1569657459.7861
1569657459.80172
1569657459.81735
1569657459.83297
1569657459.8486
1569657459.86422
1569657459.87985
1569657459.89548
1569657459.9111
1569657459.92673
1569657459.94235
1569657459.95798
1569657459.9736
1569657459.98923
1569657460.00486
1569657460.02048
1569657460.03611
1569657460.05173
1569657460.06736
1569657460.08298
1569657460.09861
1569657460.11424
1569657460.12986
1569657460.14549
1569657460.16111
1569657460.17674
1569657460.19236
1569657460.20799
1569657460.22362
1569657460.23924
1569657460.25487
1569657460.27049
1569657460.28612
1569657460.30174
1569657460.31737
1569657460.333
1569657460.34862
1569657460.36425
1569657460.37987
1569657460.3955
1569657460.41112
1569657460.42675
1569657460.44238
1569657460.458
1569657460.47363
1569657460.48925
1569657460.50488
1569657460.5205
1569657460.53613
1569657460.55176
1569657460.56738
1569657460.58301
1569657460.59863
1569657460.61426
1569657460.62988
1569657460.64551
1569657460.66114
1569657460.67676
1569657460.69239
1569657460.70801
1569657460.72364
1569657460.73926
1569657460.75489
1569657460.77052
1569657460.78614
1569657460.80177
1569657460.81739
1569657460.83302
1569657460.84864
1569657460.86427
1569657460.8799
1569657460.89552
1569657460.91115
1569657460.92677
1569657460.9424
1569657460.95803
1569657460.97365
1569657460.98928
1569657461.0049
1569657461.02053
1569657461.03615
1569657461.05178
1569657461.06741
1569657461.08303
1569657461.09866
1569657461.11428
1569657461.12991
1569657461.14553
1569657461.16116
1569657461.17679
1569657461.19241
1569657461.20804
1569657461.22366
1569657461.23929
1569657461.25491
1569657461.27054
1569657461.28617
1569657461.30179
1569657461.31742
1569657461.33304
1569657461.34867
1569657461.36429
1569657461.37992
1569657461.39555
1569657461.41117
1569657461.4268
1569657461.44242
1569657461.45805
1569657461.47367
1569657461.4893
1569657461.50493
1569657461.52055
1569657461.53618
1569657461.5518
1569657461.56743
1569657461.58305
1569657461.59868
1569657461.61431
1569657461.62993
1569657461.64556
1569657461.66118
1569657461.67681
1569657461.69243
1569657461.70806
1569657461.72369
1569657461.73931
1569657461.75494
1569657461.77056
1569657461.78619
1569657461.80181
1569657461.81744
1569657461.83307
1569657461.84869
1569657461.86432
1569657461.87994
1569657461.89557
1569657461.91119
1569657461.92682
1569657461.94245
1569657461.95807
1569657461.9737
1569657461.98932
1569657462.00495
1569657462.02057
1569657462.0362
1569657462.05183
1569657462.06745
1569657462.08308
1569657462.0987
1569657462.11433
1569657462.12995
1569657462.14558
1569657462.16121
1569657462.17683
1569657462.19246
1569657462.20808
1569657462.22371
1569657462.23933
1569657462.25496
1569657462.27059
1569657462.28621
1569657462.30184
1569657462.31746
1569657462.33309
1569657462.34871
1569657462.36434
1569657462.37997
1569657462.39559
1569657462.41122
1569657462.42684
1569657462.44247
1569657462.45809
1569657462.47372
1569657462.48935
1569657462.50497
1569657462.5206
1569657462.53622
1569657462.55185
1569657462.56747
1569657462.5831
1569657462.59873
1569657462.61435
1569657462.62998
1569657462.6456
1569657462.66123
1569657462.67685
1569657462.69248
1569657462.70811
1569657462.72373
1569657462.73936
1569657462.75498
1569657462.77061
1569657462.78623
1569657462.80186
1569657462.81749
1569657462.83311
1569657462.84874
1569657462.86436
1569657462.87999
1569657462.89561
1569657462.91124
1569657462.92687
1569657462.94249
1569657462.95812
1569657462.97374
1569657462.98937
1569657463.00499
1569657463.02062
1569657463.03625
1569657463.05187
1569657463.0675
1569657463.08312
1569657463.09875
1569657463.11437
1569657463.13
1569657463.14563
1569657463.16125
1569657463.17688
1569657463.1925
1569657463.20813
1569657463.22376
1569657463.23938
1569657463.25501
1569657463.27063
1569657463.28626
1569657463.30188
1569657463.31751
1569657463.33314
1569657463.34876
1569657463.36439
1569657463.38001
1569657463.39564
1569657463.41126
1569657463.42689
1569657463.44252
1569657463.45814
1569657463.47377
1569657463.48939
1569657463.50502
1569657463.52064
1569657463.53627
1569657463.5519
1569657463.56752
1569657463.58315
1569657463.59877
1569657463.6144
1569657463.63002
1569657463.64565
1569657463.66128
1569657463.6769
1569657463.69253
1569657463.70815
1569657463.72378
1569657463.7394
1569657463.75503
1569657463.77066
1569657463.78628
1569657463.80191
1569657463.81753
1569657463.83316
1569657463.84878
1569657463.86441
1569657463.88004
1569657463.89566
1569657463.91129
1569657463.92691
1569657463.94254
1569657463.95816
1569657463.97379
1569657463.98942
1569657464.00504
1569657464.02067
1569657464.03629
1569657464.05192
1569657464.06754
1569657464.08317
1569657464.0988
1569657464.11442
1569657464.13005
1569657464.14567
1569657464.1613
1569657464.17692
1569657464.19255
1569657464.20818
1569657464.2238
1569657464.23943
1569657464.25505
1569657464.27068
1569657464.2863
1569657464.30193
1569657464.31756
1569657464.33318
1569657464.34881
1569657464.36443
1569657464.38006
1569657464.39568
1569657464.41131
1569657464.42694
1569657464.44256
1569657464.45819
1569657464.47381
1569657464.48944
1569657464.50506
1569657464.52069
1569657464.53632
1569657464.55194
1569657464.56757
1569657464.58319
1569657464.59882
1569657464.61444
1569657464.63007
1569657464.6457
1569657464.66132
1569657464.67695
1569657464.69257
1569657464.7082
1569657464.72382
1569657464.73945
1569657464.75508
1569657464.7707
1569657464.78633
1569657464.80195
1569657464.81758
1569657464.8332
1569657464.84883
1569657464.86446
1569657464.88008
1569657464.89571
1569657464.91133
1569657464.92696
1569657464.94258
1569657464.95821
1569657464.97384
1569657464.98946
1569657465.00509
1569657465.02071
1569657465.03634
1569657465.05196
1569657465.06759
1569657465.08322
1569657465.09884
1569657465.11447
1569657465.13009
1569657465.14572
1569657465.16134
1569657465.17697
1569657465.1926
1569657465.20822
1569657465.22385
1569657465.23947
1569657465.2551
1569657465.27072
1569657465.28635
1569657465.30198
1569657465.3176
1569657465.33323
1569657465.34885
1569657465.36448
1569657465.38011
1569657465.39573
1569657465.41136
1569657465.42698
1569657465.44261
1569657465.45823
1569657465.47386
1569657465.48949
1569657465.50511
1569657465.52074
1569657465.53636
1569657465.55199
1569657465.56761
1569657465.58324
1569657465.59887
1569657465.61449
1569657465.63012
1569657465.64574
1569657465.66137
1569657465.67699
1569657465.69262
1569657465.70825
1569657465.72387
1569657465.7395
1569657465.75512
1569657465.77075
1569657465.78637
1569657465.802
1569657465.81763
1569657465.83325
1569657465.84888
1569657465.8645
1569657465.88013
1569657465.89575
1569657465.91138
1569657465.92701
1569657465.94263
1569657465.95826
1569657465.97388
1569657465.98951
1569657466.00513
1569657466.02076
1569657466.03639
1569657466.05201
1569657466.06764
1569657466.08326
1569657466.09889
1569657466.11451
1569657466.13014
1569657466.14577
1569657466.16139
1569657466.17702
1569657466.19264
1569657466.20827
1569657466.22389
1569657466.23952
1569657466.25515
1569657466.27077
1569657466.2864
1569657466.30202
1569657466.31765
1569657466.33327
1569657466.3489
1569657466.36453
1569657466.38015
1569657466.39578
1569657466.4114
1569657466.42703
1569657466.44265
1569657466.45828
1569657466.47391
1569657466.48953
1569657466.50516
1569657466.52078
1569657466.53641
1569657466.55203
1569657466.56766
1569657466.58329
1569657466.59891
1569657466.61454
1569657466.63016
1569657466.64579
1569657466.66141
1569657466.67704
1569657466.69267
1569657466.70829
1569657466.72392
1569657466.73954
1569657466.75517
1569657466.77079
1569657466.78642
1569657466.80205
1569657466.81767
1569657466.8333
1569657466.84892
1569657466.86455
1569657466.88017
1569657466.8958
1569657466.91143
1569657466.92705
1569657466.94268
1569657466.9583
1569657466.97393
1569657466.98955
1569657467.00518
1569657467.02081
1569657467.03643
1569657467.05206
1569657467.06768
1569657467.08331
1569657467.09893
1569657467.11456
1569657467.13019
1569657467.14581
1569657467.16144
1569657467.17706
1569657467.19269
1569657467.20831
1569657467.22394
1569657467.23957
1569657467.25519
1569657467.27082
1569657467.28644
1569657467.30207
1569657467.31769
1569657467.33332
1569657467.34895
1569657467.36457
1569657467.3802
1569657467.39582
1569657467.41145
1569657467.42707
1569657467.4427
1569657467.45833
1569657467.47395
1569657467.48958
1569657467.5052
1569657467.52083
1569657467.53645
1569657467.55208
1569657467.56771
1569657467.58333
1569657467.59896
1569657467.61458
1569657467.63021
1569657467.64583
1569657467.66146
1569657467.67709
1569657467.69271
1569657467.70834
1569657467.72396
1569657467.73959
1569657467.75521
1569657467.77084
1569657467.78647
1569657467.80209
1569657467.81772
1569657467.83334
1569657467.84897
1569657467.86459
1569657467.88022
1569657467.89585
1569657467.91147
1569657467.9271
1569657467.94272
1569657467.95835
1569657467.97397
1569657467.9896
1569657468.00523
1569657468.02085
1569657468.03648
1569657468.0521
1569657468.06773
1569657468.08336
1569657468.09898
1569657468.11461
1569657468.13023
1569657468.14586
1569657468.16148
1569657468.17711
1569657468.19274
1569657468.20836
1569657468.22399
1569657468.23961
1569657468.25524
1569657468.27086
1569657468.28649
1569657468.30212
1569657468.31774
1569657468.33337
1569657468.34899
1569657468.36462
1569657468.38024
1569657468.39587
1569657468.4115
1569657468.42712
1569657468.44275
1569657468.45837
1569657468.474
1569657468.48962
1569657468.50525
1569657468.52088
1569657468.5365
1569657468.55213
1569657468.56775
1569657468.58338
1569657468.599
1569657468.61463
1569657468.63026
1569657468.64588
1569657468.66151
1569657468.67713
1569657468.69276
1569657468.70838
1569657468.72401
1569657468.73964
1569657468.75526
1569657468.77089
1569657468.78651
1569657468.80214
1569657468.81776
1569657468.83339
1569657468.84902
1569657468.86464
1569657468.88027
1569657468.89589
1569657468.91152
1569657468.92714
1569657468.94277
1569657468.9584
1569657468.97402
1569657468.98965
1569657469.00527
1569657469.0209
1569657469.03652
1569657469.05215
1569657469.06778
1569657469.0834
1569657469.09903
1569657469.11465
1569657469.13028
1569657469.1459
1569657469.16153
1569657469.17716
1569657469.19278
1569657469.20841
1569657469.22403
1569657469.23966
1569657469.25528
1569657469.27091
1569657469.28654
1569657469.30216
1569657469.31779
1569657469.33341
1569657469.34904
1569657469.36466
1569657469.38029
1569657469.39592
1569657469.41154
1569657469.42717
1569657469.44279
1569657469.45842
1569657469.47404
1569657469.48967
1569657469.5053
1569657469.52092
1569657469.53655
1569657469.55217
1569657469.5678
1569657469.58342
1569657469.59905
1569657469.61468
1569657469.6303
1569657469.64593
1569657469.66155
1569657469.67718
1569657469.6928
1569657469.70843
1569657469.72406
1569657469.73968
1569657469.75531
1569657469.77093
1569657469.78656
1569657469.80218
1569657469.81781
1569657469.83344
1569657469.84906
1569657469.86469
1569657469.88031
1569657469.89594
1569657469.91156
1569657469.92719
1569657469.94282
1569657469.95844
1569657469.97407
1569657469.98969
1569657470.00532
1569657470.02094
1569657470.03657
1569657470.0522
1569657470.06782
1569657470.08345
1569657470.09907
1569657470.1147
1569657470.13032
1569657470.14595
1569657470.16158
1569657470.1772
1569657470.19283
1569657470.20845
1569657470.22408
1569657470.23971
1569657470.25533
1569657470.27096
1569657470.28658
1569657470.30221
1569657470.31783
1569657470.33346
1569657470.34909
1569657470.36471
1569657470.38034
1569657470.39596
1569657470.41159
1569657470.42721
1569657470.44284
1569657470.45847
1569657470.47409
1569657470.48972
1569657470.50534
1569657470.52097
1569657470.53659
1569657470.55222
1569657470.56785
1569657470.58347
1569657470.5991
1569657470.61472
1569657470.63035
1569657470.64597
1569657470.6616
1569657470.67723
1569657470.69285
1569657470.70848
1569657470.7241
1569657470.73973
1569657470.75535
1569657470.77098
1569657470.78661
1569657470.80223
1569657470.81786
1569657470.83348
1569657470.84911
1569657470.86473
1569657470.88036
1569657470.89599
1569657470.91161
1569657470.92724
1569657470.94286
1569657470.95849
1569657470.97411
1569657470.98974
1569657471.00537
1569657471.02099
1569657471.03662
1569657471.05224
1569657471.06787
1569657471.08349
1569657471.09912
1569657471.11475
1569657471.13037
1569657471.146
1569657471.16162
1569657471.17725
1569657471.19287
1569657471.2085
1569657471.22413
1569657471.23975
1569657471.25538
1569657471.271
1569657471.28663
1569657471.30225
1569657471.31788
1569657471.33351
1569657471.34913
1569657471.36476
1569657471.38038
1569657471.39601
1569657471.41163
1569657471.42726
1569657471.44289
1569657471.45851
1569657471.47414
1569657471.48976
1569657471.50539
1569657471.52101
1569657471.53664
1569657471.55227
1569657471.56789
1569657471.58352
1569657471.59914
1569657471.61477
1569657471.63039
1569657471.64602
1569657471.66165
1569657471.67727
1569657471.6929
1569657471.70852
1569657471.72415
1569657471.73977
1569657471.7554
1569657471.77103
1569657471.78665
1569657471.80228
1569657471.8179
1569657471.83353
1569657471.84915
1569657471.86478
1569657471.88041
1569657471.89603
1569657471.91166
1569657471.92728
1569657471.94291
1569657471.95853
1569657471.97416
1569657471.98979
1569657472.00541
1569657472.02104
1569657472.03666
1569657472.05229
1569657472.06791
1569657472.08354
1569657472.09917
1569657472.11479
1569657472.13042
1569657472.14604
1569657472.16167
1569657472.17729
1569657472.19292
1569657472.20855
1569657472.22417
1569657472.2398
1569657472.25542
1569657472.27105
1569657472.28667
1569657472.3023
1569657472.31793
1569657472.33355
1569657472.34918
1569657472.3648
1569657472.38043
1569657472.39605
1569657472.41168
1569657472.42731
1569657472.44293
1569657472.45856
1569657472.47418
1569657472.48981
1569657472.50543
1569657472.52106
1569657472.53669
1569657472.55231
1569657472.56794
1569657472.58356
1569657472.59919
1569657472.61482
1569657472.63044
1569657472.64607
1569657472.66169
1569657472.67732
1569657472.69294
1569657472.70857
1569657472.7242
1569657472.73982
1569657472.75545
1569657472.77107
1569657472.7867
1569657472.80232
1569657472.81795
1569657472.83358
1569657472.8492
1569657472.86483
1569657472.88045
1569657472.89608
1569657472.9117
1569657472.92733
1569657472.94296
1569657472.95858
1569657472.97421
1569657472.98983
1569657473.00546
1569657473.02108
1569657473.03671
1569657473.05234
1569657473.06796
1569657473.08359
1569657473.09921
1569657473.11484
1569657473.13046
1569657473.14609
1569657473.16172
1569657473.17734
1569657473.19297
1569657473.20859
1569657473.22422
1569657473.23984
1569657473.25547
1569657473.2711
1569657473.28672
1569657473.30235
1569657473.31797
1569657473.3336
1569657473.34922
1569657473.36485
1569657473.38048
1569657473.3961
1569657473.41173
1569657473.42735
1569657473.44298
1569657473.4586
1569657473.47423
1569657473.48986
1569657473.50548
1569657473.52111
1569657473.53673
1569657473.55236
1569657473.56798
1569657473.58361
1569657473.59924
1569657473.61486
1569657473.63049
1569657473.64611
1569657473.66174
1569657473.67736
1569657473.69299
1569657473.70862
1569657473.72424
1569657473.73987
1569657473.75549
1569657473.77112
1569657473.78674
1569657473.80237
1569657473.818
1569657473.83362
1569657473.84925
1569657473.86487
1569657473.8805
1569657473.89612
1569657473.91175
1569657473.92738
1569657473.943
1569657473.95863
1569657473.97425
1569657473.98988
1569657474.0055
1569657474.02113
1569657474.03676
1569657474.05238
1569657474.06801
1569657474.08363
1569657474.09926
1569657474.11488
1569657474.13051
1569657474.14614
1569657474.16176
1569657474.17739
1569657474.19301
1569657474.20864
1569657474.22426
1569657474.23989
1569657474.25552
1569657474.27114
1569657474.28677
1569657474.30239
1569657474.31802
1569657474.33364
1569657474.34927
1569657474.3649
1569657474.38052
1569657474.39615
1569657474.41177
1569657474.4274
1569657474.44302
1569657474.45865
1569657474.47428
1569657474.4899
1569657474.50553
1569657474.52115
1569657474.53678
1569657474.5524
1569657474.56803
1569657474.58366
1569657474.59928
1569657474.61491
1569657474.63053
1569657474.64616
1569657474.66178
1569657474.67741
1569657474.69304
1569657474.70866
1569657474.72429
1569657474.73991
1569657474.75554
1569657474.77116
1569657474.78679
1569657474.80242
1569657474.81804
1569657474.83367
1569657474.84929
1569657474.86492
1569657474.88054
1569657474.89617
1569657474.9118
1569657474.92742
1569657474.94305
1569657474.95867
1569657474.9743
1569657474.98992
1569657475.00555
1569657475.02118
1569657475.0368
1569657475.05243
1569657475.06805
1569657475.08368
1569657475.09931
1569657475.11493
1569657475.13056
1569657475.14618
1569657475.16181
1569657475.17743
1569657475.19306
1569657475.20869
1569657475.22431
1569657475.23994
1569657475.25556
1569657475.27119
1569657475.28681
1569657475.30244
1569657475.31807
1569657475.33369
1569657475.34932
1569657475.36494
1569657475.38057
1569657475.39619
1569657475.41182
1569657475.42745
1569657475.44307
1569657475.4587
1569657475.47432
1569657475.48995
1569657475.50557
1569657475.5212
1569657475.53683
1569657475.55245
1569657475.56808
1569657475.5837
1569657475.59933
1569657475.61495
1569657475.63058
1569657475.64621
1569657475.66183
1569657475.67746
1569657475.69308
1569657475.70871
1569657475.72433
1569657475.73996
1569657475.75559
1569657475.77121
1569657475.78684
1569657475.80246
1569657475.81809
1569657475.83371
1569657475.84934
1569657475.86497
1569657475.88059
1569657475.89622
1569657475.91184
1569657475.92747
1569657475.94309
1569657475.95872
1569657475.97435
1569657475.98997
1569657476.0056
1569657476.02122
1569657476.03685
1569657476.05247
1569657476.0681
1569657476.08373
1569657476.09935
1569657476.11498
1569657476.1306
1569657476.14623
1569657476.16185
1569657476.17748
1569657476.19311
1569657476.20873
1569657476.22436
1569657476.23998
1569657476.25561
1569657476.27123
1569657476.28686
1569657476.30249
1569657476.31811
1569657476.33374
1569657476.34936
1569657476.36499
1569657476.38061
1569657476.39624
1569657476.41187
1569657476.42749
1569657476.44312
1569657476.45874
1569657476.47437
1569657476.48999
1569657476.50562
1569657476.52125
1569657476.53687
1569657476.5525
1569657476.56812
1569657476.58375
1569657476.59937
1569657476.615
1569657476.63063
1569657476.64625
1569657476.66188
1569657476.6775
1569657476.69313
1569657476.70875
1569657476.72438
1569657476.74001
1569657476.75563
1569657476.77126
1569657476.78688
1569657476.80251
1569657476.81813
1569657476.83376
1569657476.84939
1569657476.86501
1569657476.88064
1569657476.89626
1569657476.91189
1569657476.92751
1569657476.94314
1569657476.95877
1569657476.97439
1569657476.99002
1569657477.00564
1569657477.02127
1569657477.03689
1569657477.05252
1569657477.06815
1569657477.08377
1569657477.0994
1569657477.11502
1569657477.13065
1569657477.14627
1569657477.1619
1569657477.17753
1569657477.19315
1569657477.20878
1569657477.2244
1569657477.24003
1569657477.25565
1569657477.27128
1569657477.28691
1569657477.30253
1569657477.31816
1569657477.33378
1569657477.34941
1569657477.36504
1569657477.38066
1569657477.39629
1569657477.41191
1569657477.42754
1569657477.44316
1569657477.45879
1569657477.47442
1569657477.49004
1569657477.50567
1569657477.52129
1569657477.53692
1569657477.55254
1569657477.56817
1569657477.5838
1569657477.59942
1569657477.61505
1569657477.63067
1569657477.6463
1569657477.66192
1569657477.67755
1569657477.69318
1569657477.7088
1569657477.72443
1569657477.74005
1569657477.75568
1569657477.7713
1569657477.78693
1569657477.80256
1569657477.81818
1569657477.83381
1569657477.84943
1569657477.86506
1569657477.88068
1569657477.89631
1569657477.91194
1569657477.92756
1569657477.94319
1569657477.95881
1569657477.97444
1569657477.99006
1569657478.00569
1569657478.02132
1569657478.03694
1569657478.05257
1569657478.06819
1569657478.08382
1569657478.09944
1569657478.11507
1569657478.1307
1569657478.14632
1569657478.16195
1569657478.17757
1569657478.1932
1569657478.20882
1569657478.22445
1569657478.24008
1569657478.2557
1569657478.27133
1569657478.28695
1569657478.30258
1569657478.3182
1569657478.33383
1569657478.34946
1569657478.36508
1569657478.38071
1569657478.39633
1569657478.41196
1569657478.42758
1569657478.44321
1569657478.45884
1569657478.47446
1569657478.49009
1569657478.50571
1569657478.52134
1569657478.53696
1569657478.55259
1569657478.56822
1569657478.58384
1569657478.59947
1569657478.61509
1569657478.63072
1569657478.64634
1569657478.66197
1569657478.6776
1569657478.69322
1569657478.70885
1569657478.72447
1569657478.7401
1569657478.75572
1569657478.77135
1569657478.78698
1569657478.8026
1569657478.81823
1569657478.83385
1569657478.84948
1569657478.8651
1569657478.88073
1569657478.89636
1569657478.91198
1569657478.92761
1569657478.94323
1569657478.95886
1569657478.97448
1569657478.99011
1569657479.00574
1569657479.02136
1569657479.03699
1569657479.05261
1569657479.06824
1569657479.08386
1569657479.09949
1569657479.11512
1569657479.13074
1569657479.14637
1569657479.16199
1569657479.17762
1569657479.19324
1569657479.20887
1569657479.2245
1569657479.24012
1569657479.25575
1569657479.27137
1569657479.287
1569657479.30262
1569657479.31825
1569657479.33388
1569657479.3495
1569657479.36513
1569657479.38075
1569657479.39638
1569657479.412
1569657479.42763
1569657479.44326
1569657479.45888
1569657479.47451
1569657479.49013
1569657479.50576
1569657479.52138
1569657479.53701
1569657479.55264
1569657479.56826
1569657479.58389
1569657479.59951
1569657479.61514
1569657479.63076
1569657479.64639
1569657479.66202
1569657479.67764
1569657479.69327
1569657479.70889
1569657479.72452
1569657479.74014
1569657479.75577
1569657479.7714
1569657479.78702
1569657479.80265
1569657479.81827
1569657479.8339
1569657479.84952
1569657479.86515
1569657479.88078
1569657479.8964
1569657479.91203
1569657479.92765
1569657479.94328
1569657479.9589
1569657479.97453
1569657479.99016
1569657480.00578
1569657480.02141
1569657480.03703
1569657480.05266
1569657480.06829
1569657480.08391
1569657480.09954
1569657480.11516
1569657480.13079
1569657480.14641
1569657480.16204
1569657480.17767
1569657480.19329
1569657480.20892
1569657480.22454
1569657480.24017
1569657480.25579
1569657480.27142
1569657480.28705
1569657480.30267
1569657480.3183
1569657480.33392
1569657480.34955
1569657480.36517
1569657480.3808
1569657480.39643
1569657480.41205
1569657480.42768
1569657480.4433
1569657480.45893
1569657480.47455
1569657480.49018
1569657480.50581
1569657480.52143
1569657480.53706
1569657480.55268
1569657480.56831
1569657480.58393
1569657480.59956
1569657480.61519
1569657480.63081
1569657480.64644
1569657480.66206
1569657480.67769
1569657480.69331
1569657480.70894
1569657480.72457
1569657480.74019
1569657480.75582
1569657480.77144
1569657480.78707
1569657480.80269
1569657480.81832
1569657480.83395
1569657480.84957
1569657480.8652
1569657480.88082
1569657480.89645
1569657480.91207
1569657480.9277
1569657480.94333
1569657480.95895
1569657480.97458
1569657480.9902
1569657481.00583
1569657481.02145
1569657481.03708
1569657481.05271
1569657481.06833
1569657481.08396
1569657481.09958
1569657481.11521
1569657481.13083
1569657481.14646
1569657481.16209
1569657481.17771
1569657481.19334
1569657481.20896
1569657481.22459
1569657481.24021
1569657481.25584
1569657481.27147
1569657481.28709
1569657481.30272
1569657481.31834
1569657481.33397
1569657481.34959
1569657481.36522
1569657481.38085
1569657481.39647
1569657481.4121
1569657481.42772
1569657481.44335
1569657481.45897
1569657481.4746
1569657481.49023
1569657481.50585
1569657481.52148
1569657481.5371
1569657481.55273
1569657481.56835
1569657481.58398
1569657481.59961
1569657481.61523
1569657481.63086
1569657481.64648
1569657481.66211
1569657481.67773
1569657481.69336
1569657481.70899
1569657481.72461
1569657481.74024
1569657481.75586
1569657481.77149
1569657481.78711
1569657481.80274
1569657481.81837
1569657481.83399
1569657481.84962
1569657481.86524
1569657481.88087
1569657481.89649
1569657481.91212
1569657481.92775
1569657481.94337
1569657481.959
1569657481.97462
1569657481.99025
1569657482.00587
1569657482.0215
1569657482.03713
1569657482.05275
1569657482.06838
1569657482.084
1569657482.09963
1569657482.11525
1569657482.13088
1569657482.14651
1569657482.16213
1569657482.17776
1569657482.19338
1569657482.20901
1569657482.22464
1569657482.24026
1569657482.25589
1569657482.27151
1569657482.28714
1569657482.30276
1569657482.31839
1569657482.33402
1569657482.34964
1569657482.36527
1569657482.38089
1569657482.39652
1569657482.41214
1569657482.42777
1569657482.4434
1569657482.45902
1569657482.47465
1569657482.49027
1569657482.5059
1569657482.52152
1569657482.53715
1569657482.55278
1569657482.5684
1569657482.58403
1569657482.59965
1569657482.61528
1569657482.6309
1569657482.64653
1569657482.66216
1569657482.67778
1569657482.69341
1569657482.70903
1569657482.72466
1569657482.74028
1569657482.75591
1569657482.77154
1569657482.78716
1569657482.80279
1569657482.81841
1569657482.83404
1569657482.84966
1569657482.86529
1569657482.88092
1569657482.89654
1569657482.91217
1569657482.92779
1569657482.94342
1569657482.95904
1569657482.97467
1569657482.9903
1569657483.00592
1569657483.02155
1569657483.03717
1569657483.0528
1569657483.06842
1569657483.08405
1569657483.09968
1569657483.1153
1569657483.13093
1569657483.14655
1569657483.16218
1569657483.1778
1569657483.19343
1569657483.20906
1569657483.22468
1569657483.24031
1569657483.25593
1569657483.27156
1569657483.28718
1569657483.30281
1569657483.31844
1569657483.33406
1569657483.34969
1569657483.36531
1569657483.38094
1569657483.39656
1569657483.41219
1569657483.42782
1569657483.44344
1569657483.45907
1569657483.47469
1569657483.49032
1569657483.50594
1569657483.52157
1569657483.5372
1569657483.55282
1569657483.56845
1569657483.58407
1569657483.5997
1569657483.61532
1569657483.63095
1569657483.64658
1569657483.6622
1569657483.67783
1569657483.69345
1569657483.70908
1569657483.7247
1569657483.74033
1569657483.75596
1569657483.77158
1569657483.78721
1569657483.80283
1569657483.81846
1569657483.83408
1569657483.84971
1569657483.86534
1569657483.88096
1569657483.89659
1569657483.91221
1569657483.92784
1569657483.94346
1569657483.95909
1569657483.97472
1569657483.99034
1569657484.00597
1569657484.02159
1569657484.03722
1569657484.05284
1569657484.06847
1569657484.0841
1569657484.09972
1569657484.11535
1569657484.13097
1569657484.1466
1569657484.16222
1569657484.17785
1569657484.19348
1569657484.2091
1569657484.22473
1569657484.24035
1569657484.25598
1569657484.2716
1569657484.28723
1569657484.30286
1569657484.31848
1569657484.33411
1569657484.34973
1569657484.36536
1569657484.38098
1569657484.39661
1569657484.41224
1569657484.42786
1569657484.44349
1569657484.45911
1569657484.47474
1569657484.49037
1569657484.50599
1569657484.52162
1569657484.53724
1569657484.55287
1569657484.56849
1569657484.58412
1569657484.59975
1569657484.61537
1569657484.631
1569657484.64662
1569657484.66225
1569657484.67787
1569657484.6935
1569657484.70913
1569657484.72475
1569657484.74038
1569657484.756
1569657484.77163
1569657484.78725
1569657484.80288
1569657484.81851
1569657484.83413
1569657484.84976
1569657484.86538
1569657484.88101
1569657484.89663
1569657484.91226
1569657484.92789
1569657484.94351
1569657484.95914
1569657484.97476
1569657484.99039
1569657485.00601
1569657485.02164
1569657485.03727
1569657485.05289
1569657485.06852
1569657485.08414
1569657485.09977
1569657485.11539
1569657485.13102
1569657485.14665
1569657485.16227
1569657485.1779
1569657485.19352
1569657485.20915
1569657485.22477
1569657485.2404
1569657485.25603
1569657485.27165
1569657485.28728
1569657485.3029
1569657485.31853
1569657485.33415
1569657485.34978
1569657485.36541
1569657485.38103
1569657485.39666
1569657485.41228
1569657485.42791
1569657485.44353
1569657485.45916
1569657485.47479
1569657485.49041
1569657485.50604
1569657485.52166
1569657485.53729
1569657485.55291
1569657485.56854
1569657485.58417
1569657485.59979
1569657485.61542
1569657485.63104
1569657485.64667
1569657485.66229
1569657485.67792
1569657485.69355
1569657485.70917
1569657485.7248
1569657485.74042
1569657485.75605
1569657485.77167
1569657485.7873
1569657485.80293
1569657485.81855
1569657485.83418
1569657485.8498
1569657485.86543
1569657485.88105
1569657485.89668
1569657485.91231
1569657485.92793
1569657485.94356
1569657485.95918
1569657485.97481
1569657485.99043
1569657486.00606
1569657486.02169
1569657486.03731
1569657486.05294
1569657486.06856
1569657486.08419
1569657486.09981
1569657486.11544
1569657486.13107
1569657486.14669
1569657486.16232
1569657486.17794
1569657486.19357
1569657486.20919
1569657486.22482
1569657486.24045
1569657486.25607
1569657486.2717
1569657486.28732
1569657486.30295
1569657486.31857
1569657486.3342
1569657486.34983
1569657486.36545
1569657486.38108
1569657486.3967
1569657486.41233
1569657486.42795
1569657486.44358
1569657486.45921
1569657486.47483
1569657486.49046
1569657486.50608
1569657486.52171
1569657486.53733
1569657486.55296
1569657486.56859
1569657486.58421
1569657486.59984
1569657486.61546
1569657486.63109
1569657486.64671
1569657486.66234
1569657486.67797
1569657486.69359
1569657486.70922
1569657486.72484
1569657486.74047
1569657486.75609
1569657486.77172
1569657486.78735
1569657486.80297
1569657486.8186
1569657486.83422
1569657486.84985
1569657486.86547
1569657486.8811
1569657486.89673
1569657486.91235
1569657486.92798
1569657486.9436
1569657486.95923
1569657486.97485
1569657486.99048
1569657487.00611
1569657487.02173
1569657487.03736
1569657487.05298
1569657487.06861
1569657487.08424
1569657487.09986
1569657487.11549
1569657487.13111
1569657487.14674
1569657487.16236
1569657487.17799
1569657487.19362
1569657487.20924
1569657487.22487
1569657487.24049
1569657487.25612
1569657487.27174
1569657487.28737
1569657487.303
1569657487.31862
1569657487.33425
1569657487.34987
1569657487.3655
1569657487.38112
1569657487.39675
1569657487.41238
1569657487.428
1569657487.44363
1569657487.45925
1569657487.47488
1569657487.4905
1569657487.50613
1569657487.52176
1569657487.53738
1569657487.55301
1569657487.56863
1569657487.58426
1569657487.59988
1569657487.61551
