-11.37109
-6.628633
-2.161329
1.556917
4.406282
6.465799
7.938812
8.974062
9.559832
9.596483
9.011621
7.883375
6.463301
5.116417
4.148037
3.772638
4.085558
4.984425
6.315659
7.857695
9.394987
10.68648
11.38694
11.3152
10.39006
8.817549
6.970467
5.262074
3.927259
2.998331
2.21567
1.193972
-0.3548164
-2.530439
-5.142273
-7.890903
-10.41394
-12.56895
-14.41088
-16.09261
-17.84014
-19.83966
-22.23016
-24.88234
-27.49106
-29.48843
-30.32578
-29.49764
-26.75583
-22.1873
-16.20844
-9.526783
-2.875986
3.117588
8.027422
11.59955
13.84482
14.86204
14.93903
14.47625
13.82927
13.25925
12.83802
12.52789
12.16624
11.62326
10.8981
10.06697
9.32003
8.739862
8.3489
8.003099
7.544525
6.906988
6.053837
5.082729
4.096107
3.213203
2.378899
1.52816
0.5261345
-0.7041664
-2.137741
-3.694748
-5.257717
-6.802605
-8.318451
-9.843807
-11.41679
-13.00958
-14.60953
-16.19617
-17.7716
-19.32419
-20.8124
-22.01985
-22.55153
-22.04826
-20.16595
-16.90157
-12.4868
-7.480576
-2.522141
1.82885
5.26907
7.782715
9.489662
10.65482
11.43625
11.99409
12.36706
12.58135
12.62535
12.51263
12.23967
11.78826
11.17499
10.37996
9.445915
8.466442
7.547329
6.832455
6.336319
6.040653
5.899342
5.833908
5.843292
5.930008
6.08379
6.216221
6.195442
5.76046
4.795071
3.24926
1.230385
-1.048164
-3.386681
-5.591656
-7.613232
-9.449081
-11.25207
-13.16619
-15.36671
-17.92507
-20.90128
-24.13533
-27.32082
-29.99632
-31.53838
-31.40529
-29.2466
-25.09663
-19.33591
-12.6263
-5.801071
0.4378357
5.594582
9.439873
12.03703
13.55766
14.21112
14.23283
13.89624
13.36254
12.87327
12.55793
12.517
12.82441
13.43871
14.27546
15.16139
15.92091
16.28575
16.08715
15.20499
13.71425
11.85037
9.911049
8.213043
6.921402
6.062729
5.461044
4.895157
4.133331
3.032852
1.584435
-0.2354965
-2.380363
-4.759224
-7.345596
-10.00539
-12.61036
-15.09389
-17.51216
-19.96272
-22.54597
-25.11871
-27.21833
-28.16928
-27.27667
-24.14886
-18.90723
-12.24617
-5.10479
1.505066
6.888237
10.71134
13.01613
14.1171
14.26869
13.79554
12.84716
11.57589
10.11948
8.695808
7.53167
6.902199
7.017097
7.79306
9.023209
10.32378
11.36402
11.96307
12.15915
12.08652
11.86497
11.51869
10.92174
9.935822
8.458801
6.536484
4.364075
2.136185
-0.06604004
-2.292984
-4.64003
-7.209305
-9.945831
-12.82648
-15.78625
-18.69662
-21.50865
-24.16867
-26.52878
-28.22929
-28.84178
-27.93619
-25.30003
-21.06221
-15.59264
-9.498932
-3.430634
2.073044
6.759857
10.46059
13.18127
14.98795
15.94052
16.21443
15.98294
15.49609
14.90744
14.31972
13.72359
13.1781
12.79233
12.71384
13.04086
13.73077
14.59323
15.3062
15.5584
15.18324
14.23325
12.87282
11.22409
9.27774
6.928223
4.06369
0.7745361
-2.673096
-5.914047
-8.604446
-10.58508
-11.98323
-13.07062
-14.1216
-15.31352
-16.6333
-18.05766
-19.59145
-21.33969
-23.26064
-25.16577
-26.50568
-26.64537
-25.04932
-21.6055
-16.70256
-11.1438
-5.791946
-1.196564
2.48291
5.458755
8.067184
10.5192
12.7637
14.67021
16.04794
16.89407
17.30708
17.41693
17.40448
17.29121
17.11804
16.8257
16.43822
15.98834
15.57199
15.23582
14.97929
14.80479
14.62411
14.4202
14.11349
13.68694
13.11411
12.33397
11.27791
9.872086
8.071564
5.847534
3.248611
0.3172913
-2.803452
-5.916412
-8.879105
-11.55852
-13.92955
-16.08553
-18.23729
-20.59161
-23.27513
-26.21893
-29.06668
-31.31725
-32.31114
-31.46448
-28.48808
-23.50342
-17.08347
-10.11632
-3.541153
1.933182
5.917175
8.525208
10.13667
11.21744
12.18115
13.25223
14.42105
15.59492
16.64268
17.55043
18.34897
19.05502
19.62044
19.92305
19.81712
19.27876
18.41016
17.43082
16.6633
16.26344
16.18225
16.13455
15.79095
14.86963
13.37573
11.54999
9.6978
8.106003
6.806488
5.557281
4.01886
1.96936
-0.5975494
-3.433731
-6.100296
-8.290985
-9.888382
-10.99829
-11.96213
-13.11023
-14.77235
-17.09769
-20.13672
-23.69418
-27.37427
-30.52267
-32.38531
-32.22272
-29.67444
-24.92337
-18.53577
-11.42142
-4.495087
1.535919
6.302216
9.717651
11.94727
13.27966
13.98813
14.33398
14.50925
14.65399
14.81488
15.03323
15.34528
15.73154
16.19656
16.73981
17.32651
17.98114
18.76031
19.70636
20.76834
21.79294
22.46085
22.49188
21.71082
20.1723
18.05093
15.63388
13.23679
10.97464
8.866882
6.840149
4.817535
2.761688
0.7015076
-1.309814
-3.228241
-4.995392
-6.657562
-8.320038
-10.1196
-12.23141
-14.80679
-17.91431
-21.46664
-25.19388
-28.57068
-30.91159
-31.53278
-29.93607
-26.12471
-20.57295
-14.0775
-7.547119
-1.692154
3.100113
6.702759
9.253967
10.99306
12.05122
12.59888
12.78546
12.75133
12.67401
12.68863
12.96219
13.51993
14.37512
15.3261
16.16528
16.66321
16.56682
15.86951
14.62044
13.04924
11.35164
9.761139
8.322906
7.063568
5.910431
4.737015
3.516647
2.227158
0.8357239
-0.6506348
-2.251648
-4.000168
-5.860199
-7.751556
-9.543076
-11.13026
-12.56479
-14.06721
-15.95294
-18.52847
-21.75412
-25.19649
-28.00467
-29.23412
-28.16963
-24.69727
-19.29163
-12.81535
-6.298721
-0.5244751
4.059097
7.364197
9.526123
10.78192
11.3699
11.51357
11.42587
11.28513
11.25696
11.45396
11.89981
12.58296
13.46045
14.39711
15.24823
15.84935
16.07727
15.937
15.42252
14.52533
13.21027
11.47639
9.340729
6.950882
4.533508
2.324799
0.5428162
-0.8311157
-1.991318
-3.206436
-4.690063
-6.538849
-8.662857
-10.86771
-12.92853
-14.72234
-16.29758
-17.83177
-19.58893
-21.86945
-24.79808
-28.2648
-31.8613
-34.93198
-36.68085
-36.46416
-33.88617
-29.06995
-22.63257
-15.39983
-8.288269
-1.955307
3.197037
7.137955
10.0237
12.14798
13.74942
14.93759
15.82166
16.38353
16.66986
16.67776
16.49315
16.32394
16.36136
16.80528
17.72328
19.0056
20.3463
21.39648
21.80363
21.36494
20.08115
18.04543
15.46335
12.54565
9.561127
6.688278
4.198288
2.27713
0.892334
-0.1955719
-1.416107
-3.137054
-5.566818
-8.562057
-11.8735
-15.15631
-18.19287
-21.02573
-23.84109
-26.85033
-30.04633
-33.202
-35.92691
-37.72269
-38.17159
-36.92577
-33.85155
-29.05424
-22.88771
-15.86316
-8.630798
-1.818405
4.096863
8.787949
12.1671
14.34523
15.63385
16.34286
16.81622
17.3396
18.03787
18.98111
19.98181
20.83871
21.27742
21.25587
20.81183
20.16991
19.60718
19.31332
19.39705
19.73618
20.08922
20.1543
19.75058
18.81201
17.46419
15.89307
14.25148
12.55811
10.65205
8.344131
5.488983
2.091629
-1.70459
-5.604309
-9.370972
-12.83435
-15.85617
-18.47702
-20.74094
-22.77217
-24.75452
-26.90773
-29.32959
-31.92198
-34.3739
-36.01437
-36.18994
-34.35089
-30.3595
-24.54678
-17.62442
-10.37924
-3.518463
2.471664
7.403778
11.18146
13.86902
15.56926
16.48065
16.86992
17.04224
17.17056
17.31793
17.44067
17.3719
17.06624
16.57309
16.03041
15.66014
15.57214
15.74886
16.08351
16.46524
16.71921
16.72498
16.35246
15.47263
14.06958
12.22119
10.08839
7.918961
5.915268
4.174927
2.638916
1.138062
-0.4785614
-2.260239
-4.140457
-5.999481
-7.750198
-9.400223
-11.03513
-12.82472
-14.9335
-17.49541
-20.41046
-23.38623
-25.89156
-27.31808
-27.08128
-24.85889
-20.66371
-14.90802
-8.336151
-1.787308
3.947113
8.44635
11.57881
13.50471
14.50296
14.83438
14.72984
14.2563
13.47809
12.41817
11.26846
10.24399
9.511993
9.141113
9.068085
9.201904
9.415909
9.575745
9.613602
9.500198
9.234482
8.776215
8.101608
7.127579
5.814194
4.161514
2.22319
0.1250763
-1.951996
-3.824936
-5.423813
-6.742676
-7.917084
-9.11467
-10.53348
-12.34846
-14.60634
-17.34689
-20.44873
-23.70618
-26.64873
-28.77507
-29.44969
-28.16768
-24.81706
-19.55238
-13.06264
-6.218582
0.1372986
5.486023
9.594315
12.63512
14.84068
16.3085
17.07074
17.0755
16.29784
14.89276
13.20871
11.59749
10.40457
9.805008
9.806442
10.2829
11.12158
12.19292
13.36964
14.5051
15.39876
15.85013
15.68796
14.83968
13.40518
11.5415
9.421066
7.226944
4.960098
2.594589
0.09858704
-2.515091
-5.215591
-7.844894
-10.31093
-12.59013
-14.6963
-16.79356
-19.1234
-21.93216
-25.31458
-29.16536
-33.10176
-36.45761
-38.42848
-38.25996
-35.54254
-30.3485
-23.25339
-15.1458
-7.029037
0.2304382
6.097
10.411
13.31862
15.09102
16.00465
16.30531
16.2054
15.84683
15.43362
15.10022
14.99905
15.17577
15.56876
16.05972
16.62024
17.27396
18.05376
19.00862
19.96648
20.68837
20.80077
20.05859
18.41165
16.01131
13.19968
10.36168
7.84317
5.777267
4.19873
2.92041
1.737686
0.4691467
-1.090775
-2.991272
-5.174225
-7.466263
-9.700989
-11.72604
-13.46349
-14.98851
-16.42854
-18.0862
-20.1467
-22.60645
-25.19174
-27.34729
-28.37823
-27.71648
-25.15207
-20.8269
-15.37883
-9.504822
-3.949661
0.7350616
4.261383
6.576538
7.904388
8.521072
8.894653
9.334625
10.1066
11.27954
12.72888
14.27521
15.70132
16.96472
18.00455
18.87399
19.48117
19.71628
19.49707
18.8118
17.76367
16.50298
15.19792
13.87526
12.48434
10.94348
9.229187
7.458023
5.873589
4.7313
4.106064
3.916794
3.873055
3.649246
3.031784
1.861557
0.1663361
-1.953484
-4.365852
-6.978874
-9.648499
-12.3064
-14.84629
-17.1527
-19.25942
-21.2489
-23.18803
-25.11651
-26.85774
-28.02302
-28.15044
-26.80747
-23.79265
-19.30858
-13.86443
-8.165886
-2.911903
1.43573
4.73101
7.07045
8.728172
10.02978
11.13552
12.10096
12.91492
13.48629
13.77335
13.86558
13.80486
13.67906
13.54111
13.3271
12.92327
12.36042
11.7206
11.17167
10.92009
10.94391
11.13567
11.20879
10.92166
10.15227
9.082306
7.99025
7.168686
6.702583
6.402191
5.931549
4.977913
3.367462
1.22036
-1.176765
-3.542824
-5.605095
-7.27858
-8.579483
-9.612537
-10.45995
-11.36065
-12.55414
-14.32219
-16.90299
-20.19054
-23.69366
-26.59295
-27.97799
-27.04585
-23.56808
-17.88187
-10.90164
-3.753803
2.572655
7.52721
10.97931
13.13688
14.33156
14.83277
14.83601
14.4434
13.75261
12.93182
12.09165
11.31243
10.62527
9.970737
9.327646
8.724592
8.194893
7.734919
7.329802
6.851326
6.228752
5.433748
4.441437
3.291159
2.010883
0.6284151
-0.7396135
-1.977278
-2.977722
-3.622102
-3.922001
-3.998317
-4.002967
-4.132745
-4.521424
-5.18609
-6.095834
-7.176814
-8.406343
-9.849261
-11.63779
-13.84734
-16.50107
-19.39436
-22.10035
-24.04384
-24.62014
-23.40779
-20.35076
-15.81643
-10.48956
-5.18368
-0.5887585
2.886539
5.131798
6.327604
6.812267
6.881147
6.771437
6.620361
6.500952
6.532961
6.785234
7.312603
8.187948
9.465137
11.03835
12.78254
14.47827
15.91297
16.95334
17.47897
17.41252
16.69947
15.31096
13.19572
10.41646
7.095375
3.51862
0.03541183
-3.065853
-5.565056
-7.445637
-8.778652
-9.76421
-10.52328
-11.2533
-12.06895
-13.08324
-14.43279
-16.11211
-18.14079
-20.4739
-23.10452
-25.92323
-28.69491
-30.97598
-32.11532
-31.50878
-28.71385
-23.83548
-17.45397
-10.53942
-4.045254
1.350571
5.322975
7.93763
9.379787
9.959755
9.841282
9.218338
8.322853
7.490555
7.04071
7.138397
7.790161
8.75901
9.852562
10.83287
11.6283
12.28666
12.81924
13.18941
13.22722
12.8713
12.04033
10.86235
9.497223
8.158951
6.999958
5.960896
4.973789
3.839989
2.530636
0.9754562
-0.7372322
-2.508682
-4.242603
-5.829441
-7.302101
-8.629341
-9.895454
-11.12389
-12.47852
-14.07264
-15.99569
-18.3027
-20.79796
-23.10067
-24.55943
-24.59239
-22.82729
-19.32566
-14.62741
-9.511955
-4.853241
-1.158463
1.462326
3.270554
4.555817
5.442009
5.925507
5.788773
5.090981
4.057396
3.181
2.93766
3.538818
4.870003
6.530846
8.18071
9.511261
10.55335
11.41078
12.24506
13.04021
13.60107
13.68384
13.15327
12.06824
10.60162
9.086105
7.771858
6.806793
6.178062
5.682129
5.031326
4.003143
2.428299
0.2593536
-2.360054
-5.273018
-8.252853
-11.05271
-13.52663
-15.62341
-17.40122
-19.04979
-20.76055
-22.61514
-24.51589
-26.0635
-26.66859
-25.73322
-22.98341
-18.59673
-13.19655
-7.575623
-2.428642
1.815285
5.059166
7.41291
9.068291
10.23025
11.02861
11.56616
11.96653
12.3613
12.7774
13.17744
13.45316
13.45741
13.18488
12.6755
12.02025
11.28092
10.51589
9.748665
8.938423
8.144859
7.37458
6.721329
6.217293
5.899254
5.637985
5.334213
4.864418
4.130447
3.144814
1.918045
0.509079
-1.089661
-2.808289
-4.585396
-6.302322
-7.849327
-9.236694
-10.56395
-12.15017
-14.24757
-16.9279
-19.88876
-22.47106
-23.8997
-23.56024
-21.33165
-17.53979
-12.93443
-8.283142
-4.156204
-0.8567505
1.644562
3.535431
5.036011
6.315865
7.466431
8.46376
9.304802
9.974724
10.39256
10.5554
10.52607
10.35073
10.11133
9.840851
9.50103
9.029991
8.376205
7.504135
6.488033
5.503986
4.669827
4.098244
3.702339
3.31636
2.697571
1.737556
0.4400368
-1.017593
-2.414574
-3.589516
-4.532745
-5.426067
-6.552139
-8.177517
-10.39873
-13.12346
-16.12667
-19.09956
-21.65729
-23.36434
-23.79915
-22.6773
-19.92313
-15.82162
-10.91202
-5.83461
-1.238106
2.512581
5.329304
7.327679
8.745274
9.817352
10.65516
11.31025
11.73473
11.85406
11.65871
11.25473
10.83524
10.65919
10.84085
11.38516
12.16484
12.90427
13.42625
13.62617
13.48504
13.0281
12.24004
10.93956
9.017429
6.438099
3.295959
-0.07597351
-3.283401
-6.048431
-8.315655
-10.14167
-11.77214
-13.37261
-14.98683
-16.64748
-18.36178
-20.25227
-22.5002
-25.1777
-27.99437
-30.37802
-31.56163
-30.80927
-27.84353
-22.86617
-16.54034
-9.75869
-3.308472
2.298573
6.811073
10.20602
12.56446
13.97372
14.62251
14.76589
14.68317
14.6058
14.65425
14.76789
14.82228
14.67737
14.28389
13.76615
13.33889
13.23191
13.5229
14.16861
14.98008
15.72934
16.1841
16.12076
15.42375
14.00178
11.86219
9.063177
5.747215
2.113594
-1.552002
-4.902779
-7.73934
-9.928164
-11.56041
-12.8127
-13.90412
-15.07496
-16.49595
-18.30254
-20.53334
-23.15321
-25.86802
-28.16457
-29.31843
-28.63531
-25.7909
-20.92621
-14.75135
-8.191504
-2.17348
2.767045
6.534027
9.281672
11.31463
12.7929
13.84551
14.46174
14.73247
14.80354
14.7965
14.84211
14.89665
14.97144
15.01171
15.04039
15.01705
14.9502
14.80617
14.56194
14.26247
13.97408
13.78823
13.66568
13.50357
13.14881
12.51808
11.59784
10.45081
9.195143
7.865797
6.459105
4.873121
2.980323
0.7380223
-1.822704
-4.620419
-7.472456
-10.17865
-12.54416
-14.44811
-15.92289
-17.23544
-18.69871
-20.6175
-23.08226
-25.82149
-28.24174
-29.65372
-29.38197
-27.06518
-22.80231
-16.97538
-10.28783
-3.540796
2.517803
7.356591
10.66199
12.49328
13.14258
13.02259
12.60788
12.28639
12.22009
12.44325
12.90253
13.52019
14.23901
15.03463
15.86907
16.64167
17.27526
17.73466
18.03444
18.20614
18.25325
18.01475
17.25407
15.74122
13.39855
10.42478
7.252804
4.367334
2.087704
0.5151367
-0.5203609
-1.261221
-1.956315
-2.709693
-3.508251
-4.318831
-5.13037
-6.031654
-7.10255
-8.399895
-9.922734
-11.69832
-13.76105
-16.17861
-18.97888
-21.95499
-24.63619
-26.29272
-26.17474
-23.81784
-19.293
-13.25247
-6.64967
-0.4379034
4.734075
8.662063
11.427
13.2392
14.28679
14.68611
14.48073
13.8755
13.18868
12.76555
12.79685
13.28012
13.9621
14.54565
14.85478
14.84096
14.54793
14.08125
13.51657
12.78185
11.85528
10.6825
9.276196
7.77167
6.336274
5.048881
3.989195
3.097448
2.211516
1.23524
0.01814985
-1.451976
-3.133484
-4.885939
-6.649883
-8.3195
-9.874917
-11.31501
-12.70601
-14.20725
-15.97085
-18.07269
-20.35549
-22.41101
-23.66723
-23.56281
-21.80054
-18.39748
-13.73847
-8.464383
-3.219905
1.503826
5.527844
8.79805
11.4303
13.5475
15.29716
16.75826
17.91108
18.65888
18.97958
19.02102
18.93448
18.92138
19.01967
19.1239
19.02562
18.5447
17.59463
16.26107
14.7648
13.17871
11.55781
9.768366
7.724714
5.463211
3.127148
0.9317265
-0.9452438
-2.440928
-3.675085
-4.75004
-5.838202
-7.014614
-8.232899
-9.428061
-10.51168
-11.46785
-12.41549
-13.58282
-15.09288
-17.0913
-19.58698
-22.39268
-25.15967
-27.40078
-28.60888
-28.28733
-26.1878
-22.26115
-16.87023
-10.65089
-4.292465
1.482426
6.2411
9.748539
11.9995
13.14446
13.45039
13.16005
12.56171
11.91212
11.4193
11.24684
11.41928
11.9124
12.61168
13.34345
13.94815
14.35125
14.59641
14.79041
15.0122
15.22737
15.32258
15.01803
14.05317
12.32369
9.9953
7.395164
4.918251
2.784405
0.9669342
-0.7042046
-2.474304
-4.494591
-6.694309
-8.856117
-10.79866
-12.4122
-13.74042
-14.98851
-16.19415
-17.39796
-18.55551
-19.61246
-20.61102
-21.63336
-22.57658
-23.18146
-23.00011
-21.57293
-18.76039
-14.77729
-10.19164
-5.721611
-1.966705
0.8673019
2.825996
4.135384
5.033852
5.649872
6.06591
6.394356
6.755249
7.327034
8.298607
9.625763
11.14211
12.56058
13.59438
14.14193
14.31086
14.29182
14.32271
14.55277
14.8765
15.05573
14.87991
14.17478
12.92149
11.21698
9.182373
7.002922
4.868858
2.881393
1.10994
-0.4526672
-1.961639
-3.525795
-5.286514
-7.217445
-9.191994
-10.9949
-12.52316
-13.7061
-14.60396
-15.47431
-16.56369
-18.07207
-20.00837
-22.11396
-23.82283
-24.52756
-23.6978
-21.15115
-17.11341
-12.1036
-6.778427
-1.741402
2.569382
5.937592
8.264458
9.574524
9.976845
9.699196
9.073669
8.413994
7.926552
7.704544
7.704025
7.829346
7.982491
8.060631
8.00692
7.814842
7.496788
7.132553
6.885796
6.928047
7.350487
8.089569
8.981979
9.728394
10.11776
10.02221
9.454514
8.489716
7.158821
5.486877
3.433998
1.104446
-1.351944
-3.704933
-5.689758
-7.185173
-8.183105
-8.867455
-9.489029
-10.27466
-11.37637
-12.84885
-14.73576
-16.97096
-19.38025
-21.56318
-22.91206
-22.83453
-20.92843
-17.24659
-12.29304
-6.860168
-1.681313
2.659393
5.948135
8.238029
9.692802
10.47492
10.7578
10.67596
10.32762
9.807686
9.195213
8.504089
7.789558
7.151962
6.645317
6.300751
6.074951
5.867615
5.575287
5.219803
4.814514
4.475296
4.243423
4.068253
3.803101
3.318298
2.508041
1.37709
0.02210999
-1.47345
-2.968582
-4.402542
-5.778503
-7.145187
-8.535736
-10.00052
-11.53668
-13.21992
-15.15198
-17.383
-19.84036
-22.25949
-24.13472
-24.81364
-23.80795
-20.85242
-16.23807
-10.63306
-4.928101
0.0456543
3.801285
6.240051
7.549713
7.98587
7.891647
7.464569
6.861053
6.207382
5.65184
5.361038
5.42981
5.859177
6.488007
7.163071
7.685181
7.922134
7.867538
7.588379
7.147186
6.664917
6.19278
5.763382
5.351761
4.868607
4.19455
3.209053
1.890396
0.2975922
-1.390747
-3.017227
-4.441483
-5.645897
-6.693031
-7.676369
-8.663742
-9.648659
-10.71875
-11.97899
-13.66122
-15.9669
-18.88427
-22.08035
-24.97449
-26.85919
-27.12617
-25.54636
-22.20467
-17.58853
-12.33199
-7.042351
-2.213623
1.835152
4.923035
7.002945
8.128906
8.518616
8.434532
8.185944
8.035622
8.16394
8.599236
9.356949
10.34759
11.49607
12.71094
13.91776
14.95554
15.62073
15.64599
14.8457
13.18172
10.73222
7.806763
4.787064
2.020279
-0.2777634
-2.083084
-3.555107
-4.794998
-5.877213
-6.796715
-7.502266
-7.963387
-8.306366
-8.642761
-9.105019
-9.837616
-10.96147
-12.61744
-14.91853
-17.86846
-21.13309
-24.18362
-26.27046
-26.74921
-25.25137
-21.87663
-17.10927
-11.61395
-6.058472
-0.9821014
3.237152
6.398491
8.412056
9.384407
9.547249
9.231075
8.876526
8.800205
9.13073
9.752766
10.49801
11.14387
11.54766
11.73307
11.77786
11.81969
11.98441
12.34169
12.84401
13.42111
13.90696
14.15556
14.01964
13.39592
12.27856
10.64686
8.546642
6.051582
3.33812
0.5905762
-1.99279
-4.261879
-6.187084
-7.758831
-9.068403
-10.17684
-11.17197
-12.17853
-13.40505
-15.00656
-16.96034
-19.05536
-20.74196
-21.41218
-20.56153
-17.98805
-13.90374
-8.911936
-3.732262
0.9798031
4.795062
7.608944
9.548056
10.84317
11.74075
12.40222
12.87262
13.16398
13.27036
13.25127
13.25382
13.45222
13.97372
14.8587
15.98137
17.11107
18.00526
18.46872
18.43646
17.99324
17.20232
16.07627
14.64002
12.82447
10.64599
8.216719
5.685634
3.22358
1.018553
-0.8837767
-2.562406
-4.128689
-5.665915
-7.133439
-8.472254
-9.62683
-10.65458
-11.67576
-12.8603
-14.39872
-16.3154
-18.44655
-20.36432
-21.6015
-21.7196
-20.50326
-17.99213
-14.44611
-10.29552
-5.972996
-1.910736
1.63645
4.553165
6.788385
8.377161
9.416645
10.04784
10.36066
10.47667
10.39807
10.1291
9.768574
9.464052
9.336693
9.452042
9.772209
10.10392
10.30574
10.27121
9.965702
9.546524
9.153904
8.839622
8.580017
8.190254
7.451656
6.270866
4.635334
2.619877
0.4967651
-1.534363
-3.318405
-4.826935
-6.221806
-7.67157
-9.297989
-11.21014
-13.43393
-15.81316
-18.12911
-20.03349
-21.03702
-20.67141
-18.61844
-14.80483
-9.629452
-3.81612
1.831718
6.583347
10.01747
12.23725
13.47784
14.08722
14.3445
14.30311
13.95747
13.38794
12.71384
12.14228
11.92596
12.11077
12.60559
13.20623
13.69062
13.86643
13.63984
12.9652
11.86003
10.40571
8.756706
7.139706
5.798599
4.824856
4.143642
3.560658
2.843475
1.846603
0.5348511
-1.040222
-2.792412
-4.599022
-6.498951
-8.479992
-10.51713
-12.49668
-14.38244
-16.18829
-18.02238
-19.9505
-21.81034
-23.28156
-23.84871
-22.99527
-20.44001
-16.30438
-11.01322
-5.302158
0.1121368
4.758995
8.369259
10.87296
12.33928
12.90404
12.7355
12.09555
11.32396
10.6424
10.23418
10.19817
10.48206
11.01738
11.74329
12.58076
13.45709
14.32137
15.04576
15.61343
15.96498
16.12452
16.03107
15.64608
14.96938
14.0758
13.04366
11.92737
10.72829
9.311363
7.584045
5.429165
2.845272
-0.01063156
-2.868073
-5.455559
-7.651257
-9.429321
-10.90714
-12.28657
-13.70909
-15.32642
-17.25675
-19.5288
-21.99975
-24.41666
-26.24118
-26.84575
-25.72036
-22.65683
-17.89462
-12.04961
-5.960239
-0.2478065
4.644669
8.554039
11.52078
13.65042
15.01893
15.74984
16.01044
16.02921
16.10909
16.38137
16.86484
17.46765
17.99901
18.30766
18.30895
17.99625
17.36822
16.42461
15.14589
13.56728
11.81057
9.981789
8.205963
6.553738
5.056259
3.707005
2.613422
1.831257
1.350113
1.080311
0.734623
0.091465
-0.9409828
-2.346828
-3.946455
-5.565413
-7.115908
-8.666555
-10.29937
-12.14144
-14.23861
-16.60906
-19.27237
-22.08698
-24.75275
-26.74444
-27.52919
-26.59815
-23.76742
-19.22635
-13.50389
-7.314543
-1.318954
3.995661
8.334644
11.5032
13.48884
14.34056
14.2689
13.59463
12.65601
11.76416
11.09557
10.66235
10.33099
9.969793
9.466331
8.832556
8.127935
7.452472
6.89548
6.487493
6.221006
6.023446
5.796722
5.441665
4.870467
4.031758
2.882463
1.419393
-0.3264337
-2.200661
-4.005692
-5.541149
-6.676952
-7.455247
-7.962332
-8.402769
-8.960879
-9.890217
-11.31538
-13.37254
-16.06685
-19.16885
-22.25096
-24.61853
-25.6238
-24.75838
-22.01613
-17.65879
-12.35489
-6.873945
-1.8548
2.262484
5.235051
7.019916
7.758407
7.62363
6.948499
6.017131
5.040996
4.167371
3.431042
2.807415
2.251589
1.846433
1.757926
2.201374
3.277308
4.979975
7.136438
9.476723
11.72448
13.61585
14.98774
15.825
16.17031
16.12061
15.8019
15.27525
14.52436
13.45048
11.98316
9.981483
7.440312
4.498248
1.340264
-1.796606
-4.756115
-7.497334
-10.15378
-12.90412
-15.98852
-19.54281
-23.44253
-27.29977
-30.49916
-32.36425
-32.34408
-30.22467
-26.2094
-20.7978
-14.70496
-8.644861
-3.137327
1.505539
5.166327
7.906914
9.919649
11.39042
12.54981
13.4655
14.12751
14.41996
14.30902
13.75787
12.868
11.81574
10.69159
9.643303
8.655304
7.806843
7.106144
6.582348
6.144615
5.704674
5.117758
4.38876
3.667862
3.197309
3.23333
3.909712
5.003023
6.04966
6.577005
6.063046
4.343643
1.542646
-2.024836
-5.95532
-9.87709
-13.5903
-17.01052
-20.06465
-22.76271
-25.10596
-26.93422
-28.08027
-28.27076
-27.17364
-24.61668
-20.6007
-15.48116
-9.822531
-4.275587
0.6989174
4.774773
7.916218
10.1927
11.73938
12.72051
13.26349
13.45984
13.42518
13.2637
12.9525
12.54469
12.03892
11.46914
10.92484
10.41571
9.872093
9.213871
8.368227
7.282843
6.05044
4.831083
3.749426
2.893463
2.226847
1.625576
0.9336338
0.0605545
-0.9813156
-2.044161
-2.937002
-3.494535
-3.694857
-3.603256
-3.491474
-3.646435
-4.345203
-5.713968
-7.771233
-10.42616
-13.5502
-16.86096
-19.88902
-22.05884
-22.76373
-21.64937
-18.67389
-14.20898
-8.952686
-3.653816
1.096199
4.99861
7.996063
10.15775
11.57093
12.21259
12.06245
11.18592
9.740076
8.083504
6.499401
5.244682
4.382313
3.885798
3.598635
3.498697
3.550531
3.826799
4.33474
4.962782
5.512278
5.770184
5.545748
4.689646
3.227545
1.221161
-1.103216
-3.473564
-5.61211
-7.329315
-8.59923
-9.538862
-10.42353
-11.53077
-13.15159
-15.37575
-18.05193
-20.72566
-22.74546
-23.44251
-22.37106
-19.43855
-14.99414
-9.75369
-4.503468
0.1105795
3.698252
6.233901
7.846541
8.780216
9.286705
9.583475
9.769558
9.904464
10.05058
10.20503
10.45048
10.78861
11.25759
11.75335
12.23202
12.53958
12.4839
11.99812
11.06231
9.808548
8.333591
6.783217
5.186523
3.471457
1.543222
-0.6782548
-3.155744
-5.764915
-8.282714
-10.57342
-12.49721
-14.00084
-15.12042
-15.98607
-16.83138
-17.9505
-19.5741
-21.71386
-24.03711
-25.96296
-26.84543
-26.19652
-23.84793
-20.0817
-15.35925
-10.29689
-5.391504
-0.995863
2.671942
5.551561
7.668985
9.173065
10.15664
10.77894
11.18372
11.49529
11.72812
11.85308
11.8339
11.62648
11.26311
10.79581
10.33001
9.976864
9.826439
9.851105
9.936729
9.911522
9.641033
8.968723
7.846214
6.23209
4.112755
1.586998
-1.171894
-3.915951
-6.395813
-8.478722
-10.12146
-11.43726
-12.63906
-13.93095
-15.46666
-17.26646
-19.3334
-21.5672
-23.80329
-25.70646
-26.76779
-26.49753
-24.57813
-20.99046
-16.06552
-10.38809
-4.601608
0.8163071
5.564293
9.567253
12.84677
15.42343
17.30282
18.49154
19.07765
19.14398
18.84935
18.29919
17.54737
16.61395
15.62704
14.70446
13.9707
13.59278
13.56356
13.81358
14.13541
14.30656
14.12023
13.56695
12.7095
11.65779
10.53462
9.320175
7.956779
6.251915
4.083138
1.465393
-1.434212
-4.303177
-6.854774
-8.940186
-10.64895
-12.21177
-13.97942
-16.22543
-19.03262
-22.33452
-25.82049
-28.98969
-31.23738
-31.95251
-30.63477
-27.10669
-21.61769
-14.75188
-7.407379
-0.4453583
5.5242
10.22906
13.71304
16.25568
18.11584
19.49101
20.48373
21.11235
21.41034
21.43906
21.26305
20.88217
20.34987
19.71252
19.02658
18.42551
18.01163
17.83112
17.83928
17.89789
17.77541
17.32013
16.47185
15.23825
13.748
12.13254
10.44479
8.717529
6.88533
4.851349
2.625015
0.2666016
-2.150711
-4.493317
-6.736542
-8.942474
-11.15869
-13.50209
-16.11508
-18.9897
-22.1179
-25.28735
-28.01447
-29.66281
-29.6138
-27.38257
-22.9464
-16.72643
-9.46759
-2.167465
4.24913
9.156586
12.32884
13.88213
14.35406
14.25316
14.04803
14.02243
14.17421
14.43488
14.75954
15.10083
15.45515
15.86473
16.19879
16.27623
15.97285
15.15532
13.9026
12.42836
10.9985
9.867325
9.151077
8.771866
8.434708
7.870651
6.849945
5.35788
3.531036
1.582443
-0.3522491
-2.172089
-3.916046
-5.666245
-7.428711
-9.256744
-11.1951
-13.37193
-16.04901
-19.38087
-23.3233
-27.45445
-30.95418
-32.88551
-32.52133
-29.59058
-24.45724
-17.91492
-10.96216
-4.444031
1.267242
6.127716
10.27592
13.82208
16.73509
18.85934
20.13582
20.64554
20.64893
20.50961
20.4805
20.72572
21.19913
21.78873
22.35991
22.82129
23.0937
23.11722
22.82735
22.11423
20.93521
19.29147
17.27388
14.99965
12.64342
10.30418
8.039886
5.915985
3.870041
1.908463
-0.0329895
-2.059143
-4.269852
-6.640961
-9.106064
-11.50969
-13.65253
-15.52081
-17.23744
-19.05383
-21.21852
-23.78568
-26.53763
-28.98921
-30.49756
-30.46773
-28.57353
-24.81071
-19.55838
-13.44965
-7.132172
-1.247192
3.765762
7.697586
10.49846
12.2597
13.29878
13.93678
14.49365
15.23328
16.19107
17.26068
18.24759
19.0006
19.37447
19.41345
19.16664
18.67426
17.9986
17.20702
16.34972
15.47607
14.6447
13.83754
13.02344
12.14717
11.15208
10.04845
8.847366
7.615158
6.327255
4.962234
3.412857
1.578979
-0.6302338
-3.216583
-6.043091
-8.930557
-11.62001
-13.91302
-15.71219
-17.07527
-18.1091
-19.04144
-20.07019
-21.28638
-22.64561
-23.90274
-24.63503
-24.41682
-22.9187
-20.07584
-16.11026
-11.4644
-6.61927
-1.972031
2.236206
5.987602
9.345802
12.41689
15.22314
17.70311
19.66687
20.95821
21.45734
21.10405
19.97937
18.22948
16.12309
13.94537
11.94701
10.2319
8.877747
7.922554
7.358635
7.207275
7.417427
7.817551
8.167175
8.169907
7.70652
6.828362
5.785698
4.848099
4.197205
3.771637
3.297333
2.459587
1.097305
-0.6920929
-2.644432
-4.516403
-6.112297
-7.430656
-8.582802
-9.765671
-11.18121
-12.95199
-15.14247
-17.74706
-20.65134
-23.45121
-25.56857
-26.37067
-25.46114
-22.73444
-18.47099
-13.21132
-7.561951
-2.108337
2.764175
6.828728
9.993519
12.22348
13.6314
14.34818
14.56054
14.46018
14.17413
13.70919
13.04392
12.17629
11.2056
10.30215
9.616459
9.229492
9.132034
9.168381
9.08094
8.689304
7.941505
6.887234
5.628265
4.269983
2.885569
1.536234
0.2316952
-1.006596
-2.154631
-3.124811
-3.8839
-4.435835
-4.898058
-5.422518
-6.173489
-7.329006
-8.980828
-11.13811
-13.76828
-16.75689
-19.85621
-22.70647
-24.8056
-25.542
-24.48956
-21.48993
-16.82359
-11.18019
-5.428088
-0.3227312
3.679412
6.446979
8.189682
9.209936
9.742137
9.959779
9.889736
9.579083
9.136858
8.688892
8.344151
8.163826
8.121776
8.109021
8.041611
7.883272
7.643373
7.394352
7.120558
6.801428
6.418108
5.91983
5.264011
4.461357
3.464909
2.234991
0.7787857
-0.9488239
-2.896255
-4.980282
-7.104374
-9.181355
-11.14402
-13.02454
-14.92723
-16.9644
-19.35219
-22.17315
-25.38336
-28.68341
-31.55709
-33.35557
-33.46897
-31.53781
-27.54544
-21.95734
-15.48927
-9.025341
-3.286289
1.281738
4.645214
6.981781
8.607338
9.80368
10.68705
11.33614
11.80586
12.15426
12.46963
12.80628
13.12011
13.3113
13.2299
12.76736
11.9591
10.98127
9.992435
9.113647
8.262619
7.338768
6.207825
4.888283
3.447029
2.090553
0.9461136
-0.02737427
-0.9794388
-2.144703
-3.559856
-5.202644
-6.901478
-8.609428
-10.38557
-12.44162
-15.02452
-18.19117
-21.80036
-25.40199
-28.46273
-30.39212
-30.81339
-29.49662
-26.60966
-22.49092
-17.63795
-12.58052
-7.75906
-3.475887
0.1418381
3.120377
5.591473
7.600174
9.234482
10.52444
11.45486
11.98954
12.12928
11.9508
11.61788
11.2801
11.0615
10.92632
10.75613
10.3871
9.749767
8.907639
8.014393
7.197411
6.41312
5.500977
4.255569
2.543453
0.3947754
-1.925133
-4.143566
-6.050411
-7.587376
-8.908222
-10.18511
-11.57477
-13.20701
-15.17132
-17.44681
-20.04184
-22.81011
-25.4735
-27.59674
-28.59568
-27.97283
-25.41927
-21.034
-15.27684
-8.920895
-2.805628
2.432255
6.412682
9.192673
11.0138
12.26178
13.26891
14.26257
15.27642
16.23045
17.01305
17.41608
17.44147
17.07546
16.42834
15.62453
14.78525
13.87154
12.87558
11.77301
10.55558
9.369173
8.308102
7.46571
6.822693
6.277664
5.666173
4.880887
3.9515
2.919875
1.834535
0.678175
-0.6814632
-2.422469
-4.688887
-7.426318
-10.47524
-13.50905
-16.34245
-18.8994
-21.23702
-23.36346
-25.05452
-25.85938
-25.17843
-22.61296
-18.1476
-12.32685
-5.960477
0.03378868
5.03739
8.843472
11.61693
13.61475
15.02214
15.85164
15.94679
15.31241
14.07136
12.53594
11.02708
9.868378
9.16252
8.877552
8.951175
9.250973
9.747055
10.41222
11.16017
11.82598
12.20976
12.11107
11.43306
10.21458
8.52964
6.532146
4.31914
1.945663
-0.4459572
-2.720057
-4.665454
-6.084959
-6.934147
-7.483693
-8.068084
-9.150741
-11.04249
-13.67404
-16.79126
-19.9017
-22.45794
-23.8466
-23.67184
-21.6604
-17.91344
-12.86361
-7.167782
-1.580759
3.317383
7.178385
10.04685
12.06705
13.42286
14.14033
14.19789
13.56014
12.29341
10.67469
9.06978
7.789942
7.005424
6.712133
6.681782
6.709681
6.630341
6.375931
6.048731
5.817883
5.668531
5.536024
5.203167
4.452469
3.161882
1.371593
-0.7341785
-2.84487
-4.661774
-6.033508
-6.962601
-7.710087
-8.565689
-9.935101
-12.04391
-14.93914
-18.43587
-22.1073
-25.3756
-27.59904
-28.29804
-27.1563
-24.14693
-19.56259
-13.97092
-8.070679
-2.546509
2.11813
5.715244
8.228504
9.906605
11.09933
12.13403
13.27063
14.6459
16.22527
17.86827
19.41468
20.70192
21.70095
22.35151
22.65419
22.57179
22.04174
21.06322
19.70835
18.13195
16.54058
15.0695
13.77619
12.59241
11.45887
10.28566
9.026699
7.677238
6.202389
4.554977
2.663063
0.5134544
-1.876869
-4.337788
-6.741661
-8.95396
-10.94259
-12.78028
-14.66648
-16.82998
-19.41005
-22.46393
-25.76213
-28.88944
-31.18103
-31.93256
-30.52945
-26.71029
-20.75792
-13.41489
-5.661285
1.524441
7.526569
12.05653
15.22545
17.29774
18.51128
18.98424
18.77767
17.99371
16.76957
15.34312
14.01975
13.08184
12.7496
13.07207
13.89598
14.93873
15.92085
16.58635
16.88379
16.99116
17.0591
17.1613
17.22691
17.00273
16.24191
14.8595
12.89756
10.62686
8.456051
6.631184
5.259949
4.222065
3.321945
2.338585
1.202591
-0.05099487
-1.27216
-2.292549
-3.17173
-4.043026
-5.221802
-7.001442
-9.483986
-12.59396
-16.10221
-19.69212
-23.06229
-25.99854
-28.10771
-28.93857
-28.0849
-25.24456
-20.539
-14.5388
-8.085564
-2.017303
3.059826
7.032234
10.15007
12.64363
14.71419
16.31137
17.25833
17.41397
16.86287
15.88548
14.85203
14.12728
13.7927
13.80341
13.93151
13.9429
13.69675
13.20426
12.60661
12.04187
11.65076
11.45349
11.37766
11.2172
10.74469
9.810317
8.404183
6.690534
4.876029
3.217628
1.753227
0.4496634
-0.8717797
-2.364181
-4.038907
-5.798807
-7.506056
-9.048613
-10.38211
-11.61894
-12.8665
-14.23954
-15.86291
-17.77661
-19.9683
-22.29951
-24.40371
-25.73404
-25.74902
-24.05391
-20.51799
-15.47934
-9.560097
-3.511
1.945597
6.32497
9.463268
11.38568
12.33811
12.66758
12.68863
12.68606
12.857
13.30626
14.09703
15.20687
16.41255
17.45857
18.02667
17.96322
17.28098
16.10799
14.66261
13.05038
11.33841
9.459496
7.451851
5.407875
3.566685
2.136612
1.209377
0.7191429
0.4933968
0.4129295
0.3367081
0.2066002
-0.1190224
-0.7969055
-1.917191
-3.58736
-5.769165
-8.307144
-10.93449
-13.47481
-15.76074
-17.83184
-19.77898
-21.54823
-22.99947
-23.81704
-23.67402
-22.30396
-19.70553
-16.11358
-11.93018
-7.586121
-3.401634
0.4902039
4.027328
7.099701
9.619865
11.43426
12.47171
12.77521
12.48595
11.77748
10.86282
9.946404
9.077438
8.296989
7.621384
7.111267
6.768204
6.608963
6.590218
6.608894
6.655907
6.69416
6.673836
6.513878
6.091614
5.204781
3.750328
1.755974
-0.6594467
-3.214653
-5.725647
-8.013893
-10.0669
-11.88503
-13.51009
-14.99543
-16.39617
-17.84547
-19.33618
-20.84396
-22.009
-22.31522
-21.30356
-18.77742
-14.97198
-10.4617
-6.00798
-2.189438
0.6649323
2.647308
4.097412
5.329239
6.527206
7.677185
8.64534
9.26265
9.461136
9.220581
8.618591
7.805893
6.880783
6.010727
5.325439
4.947525
4.890427
5.144684
5.521057
5.813278
5.868423
5.588181
5.052399
4.372253
3.592422
2.641342
1.477646
0.02503967
-1.731888
-3.708801
-5.78299
-7.82283
-9.792252
-11.7106
-13.67351
-15.72763
-17.82431
-19.83229
-21.52209
-22.56281
-22.58247
-21.27403
-18.57837
-14.73795
-10.28079
-5.823395
-1.879501
1.281311
3.554123
5.051071
5.898972
6.224014
6.077728
5.590591
4.929047
4.304779
3.933731
3.875824
4.138474
4.62207
5.26976
5.976563
6.701355
7.40715
8.005478
8.460632
8.68689
8.642578
8.262146
7.559326
6.487625
5.045502
3.258392
1.196091
-0.9734039
-3.127731
-5.175949
-7.104263
-8.899429
-10.59613
-12.17253
-13.62627
-15.00545
-16.36598
-17.83934
-19.57086
-21.50505
-23.33556
-24.62019
-24.82596
-23.5202
-20.61354
-16.27391
-11.02708
-5.59491
-0.6522675
3.366333
6.259491
8.112839
9.221222
9.823013
10.21875
10.5462
10.79784
10.89746
10.7751
10.41197
9.927109
9.498459
9.230774
9.225708
9.454987
9.78685
10.06924
10.18289
10.07198
9.805939
9.3703
8.653366
7.544205
5.918716
3.753113
1.208038
-1.475403
-4.060257
-6.386627
-8.420074
-10.28923
-12.05595
-13.81123
-15.64406
-17.55998
-19.57991
-21.68044
-23.72008
-25.38109
-26.256
-25.85905
-23.90036
-20.41162
-15.77455
-10.66121
-5.764084
-1.660141
1.464951
3.713638
5.373703
6.805267
8.244766
9.729782
11.12732
12.34772
13.28539
14.03471
14.75444
15.61784
16.72
17.92439
18.95027
19.41216
19.12128
18.05139
16.40654
14.42371
12.23254
9.876755
7.256561
4.285873
0.9551849
-2.515625
-5.833466
-8.658829
-10.68759
-11.87695
-12.20023
-11.82829
-11.02359
-10.05675
-9.314575
-9.094269
-9.551697
-10.62834
-12.15654
-13.69789
-14.80824
-15.15292
-14.50655
-12.92807
-10.63927
-7.934372
-5.080338
-2.354355
0.1450653
2.378021
4.285416
5.898651
7.192566
8.186905
8.928802
9.464096
9.832062
10.15352
10.55389
11.02187
11.53456
11.77563
11.49892
10.50381
8.839844
6.78096
4.735046
3.048843
1.872849
1.1922
0.7354279
0.2399139
-0.4800873
-1.511963
-2.779312
-4.098907
-5.368973
-6.539276
-7.63089
-8.83728
-10.414
-12.49109
-15.04436
-17.8765
-20.56296
-22.58749
-23.44452
-22.73671
-20.3499
-16.46219
-11.52835
-6.175629
-1.003738
3.494736
7.007767
9.44902
10.88313
11.46013
11.39085
10.92445
10.24311
9.552155
9.003273
8.637375
8.533112
8.717171
9.10257
9.557205
9.896263
9.911697
9.544373
8.911438
8.170074
7.482574
6.962982
6.401924
5.559845
4.199982
2.237083
-0.1191483
-2.491013
-4.601845
-6.360573
-7.892372
-9.545357
-11.59933
-14.22767
-17.47975
-21.14391
-24.82288
-27.99645
-29.9712
-30.14476
-28.20975
-24.16706
-18.53977
-12.16194
-5.863678
-0.3082504
4.167542
7.622108
10.2788
12.34875
14.02747
15.36684
16.29176
16.84449
17.0306
16.92359
16.65672
16.29072
15.80559
15.15562
14.26489
13.06711
11.67141
10.23431
8.928764
7.998871
7.457161
7.220375
7.131447
6.897995
6.312935
5.280037
3.868599
2.173462
0.3862228
-1.424522
-3.249229
-5.083031
-7.02375
-9.091362
-11.29458
-13.57287
-15.94189
-18.40358
-20.94151
-23.41713
-25.41763
-26.36495
-25.63924
-22.89934
-18.26415
-12.29155
-5.909325
-0.009693146
4.733009
8.084854
10.08858
11.08531
11.43714
11.41371
11.25636
11.09712
11.02975
10.99255
10.96532
10.77659
10.42727
10.01517
9.695358
9.674114
10.0274
10.80924
11.82298
12.91614
13.87661
14.5753
15.01229
15.16211
15.01489
14.4542
13.41617
11.84346
9.766073
7.300594
4.588846
1.798985
-0.9487724
-3.56476
-6.034718
-8.299494
-10.34832
-12.13939
-13.68247
-15.08957
-16.53482
-18.3095
-20.53493
-23.15524
-25.6943
-27.49033
-27.80202
-26.14184
-22.48305
-17.29062
-11.43773
-5.748169
-0.8837938
2.906452
5.687313
7.740745
9.346422
10.68395
11.78105
12.64377
13.30518
13.86664
14.45383
15.14969
15.95082
16.76253
17.41812
17.76267
17.76162
17.42864
16.81654
16.00343
15.04148
13.93728
12.75805
11.53804
10.37212
9.415775
8.733337
8.284506
7.977758
7.621917
6.986842
5.92105
4.326689
2.281429
-0.05508041
-2.49007
-4.885535
-7.072807
-9.051494
-10.85768
-12.55844
-14.24978
-16.05254
-18.01665
-20.05833
-21.9133
-23.054
-22.995
-21.3302
-17.99207
-13.3133
-7.960305
-2.645011
2.009022
5.618999
8.116842
9.568898
10.26496
10.53765
10.63691
10.8229
11.1367
11.51938
11.8189
11.93589
11.87149
11.79681
11.8891
12.21415
12.77567
13.44415
14.09545
14.65093
15.14351
15.5762
15.86259
15.84085
15.26506
14.06447
12.39616
10.53308
8.796135
7.345192
6.073223
4.674549
2.944213
0.7561474
-1.706562
-4.170559
-6.391522
-8.184454
-9.601734
-10.82476
-12.16616
-13.80333
-15.94214
-18.57143
-21.48367
-24.20321
-26.05863
-26.45405
-25.00279
-21.77514
-17.16399
-11.88336
-6.614855
-1.885498
2.009546
5.067175
7.357784
9.015316
10.17467
10.91191
11.31176
11.53649
11.6546
11.70679
11.68322
11.48585
11.07547
10.55215
10.06923
9.802127
9.901969
10.30091
10.73835
10.912
10.62681
9.812774
8.654414
7.383078
6.182573
5.123699
4.212414
3.395793
2.692882
2.039813
1.396537
0.6051679
-0.5604
-2.242636
-4.515967
-7.296446
-10.42583
-13.74755
-17.23831
-20.83828
-24.41314
-27.56927
-29.70391
-30.18064
-28.61828
-25.04585
-19.88897
-13.89026
-7.813672
-2.283077
2.376593
6.033395
8.731449
10.51327
11.44967
11.6932
11.4886
11.12194
10.85773
10.85504
11.14991
11.66756
12.35128
13.08536
13.79546
14.40738
14.73241
14.63106
14.00265
12.86226
11.34126
9.701976
8.075227
6.55512
5.088612
3.590653
1.996096
0.2975829
-1.44979
-3.103079
-4.591862
-5.904596
-7.120672
-8.365974
-9.751232
-11.28395
-12.89521
-14.60741
-16.41373
-18.52049
-21.00672
-23.78402
-26.4481
-28.39738
-28.89493
-27.45285
-24.05239
-19.03254
-13.12459
-7.038587
-1.404653
3.427902
7.241898
10.08277
12.00229
13.11278
13.57014
13.56659
13.36858
13.21058
13.22047
13.38777
13.55905
13.51778
13.15709
12.52412
11.81173
11.18464
10.77642
10.46951
10.08441
9.426945
8.502756
7.480443
6.597202
5.921833
5.327641
4.565671
3.37098
1.639582
-0.5230436
-2.804472
-4.882482
-6.507026
-7.635135
-8.355526
-8.827336
-9.235495
-9.794191
-10.69561
-12.13292
-14.22689
-16.88585
-19.73338
-22.14431
-23.36375
-22.80106
-20.31324
-16.21588
-11.21427
-6.207276
-1.868223
1.442918
3.693927
5.141444
6.046303
6.695547
7.27204
7.872723
8.551238
9.338344
10.21655
11.10359
11.99087
12.80488
13.54454
14.14954
14.52842
14.60217
14.37496
13.90745
13.24125
12.48225
11.61776
10.63346
9.398666
7.860651
5.971819
3.878456
1.777437
-0.2310848
-2.056623
-3.757174
-5.377028
-6.998615
-8.634253
-10.23496
-11.72854
-13.01269
-14.09935
-15.13755
-16.3194
-17.77145
-19.43352
-21.02004
-22.0211
-21.96519
-20.48797
-17.5967
-13.64637
-9.12808
-4.594507
-0.3658123
3.348051
6.461073
8.896461
10.65723
11.6939
12.06188
11.94329
11.54891
11.18165
11.0564
11.29561
11.84593
12.59435
13.29871
13.76326
13.81811
13.31035
12.21264
10.60262
8.694931
6.764828
5.084904
3.840115
3.049957
2.541664
2.064405
1.388241
0.4549923
-0.7207947
-2.001598
-3.37591
-4.897039
-6.564741
-8.424931
-10.41348
-12.46095
-14.58437
-16.87505
-19.39032
-21.99184
-24.31034
-25.66234
-25.49096
-23.39207
-19.43805
-14.11748
-8.110737
-2.114582
3.336704
7.951939
11.6865
14.52531
16.59211
17.91776
18.52549
18.45998
17.75546
16.52326
14.93031
13.20918
11.53326
10.0513
8.731216
7.502605
6.364994
5.405804
4.853973
4.891953
5.556602
6.699661
7.936695
8.803513
8.9086
8.09362
6.388763
4.005383
1.179363
-1.90839
-5.083961
-8.245232
-11.29581
-14.18664
-16.84113
-19.24029
-21.39516
-23.44574
-25.45031
-27.28159
-28.58543
-28.80461
-27.41121
-24.17675
-19.30339
-13.34618
-7.162544
-1.501526
3.176487
6.724995
9.285675
11.105
12.30178
12.96906
13.18591
13.03254
12.72123
12.51409
12.66645
13.31456
14.42789
15.74615
16.93865
17.65212
17.69295
17.03975
15.77668
14.03371
11.931
9.57056
6.997601
4.336758
1.740726
-0.6539612
-2.742176
-4.585735
-6.312096
-8.006767
-9.656158
-11.25571
-12.77412
-14.21947
-15.67806
-17.25377
-19.05763
-21.08229
-23.28887
-25.55946
-27.73697
-29.50815
-30.41532
-29.89007
-27.59541
-23.50665
-17.98222
-11.71609
-5.48172
0.1233673
4.820801
8.581139
11.537
13.79124
15.40831
16.42181
16.92692
17.05233
16.97609
16.93971
17.04989
17.37921
17.93971
18.68759
19.48514
20.17381
20.67505
20.90402
20.86235
20.45738
19.59099
18.14325
16.06197
13.37536
10.20265
6.794739
3.368614
0.08397675
-3.055283
-6.047493
-8.906792
-11.56834
-13.96738
-16.09223
-17.94886
-19.67686
-21.35958
-23.12859
-25.05329
-27.13055
-29.26785
-31.13836
-32.21266
-31.83305
-29.48182
-25.00214
-18.78747
-11.69443
-4.717842
1.26445
5.85762
9.042755
11.10973
12.3223
12.95136
13.20745
13.29568
13.41828
13.71075
14.29283
15.09642
16.05785
17.03795
17.98493
18.89155
19.74062
20.48971
21.02188
21.236
20.9744
20.13512
18.65681
16.56414
13.90667
10.85759
7.67617
4.64502
1.946335
-0.4000397
-2.519028
-4.580978
-6.663559
-8.777542
-10.83406
-12.6676
-14.19347
-15.4957
-16.77559
-18.2729
-20.18413
-22.59099
-25.34108
-28.07762
-30.21349
-31.08893
-30.17494
-27.21657
-22.34995
-16.10841
-9.292068
-2.658112
3.202576
7.946411
11.4832
13.86911
15.25383
15.81149
15.71851
15.25015
14.6398
14.11581
13.76599
13.63718
13.7691
14.20395
14.968
15.98007
17.1375
18.18163
18.88712
19.03589
18.5527
17.51978
16.09714
14.45264
12.6162
10.60783
8.349182
5.888168
3.33696
0.8923798
-1.279678
-3.112946
-4.682724
-6.180756
-7.7155
-9.341675
-11.00212
-12.61899
-14.26088
-16.09071
-18.32997
-21.02773
-23.91437
-26.37991
-27.64037
-27.03967
-24.28172
-19.5665
-13.44312
-6.730042
-0.1536713
5.756927
10.68051
14.48547
17.19424
18.86603
19.61768
19.61948
18.98799
17.92128
16.64098
15.40132
14.45355
13.97543
14.00366
14.38023
14.84868
15.10217
14.92734
14.21898
12.99484
11.34126
9.352386
7.106705
4.704773
2.24736
-0.1172333
-2.22377
-4.021088
-5.623108
-7.187653
-8.876389
-10.82143
-12.94247
-15.16383
-17.40825
-19.66003
-22.04718
-24.6279
-27.30901
-29.71321
-31.24051
-31.15355
-28.93947
-24.44547
-17.99962
-10.3912
-2.582123
4.488464
10.13585
14.03058
16.28618
17.20772
17.25177
16.76773
15.97559
14.98438
13.8419
12.58743
11.33221
10.31995
9.69165
9.521362
9.725357
10.16173
10.73061
11.42531
12.25662
13.28865
14.42667
15.42844
15.9119
15.50502
14.01613
11.50517
8.273666
4.668884
1.082825
-2.340256
-5.562103
-8.613708
-11.54642
-14.41528
-17.31987
-20.38084
-23.80679
-27.64157
-31.68863
-35.39845
-37.9157
-38.37189
-36.22762
-31.47937
-24.71899
-16.94295
-9.206757
-2.363953
3.084854
7.116531
9.890213
11.77364
13.07761
14.11708
15.06485
15.99643
16.907
17.65334
18.20602
18.49908
18.54865
18.32562
17.86317
17.1721
16.31334
15.38718
14.48192
13.71558
13.02559
12.25121
11.12456
9.498016
7.356506
4.88327
2.335052
-0.08638
-2.306976
-4.458252
-6.710388
-9.18779
-11.86835
-14.59258
-17.25533
-19.823
-22.46718
-25.4157
-28.7662
-32.3038
-35.42256
-37.29955
-37.1554
-34.5811
-29.62741
-22.90524
-15.26514
-7.615173
-0.6212006
5.327667
10.16229
13.94896
16.80743
18.90274
20.34201
21.33339
22.00693
22.48949
22.79045
22.93181
22.87376
22.57579
22.03062
21.24841
20.34248
19.40189
18.53247
17.77771
17.10706
16.39224
15.5152
14.30066
12.69308
10.74316
8.623322
6.453827
4.320343
2.229309
0.1029663
-2.013672
-4.108429
-6.154114
-8.197113
-10.34656
-12.80289
-15.7171
-19.18436
-23.14035
-27.3446
-31.32254
-34.49072
-36.17755
-35.79895
-32.98688
-27.75366
-20.6073
-12.37219
-4.067841
3.384979
9.37973
13.7254
16.54144
18.2012
19.12204
19.6329
19.96289
20.24908
20.55759
20.91269
21.36829
21.87646
22.40732
22.82153
22.98599
22.80481
22.25024
21.37848
20.25473
18.96027
17.46478
15.75647
13.73215
11.37518
8.80542
6.26059
3.93219
1.944611
0.3274536
-1.12265
-2.538696
-4.066437
-5.704071
-7.356781
-8.908295
-10.36166
-11.84106
-13.62738
-16.00836
-19.03912
-22.51974
-25.89301
-28.41611
-29.45673
-28.62436
-25.85147
-21.52588
-16.24426
-10.62613
-5.247162
-0.4320679
3.657806
6.968445
9.556061
11.48096
12.87018
13.83701
14.57587
15.19168
15.76743
16.33423
16.91171
17.57391
18.30582
19.0979
19.80762
20.33072
20.48404
20.25641
19.70074
18.96344
18.21155
17.45459
16.56012
15.30582
13.56647
11.23483
8.426208
5.357697
2.232941
-0.7288208
-3.459808
-5.939545
-8.222473
-10.31012
-12.2179
-14.05234
-15.94713
-18.20575
-21.01244
-24.3475
-27.76979
-30.58232
-31.9257
-31.11136
-27.89525
-22.52467
-15.77325
-8.610153
-1.929474
3.704803
8.065231
11.21695
13.39041
14.76183
15.51521
15.70078
15.37799
14.70146
13.84937
13.05363
12.51416
12.31578
12.35857
12.51639
12.57468
12.43799
12.15413
11.77852
11.46786
11.30515
11.19963
10.89764
10.13959
8.688644
6.489471
3.729431
0.6546936
-2.432068
-5.315842
-7.948746
-10.39622
-12.69742
-14.91057
-17.07263
-19.17319
-21.24669
-23.29303
-25.12131
-26.35789
-26.44077
-24.83742
-21.32751
-16.18019
-10.02922
-3.779785
1.801376
6.241089
9.446701
11.6011
12.95004
13.72029
14.08557
14.19127
14.1716
14.1803
14.27414
14.48747
14.74547
15.02258
15.33531
15.71877
16.1508
16.52428
16.65158
16.29984
15.34718
13.76453
11.7112
9.379074
6.965897
4.565979
2.170563
-0.1889648
-2.435822
-4.461441
-6.145874
-7.462311
-8.461823
-9.319885
-10.25229
-11.44952
-13.07457
-15.1684
-17.69926
-20.59035
-23.65773
-26.53381
-28.69073
-29.42926
-28.17523
-24.64381
-19.07484
-12.12231
-4.816422
1.830414
7.07309
10.60928
12.60916
13.48206
13.71477
13.65013
13.48373
13.25117
12.9257
12.49249
12.02446
11.64642
11.49557
11.63666
12.00238
12.43433
12.70445
12.7094
12.45007
12.0614
11.6899
11.46071
11.31903
11.10229
10.58965
9.624847
8.165192
6.328812
4.298462
2.203857
0.08555603
-2.045334
-4.248978
-6.544769
-8.979156
-11.57813
-14.40996
-17.54733
-21.01631
-24.71454
-28.23643
-31.03924
-32.42337
-31.78679
-28.85002
-23.83829
-17.36614
-10.3135
-3.566223
2.253716
6.807747
10.05433
12.13527
13.25923
13.60202
13.41868
12.95689
12.5137
12.31166
12.47587
13.05362
13.97919
15.04458
16.04253
16.83103
17.27297
17.36543
17.11221
16.59575
15.92059
15.12161
14.06984
12.67721
10.84488
8.570015
5.985527
3.256851
0.5058365
-2.186676
-4.762711
-7.181931
-9.28614
-10.98649
-12.23824
-13.0614
-13.64412
-14.16958
-14.78916
-15.64197
-16.81677
-18.4177
-20.62091
-23.38002
-26.27996
-28.62828
-29.58662
-28.48949
-25.20605
-20.10915
-13.94091
-7.633961
-1.945389
2.777164
6.378983
8.951939
10.63976
11.55377
11.88668
11.88128
11.74864
11.69125
11.90753
12.35395
13.02135
13.73759
14.28706
14.49107
14.28859
13.68479
12.82356
11.88927
10.90515
9.963907
8.985773
7.916828
6.755196
5.575521
4.478889
3.553471
2.819695
2.15988
1.45025
0.5888186
-0.4597998
-1.619222
-2.780186
-3.874926
-4.921389
-6.009461
-7.393245
-9.233272
-11.64881
-14.612
-17.84712
-20.8917
-23.19526
-24.24433
-23.59841
-21.23245
-17.35042
-12.45871
-7.218449
-2.191505
2.190539
5.7645
8.511132
10.58187
12.01964
12.84488
13.05322
12.61681
11.66616
10.4456
9.228773
8.245138
7.592655
7.160038
6.728981
6.090117
5.087891
3.792316
2.325203
0.8330154
-0.5754013
-1.85294
-3.017651
-4.04771
-4.874981
-5.527836
-5.933769
-6.225067
-6.55027
-6.985985
-7.571278
-8.283119
-9.065247
-9.892365
-10.89636
-12.17286
-13.87172
-16.00705
-18.36679
-20.5442
-21.98088
-22.15751
-20.67136
-17.53868
-13.09763
-8.001598
-2.933964
1.508331
4.990078
7.495956
9.141693
10.22658
10.94687
11.44674
11.74579
11.82577
11.65669
11.16325
10.42429
9.479179
8.431526
7.309265
6.135147
4.94194
3.778961
2.825249
2.206429
2.063583
2.311012
2.82589
3.277023
3.359459
2.911255
1.866028
0.3461075
-1.477638
-3.473938
-5.625076
-7.889427
-10.27852
-12.7485
-15.14957
-17.38844
-19.42618
-21.28912
-22.98866
-24.44791
-25.34911
-25.19364
-23.54058
-20.15667
-15.27325
-9.593353
-4.003372
0.7165985
4.171921
6.384666
7.737633
8.682808
9.585342
10.50386
11.37575
12.07187
12.58732
12.96342
13.28658
13.58202
13.73924
13.71116
13.38676
12.79799
12.02659
11.19162
10.27999
9.30558
8.205383
6.90329
5.427841
3.823357
2.071289
0.1226044
-2.106461
-4.667656
-7.435982
-10.19751
-12.69265
-14.72765
-16.21452
-17.25705
-18.12914
-19.09967
-20.42934
-22.18872
-24.23848
-26.22818
-27.61341
-27.81605
-26.3934
-23.16581
-18.35424
-12.47596
-6.296783
-0.5286407
4.296379
7.91053
10.34583
11.79938
12.58709
12.96589
13.0917
13.00088
12.7131
12.25227
11.6524
11.02271
10.45293
10.0211
9.708847
9.40683
9.020012
8.520065
7.912453
7.322128
6.893127
6.691223
6.65921
6.668205
6.517731
6.072975
5.326569
4.358368
3.262733
2.142136
0.9603882
-0.4271317
-2.129829
-4.240845
-6.737923
-9.464035
-12.20193
-14.83176
-17.24464
-19.46754
-21.54267
-23.346
-24.6151
-24.98046
-24.02685
-21.51694
-17.59676
-12.67863
-7.406372
-2.435341
1.811974
5.15995
7.726959
9.775078
11.56271
13.17815
14.58288
15.60847
16.07125
15.9882
15.49265
14.85094
14.33663
14.12708
14.18602
14.40421
14.63213
14.6947
14.54337
14.1385
13.45018
12.43002
11.05179
9.301422
7.241325
4.900597
2.282272
-0.5824356
-3.691574
-6.939682
-10.11298
-12.93421
-15.08213
-16.3828
-16.89547
-16.94975
-16.97824
-17.48124
-18.76375
-20.86594
-23.5364
-26.20339
-28.18297
-28.73354
-27.37413
-23.90619
-18.61701
-12.16389
-5.441681
0.747551
5.842148
9.623344
12.17986
13.73251
14.52996
14.7786
14.65636
14.3011
13.8213
13.36192
13.00049
12.81772
12.82008
12.97989
13.17345
13.28615
13.22667
12.93417
12.4622
11.89101
11.30489
10.73269
10.15916
9.506744
8.686058
7.637993
6.286415
4.601334
2.563759
0.2165527
-2.357674
-5.012222
-7.609848
-10.03008
-12.22744
-14.20664
-16.03079
-17.76538
-19.47437
-21.05339
-22.29004
-22.88858
-22.49065
-20.85921
-17.93694
-13.84025
-8.97393
-3.92382
0.7961388
4.748135
7.72842
9.736759
10.92591
11.43262
11.47476
11.16378
10.54076
9.670979
8.699001
7.838211
7.335106
7.382946
7.88142
8.666279
9.479603
10.14197
10.56448
10.84065
11.04289
11.18175
11.08358
10.44275
9.039299
6.772591
3.785072
0.3556099
-3.143314
-6.412819
-9.212528
-11.44398
-13.19273
-14.6207
-15.92598
-17.31479
-18.86589
-20.62371
-22.50177
-24.21319
-25.28248
-25.19352
-23.50881
-20.01221
-14.9169
-8.713772
-2.199821
3.809032
8.693123
12.14921
14.17102
14.96896
14.88045
14.20135
13.16739
11.9588
10.73773
9.685604
9.018696
8.831444
9.16069
9.871658
10.64582
11.1492
11.1697
10.62685
9.670189
8.562309
7.51833
6.698006
6.103363
5.559422
4.837597
3.807575
2.317112
0.3573112
-1.94973
-4.468719
-6.999966
-9.319778
-11.33201
-13.05783
-14.57513
-16.14012
-18.00042
-20.24834
-22.81752
-25.32522
-27.19021
-27.80457
-26.68548
-23.68766
-19.07931
-13.52205
-7.756552
-2.54508
1.688055
4.865379
7.174253
8.936434
10.4379
11.82848
13.03895
13.97248
14.4754
14.56313
14.37029
14.11268
14.0179
14.21945
14.70609
15.28467
15.78962
16.03751
16.02187
15.80327
15.42027
14.915
14.25472
13.3811
12.18881
10.61661
8.583735
6.064003
3.132517
-0.152118
-3.604991
-6.987529
-10.08453
-12.79539
-15.05542
-16.93745
-18.60084
-20.19847
-21.85853
-23.6104
-25.31277
-26.62312
-27.07247
-26.13783
-23.48173
-19.17643
-13.62755
-7.528488
-1.711688
3.162159
6.75244
9.070299
10.38488
11.07488
11.50039
11.88827
12.42232
13.13697
14.08836
15.2496
16.59085
17.96687
19.16786
19.95343
20.1618
19.79348
18.94547
17.83884
16.67244
15.52091
14.35599
13.10685
11.7018
10.12842
8.471855
6.848839
5.34362
4.055859
2.948429
1.955015
0.9271851
-0.2875156
-1.822184
-3.6908
-5.820261
-8.158867
-10.59111
-13.18936
-15.97085
-19.03044
-22.35022
-25.82559
-29.21355
-32.07222
-33.83465
-33.86108
-31.69476
-27.20556
-20.75334
-13.11695
-5.244762
1.982611
7.947536
12.3965
15.33662
16.90015
17.35195
17.01245
16.25108
15.4523
14.93829
14.82843
15.05751
15.42806
15.71602
15.79856
15.69925
15.54849
15.5529
15.81876
16.31163
16.87074
17.29157
17.38997
17.05787
16.33864
15.25536
13.85332
12.15286
10.16494
7.928696
5.487587
2.870945
0.08272934
-2.869602
-5.963982
-9.198929
-12.46937
-15.63383
-18.47116
-20.85172
-22.7866
-24.37785
-25.83564
-27.26305
-28.55389
-29.30198
-28.93759
-26.9245
-23.07384
-17.63553
-11.29115
-4.843807
0.9429264
5.652349
9.236477
11.81023
13.69031
15.14483
16.3134
17.23291
17.86954
18.13955
17.99221
17.51605
16.80288
16.02954
15.35294
14.82613
14.45829
14.20023
13.99674
13.8254
13.67215
13.50282
13.19201
12.61341
11.70426
10.49201
9.125904
7.789846
6.634436
5.651423
4.696234
3.577845
2.101498
0.1502132
-2.200218
-4.758879
-7.369366
-9.871735
-12.26768
-14.73785
-17.43212
-20.34978
-23.33623
-25.90133
-27.44987
-27.47157
-25.63539
-22.04795
-17.10995
-11.44877
-5.678616
-0.4596004
3.720709
6.61472
8.157899
8.56598
8.231957
7.642026
7.233414
7.21318
7.636643
8.382282
9.403959
10.64583
12.129
13.81972
15.51141
16.93725
17.72489
17.65009
16.74068
15.22039
13.37646
11.52736
9.767052
8.045898
6.25434
4.260092
2.08189
-0.1601543
-2.301062
-4.266639
-5.975378
-7.500682
-8.970442
-10.51083
-12.25997
-14.34481
-16.88404
-19.9286
-23.35307
-26.69404
-29.24174
-30.24391
-29.07639
-25.58358
-20.19232
-13.71085
-7.149781
-1.353549
3.175563
6.276775
8.138916
9.133879
9.607655
9.861798
10.11619
10.46993
11.05401
11.85004
12.80432
13.85365
14.90477
15.75833
16.30564
16.47074
16.24648
15.74031
15.07116
14.37726
13.76117
13.23617
12.64189
11.88657
10.87
9.538353
7.957912
6.262091
4.529112
2.786989
0.9839439
-0.9643936
-3.03837
-5.190979
-7.33992
-9.395679
-11.24051
-12.80998
-13.99784
-14.745
-14.99626
-14.76595
-14.18237
-13.43169
-12.65707
-11.95825
-11.34404
-10.78164
-10.21153
-9.607136
-8.987194
-8.379738
-7.835285
-7.319016
-6.82753
-6.322811
-5.795742
-5.247459
-4.71254
-4.221947
-3.801815
-3.451855
-3.150925
-2.873188
-2.591442
-2.298649
-1.999115
-1.71138
-1.456131
-1.2421
-1.076347
-0.9406128
-0.8226395
-0.7038879
-0.580555
-0.4547348
-0.3367081
-0.2342033
-0.1548576
-0.09897232
-0.05854416
-0.02707291
0.003013611
0.03520584
0.06863022
0.09820557
0.1207428
0.1337585
0.1411552
0.1412811
0.1384392
0.1381226
0.1365166
0.1406937
0.1440239
0.1440506
0.1448784
0.1437378
0.1455498
0.1425934
0.1438904
0.1418343
0.144474
0.1428185
0.1421204
0.1422844
0.1405373
0.1417427
0.1391373
0.1393013
0.1368561
0.1389694
0.1371613
0.1381989
0.1384964
0.1378899
0.1368256
0.1354637
0.1351891
0.1317558
0.1329651
0.1318893
0.1311035
0.131424
0.1313286
0.1317444
0.1325378
0.1320305
0.1314926
0.1309967
0.1281471
0.1283722
0.1257706
0.1264801
0.1273384
0.1272583
0.1264153
0.1271553
0.1281738
0.1287918
0.1265144
0.124794
0.1246605
0.1249046
0.1234016
0.1197243
0.1229591
0.1219711
0.1229897
0.1230354
0.1240311
0.1214485
0.1200333
0.1218758
0.1178246
0.1173706
0.1188011
0.115612
0.1144257
0.1170292
0.1153297
0.114584
0.1181526
0.1157055
0.1171112
0.114687
0.1125011
0.1133938
0.1135597
0.1113052
0.1110592
0.1102829
0.1089325
0.1110001
0.1120396
0.1121941
0.1116276
0.1125813
0.1118183
0.1103992
0.1080017
0.1096802
0.1084023
0.10746
0.1054707
0.1057892
0.1059208
0.1052284
0.1044178
0.1070423
0.1062546
0.1060257
0.1072693
0.1065598
0.1046963
0.1039352
0.1022682
0.1023731
0.1011581
0.100256
0.09859657
0.09988594
0.0994854
0.1020947
0.1005096
0.1015301
0.1009998
0.1012497
0.1010876
0.1008644
0.09906769
0.09608459
0.09755707
0.09470367
0.09469604
0.09499741
0.09325027
0.09277153
0.0953064
0.09475899
0.09351158
0.0951252
0.09543037
0.09662819
0.09429932
0.09333611
0.09386063
0.09366608
0.09095764
0.09240341
0.08737183
0.08961678
0.09031868
0.08936691
0.08995628
0.09290123
0.09545326
0.09290504
0.09705162
0.09407425
0.09599304
0.09481239
0.09383774
0.09184837
0.09708977
0.09754944
0.09960747
0.1041031
0.1042881
0.1096134
0.1123085
0.1206093
0.1299438
0.1415482
0.1560993
0.1680069
0.1829414
0.1971207
0.2107296
0.2267075
0.2467461
0.2676945
0.2975922
0.3296452
0.3646755
0.398983
0.4276371
0.4596176
0.4863911
0.5097542
0.5380306
0.5653019
0.59828
0.6290874
0.6611443
0.6913109
0.735302
0.7805786
0.8372993
0.9149475
1.011311
1.116741
1.231482
1.351519
1.470961
1.599485
1.743746
1.902411
2.076136
2.261688
2.453573
2.646442
2.846004
3.02964
3.208292
3.364254
3.466049
3.515682
3.540668
3.612492
3.807302
4.179268
4.67201
5.200529
5.61721
5.806498
5.771811
5.57618
5.346458
5.135031
4.935268
4.676596
4.263559
3.627661
2.747307
1.624016
0.2820358
-1.205986
-2.79731
-4.424726
-6.056787
-7.676346
-9.323835
-11.08143
-13.03662
-15.336
-17.9501
-20.71454
-23.24753
-24.99369
-25.37453
-23.98989
-20.82663
-16.15212
-10.62137
-4.927839
0.3906708
4.95048
8.627895
11.41536
13.37796
14.53969
14.98748
14.8285
14.19194
13.28177
12.25809
11.24206
10.25505
9.334301
8.477547
7.732845
7.162006
6.810072
6.625818
6.502878
6.337221
6.029491
5.649714
5.339087
5.24106
5.406073
5.798248
6.200779
6.359032
6.086153
5.327528
4.115517
2.53359
0.6477413
-1.510326
-3.915203
-6.506542
-9.182156
-11.86603
-14.5423
-17.27592
-20.08767
-22.86359
-25.23231
-26.64758
-26.52548
-24.49778
-20.61485
-15.40907
-9.719715
-4.388584
-0.001853943
3.233246
5.436993
6.830547
7.665218
8.067898
8.110886
7.897263
7.580841
7.371403
7.427784
7.788563
8.38628
9.09103
9.782974
10.43554
11.0862
11.76743
12.43544
12.9953
13.28932
13.21641
12.69764
11.68587
10.23245
8.493073
6.622749
4.84066
3.326416
2.202095
1.452362
0.9125099
0.3041687
-0.6185188
-1.963306
-3.752277
-5.849422
-8.180771
-10.70619
-13.47433
-16.50563
-19.72029
-22.74803
-25.02684
-25.95343
-25.06618
-22.27165
-17.92037
-12.69348
-7.31097
-2.38377
1.748726
4.966892
7.372719
9.174976
10.53588
11.58002
12.30221
12.68247
12.76344
12.63658
12.44794
12.34748
12.42063
12.60415
12.79905
12.86558
12.72057
12.3832
11.91021
11.30445
10.50145
9.405594
7.879013
5.900959
3.498802
0.8004227
-2.018242
-4.782162
-7.295784
-9.45779
-11.21356
-12.63473
-13.85117
-15.09409
-16.58025
-18.41002
-20.5755
-22.76248
-24.5054
-25.21165
-24.37294
-21.74609
-17.47064
-12.08217
-6.300674
-0.8837738
3.700008
7.27977
9.90136
11.73465
12.97024
13.73172
14.11769
14.18535
13.95666
13.49566
12.85129
12.09928
11.33253
10.60558
9.983486
9.433311
8.872894
8.237816
7.489964
6.708893
6.025326
5.542191
5.17725
4.734478
3.89259
2.366604
0.1299896
-2.657719
-5.64629
-8.43338
-10.72738
-12.4053
-13.53824
-14.29211
-14.92345
-15.64571
-16.67483
-18.14872
-19.93983
-21.6957
-22.85172
-22.82024
-21.22216
-18.05915
-13.66496
-8.637363
-3.61953
0.9162407
4.681097
7.581495
9.627632
10.88691
11.53385
11.78584
11.86748
11.96492
12.21165
12.56121
12.94032
13.29096
13.54976
13.7494
13.86525
13.78053
13.34954
12.52945
11.36126
10.03511
8.839239
7.929468
7.364822
6.975941
6.517761
5.742548
4.531446
2.880497
0.8605461
-1.393328
-3.882076
-6.614685
-9.568007
-12.67815
-15.76538
-18.66079
-21.2442
-23.43154
-25.1492
-26.32021
-26.69513
-25.96082
-23.83471
-20.23719
-15.46827
-10.16919
-5.055157
-0.6901493
2.652317
5.12011
7.047445
8.785542
10.50647
12.17538
13.64044
14.76741
15.56365
16.0476
16.35112
16.43595
16.24605
15.71815
14.86426
13.75224
12.53432
11.32045
10.16967
9.185917
8.340202
7.643663
7.059076
6.556925
6.05929
5.48311
4.764009
3.861084
2.768852
1.521868
0.1379957
-1.346424
-2.878328
-4.4835
-6.188049
-8.084157
-10.34927
-13.14095
-16.49369
-20.25241
-23.98064
-27.09872
-28.93623
-28.94368
-26.85065
-22.76392
-17.16805
-10.72674
-4.175636
1.851838
6.904695
10.79426
13.57284
15.40663
16.44181
16.74053
16.39684
15.48622
14.1593
12.68899
11.32523
10.26194
9.556894
9.14048
8.889676
8.736767
8.652006
8.638009
8.708444
8.724793
8.476987
7.789557
6.589435
4.995517
3.203746
1.436596
-0.1891785
-1.562707
-2.685142
-3.611509
-4.431597
-5.258157
-6.280238
-7.743855
-9.856534
-12.72685
-16.10867
-19.58472
-22.49346
-24.15957
-24.07231
-22.07696
-18.43932
-13.68883
-8.493582
-3.381205
1.30004
5.410171
8.930546
11.78842
13.90583
15.16665
15.61774
15.42689
14.85849
14.15812
13.46531
12.77547
11.98068
11.00068
9.894531
8.821932
7.90471
7.266749
6.885546
6.668348
6.456908
6.011013
5.12943
3.713055
1.782644
-0.491528
-2.79592
-4.781816
-6.266015
-7.288044
-8.098213
-9.115088
-10.70104
-12.9995
-15.91302
-19.10341
-21.92821
-23.75363
-24.02231
-22.41284
-19.00775
-14.2513
-8.781334
-3.283242
1.678794
5.743325
8.733798
10.66446
11.65739
11.95008
11.74384
11.25634
10.6349
10.02976
9.512398
9.109189
8.909079
8.889548
9.00089
9.198305
9.479923
9.892553
10.47344
11.26551
12.09217
12.7243
12.74366
11.79728
9.719527
6.708889
3.229486
-0.2354627
-3.274124
-5.802388
-7.983112
-10.14866
-12.56249
-15.32044
-18.33825
-21.36264
-24.10519
-26.23016
-27.35349
-27.03249
-24.99041
-21.185
-15.92115
-9.885773
-3.866127
1.415955
5.535647
8.427594
10.33286
11.50904
12.15554
12.29877
11.93479
11.18278
10.2299
9.459432
9.163954
9.436597
10.16348
11.04571
11.74044
11.99992
11.83747
11.33143
10.63275
9.864809
9.005575
7.959908
6.643018
4.997711
3.030199
0.8379967
-1.492726
-3.848178
-6.100403
-8.149435
-9.859694
-11.1795
-12.11126
-12.84347
-13.5884
-14.61251
-15.90303
-17.20548
-18.04935
-17.85059
-16.23986
-13.18196
-9.030966
-4.360773
0.1297832
3.96719
6.921423
8.955428
10.2269
10.94269
11.31159
11.56637
11.8986
12.44587
13.21596
14.15723
15.15113
16.08934
16.85596
17.41592
17.77061
17.88013
17.71646
17.15176
16.16251
14.76917
13.14466
11.39698
9.637983
7.871379
6.048382
4.070982
1.867882
-0.5959378
-3.191738
-5.697629
-7.987473
-10.0367
-11.95977
-13.95179
-16.1584
-18.63129
-21.3368
-24.02372
-26.34934
-27.93943
-28.46293
-27.64856
-25.34482
-21.53401
-16.39631
-10.33131
-3.902447
2.286691
7.677288
11.88895
14.77453
16.35342
16.79619
16.31727
15.15668
13.54965
11.77022
10.19291
9.18091
8.980541
9.613849
10.9231
12.55768
14.14716
15.42593
16.24903
16.61581
16.60455
16.25315
15.48738
14.19185
12.25334
9.656006
6.564075
3.299306
0.1919708
-2.491003
-4.703093
-6.581701
-8.334467
-10.14459
-12.10082
-14.20602
-16.41898
-18.72072
-21.00963
-23.07413
-24.43793
-24.58542
-23.03162
-19.65592
-14.73195
-8.884285
-2.905661
2.536568
6.977795
10.26327
12.39149
13.47014
13.56439
12.85137
11.60134
10.15509
8.913315
8.143019
7.994333
8.375553
9.105202
9.905338
10.54514
10.8309
10.62185
9.947014
8.854294
7.466717
5.857681
4.0065
1.906361
-0.4539719
-2.979919
-5.490269
-7.686417
-9.382244
-10.46914
-11.02107
-11.28271
-11.53835
-12.12283
-13.27187
-15.1426
-17.52561
-19.99818
-21.84289
-22.28594
-20.80461
-17.32738
-12.30605
-6.5116
-0.8193512
4.174084
8.096012
10.98769
13.0159
14.33758
15.07113
15.28938
15.05372
14.48757
13.74636
12.90648
12.05747
11.15804
10.11941
8.881329
7.467445
5.943226
4.504524
3.30154
2.366211
1.644848
0.9069939
-0.1330795
-1.637234
-3.612148
-5.960567
-8.421665
-10.79052
-12.91449
-14.69022
-16.17036
-17.54161
-18.98159
-20.71169
-22.74011
-24.75209
-26.19992
-26.46135
-24.94617
-21.52769
-16.52345
-10.61159
-4.598568
0.8992424
5.563816
9.384201
12.37033
14.61274
16.07258
16.7162
16.51484
15.58405
14.17749
12.59434
11.11
9.817146
8.747597
7.752434
6.817684
6.001087
5.420364
5.250298
5.568497
6.278942
7.051758
7.49353
7.177498
5.95903
3.852257
1.104511
-1.98185
-5.052734
-7.82793
-10.23014
-12.31677
-14.24443
-16.22425
-18.43158
-20.88194
-23.45916
-25.82848
-27.54239
-28.1185
-27.17664
-24.59632
-20.52566
-15.40254
-9.80286
-4.268353
0.7907791
5.109924
8.583141
11.26152
13.1867
14.49962
15.3408
15.86282
16.16554
16.29517
16.20145
15.74408
14.85201
13.46924
11.64735
9.52124
7.419811
5.616463
4.287338
3.526783
3.191605
3.146885
3.11581
2.941032
2.435894
1.574219
0.4343262
-0.8530998
-2.022049
-2.969608
-3.628262
-4.210648
-4.978634
-6.208344
-8.143181
-10.81591
-14.15232
-17.83736
-21.46046
-24.38274
-26.02379
-25.86353
-23.66774
-19.6296
-14.32446
-8.543335
-2.935936
1.99976
6.15995
9.605091
12.42801
14.73943
16.3954
17.36263
17.54187
17.10653
16.26387
15.26493
14.29175
13.34718
12.47956
11.57468
10.68905
9.861656
9.230198
8.852226
8.663568
8.553429
8.30534
7.810829
6.938004
5.696907
4.110338
2.278267
0.2621174
-1.828115
-3.883471
-5.849352
-7.671049
-9.476793
-11.34567
-13.4449
-15.86872
-18.59448
-21.52323
-24.24769
-26.25934
-26.96511
-25.89235
-22.84251
-18.06338
-12.19885
-6.025723
-0.3331451
4.478992
8.293612
11.2502
13.6246
15.56941
17.11945
18.12565
18.4754
18.07399
17.04057
15.58014
13.98639
12.55408
11.43632
10.67366
10.20014
9.995136
10.02785
10.36391
10.99773
11.82101
12.62508
13.04337
12.73291
11.5216
9.377565
6.457197
3.064632
-0.4650993
-3.861582
-6.835594
-9.356039
-11.46759
-13.24773
-14.87366
-16.47314
-18.13289
-19.85708
-21.56401
-22.9349
-23.63425
-23.21493
-21.29706
-17.84572
-13.13482
-7.712009
-2.235559
2.714779
6.839838
10.00671
12.22367
13.61036
14.26921
14.36214
14.08169
13.59203
13.07087
12.62068
12.26619
11.99427
11.74084
11.45154
11.10869
10.66225
10.11654
9.502469
8.845448
8.114519
7.216631
5.985117
4.22382
1.923668
-0.8605881
-3.892002
-6.910028
-9.665813
-12.02099
-13.91973
-15.44095
-16.72416
-17.96682
-19.34154
-20.90041
-22.52832
-23.81128
-24.19588
-23.16062
-20.45003
-16.09542
-10.59598
-4.590003
1.201105
6.133784
9.867323
12.31913
13.64256
14.08993
14.02902
13.7008
13.22427
12.59773
11.72114
10.57134
9.264532
8.020895
7.058208
6.442069
6.068935
5.785764
5.511054
5.233322
5.034981
4.973288
4.964756
4.847755
4.30936
3.182333
1.47167
-0.5190396
-2.493179
-4.237806
-5.755039
-7.28143
-9.077973
-11.40772
-14.34933
-17.83417
-21.5345
-24.98439
-27.56908
-28.63369
-27.66685
-24.4576
-19.34645
-13.04595
-6.583263
-0.8448927
3.68465
6.963893
9.268282
10.93846
12.21808
13.11051
13.60818
13.68406
13.41595
12.99954
12.60506
12.382
12.34452
12.41491
12.45359
12.34552
12.01887
11.51186
10.95226
10.4576
10.11691
9.94696
9.755501
9.337172
8.463208
6.976655
4.849994
2.224
-0.7464066
-3.814287
-6.753809
-9.374411
-11.60578
-13.44244
-15.08038
-16.77633
-18.73182
-21.07759
-23.66844
-26.11549
-27.81238
-28.12523
-26.58462
-23.11826
-18.02179
-11.95755
-5.706514
0.06120682
4.914181
8.691999
11.4619
13.34643
14.44526
14.9095
14.88725
14.54622
14.11534
13.71322
13.40079
13.13913
12.85708
12.48424
12.0271
11.52505
10.97832
10.42956
9.860035
9.317886
8.830181
8.435528
8.0858
7.684734
7.069771
6.114532
4.753082
3.020985
1.079151
-0.9808502
-3.132149
-5.440598
-7.949238
-10.70064
-13.59612
-16.53816
-19.39074
-22.0968
-24.60138
-26.66889
-27.93204
-27.82728
-25.90736
-22.02211
-16.47877
-10.01952
-3.569542
2.115555
6.647411
10.04456
12.57578
14.51765
16.00523
17.03019
17.49861
17.43562
16.97845
16.4189
15.9834
15.79367
15.77282
15.7413
15.53975
15.07532
14.45786
13.81113
13.3142
12.93928
12.60062
12.1288
11.33275
10.13649
8.477108
6.364922
3.865875
1.130203
-1.707264
-4.441261
-6.922569
-9.067352
-10.8564
-12.39472
-13.87684
-15.55369
-17.66418
-20.31263
-23.29906
-26.13976
-28.11009
-28.4925
-26.75337
-22.87479
-17.23496
-10.614
-3.863323
2.243252
7.255177
11.00447
13.56557
15.20679
16.18104
16.73702
17.01025
17.05093
16.90061
16.58379
16.13364
15.57929
14.93535
14.12461
13.07069
11.64828
9.88504
7.999794
6.267761
5.025192
4.432602
4.35833
4.445747
4.242973
3.374123
1.778404
-0.2716675
-2.495911
-4.65979
-6.713997
-8.716049
-10.82806
-13.0789
-15.4231
-17.82082
-20.14733
-22.33402
-24.16319
-25.2615
-25.06541
-23.13156
-19.268
-13.68623
-7.054581
-0.2030563
6.080833
11.31803
15.30377
18.05253
19.62395
20.04872
19.40337
17.7956
15.54235
12.98418
10.5376
8.448425
6.796829
5.541451
4.59964
3.971069
3.638977
3.699631
4.118896
4.826172
5.614395
6.160744
6.16153
5.353531
3.674835
1.214523
-1.680618
-4.59259
-7.142456
-9.159805
-10.69703
-11.93967
-13.17454
-14.65839
-16.55548
-18.86991
-21.40417
-23.73199
-25.16671
-25.05727
-22.83533
-18.45371
-12.31323
-5.291595
1.613152
7.523643
11.85458
14.52261
15.70905
15.88111
15.36459
14.50327
13.4581
12.2972
11.07089
9.852608
8.772789
7.911621
7.376305
7.087204
6.968536
6.961449
7.076614
7.441154
8.135368
9.120827
10.16407
10.88599
10.91051
10.02415
8.194283
5.552422
2.402771
-1.023132
-4.48101
-7.802147
-10.91566
-13.79526
-16.422
-18.90288
-21.43082
-24.10174
-26.95529
-29.67175
-31.64999
-32.1599
-30.55585
-26.60612
-20.5998
-13.3431
-5.869759
0.8572617
6.27375
10.20733
12.82033
14.51955
15.59388
16.2265
16.50767
16.40623
15.89274
15.08105
14.11917
13.21127
12.5331
12.14265
11.93308
11.7851
11.57888
11.2653
10.90055
10.62349
10.48997
10.49445
10.48392
10.26307
9.652184
8.600945
7.176064
5.469612
3.559624
1.420128
-1.002899
-3.827461
-7.025398
-10.51629
-14.16694
-17.83284
-21.51382
-25.2346
-28.95977
-32.3935
-35.01511
-36.04424
-34.86317
-31.18008
-25.20408
-17.65174
-9.500481
-1.733002
4.891609
9.967789
13.47958
15.59711
16.77647
17.49129
18.08521
18.71946
19.29998
19.64452
19.64036
19.34952
18.88282
18.43698
18.09702
17.81966
17.47582
16.98832
16.32858
15.60089
14.89358
14.2069
13.44015
12.54527
11.44414
10.19204
8.872559
7.514328
6.080826
4.471161
2.554794
0.2267227
-2.47863
-5.501228
-8.624283
-11.66766
-14.50693
-17.08755
-19.43616
-21.64828
-23.74696
-25.62013
-27.03025
-27.47589
-26.53515
-23.98414
-19.92614
-14.71461
-9.044441
-3.569168
1.181282
4.862419
7.538185
9.344841
10.54817
11.37396
12.01518
12.54842
12.98466
13.36359
13.64009
13.91759
14.20606
14.53142
14.85432
15.11922
15.23062
15.18949
15.09008
14.99035
14.97496
14.90506
14.53257
13.56186
11.7921
9.230461
6.090599
2.69783
-0.7102966
-3.943947
-6.994888
-9.858635
-12.5079
-14.92811
-17.08815
-19.04308
-20.92426
-22.82947
-24.6424
-26.06217
-26.65195
-25.90202
-23.55428
-19.5998
-14.3309
-8.340729
-2.294823
3.265747
7.971359
11.63563
14.31818
16.04659
16.88911
16.91924
16.25326
15.10799
13.77045
12.54488
11.59138
10.93371
10.43243
9.994514
9.597198
9.345001
9.322952
9.524612
9.749901
9.685104
8.995003
7.431999
5.028885
1.991707
-1.367676
-4.719513
-7.720222
-10.25311
-12.2392
-13.79475
-15.17713
-16.7172
-18.74558
-21.4214
-24.52867
-27.46738
-29.48472
-29.80018
-27.93931
-23.86266
-18.01978
-11.18526
-4.306252
1.882813
6.847366
10.41559
12.73601
14.14375
15.01154
15.60361
16.00718
16.19482
16.21498
16.07383
15.90338
15.84393
15.98661
16.14658
16.08234
15.54122
14.38816
12.80992
11.1082
9.594833
8.379295
7.324486
6.07412
4.362381
2.101387
-0.596077
-3.360443
-5.930557
-8.197357
-10.25526
-12.39754
-14.85046
-17.69838
-20.89433
-24.32715
-27.78934
-31.05608
-33.68688
-35.11154
-34.70041
-31.96809
-26.83031
-19.77544
-11.76488
-3.864807
2.993744
8.400322
12.4064
15.27162
17.31762
18.70367
19.41482
19.42452
18.77951
17.63173
16.24698
14.93832
13.84142
13.04953
12.52328
12.18877
11.97142
11.83395
11.74553
11.64487
11.49834
11.20906
10.62918
9.597137
7.955872
5.60849
2.594193
-0.8561401
-4.382019
-7.640747
-10.32797
-12.32701
-13.71506
-14.64761
-15.37376
-16.20261
-17.46434
-19.39247
-22.06807
-25.16536
-28.00618
-29.72154
-29.48357
-26.87772
-22.08699
-15.83998
-9.121201
-2.855484
2.410492
6.493332
9.558838
11.85379
13.5864
14.90215
15.85715
16.52698
17.00937
17.44008
17.8642
18.27132
18.54408
18.47676
17.96217
17.01266
15.74115
14.33974
13.01419
11.89964
11.07883
10.56616
10.29803
10.16299
10.0399
9.748734
9.111191
8.02356
6.461029
4.461349
2.136627
-0.4695587
-3.302078
-6.339676
-9.581406
-13.00371
-16.56303
-20.24054
-24.01122
-27.72314
-31.10579
-33.57787
-34.47292
-33.17908
-29.38914
-23.2623
-15.50208
-7.182068
0.6352081
7.101501
11.88057
14.9798
16.71443
17.43051
17.49615
17.15689
16.537
15.73943
14.81497
13.90854
13.13872
12.65265
12.59029
13.02316
13.87341
14.96437
15.96922
16.58032
16.62883
16.13544
15.2869
14.3642
13.48457
12.60641
11.51503
9.952896
7.695282
4.742508
1.331665
-2.2034
-5.5354
-8.506485
-11.10683
-13.46608
-15.65935
-17.7836
-19.81573
-21.6792
-23.26382
-24.40825
-24.87733
-24.31638
-22.43414
-19.0553
-14.33487
-8.696426
-2.839218
2.568054
7.073242
10.56902
13.24315
15.29825
16.92256
18.04863
18.62323
18.56148
17.93948
16.95322
15.85927
14.84373
13.92682
13.11467
12.22987
11.28267
10.29852
9.411621
8.747559
8.276245
7.918961
7.427063
6.689377
5.464188
3.678131
1.314102
-1.478455
-4.475471
-7.445854
-10.11282
-12.37231
-14.23073
-15.9255
-17.72319
-19.85013
-22.33363
-24.9238
-27.18512
-28.54789
-28.5626
-26.88223
-23.47723
-18.52511
-12.5204
-6.18084
-0.1942825
4.840378
8.675514
11.27029
12.8251
13.57719
13.72053
13.4174
12.73622
11.85529
11.00739
10.461
10.41278
10.92631
11.88603
12.95174
13.85973
14.3457
14.37479
14.03194
13.53648
13.03925
12.61288
12.12714
11.36859
10.19509
8.476402
6.295876
3.718216
0.9567719
-1.844933
-4.538803
-7.096397
-9.539757
-11.94158
-14.49239
-17.29402
-20.48433
-24.04597
-27.76864
-31.19212
-33.66409
-34.42699
-32.92748
-29.04013
-23.06445
-15.82424
-8.367058
-1.604637
3.871384
7.921104
10.71956
12.57735
13.78706
14.64291
15.30083
15.89339
16.53264
17.25098
18.04832
18.80708
19.39363
19.7005
19.69918
19.29616
18.4869
17.32861
15.89942
14.34463
12.80182
11.29477
9.822052
8.296173
6.569183
4.5952
2.380341
-0.001167297
-2.414474
-4.659004
-6.599953
-8.153175
-9.361526
-10.38107
-11.48063
-12.93185
-14.92863
-17.49986
-20.43238
-23.4062
-25.90874
-27.38866
-27.35624
-25.49606
-21.85363
-16.7989
-10.95609
-5.050652
0.2428131
4.577293
7.889404
10.32329
12.13594
13.53203
14.62183
15.45057
15.99257
16.17159
15.9664
15.41741
14.65511
13.83774
13.13712
12.67059
12.48114
12.5798
12.89803
13.33323
13.72026
13.91905
13.81854
13.30535
12.3895
11.08858
9.409901
7.294182
4.709667
1.659393
-1.69202
-4.990852
-7.958893
-10.38947
-12.26394
-13.80307
-15.33556
-17.09452
-19.19559
-21.55413
-23.79754
-25.5023
-26.16528
-25.38884
-23.03646
-19.27329
-14.55305
-9.517025
-4.854668
-0.9978485
1.84227
3.784851
5.061691
5.900749
6.56842
7.134476
7.706711
8.326145
9.113312
10.12115
11.36496
12.75937
14.04669
15.03454
15.56491
15.60769
15.27822
14.78545
14.24199
13.65954
12.95506
11.90774
10.40132
8.377533
5.863291
3.021559
0.06161499
-2.872923
-5.626209
-8.046749
-10.09082
-11.74317
-13.17051
-14.60314
-16.2153
-18.09219
-20.14254
-22.07995
-23.43224
-23.77677
-22.77646
-20.3774
-16.75929
-12.25632
-7.324701
-2.393734
2.191621
6.153961
9.293831
11.48613
12.72684
13.10999
12.84228
12.16034
11.26965
10.43571
9.781141
9.324696
9.017577
8.736476
8.293906
7.588028
6.613727
5.516997
4.542636
3.861562
3.416836
3.031496
2.471002
1.524493
0.1936884
-1.397634
-3.045196
-4.609791
-6.066337
-7.475498
-8.925093
-10.48445
-12.23341
-14.27446
-16.64977
-19.28
-21.88196
-24.00261
-25.11062
-24.74131
-22.73505
-19.20245
-14.54044
-9.281578
-3.985586
0.9027081
5.053778
8.298864
10.56991
11.90521
12.37576
12.15216
11.44924
10.49527
9.558359
8.857254
8.533598
8.51873
8.669273
8.714174
8.45439
7.829348
6.919813
5.896643
4.95929
4.247498
3.669979
3.070578
2.187155
0.8336201
-0.9697418
-3.079979
-5.22999
-7.158886
-8.69231
-9.874329
-10.875
-11.96418
-13.3779
-15.22372
-17.47662
-19.94915
-22.30385
-24.13369
-24.99088
-24.48336
-22.39553
-18.73993
-13.82308
-8.234962
-2.648582
2.3311
6.311069
9.143394
10.9309
11.87943
12.24147
12.29978
12.22509
12.16279
12.19712
12.33464
12.52811
12.64518
12.56297
12.18431
11.57622
10.86977
10.22864
9.774288
9.513363
9.273417
8.778488
7.722198
5.96727
3.537407
0.6502533
-2.440517
-5.496349
-8.287958
-10.70861
-12.62948
-14.02299
-15.01467
-15.86855
-16.96973
-18.62114
-20.87719
-23.39418
-25.5416
-26.54812
-25.74673
-22.96758
-18.51244
-13.04797
-7.416359
-2.388348
1.578995
4.36738
6.142399
7.268351
8.056204
8.739891
9.412893
10.09891
10.78905
11.47409
12.17046
12.89146
13.60902
14.19797
14.57414
14.65131
14.42275
14.01947
13.55049
13.11239
12.76908
12.45203
12.02789
11.40744
10.4682
9.10182
7.337233
5.313446
3.231239
1.306484
-0.2987194
-1.605526
-2.754536
-4.014513
-5.72217
-8.095671
-11.19953
-14.94629
-19.0727
-23.15801
-26.60563
-28.72916
-29.00055
-27.1685
-23.35534
-18.05446
-12.02686
-6.029964
-0.7161999
3.550142
6.659727
8.652946
9.733259
10.22117
10.50948
10.88594
11.54679
12.49251
13.61917
14.79427
15.92875
16.97587
17.82497
18.34734
18.31231
17.631
16.32609
14.58217
12.6619
10.80156
9.016864
7.149313
4.970245
2.318741
-0.7146425
-3.889418
-6.865075
-9.30345
-11.01271
-11.97567
-12.31953
-12.35685
-12.45348
-12.96158
-14.19943
-16.26794
-18.90114
-21.54875
-23.44575
-23.88163
-22.45968
-19.22863
-14.60155
-9.215821
-3.794312
1.224526
5.541204
9.035172
11.69123
13.46733
14.40923
14.62733
14.3731
13.91683
13.56461
13.44136
13.52654
13.62079
13.42655
12.82286
11.8332
10.71872
9.808576
9.333722
9.247245
9.353748
9.322967
8.800714
7.64586
5.850595
3.572765
1.016879
-1.602666
-4.155725
-6.536392
-8.677458
-10.7269
-12.89579
-15.44465
-18.55516
-22.19477
-26.05189
-29.55363
-31.95318
-32.50499
-30.76799
-26.71037
-20.73885
-13.58657
-6.115108
0.8814449
6.891742
11.69384
15.3344
17.91444
19.54734
20.32916
20.36376
19.75598
18.7247
17.52143
16.39225
15.50384
14.89908
14.42398
13.855
13.03458
11.82403
10.33528
8.680386
6.982076
5.292666
3.581244
1.724242
-0.3926525
-2.768577
-5.349838
-7.946539
-10.39934
-12.57528
-14.40595
-15.9496
-17.42355
-19.07355
-21.16233
-23.73326
-26.51743
-29.01296
-30.50587
-30.2431
-27.78543
-23.16991
-16.8698
-9.734386
-2.738832
3.382417
8.197744
11.5891
13.75062
14.93995
15.33265
15.12227
14.3808
13.22643
11.93254
10.8175
10.18956
10.20539
10.80051
11.7366
12.71765
13.46295
13.90655
14.13768
14.27823
14.39375
14.37467
13.97162
12.94905
11.16363
8.605652
5.464906
2.070594
-1.351538
-4.582927
-7.547547
-10.27391
-12.82584
-15.32501
-17.98972
-20.9826
-24.31726
-27.78849
-30.73817
-32.41257
-32.07705
-29.3541
-24.37046
-17.71293
-10.22299
-2.753342
3.990226
9.584021
13.81086
16.60014
18.06245
18.3998
17.9335
17.01831
15.94761
14.86216
13.84628
12.90238
12.03912
11.36964
10.97502
10.92093
11.13354
11.45295
11.67835
11.76689
11.6884
11.556
11.38813
11.05547
10.42488
9.289438
7.57704
5.312323
2.651985
-0.2429161
-3.177172
-6.055149
-8.843536
-11.46357
-13.87991
-16.05719
-18.06825
-20.03818
-22.04485
-24.02787
-25.68733
-26.55961
-26.04999
-23.75523
-19.59862
-13.97752
-7.613771
-1.324368
4.210121
8.668501
11.98717
14.36382
15.97965
17.05676
17.66004
17.87016
17.76037
17.4061
16.94327
16.36154
15.69077
14.86345
13.94304
13.04789
12.35958
12.04382
12.08465
12.4179
12.79379
13.051
12.99553
12.54484
11.69775
10.42556
8.701183
6.49346
3.878345
0.9437008
-2.077068
-5.009703
-7.745304
-10.20517
-12.42125
-14.40068
-16.16392
-17.7022
-19.12871
-20.52958
-21.92698
-23.16622
-23.81293
-23.36858
-21.33833
-17.59461
-12.38377
-6.404514
-0.5380363
4.488062
8.189892
10.61929
12.01416
12.88046
13.5745
14.31509
15.12143
15.91821
16.6995
17.39186
18.05994
18.62104
18.98398
18.96553
18.47022
17.50204
16.20371
14.82353
13.4952
12.29708
11.18371
10.0508
8.807437
7.443588
5.960436
4.330245
2.571749
0.6660581
-1.321329
-3.328807
-5.288533
-7.174208
-9.079794
-11.11475
-13.39385
-15.88558
-18.49884
-21.02733
-23.24845
-24.84925
-25.46345
-24.73837
-22.39519
-18.44094
-13.17165
-7.21869
-1.342058
3.785261
7.775306
10.57374
12.37734
13.47475
14.12005
14.37491
14.27285
13.87105
13.26576
12.62133
12.0472
11.5533
11.12598
10.68762
10.14834
9.488064
8.765678
8.016348
7.292213
6.615957
5.943504
5.241152
4.393484
3.280706
1.844934
0.08755112
-1.848904
-3.749695
-5.465879
-6.913748
-8.179686
-9.48098
-11.07295
-13.14112
-15.74136
-18.6704
-21.50161
-23.66323
-24.63119
-24.08696
-21.94131
-18.43546
-13.97012
-9.025005
-3.990257
0.7979088
5.126518
8.833893
11.77771
13.93869
15.31149
15.94875
15.9338
15.37485
14.43468
13.32962
12.30336
11.51319
11.08966
10.93338
10.87669
10.71652
10.31887
9.697392
8.997032
8.33852
7.725185
7.097248
6.223927
4.927517
3.114929
0.8212128
-1.781494
-4.435783
-6.954109
-9.275421
-11.38601
-13.35423
-15.21478
-16.98051
-18.70919
-20.4761
-22.32155
-24.11465
-25.56213
-26.17493
-25.45519
-23.09128
-19.10069
-13.89854
-8.050194
-2.204292
3.153893
7.743561
11.42183
14.14393
15.93278
16.85889
17.02932
16.66208
15.93717
15.06786
14.19489
13.39427
12.67691
11.99373
11.32716
10.63616
9.895142
9.085342
8.179634
7.188156
6.105179
4.968224
3.778069
2.595192
1.468971
0.4314804
-0.5403595
-1.497467
-2.479279
-3.539436
-4.669968
-5.876793
-7.101814
-8.278481
-9.397354
-10.53286
-11.83107
-13.48854
-15.64902
-18.23637
-20.89246
-22.99829
-23.83543
-22.82541
-19.77412
-15.00887
-9.262642
-3.407082
1.811623
6.041481
9.230278
11.55719
13.19958
14.25806
14.77675
14.75574
14.3
13.56404
12.77203
12.06376
11.48214
11.01284
10.55491
10.07127
9.457703
8.678589
7.716545
6.623543
5.491409
4.441299
3.568741
2.844391
2.216141
1.574326
0.7597198
-0.247406
-1.449615
-2.812592
-4.255463
-5.691208
-7.091644
-8.466934
-9.815521
-11.24098
-12.72935
-14.32837
-15.97112
-17.58859
-18.98581
-19.87291
-19.86783
-18.62199
-16.00667
-12.09576
-7.354675
-2.357864
2.226303
5.913254
8.524261
10.13034
10.97809
11.3428
11.38956
11.21779
10.91678
10.584
10.30817
10.12921
10.05956
9.944611
9.682098
9.173294
8.433334
7.59848
6.827805
6.221405
5.786743
5.493591
5.269882
5.124039
5.053528
4.968323
4.679825
3.967789
2.69928
0.8952332
-1.226959
-3.330933
-5.102615
-6.346313
-7.131454
-7.725189
-8.492218
-9.70787
-11.55072
-14.01903
-16.9041
-19.82312
-22.19131
-23.45055
-23.09464
-20.91
-17.03296
-12.01271
-6.616364
-1.587982
2.53598
5.60881
7.715759
9.049225
9.793457
10.05966
9.941559
9.575409
9.134735
8.729691
8.444107
8.172241
7.769501
7.113388
6.119614
4.83696
3.448166
2.085587
0.8469238
-0.1926727
-1.095245
-1.931473
-2.750916
-3.648102
-4.590378
-5.510025
-6.302216
-6.937576
-7.338242
-7.596542
-7.817078
-8.183777
-8.937958
-10.34215
-12.45518
-15.04471
-17.63622
-19.44949
-19.83961
-18.42688
-15.26231
-10.81464
-5.858978
-1.094818
2.972992
6.069672
8.241287
9.562225
10.12572
10.03452
9.3974
8.320389
7.01152
5.64502
4.37619
3.320038
2.485062
1.762924
1.083725
0.3657532
-0.3472137
-0.9338379
-1.333771
-1.535095
-1.619003
-1.730026
-2.061783
-2.68335
-3.602173
-4.69136
-5.747528
-6.650635
-7.412476
-8.153137
-9.111343
-10.55476
-12.46527
-14.61549
-16.49236
-17.43471
-16.97432
-14.97884
-11.68529
-7.69043
-3.670197
-0.09927368
2.716568
4.774094
6.161362
6.986771
7.376724
7.422409
7.255936
7.045105
6.981186
7.126129
7.491364
8.008484
8.573746
9.067444
9.396484
9.447052
9.158813
8.509857
7.459702
6.071213
4.519684
2.905884
1.346252
-0.1348114
-1.644058
-3.23468
-4.914368
-6.680542
-8.514923
-10.38823
-12.35995
-14.37561
-16.3174
-17.89096
-18.67639
-18.24179
-16.33083
-13.02654
-8.696976
-4.002029
0.4351044
4.082932
6.599747
7.966385
8.285629
7.864868
7.051239
6.191437
5.54335
5.267181
5.382339
5.748367
6.266861
6.706802
6.946686
6.939072
6.634232
6.062775
5.282501
4.39621
3.506226
2.666382
1.786667
0.7154083
-0.7054901
-2.532623
-4.680847
-6.902725
-8.881973
-10.36327
-11.31392
-11.94942
-12.6687
-13.89117
-15.90782
-18.61131
-21.50014
-23.76892
-24.62498
-23.49594
-20.26463
-15.2894
-9.291275
-3.175278
2.342499
6.817032
10.09286
12.27809
13.56487
14.09686
13.98653
13.32936
12.22551
10.8593
9.474167
8.253082
7.391815
6.9039
6.653076
6.44693
6.100723
5.498276
4.606644
3.494064
2.272781
1.032242
-0.1531372
-1.309937
-2.41275
-3.434204
-4.333511
-5.095367
-5.748352
-6.392029
-7.136276
-8.09552
-9.343109
-10.75377
-12.05661
-12.82392
-12.56792
-10.91536
-7.806572
-3.574821
1.132187
5.488991
8.862541
10.87762
11.55244
11.244
10.35933
9.268982
8.152596
7.049332
5.903542
4.753296
3.747284
3.059311
2.913162
3.362709
4.300987
5.509811
6.744377
7.750893
8.36068
8.529037
8.152046
7.212219
5.708153
3.663971
1.252266
-1.238426
-3.616722
-5.762291
-7.73291
-9.741684
-11.95348
-14.31293
-16.49837
-17.93842
-17.96901
-16.21753
-12.75725
-8.10453
-3.023552
1.751846
5.767395
8.863525
11.06556
12.49865
13.20206
13.24467
12.69814
11.82165
10.91488
10.28709
10.01627
9.964874
9.917671
9.631912
9.099068
8.414398
7.747597
7.219833
6.834167
6.450752
5.898338
5.106682
4.000618
2.629402
1.075043
-0.6534348
-2.531593
-4.440384
-6.247402
-7.814919
-9.107178
-10.26701
-11.56227
-13.14717
-15.00752
-16.74808
-17.66766
-17.07398
-14.55696
-10.22326
-4.691311
1.124027
6.352417
10.40232
13.07275
14.52237
15.06709
15.08626
14.85659
14.55192
14.29403
14.17147
14.21316
14.38571
14.58747
14.66387
14.46808
13.91307
12.94146
11.65481
10.15135
8.417374
6.393738
4.010994
1.312599
-1.505123
-4.143867
-6.360748
-8.032768
-9.213326
-10.00114
-10.5742
-10.99984
-11.37727
-11.84325
-12.53397
-13.53012
-14.70219
-15.62386
-15.64568
-14.17155
-10.89981
-6.13232
-0.6219978
4.636436
8.77956
11.34838
12.43439
12.4042
11.72663
10.7354
9.537422
8.178791
6.728165
5.387001
4.442501
4.121216
4.461979
5.261974
6.267982
7.226768
8.01775
8.611671
8.94743
8.981735
8.628281
7.779037
6.354538
4.380238
1.981518
-0.6187134
-3.153492
-5.403309
-7.226738
-8.618141
-9.825527
-11.22394
-13.19954
-15.94278
-19.19838
-22.34006
-24.5174
-24.92999
-23.11084
-19.10004
-13.45479
-7.003109
-0.6290665
5.009655
9.60059
13.03392
15.38555
16.74956
17.22743
16.97649
16.18619
15.08443
13.90927
12.92447
12.29484
12.01461
11.94825
11.8807
11.66084
11.24182
10.76101
10.39751
10.24673
10.18221
9.855305
8.840012
6.824799
3.879776
0.3131638
-3.308479
-6.461475
-8.859688
-10.49418
-11.57772
-12.39414
-13.26295
-14.3578
-15.8299
-17.70681
-19.81634
-21.78178
-23.00929
-22.83507
-20.71804
-16.64281
-11.09301
-4.947533
0.8063469
5.394466
8.51696
10.37628
11.4218
12.12284
12.73159
13.28508
13.63381
13.67953
13.37691
12.82879
12.31944
11.98795
11.88892
11.96862
12.11717
12.21701
12.20393
12.07967
11.87818
11.65057
11.36593
10.90998
10.15815
8.979347
7.306023
5.13343
2.57938
-0.1074905
-2.693943
-5.001213
-6.92194
-8.518112
-9.960468
-11.51188
-13.40327
-15.76463
-18.55526
-21.48895
-24.09532
-25.7906
-26.0866
-24.69149
-21.63823
-17.11501
-11.55234
-5.502319
0.5200386
6.033073
10.6427
14.08527
16.26943
17.28468
17.34541
16.73081
15.74042
14.62671
13.59852
12.78349
12.22518
11.9606
11.97774
12.21528
12.66704
13.24881
13.88501
14.41027
14.64085
14.45915
13.85086
12.88634
11.71773
10.4773
9.06036
7.323677
5.037949
2.146854
-1.164635
-4.560612
-7.671482
-10.2178
-12.12532
-13.56931
-14.76727
-15.92693
-17.15396
-18.39524
-19.49847
-20.23614
-20.32518
-19.47083
-17.43492
-14.11635
-9.615753
-4.367661
1.050919
6.008736
10.03313
12.90443
14.6397
15.39266
15.39774
14.7802
13.57834
11.87687
9.832504
7.696571
5.835297
4.525948
3.930954
4.057961
4.734314
5.761223
6.909821
8.01403
8.877213
9.392105
9.485069
9.165733
8.512238
7.595787
6.525848
5.327065
3.987373
2.467522
0.8082428
-0.9082947
-2.532318
-3.986359
-5.255959
-6.35714
-7.369644
-8.386841
-9.517845
-10.90204
-12.67806
-14.87196
-17.31205
-19.62789
-21.20564
-21.41392
-19.826
-16.46558
-11.80492
-6.628235
-1.722054
2.341034
5.34227
7.374863
8.692528
9.506516
9.90966
9.885651
9.409622
8.583084
7.595322
6.801682
6.487335
6.804138
7.653961
8.772034
9.799332
10.48404
10.69353
10.40343
9.665726
8.484985
6.911041
4.937988
2.640121
0.1040802
-2.535873
-5.094513
-7.403122
-9.346054
-10.83501
-11.83313
-12.37019
-12.54953
-12.6124
-12.74928
-13.14706
-13.89839
-15.03374
-16.54106
-18.24231
-19.80577
-20.78299
-20.69751
-19.22229
-16.32968
-12.28975
-7.605988
-2.945328
1.224838
4.626434
7.245422
9.211716
10.69315
11.77554
12.51619
12.91551
12.97086
12.71239
12.19527
11.56949
10.89822
10.25716
9.646515
9.014282
8.254944
7.242783
5.956085
4.463943
2.972137
1.66127
0.6381683
-0.137558
-0.8242188
-1.635284
-2.73439
-4.086166
-5.513428
-6.746933
-7.612671
-8.142365
-8.581253
-9.251785
-10.40453
-12.17442
-14.54427
-17.36725
-20.35423
-23.19394
-25.48631
-26.80809
-26.70802
-24.81285
-21.0278
-15.60992
-9.207138
-2.592407
3.442429
8.396362
12.1003
14.63083
16.27536
17.25719
17.66443
17.43452
16.49754
14.86711
12.72321
10.38376
8.170746
6.408768
5.239578
4.638397
4.452286
4.488724
4.624496
4.820953
5.142944
5.576828
5.972641
6.073212
5.575745
4.260864
2.165634
-0.4530182
-3.273987
-5.949203
-8.293167
-10.31735
-12.1422
-13.92226
-15.70096
-17.46062
-19.11063
-20.59076
-21.85661
-22.80203
-23.3185
-23.15622
-22.02495
-19.69234
-16.17374
-11.73016
-6.946655
-2.494965
1.058884
3.408432
4.612015
4.970306
4.849304
4.523666
4.165375
3.791061
3.445831
3.133408
2.947449
3.046143
3.503464
4.293152
5.247574
6.182892
6.962585
7.584717
8.110214
8.56546
8.921738
9.046097
8.709335
7.745956
6.143219
4.114792
1.978394
0.03065491
-1.579376
-2.898911
-4.091415
-5.407043
-6.983597
-8.817413
-10.83133
-12.93057
-14.9857
-16.80978
-18.16989
-18.68764
-18.00395
-15.87335
-12.34897
-7.853424
-3.064133
1.360046
4.992691
7.641739
9.357193
10.33749
10.72427
10.5851
10.02353
9.14238
8.14119
7.21286
6.444595
5.837234
5.339767
4.842438
4.29837
3.741409
3.311691
3.154037
3.320618
3.740234
4.248611
4.595566
4.490448
3.774643
2.330353
0.2945404
-2.1698
-4.800751
-7.344406
-9.531967
-11.20087
-12.39276
-13.27815
-14.21904
-15.51965
-17.34058
-19.38254
-21.15508
-21.9371
-21.20848
-18.86134
-15.19305
-10.81963
-6.328323
-2.189117
1.404694
4.377258
6.718506
8.431877
9.584473
10.23017
10.5261
10.65314
10.67532
10.59656
10.33883
9.789291
8.922829
7.860382
6.736557
5.702492
4.839447
4.105698
3.343651
2.44632
1.291992
-0.1163101
-1.69352
-3.310234
-4.820862
-6.095436
-7.083214
-7.825172
-8.443993
-9.251938
-10.63179
-12.83021
-15.86888
-19.38054
-22.66405
-24.88286
-25.30259
-23.5444
-19.71528
-14.36056
-8.254303
-2.254486
2.943726
6.888954
9.426521
10.66558
10.86915
10.31429
9.293701
8.141228
7.075382
6.292191
5.916107
5.917923
6.202763
6.578754
6.863461
6.990124
7.018219
6.974525
6.865639
6.601299
5.951836
4.671776
2.688984
0.1277809
-2.696388
-5.403889
-7.791288
-9.808832
-11.57596
-13.38259
-15.44476
-17.95716
-20.95204
-24.33998
-27.76966
-30.68391
-32.38811
-32.22603
-29.87791
-25.37654
-19.25685
-12.30256
-5.361809
0.9163437
6.129944
10.15488
13.02314
14.78954
15.62964
15.7283
15.35714
14.82865
14.46945
14.42092
14.7183
15.19726
15.61887
15.82694
15.71122
15.24427
14.49078
13.47974
12.28282
10.94904
9.478966
7.858047
6.019417
3.889778
1.389496
-1.410011
-4.415054
-7.402641
-10.11839
-12.3884
-14.19674
-15.68233
-17.12605
-18.8299
-20.9477
-23.38893
-25.73637
-27.27365
-27.28027
-25.27423
-21.2086
-15.54643
-9.084137
-2.691277
2.874817
7.171623
10.17963
12.05763
13.18573
13.89835
14.49527
15.15694
15.9809
16.91968
17.92224
18.94662
19.90933
20.76833
21.38116
21.63272
21.40952
20.74945
19.75502
18.6416
17.5808
16.59962
15.56781
14.2509
12.43182
10.04269
7.261093
4.338058
1.594925
-0.7487335
-2.67453
-4.330795
-6.001434
-7.966812
-10.43376
-13.45178
-17.01166
-20.98137
-25.06406
-28.8132
-31.54881
-32.51555
-31.06583
-26.99677
-20.55634
-12.52936
-4.034805
3.86058
10.34181
15.0751
18.10075
19.73715
20.29993
20.16086
19.63347
19.00214
18.49994
18.27121
18.44205
19.0101
19.92212
21.03322
22.24448
23.46025
24.56985
25.4476
25.89554
25.7731
24.995
23.59705
21.65955
19.37521
16.87582
14.26123
11.59262
8.908051
6.243195
3.70697
1.399078
-0.6847534
-2.629486
-4.618195
-6.811584
-9.317535
-12.16418
-15.36786
-18.89725
-22.63034
-26.32217
-29.45477
-31.38458
-31.45761
-29.25656
-24.80688
-18.63013
-11.52493
-4.326721
2.263672
7.912628
12.51251
16.15799
18.98083
21.07654
22.44333
23.09613
23.08008
22.47131
21.53806
20.59833
19.99475
19.99643
20.62469
21.70676
22.8533
23.69699
23.91241
23.41388
22.22336
20.47659
18.35065
15.97815
13.43677
10.73215
7.883575
4.842041
1.68103
-1.435577
-4.330139
-6.815948
-8.854156
-10.56146
-12.12598
-13.7045
-15.42361
-17.32385
-19.40948
-21.6546
-23.88318
-25.80463
-26.92349
-26.64337
-24.49997
-20.32513
-14.32947
-7.186829
0.2660217
7.167847
12.88138
17.12967
19.94913
21.57468
22.24219
22.18378
21.4866
20.26495
18.64151
16.89523
15.34937
14.23389
13.58762
13.22971
12.93558
12.48013
11.92072
11.41107
11.14813
11.20721
11.44077
11.57501
11.27097
10.36322
8.780945
6.62851
4.127441
1.485229
-1.010071
-3.183319
-4.920807
-6.369781
-7.84729
-9.783508
-12.53253
-16.04654
-20.00226
-23.73096
-26.58295
-27.95105
-27.53845
-25.30566
-21.44757
-16.29443
-10.26019
-3.883026
2.252838
7.519928
11.48322
14.00079
15.2616
15.67386
15.67303
15.63882
15.64511
15.67194
15.66315
15.63126
15.71439
16.00674
16.45612
16.85779
16.92984
16.42178
15.3049
13.84131
12.35388
11.11951
10.15521
9.178528
7.798096
5.733276
2.933319
-0.3427124
-3.696564
-6.827698
-9.614258
-12.09918
-14.4686
-16.87773
-19.39955
-22.04004
-24.65994
-27.0108
-28.79204
-29.60924
-29.07364
-26.9182
-23.15987
-18.08127
-12.25829
-6.306229
-0.812851
3.806396
7.438614
10.17819
12.2514
13.90921
15.34921
16.68843
17.94232
19.09387
20.00215
20.61887
20.94621
20.99937
20.819
20.42007
19.75006
18.78194
17.53792
16.07349
14.56371
13.15594
11.88106
10.64719
9.269272
7.523453
5.326309
2.737106
-0.0941925
-2.983826
-5.778351
-8.474945
-11.12178
-13.81308
-16.64679
-19.68272
-22.96881
-26.47128
-30.10548
-33.51859
-36.23471
-37.57132
-36.93489
-34.0018
-28.8084
-21.83693
-13.8382
-5.656006
1.963791
8.515457
13.79024
17.70729
20.33789
21.83142
22.32689
22.01759
21.21278
20.19179
19.24341
18.51294
17.99522
17.59995
17.24593
16.83557
16.32944
15.78685
15.21013
14.64389
14.01338
13.27724
12.38411
11.33588
10.17964
8.95488
7.724106
6.40712
4.90686
3.066422
0.7476196
-2.08374
-5.372955
-8.884109
-12.29796
-15.34773
-17.91783
-19.99297
-21.73727
-23.29857
-24.79045
-26.14442
-27.07637
-27.12485
-25.79778
-22.84573
-18.30698
-12.5567
-6.270927
-0.1720123
5.155609
9.428558
12.57166
14.68405
15.85149
16.19487
15.83243
14.9139
13.62984
12.16626
10.72122
9.373993
8.169662
7.168518
6.411346
5.957169
5.884697
6.212868
6.95092
8.03772
9.264069
10.41131
11.27643
11.67111
11.50648
10.76826
9.441338
7.578514
5.191597
2.377136
-0.6876831
-3.779984
-6.652939
-9.108093
-11.0051
-12.32896
-13.20307
-13.86468
-14.56876
-15.5999
-17.1283
-19.1695
-21.45179
-23.43179
-24.51582
-24.15293
-22.05722
-18.28326
-13.25228
-7.607346
-2.076775
2.782894
6.682285
9.514202
11.38158
12.43221
12.84964
12.86316
12.62666
12.31213
12.06286
11.92449
11.94941
12.1117
12.3908
12.72778
13.06959
13.31293
13.32137
13.01884
12.39508
11.53657
10.59771
9.675382
8.757792
7.77064
6.57024
4.996638
2.989949
0.6243382
-1.969316
-4.587935
-7.073852
-9.379725
-11.45408
-13.35757
-15.1954
-17.08759
-19.1375
-21.34886
-23.58509
-25.56606
-26.83228
-26.94647
-25.54403
-22.58806
-18.31347
-13.24173
-8.007332
-3.136013
1.002876
4.349831
6.948841
8.931
10.36165
11.27973
11.68039
11.55956
11.07159
10.41874
9.819439
9.3936
9.12685
8.893311
8.572071
8.070137
7.441078
6.837189
6.372967
6.047676
5.694969
5.010979
3.739258
1.815376
-0.6229782
-3.181847
-5.43206
-7.179901
-8.43972
-9.449509
-10.55611
-12.07126
-14.18337
-16.92561
-20.14214
-23.46816
-26.48912
-28.64038
-29.34282
-28.21798
-25.16695
-20.4351
-14.55465
-8.218338
-2.091034
3.233627
7.378738
10.21775
11.7394
12.15455
11.74117
10.81779
9.700645
8.688141
7.969612
7.67524
7.75531
8.008774
8.156837
7.90284
7.106316
5.828682
4.412163
3.272118
2.720894
2.783447
3.082428
3.124336
2.452568
0.9362259
-1.209015
-3.548622
-5.677551
-7.370209
-8.660652
-9.735077
-10.80308
-12.00773
-13.45636
-15.17922
-17.13847
-19.20163
-20.95134
-21.84198
-21.31891
-19.09688
-15.27576
-10.39525
-5.251099
-0.6217194
2.920547
5.176117
6.312408
6.655533
6.623779
6.581345
6.748627
7.222458
8.023483
9.107162
10.38721
11.72841
12.93065
13.81186
14.1373
13.7738
12.69753
11.07156
9.138382
7.146484
5.248245
3.394028
1.548615
-0.4958954
-2.817139
-5.389038
-7.906418
-10.06953
-11.58446
-12.30545
-12.38803
-12.06306
-11.70726
-11.64667
-12.10904
-13.16968
-14.78339
-16.79214
-18.84464
-20.53648
-21.30542
-20.72034
-18.51048
-14.81155
-10.10284
-5.039719
-0.3109436
3.607849
6.465408
8.27269
9.216599
9.599503
9.690552
9.688126
9.731445
9.826782
9.977524
10.09055
10.13452
10.05014
9.842392
9.505127
9.006989
8.351639
7.514694
6.687057
6.016342
5.659134
5.626862
5.786407
5.899628
5.685669
4.985321
3.684616
1.927094
-0.1386108
-2.343765
-4.573044
-6.800613
-8.957611
-11.00531
-12.85449
-14.46524
-15.82507
-17.04767
-18.29561
-19.65848
-21.13438
-22.43236
-23.10193
-22.64748
-20.75266
-17.42909
-13.09637
-8.376434
-3.871246
-0.03904724
2.977112
5.263321
7.00647
8.352829
9.453842
10.40248
11.34206
12.30884
13.24538
14.02409
14.39287
14.26602
13.7065
12.93973
12.21265
11.69173
11.26878
10.79662
10.12453
9.196335
8.11467
7.037109
6.040817
5.090546
4.115356
3.004868
1.751404
0.4514771
-0.8992157
-2.299149
-3.904053
-5.825409
-8.070114
-10.40619
-12.51646
-14.0634
-14.91904
-15.30656
-15.56668
-16.12318
-17.15169
-18.44794
-19.52814
-19.8387
-18.90053
-16.59291
-13.09242
-8.803864
-4.237274
0.1266174
3.960098
7.077408
9.406021
10.97885
11.96478
12.56352
12.99217
13.35968
13.67001
13.83153
13.71753
13.29407
12.54652
11.55634
10.37099
9.090271
7.806107
6.67955
5.859207
5.430038
5.37912
5.617584
5.969894
6.303833
6.533752
6.590302
6.444534
5.967697
5.008743
3.411865
1.191986
-1.501633
-4.394516
-7.219269
-9.743698
-11.84068
-13.47728
-14.7252
-15.72215
-16.64386
-17.66058
-18.81013
-20.01651
-20.89056
-20.95566
-19.68828
-16.86658
-12.61696
-7.456406
-2.143051
2.605881
6.245773
8.597626
9.70694
9.870071
9.483078
8.853958
8.242966
7.736069
7.338669
7.030106
6.850861
6.809418
6.919632
7.221359
7.608383
7.968613
8.153168
8.126617
7.946213
7.782654
7.759445
7.818207
7.84024
7.508316
6.607147
5.022629
2.900513
0.4664001
-1.984512
-4.232956
-6.26918
-8.150009
-10.02934
-12.00208
-14.0972
-16.24017
-18.31738
-20.09045
-21.29852
-21.60083
-20.69756
-18.46559
-14.97774
-10.55537
-5.706802
-1.034119
2.95018
5.89978
7.771851
8.706543
8.976242
8.827469
8.503342
8.090271
7.652954
7.262344
6.946991
6.782761
6.840622
7.086533
7.423584
7.712067
7.828537
7.72821
7.504959
7.254959
7.073029
6.972153
6.719299
6.060318
4.77179
2.795929
0.3031006
-2.361725
-4.887497
-7.10968
-9.043961
-10.84973
-12.72249
-14.71962
-16.84283
-19.01433
-21.19427
-23.3268
-25.18427
-26.36325
-26.25665
-24.33327
-20.35262
-14.66849
-8.088745
-1.657516
3.734726
7.671265
10.18755
11.61188
12.28134
12.4073
12.03842
11.27356
10.22809
9.148926
8.310074
7.837402
7.710449
7.746933
7.696991
7.458649
7.062302
6.706635
6.549042
6.749817
7.25087
7.954056
8.646927
9.148987
9.369751
9.204132
8.64006
7.539581
5.855026
3.639359
1.054893
-1.646294
-4.224861
-6.548309
-8.663109
-10.72757
-12.99947
-15.6248
-18.54536
-21.46181
-23.86209
-25.23083
-25.08763
-23.31618
-20.0262
-15.6699
-10.84193
-6.144493
-1.9879
1.496437
4.306038
6.612144
8.426697
9.800583
10.66142
11.01763
10.95497
10.66094
10.39164
10.27596
10.28666
10.27649
10.10659
9.694344
9.088745
8.456909
7.894302
7.507469
7.28215
7.143677
7.015785
6.855507
6.611679
6.171265
5.485641
4.367607
2.759727
0.6798782
-1.71492
-4.235817
-6.66848
-8.885704
-10.93169
-12.89364
-14.92554
-17.07642
-19.29148
-21.30694
-22.77598
-23.23376
-22.26961
-19.69868
-15.59522
-10.38156
-4.651253
0.9413528
5.798073
9.576202
12.15037
13.62419
14.20423
14.16822
13.70571
13.01939
12.25409
11.48131
10.84328
10.38033
10.18489
10.23618
10.4854
10.72801
10.80741
10.65916
10.30657
9.952301
9.730362
9.66613
9.615467
9.29203
8.373306
6.66267
4.217724
1.254787
-1.885933
-4.95924
-7.8997
-10.74083
-13.54766
-16.38816
-19.27929
-22.11357
-24.72889
-26.82528
-28.02905
-27.93544
-26.20934
-22.78014
-17.8959
-12.16852
-6.344292
-1.032276
3.445118
7.000443
9.718491
11.7404
13.0749
13.73974
13.82469
13.49793
13.01019
12.58743
12.36006
12.28154
12.30532
12.33231
12.22224
11.91823
11.35394
10.45038
9.198393
7.742544
6.171619
4.559439
2.918079
1.091953
-0.9754467
-3.243647
-5.515493
-7.582382
-9.310973
-10.78154
-12.31348
-14.23133
-16.77773
-19.79071
-22.69585
-24.66357
-24.88269
-22.902
-18.78838
-13.08417
-6.623731
-0.3403108
5.088711
9.259603
12.1018
13.81726
14.6206
14.70639
14.20754
13.25747
11.93891
10.37543
8.726025
7.177845
5.946586
5.165014
4.877012
4.986119
5.373861
5.859449
6.279459
6.487934
6.33363
5.774923
4.734764
3.192274
1.113268
-1.470596
-4.444216
-7.581171
-10.6765
-13.55558
-16.086
-18.26218
-19.93523
-20.8751
-20.72025
-19.0819
-15.72741
-10.81898
-4.959381
0.9980621
6.188457
10.06695
12.46836
13.61314
13.87919
13.71608
13.44436
13.26202
13.24403
13.35636
13.52041
13.62818
13.61006
13.47565
13.24661
12.97415
12.65244
12.16611
11.33705
9.984722
8.036999
5.540073
2.736679
-0.1952171
-3.033485
-5.637909
-7.956551
-9.969193
-11.72054
-13.298
-14.87747
-16.60179
-18.57848
-20.68755
-22.51614
-23.42912
-22.74043
-20.06517
-15.41431
-9.355431
-2.717247
3.60334
8.973778
13.14821
16.16369
18.30881
19.74668
20.56126
20.73094
20.26255
19.21815
17.75026
16.11178
14.40176
12.76737
11.24813
9.84874
8.621651
7.566978
6.728737
6.033188
5.456627
4.785751
3.847908
2.452271
0.5288391
-1.795883
-4.328896
-6.682274
-8.667374
-10.16241
-11.43633
-12.82961
-14.73524
-17.28014
-20.20608
-22.94554
-24.70924
-24.84498
-22.98235
-19.30069
-14.22054
-8.464531
-2.764015
2.357834
6.556244
9.727715
11.96564
13.38245
14.06953
14.23344
13.99372
13.45919
12.83474
12.22155
11.77209
11.53241
11.48784
11.56806
11.72984
11.98817
12.28016
12.57536
12.72998
12.60674
11.99543
10.7905
8.930214
6.481064
3.564018
0.3599014
-2.830894
-5.835602
-8.434265
-10.57564
-12.34419
-13.96782
-15.67661
-17.72772
-20.08655
-22.34393
-23.97891
-24.27344
-22.73711
-19.22948
-14.00392
-7.680237
-1.104507
4.966751
9.977936
13.65102
15.99039
17.18871
17.46114
17.12267
16.45232
15.69621
14.99361
14.43906
14.04317
13.81638
13.74689
13.84633
14.13911
14.59682
15.16074
15.7209
16.1888
16.47893
16.58234
16.43361
16.01668
15.26924
14.09566
12.46535
10.41035
7.9729
5.228561
2.334976
-0.5702667
-3.264008
-5.615036
-7.6138
-9.353165
-11.05989
-13.01704
-15.47714
-18.50404
-21.92635
-25.25389
-27.81775
-28.90759
-27.96527
-24.87141
-19.95732
-13.96922
-7.75853
-2.027191
2.802002
6.724655
9.985947
12.91466
15.62277
18.06943
20.04863
21.4045
22.16191
22.39993
22.28276
21.94164
21.37077
20.43813
19.12737
17.53255
15.84276
14.36746
13.24745
12.50182
12.05484
11.77153
11.45673
11.08501
10.60782
9.977455
9.201744
8.256851
7.163139
5.899902
4.438271
2.71608
0.8216629
-1.159134
-3.104721
-4.877251
-6.437584
-7.817207
-9.169968
-10.79408
-12.93063
-15.68327
-19.06847
-22.80648
-26.33555
-28.97462
-29.98603
-28.81119
-25.33321
-19.7963
-12.78614
-5.138412
2.295036
8.806084
13.81011
17.01675
18.47006
18.37862
17.20722
15.52343
13.82067
12.49733
11.79868
11.74205
12.25089
13.13957
14.14579
15.09481
15.82144
16.29667
16.53726
16.5361
16.22102
15.56881
14.52814
13.15872
11.62859
10.1538
8.946983
8.122082
7.635296
7.243095
6.669724
5.629108
3.960587
1.633503
-1.167595
-4.187786
-7.095566
-9.693958
-12.01551
-14.17115
-16.29292
-18.42942
-20.53884
-22.49886
-24.12541
-25.16826
-25.33754
-24.3915
-22.16452
-18.63828
-13.99656
-8.667671
-3.279264
1.649565
5.685868
8.764072
10.9319
12.39382
13.36938
14.00626
14.4465
14.67687
14.75868
14.66833
14.42991
14.02363
13.48565
12.8004
11.89999
10.79702
9.488605
8.087803
6.688931
5.399645
4.269009
3.271646
2.380976
1.452984
0.5566807
-0.2390842
-0.8616314
-1.411476
-2.032402
-2.874931
-4.106533
-5.621536
-7.349808
-8.985939
-10.39909
-11.55259
-12.56454
-13.57947
-14.66644
-15.88292
-17.12612
-18.23861
-18.89248
-18.81809
-17.78244
-15.60846
-12.34925
-8.219109
-3.638802
0.9408798
5.042343
8.333862
10.57848
11.65595
11.78219
11.14947
10.04272
8.671082
7.207817
5.701073
4.224327
2.882385
1.751472
1.039268
0.7404785
0.9062271
1.432159
2.234329
3.185524
4.193298
5.148193
5.870239
6.239807
6.075363
5.406837
4.338562
3.046585
1.706467
0.4076538
-0.8673096
-2.226959
-3.681023
-5.309746
-7.014244
-8.702591
-10.34698
-11.90616
-13.46295
-15.09167
-16.8531
-18.70718
-20.62427
-22.42538
-23.82478
-24.50717
-24.11021
-22.44482
-19.45897
-15.39928
-10.63919
-5.745575
-1.233231
2.527985
5.365753
7.313202
8.475403
9.072784
9.207901
8.970795
8.384293
7.512985
6.499161
5.494263
4.675262
4.123917
3.880264
3.90358
4.1987
4.707245
5.375031
6.148239
6.822861
7.196396
7.117889
6.51004
5.383713
3.947067
2.340027
0.6722717
-0.9881897
-2.703262
-4.487137
-6.275116
-7.967056
-9.486893
-10.67657
-11.48445
-11.93571
-12.11955
-12.27525
-12.70129
-13.65028
-15.29802
-17.50775
-19.83914
-21.57878
-22.04213
-20.84944
-18.01779
-13.97681
-9.3508
-4.785278
-0.6852417
2.703949
5.284866
7.015625
7.867355
7.875336
7.192078
6.115768
4.993591
4.165634
3.839401
4.003922
4.522232
5.139786
5.61618
5.748062
5.547211
5.089645
4.592514
4.238098
4.130981
4.237854
4.353088
4.286514
3.816498
2.909821
1.584076
-0.03347778
-1.788147
-3.457993
-4.919617
-6.138885
-7.110947
-7.946487
-8.787918
-9.782547
-11.05663
-12.66557
-14.56216
-16.62773
-18.61737
-20.09891
-20.5605
-19.58609
-16.9948
-13.01022
-8.125793
-3.016037
1.694656
5.552155
8.420456
10.27415
11.26135
11.5614
11.29335
10.57704
9.489517
8.115494
6.56424
5.045685
3.71196
2.786926
2.338928
2.32428
2.599854
3.00322
3.407196
3.762817
4.153
4.505768
4.790115
4.80925
4.327408
3.19342
1.346344
-1.071014
-3.750305
-6.320251
-8.589432
-10.42603
-11.9351
-13.32184
-14.71425
-16.24858
-17.87952
-19.41557
-20.5766
-21.05341
-20.49371
-18.69611
-15.66389
-11.60356
-7.048691
-2.572556
1.293503
4.236603
6.217361
7.460068
8.201614
8.604279
8.766815
8.648224
8.22229
7.51767
6.635986
5.702881
4.867386
4.112656
3.378952
2.615448
1.81015
1.100769
0.5814209
0.3603973
0.3684998
0.4507141
0.3012695
-0.2861481
-1.372681
-2.814255
-4.371567
-5.814072
-7.060974
-8.121033
-9.12471
-10.23701
-11.56421
-13.11522
-14.76141
-16.30206
-17.42291
-17.85475
-17.35504
-15.80157
-13.24313
-9.947678
-6.234192
-2.514359
0.8410034
3.630371
5.758087
7.236374
8.15712
8.688126
8.866745
8.813293
8.551971
8.110733
7.579514
7.04953
6.59642
6.262497
6.056335
5.912674
5.798019
5.718033
5.65239
5.628174
5.578781
5.312149
4.615204
3.303909
1.332642
-1.14769
-3.826141
-6.377075
-8.473953
-10.01669
-11.04822
-11.75925
-12.44293
-13.37312
-14.7039
-16.46713
-18.56445
-20.67433
-22.37045
-23.11051
-22.35107
-19.89642
-15.96212
-11.12685
-6.205482
-1.978821
1.138023
3.138336
4.32502
5.159103
5.971924
6.907898
7.967636
9.13311
10.338
11.56927
12.7914
13.91175
14.86405
15.57124
16.05019
16.249
16.16888
15.72453
14.89282
13.69504
12.19752
10.5245
8.77253
7.021004
5.270103
3.475075
1.591644
-0.4159546
-2.520889
-4.664814
-6.740833
-8.601814
-10.09237
-11.17757
-11.97488
-12.76881
-13.9415
-15.71462
-18.17212
-20.985
-23.64801
-25.47781
-25.92229
-24.63314
-21.62761
-17.284
-12.1675
-6.959316
-2.163313
1.90876
5.216208
7.855076
10.00572
11.85906
13.45653
14.78979
15.83049
16.54767
16.9854
17.15482
17.08827
16.81234
16.41535
15.92804
15.4852
15.12892
14.90466
14.76894
14.59754
14.30856
13.73021
12.85965
11.67223
10.38035
9.141826
8.123061
7.364655
6.767905
6.119976
5.16165
3.771936
1.905472
-0.2714977
-2.530563
-4.714712
-6.732973
-8.577553
-10.42382
-12.45192
-14.81736
-17.58409
-20.59674
-23.39682
-25.37055
-25.85096
-24.34039
-20.78571
-15.62716
-9.583252
-3.508102
1.895012
6.294456
9.595009
11.92439
13.50615
14.53853
15.21634
15.71016
16.10299
16.40781
16.59243
16.56498
16.27581
15.79666
15.27498
14.93068
14.99607
15.52383
16.46737
17.64754
18.79755
19.65293
20.02599
19.77441
18.81775
17.23723
15.13778
12.76601
10.4026
8.305992
6.561928
5.114113
3.731491
2.143326
0.2382965
-1.962502
-4.191635
-6.149231
-7.550812
-8.400269
-8.914246
-9.53228
-10.75983
-12.91679
-16.05444
-19.78522
-23.44957
-26.24532
-27.49303
-26.72724
-23.85625
-19.16514
-13.23157
-6.795464
-0.5904465
4.752838
8.883011
11.67287
13.29239
14.10652
14.45763
14.61691
14.64091
14.53946
14.20602
13.6602
12.99796
12.34913
11.86823
11.63827
11.73378
12.12177
12.73331
13.39037
13.87584
14.00702
13.61504
12.68523
11.29538
9.602348
7.750542
5.803726
3.766914
1.648682
-0.5360107
-2.692787
-4.705299
-6.52179
-8.11525
-9.543533
-10.92152
-12.36253
-13.93161
-15.6479
-17.52473
-19.43019
-21.16155
-22.3814
-22.62322
-21.49765
-18.83423
-14.75635
-9.669609
-4.229149
0.9588242
5.46463
9.11158
11.99118
14.28419
16.16076
17.64603
18.7631
19.4141
19.60019
19.3851
18.79597
17.91077
16.79375
15.49664
14.09898
12.7623
11.59086
10.68071
10.0467
9.592964
9.125572
8.43782
7.369614
5.910019
4.183678
2.363503
0.6596222
-0.8697968
-2.282234
-3.66819
-5.097572
-6.597382
-8.142197
-9.674942
-11.19602
-12.73408
-14.34758
-16.17332
-18.29353
-20.74123
-23.4981
-26.32239
-28.74419
-30.11471
-29.7673
-27.28227
-22.75255
-16.72169
-10.02269
-3.553078
1.984489
6.221756
9.183891
11.08514
12.3046
13.19805
13.98722
14.81311
15.66589
16.36871
16.78702
16.80707
16.44078
15.84448
15.22541
14.71259
14.39685
14.33578
14.50164
14.91154
15.4122
15.8044
15.8364
15.24818
13.8849
11.82304
9.24041
6.434181
3.770256
1.39164
-0.6356506
-2.406601
-4.056358
-5.794373
-7.682205
-9.792076
-12.12225
-14.52586
-16.92888
-19.2094
-21.28289
-23.16315
-24.86308
-26.33022
-27.40393
-27.77534
-26.99313
-24.73322
-20.98511
-16.03602
-10.59248
-5.319977
-0.7594604
2.868744
5.587379
7.612892
9.11306
10.19907
10.9762
11.46317
11.8148
12.14506
12.6384
13.31511
14.19666
15.17336
16.16019
17.11276
17.94861
18.59342
18.91793
18.811
18.1091
16.77051
14.80281
12.3644
9.701912
7.006149
4.464134
2.134712
0.04455566
-1.864944
-3.668518
-5.440529
-7.261997
-9.106251
-10.94343
-12.68155
-14.23704
-15.59956
-16.80928
-17.99481
-19.29707
-20.88143
-22.6242
-24.21955
-25.15076
-24.87978
-23.0465
-19.592
-14.78806
-9.14576
-3.33987
2.11924
6.786556
10.41486
12.9241
14.39218
15.02972
15.10281
14.82718
14.27391
13.52123
12.6319
11.72229
10.94427
10.39217
10.1231
10.09821
10.24974
10.51484
10.8327
11.14816
11.41102
11.52446
11.40174
11.03594
10.43583
9.562607
8.380611
6.748589
4.570011
1.87225
-1.151558
-4.211899
-7.027622
-9.381966
-11.25511
-12.74147
-13.98242
-15.16867
-16.44014
-17.83509
-19.29214
-20.68546
-21.75176
-22.10325
-21.404
-19.3699
-15.99353
-11.54337
-6.541897
-1.553757
2.843254
6.270073
8.675056
10.10664
10.72593
10.71427
10.28572
9.605503
8.904949
8.404617
8.219032
8.49268
9.10743
9.909794
10.58402
10.95895
10.93178
10.50843
9.865711
9.115833
8.358025
7.508987
6.404797
4.857738
2.828171
0.3992081
-2.187744
-4.619202
-6.670551
-8.225513
-9.43951
-10.4941
-11.61153
-12.99905
-14.74419
-16.83291
-19.13923
-21.47298
-23.49843
-24.90582
-25.25459
-24.12881
-21.35613
-16.98961
-11.41689
-5.282253
0.5197144
5.318748
8.762127
10.84401
11.97917
12.58926
12.96721
13.21751
13.28308
12.98579
12.37138
11.6211
10.9192
10.4141
10.04018
9.627674
8.931362
7.867352
6.425037
4.826168
3.345753
2.190792
1.468849
1.126663
1.042465
0.9668312
0.7092056
0.1355324
-0.7695656
-1.967731
-3.39114
-4.954529
-6.669453
-8.523155
-10.50357
-12.60876
-14.798
-17.08615
-19.53193
-22.16803
-24.74596
-26.87915
-28.01531
-27.64588
-25.55732
-21.84822
-16.89043
-11.20322
-5.371479
0.1843262
5.112457
9.192619
12.34056
14.63505
16.1958
17.21667
17.84204
18.11178
18.04929
17.70348
17.1478
16.44781
15.72438
14.9216
13.93571
12.68828
11.1819
9.466427
7.726749
6.149464
4.873905
4.006157
3.50909
3.295502
3.188824
3.057068
2.716469
2.017887
0.8834076
-0.7016373
-2.698143
-5.009209
-7.495163
-10.01652
-12.53689
-15.04047
-17.64556
-20.3938
-23.21406
-25.78619
-27.5965
-28.01855
-26.57075
-23.21091
-18.27271
-12.46042
-6.581863
-1.338318
2.914749
6.119789
8.486366
10.34035
11.90331
13.29039
14.50159
15.48252
16.19649
16.71993
17.1899
17.70513
18.28744
18.81779
19.06767
18.88272
18.18259
17.11724
15.90622
14.83727
14.08659
13.66676
13.5276
13.54531
13.59845
13.57497
13.36758
12.81095
11.7733
10.24043
8.329094
6.297417
4.465736
3.02037
1.98597
1.140617
0.145546
-1.303055
-3.233543
-5.402161
-7.227814
-8.076302
-7.384018
-4.868797
-0.7408905
4.367241
9.493454
13.73347
16.37442
17.21243
16.42852
14.53369
12.20792
9.980629
8.162605
6.759132
5.671558
4.677288
3.625816
2.454124
1.111282
-0.3385925
-1.880268
-3.524071
-5.219852
-6.858131
-8.286472
-9.38245
-10.18399
-10.93797
-11.97013
-13.58294
-15.86349
-18.69804
-21.7627
-24.70305
-27.15671
-28.87776
-29.82061
-30.05651
-29.77165
-29.29609
-28.94498
-29.02148
-29.68372
-30.8148
-31.97762
-32.66512
-32.34612
-30.64854
-27.53787
-23.15623
-17.91825
-12.2646
-6.561199
-1.090309
3.876225
8.048748
11.13932
12.91803
13.38453
12.73013
11.3207
9.653149
8.107601
6.959763
6.303246
6.101456
6.229687
6.557194
7.011738
7.43766
7.754662
7.786289
7.437332
6.681198
5.607773
4.365997
3.136902
2.08812
1.21682
0.4376068
-0.4034729
-1.459862
-2.95063
-5.034492
-7.855255
-11.35716
-15.16475
-18.63779
-20.90945
-21.30009
-19.48546
-15.6964
-10.59319
-4.952988
0.5284805
5.397598
9.442039
12.63374
14.95331
16.37966
16.94428
16.77152
16.11562
15.22427
14.31085
13.46762
12.74955
12.12115
11.53626
10.97653
10.40398
9.772392
8.968788
7.938095
6.530113
4.773232
2.656883
0.3123093
-2.08429
-4.425278
-6.628952
-8.683731
-10.60097
-12.472
-14.42165
-16.65546
-19.23545
-22.00182
-24.54712
-26.18188
-26.25633
-24.3027
-20.37614
-14.9247
-8.694122
-2.447571
3.273514
8.061386
11.82594
14.49004
16.16423
17.0623
17.51155
17.88007
18.36299
19.05826
19.75589
20.31117
20.52031
20.25073
19.53465
18.4064
16.91673
15.12038
13.11507
11.01324
8.95195
6.999252
5.110443
3.236481
1.331482
-0.6318359
-2.615387
-4.564407
-6.408463
-8.11496
-9.70668
-11.33339
-13.20735
-15.63071
-18.81021
-22.67905
-26.83502
-30.51086
-32.78088
-32.87379
-30.42931
-25.67831
-19.37465
-12.48193
-5.769012
0.2367859
5.38681
9.704926
13.26074
16.08412
18.14209
19.44081
19.95015
19.90318
19.49585
18.91156
18.26775
17.59702
16.91933
16.26131
15.64789
15.07793
14.59712
14.17812
13.76891
13.34578
12.91614
12.5009
12.09717
11.60886
10.89102
9.818253
8.316101
6.412186
4.261398
1.971085
-0.387146
-2.86084
-5.489777
-8.253189
-11.08907
-13.99254
-17.02151
-20.17038
-23.44998
-26.64505
-29.25992
-30.54839
-29.85912
-26.82631
-21.65765
-15.03806
-7.839355
-0.9612122
4.952469
9.654297
13.16133
15.57568
17.1138
17.93524
18.18047
18.04446
17.59746
16.98552
16.33154
15.73723
15.28023
15.05225
15.06245
15.24516
15.50557
15.71313
15.838
15.86653
15.81445
15.66707
15.47598
15.18581
14.66687
13.74916
12.30161
10.25648
7.636719
4.603363
1.335312
-1.888168
-4.956055
-7.840439
-10.60422
-13.38791
-16.33157
-19.51236
-22.93039
-26.37204
-29.42653
-31.48279
-31.88405
-30.1665
-26.29414
-20.66357
-14.02533
-7.204163
-0.8590088
4.621887
9.149292
12.77023
15.49994
17.3345
18.29788
18.44162
17.95831
17.04169
15.97647
15.05231
14.5078
14.48114
14.92552
15.65279
16.34659
16.71413
16.67093
16.31447
15.85411
15.42757
15.02429
14.4232
13.36125
11.68364
9.397552
6.716827
3.897461
1.185883
-1.313522
-3.558472
-5.585052
-7.482925
-9.339005
-11.24542
-13.35866
-15.78447
-18.51491
-21.42447
-24.08891
-25.93144
-26.34525
-24.89211
-21.50252
-16.52791
-10.60544
-4.453873
1.349594
6.412537
10.62825
13.9201
16.2722
17.66017
18.06206
17.63239
16.57368
15.26036
13.96025
12.91676
12.15808
11.61993
11.13698
10.53999
9.852325
9.120377
8.542465
8.23288
8.145035
8.069946
7.740067
6.941956
5.600922
3.921783
2.13855
0.530838
-0.8425751
-2.060486
-3.321381
-4.747986
-6.427109
-8.437302
-10.73587
-13.36893
-16.19458
-18.92574
-21.09607
-22.09801
-21.46907
-19.01144
-14.98634
-9.982681
-4.825165
-0.2011566
3.459335
6.065826
7.839462
9.049118
9.94281
10.59879
10.93661
10.80988
10.24478
9.416168
8.635437
8.225739
8.272598
8.700165
9.231216
9.651291
9.846512
9.924911
9.993469
10.07755
10.04433
9.603409
8.478119
6.558792
3.959244
0.927948
-2.164124
-5.087112
-7.698639
-9.985931
-12.04774
-13.95764
-15.8369
-17.72568
-19.688
-21.70021
-23.67474
-25.29552
-26.05748
-25.43126
-22.98598
-18.7299
-13.09239
-6.903679
-1.022858
3.865707
7.500191
9.967171
11.47737
12.30695
12.57677
12.40906
11.88016
11.2229
10.63995
10.29505
10.20424
10.18797
10.06168
9.6754
9.077499
8.406693
7.876884
7.661583
7.778923
8.127419
8.536224
8.795746
8.751884
8.300934
7.362762
5.89875
3.95536
1.611382
-0.9697037
-3.607933
-6.132607
-8.449196
-10.58337
-12.63371
-14.82124
-17.3194
-20.18839
-23.18895
-25.86018
-27.5104
-27.55643
-25.63096
-21.80624
-16.55071
-10.61062
-4.710632
0.5967712
5.0569
8.578346
11.20895
13.05783
14.24158
14.94975
15.3564
15.60413
15.74702
15.77859
15.6713
15.39371
14.96464
14.4222
13.78472
13.01049
12.06405
10.90472
9.627266
8.352379
7.273521
6.492683
5.966125
5.507328
4.890705
3.926735
2.574284
0.9639893
-0.7078629
-2.280556
-3.665085
-4.917713
-6.165565
-7.543262
-9.212116
-11.32473
-13.94104
-17.02336
-20.30965
-23.26633
-25.21978
-25.53401
-23.79214
-20.03871
-14.7583
-8.712173
-2.746769
2.537304
6.859184
10.19361
12.67431
14.42113
15.43756
15.74907
15.36444
14.43475
13.18692
11.8458
10.58601
9.521244
8.692776
8.082924
7.740948
7.653324
7.743586
7.944359
8.166334
8.33715
8.448069
8.449076
8.276207
7.815048
6.949634
5.551054
3.683712
1.462853
-0.918664
-3.263711
-5.532451
-7.672518
-9.72172
-11.65536
-13.49976
-15.26543
-17.03694
-18.87408
-20.68578
-22.21981
-22.98252
-22.53429
-20.48581
-16.81315
-11.83162
-6.165728
-0.5018005
4.642672
8.91287
12.23632
14.57418
15.99257
16.52677
16.12683
14.83798
12.77553
10.3159
7.836666
5.802338
4.453743
3.780586
3.637764
3.701847
3.853203
4.001316
4.239712
4.588562
4.95723
5.102139
4.69677
3.568089
1.697021
-0.5774078
-2.898197
-4.883766
-6.348404
-7.31921
-7.996948
-8.641479
-9.512577
-10.82888
-12.69543
-15.1269
-18.02633
-21.1074
-23.90438
-25.80003
-26.13175
-24.44888
-20.69341
-15.28184
-8.963341
-2.675034
2.84774
7.124115
10.08949
11.96043
12.99266
13.35755
13.14133
12.3673
11.11096
9.598793
8.132393
7.034393
6.500412
6.443138
6.591591
6.626602
6.316238
5.690758
4.990822
4.509705
4.335114
4.36132
4.292824
3.817009
2.79744
1.277184
-0.4539795
-2.083008
-3.406784
-4.488953
-5.579651
-7.000763
-9.003601
-11.66497
-14.86113
-18.32501
-21.75204
-24.8301
-27.23105
-28.54969
-28.33635
-26.21514
-22.13729
-16.44592
-9.957802
-3.669594
1.58651
5.395798
7.819328
9.206085
10.03185
10.55281
10.83492
10.82275
10.51972
10.1112
9.868752
10.05865
10.72506
11.6925
12.57325
12.95421
12.60296
11.58865
10.20797
8.762657
7.479774
6.300224
5.070145
3.565041
1.671204
-0.508934
-2.736572
-4.772263
-6.475128
-7.815125
-8.930359
-9.962646
-11.08278
-12.44478
-14.15279
-16.24706
-18.68527
-21.30905
-23.72742
-25.47792
-26.00012
-24.82234
-21.77589
-17.08745
-11.35173
-5.424255
-0.1220398
4.05954
6.898758
8.513062
9.213623
9.322525
9.100418
8.748962
8.414825
8.26149
8.420166
8.890564
9.580536
10.33626
10.99048
11.42648
11.57246
11.38699
10.92326
10.24873
9.401215
8.448441
7.452438
6.404022
5.227676
3.803391
2.013092
-0.1372375
-2.47644
-4.783325
-6.757813
-8.204498
-9.192856
-9.912903
-10.6041
-11.53629
-12.8365
-14.52832
-16.58076
-18.87921
-21.24098
-23.32355
-24.61719
-24.49095
-22.59915
-18.89383
-13.75621
-7.888809
-2.075165
3.011871
6.992905
9.816254
11.70995
12.90256
13.59584
13.91878
13.90887
13.57561
12.92474
12.00508
10.93922
9.934601
9.158813
8.760803
8.744064
8.980759
9.332214
9.606049
9.694183
9.544388
9.168274
8.546707
7.673508
6.478424
4.86879
2.909897
0.7353058
-1.479645
-3.564651
-5.39801
-6.982758
-8.338516
-9.537186
-10.72714
-12.00027
-13.40179
-14.97368
-16.70193
-18.50031
-20.24883
-21.6767
-22.41571
-22.09694
-20.46544
-17.40489
-13.1785
-8.238281
-3.165939
1.535522
5.579239
8.911316
11.57175
13.62814
15.09552
15.87312
15.98874
15.52928
14.65005
13.63445
12.67845
11.85971
11.13118
10.38406
9.480469
8.43486
7.384628
6.424698
5.68515
5.147156
4.673233
4.128113
3.470459
2.736084
2.041763
1.51091
1.073364
0.6382904
-0.02563477
-1.091949
-2.636612
-4.561264
-6.674347
-8.761749
-10.61139
-12.16125
-13.39755
-14.48077
-15.57539
-16.76765
-17.99815
-19.01047
-19.41644
-18.72495
-16.62589
-12.97145
-8.033585
-2.321732
3.455811
8.598892
12.5972
15.17867
16.47772
16.73178
16.31689
15.49063
14.42793
13.18062
11.82465
10.52263
9.39743
8.70369
8.471176
8.597305
8.864288
9.035248
8.969864
8.677765
8.312103
7.920197
7.563354
7.120148
6.454132
5.464294
4.157166
2.64502
1.005859
-0.5985413
-2.194016
-3.681458
-5.056473
-6.284729
-7.312424
-8.208969
-9.109695
-10.25288
-11.83496
-13.96033
-16.45767
-19.00082
-21.16051
-22.37305
-22.34091
-20.93283
-18.21028
-14.44426
-10.03816
-5.395279
-0.8623352
3.215195
6.67392
9.345581
11.18724
12.2729
12.68079
12.52336
11.91029
11.07594
10.18317
9.434143
8.874146
8.439636
7.974274
7.297287
6.3508
5.209534
4.150085
3.391083
3.076126
3.099945
3.100418
2.646408
1.386734
-0.7422028
-3.532578
-6.546036
-9.404739
-11.83197
-13.78696
-15.46823
-17.09056
-18.78716
-20.55075
-22.2563
-23.65074
-24.50783
-24.42763
-23.02142
-20.07658
-15.59888
-9.914108
-3.70491
2.224319
7.246857
10.97163
13.41093
14.82242
15.43297
15.42564
14.8674
13.77934
12.30173
10.70972
9.221695
8.039612
7.253876
6.815628
6.685257
6.765533
6.965546
7.201599
7.431717
7.573456
7.613571
7.572159
7.462204
7.385406
7.298141
7.15097
6.806747
6.097183
4.835976
2.963631
0.5339813
-2.307953
-5.310715
-8.317863
-11.20815
-13.98845
-16.6983
-19.35032
-21.93966
-24.33497
-26.36634
-27.73742
-28.1095
-27.04284
-24.30723
-19.92395
-14.23447
-7.921059
-1.739563
3.599625
7.688454
10.38812
11.83859
12.36765
12.29963
11.98027
11.62595
11.39101
11.30127
11.32301
11.42026
11.5789
11.86014
12.25027
12.72575
13.12685
13.31074
13.12094
12.48804
11.46121
10.19025
8.893738
7.6427
6.510536
5.418571
4.273994
2.946793
1.348312
-0.6020737
-2.909096
-5.461983
-8.19223
-10.87979
-13.32656
-15.35549
-16.80702
-17.681
-18.09472
-18.40553
-18.98637
-20.09068
-21.6807
-23.32
-24.34525
-24.06033
-22.0173
-18.18673
-13.03261
-7.218788
-1.420464
3.896889
8.447746
12.06776
14.66407
16.14772
16.47157
15.76602
14.40405
12.79475
11.34659
10.22642
9.394241
8.757538
8.222916
7.825523
7.738327
8.174675
9.199272
10.63831
12.16674
13.42357
14.15073
14.27421
13.82662
12.92282
11.72539
10.32615
8.752495
6.98259
5.042107
2.955154
0.6998138
-1.686073
-4.160912
-6.659576
