4.555475
-12.66283
-34.42725
-59.48933
-85.86763
-111.3162
-134.0724
-152.8682
-167.0418
-176.2589
-180.4154
-179.5612
-174.1482
-165.0448
-153.3401
-140.2806
-126.7884
-113.5097
-100.6672
-88.0922
-75.1687
-61.18036
-45.49806
-27.61315
-7.56543
14.33932
37.3651
60.4936
82.45918
102.1085
118.5821
131.6944
142.0569
150.7531
158.9635
167.3928
175.6823
182.3267
184.9484
181.1218
169.2392
149.2052
122.5785
92.22314
61.34961
32.52777
7.120361
-14.92778
-34.50558
-52.55968
-69.50325
-85.20937
-99.20943
-111.166
-121.2058
-129.6748
-136.8976
-142.7675
-146.7995
-148.299
-146.9426
-142.9273
-136.9401
-129.7205
-121.2574
-110.7567
-96.81624
-78.38116
-55.48846
-29.81752
-4.089203
18.84401
37.0914
50.3029
59.35509
65.71906
70.53944
74.28654
76.76108
77.68944
77.17038
75.7876
74.32254
73.30356
72.79092
72.20773
70.819
68.05209
63.71747
58.15598
51.78943
44.961
37.72351
30.05002
22.1037
14.46066
8.157074
4.296722
3.661407
6.270721
11.4621
17.98431
24.53531
30.0444
33.76431
35.49289
35.32852
33.6134
30.76379
27.28937
23.56372
19.91571
16.52209
13.45044
10.78394
8.560608
6.868286
5.732574
5.135223
4.92514
4.813202
4.439545
3.424713
1.52005
-1.338531
-4.98819
-8.949249
-12.50049
-14.9288
-15.65231
-14.54861
-12.0632
-9.049286
-6.680908
-6.061493
-7.628296
-11.05789
-15.32388
-18.95847
-20.67429
-19.75793
-16.19461
-10.71973
-4.44693
1.63623
6.820068
10.65549
12.85226
13.14709
11.21902
7.051666
1.018738
-5.977234
-12.58008
-17.54172
-20.19781
-20.68146
-19.85818
-18.83701
-18.48099
-19.21872
-21.05566
-23.71194
-26.7309
-29.43713
-30.7464
-29.65192
-25.56894
-18.79169
-10.59192
-2.784668
3.091644
6.397247
7.547607
7.677185
7.826416
8.569275
10.09464
12.73499
17.06415
23.84753
33.33701
44.88715
56.845
67.07745
73.94138
76.78104
76.25351
73.77557
70.88712
68.71536
67.7612
67.89819
68.57059
69.00906
68.43176
66.13287
61.80173
55.60071
48.16269
40.40854
33.22958
27.20349
22.52371
19.22247
17.2778
16.78748
17.87509
20.57095
24.55533
29.29684
34.20941
38.81262
42.94162
46.66711
50.14139
53.37787
56.23758
58.31058
59.19034
58.57401
56.3524
52.6355
47.72974
42.05789
35.99915
29.85725
23.71951
17.50897
11.02536
4.231445
-2.616394
-8.967056
-14.18814
-17.82393
-19.84152
-20.71138
-21.24397
-22.37679
-25.02271
-29.827
-37.10473
-46.67513
-57.54325
-67.89196
-75.33458
-77.68558
-73.76376
-64.14478
-50.903
-36.93832
-24.73425
-15.42109
-8.801111
-4.084716
-0.9663773
-0.1507416
-3.065496
-10.62016
-22.17595
-35.28343
-46.51396
-53.26777
-55.26912
-54.89634
-56.35818
-63.87635
-79.74168
-103.3446
-131.5196
-159.4516
-182.3297
-196.5691
-200.4716
-194.3825
-180.3325
-161.0574
-139.2975
-117.1888
-95.90676
-76.00228
-57.58223
-40.72888
-25.59382
-12.43225
-1.457935
7.187298
13.38843
17.20639
18.6774
17.92026
15.16628
10.75438
5.149387
-0.9218216
-6.66942
-11.23462
-13.81495
-14.11401
-12.20995
-8.354916
-2.891124
3.924978
11.77078
19.83117
26.66532
30.63974
30.57233
26.7788
21.40398
17.76845
18.86336
25.94343
37.74651
51.01717
62.0505
68.2358
68.97613
65.476
59.75118
53.534
47.74825
42.57168
37.92381
33.95013
30.96341
29.31328
28.93806
29.36532
29.84425
29.70282
28.5271
26.26787
23.22322
19.80353
16.46991
13.50929
10.99792
8.714142
6.272781
3.223038
-0.7353058
-5.430786
-10.17435
-13.75447
-14.83904
-12.29884
-5.830887
3.937332
15.5632
27.26257
37.57759
45.67247
51.49022
55.41141
57.96222
59.52583
60.20677
60.01706
58.98447
57.30986
55.15971
52.73192
49.95483
46.70193
42.85879
38.49232
33.94695
29.69289
26.12237
23.34416
21.06192
18.68433
15.60547
11.33671
5.861282
-0.4257889
-6.935333
-13.01714
-18.17784
-22.29491
-25.49194
-28.09138
-30.41154
-32.52781
-34.03606
-34.21301
-32.12108
-26.96658
-18.59859
-7.710659
4.253914
15.63874
25.04364
31.98577
36.82207
40.52724
44.04687
47.84472
51.71726
54.89259
56.25858
54.52622
48.41964
37.00503
20.2446
-0.7672424
-23.63267
-45.27072
-62.73524
-74.23473
-79.47093
-79.5416
-76.23318
-71.12878
-65.34758
-59.44455
-53.69566
-48.29887
-43.55119
-39.54495
-36.26221
-33.53079
-31.16498
-29.18404
-27.78381
-27.349
-28.15079
-30.30758
-33.48709
-36.89079
-39.38782
-39.87099
-37.68623
-32.86192
-26.31654
-19.42365
-13.50696
-9.37249
-6.928139
-5.475853
-4.124573
-2.303505
0.1133881
2.776459
5.243889
7.17865
8.514618
9.391586
9.934204
10.23562
10.19318
9.776711
8.997559
8.072716
7.266922
6.85688
7.027847
7.742844
8.82428
9.933914
10.69711
10.75123
9.922935
8.23365
5.781143
2.815376
-0.5001831
-4.024368
-7.60495
-11.16338
-14.65601
-18.05191
-21.35847
-24.726
-28.16489
-31.55875
-34.4531
-36.13663
-35.82352
-33.00153
-27.68391
-20.34284
-11.95822
-3.565155
3.903145
9.813583
13.85511
15.97431
16.31217
15.16035
13.09859
10.77214
8.941574
8.088108
8.324787
9.395153
10.76299
12.01548
12.92641
13.6262
14.30741
15.08678
15.8303
16.23189
16.0294
15.16171
13.798
12.20341
10.49258
8.540764
6.17099
3.294613
-0.03091431
-3.487186
-6.701
-9.457474
-11.77323
-13.85607
-16.00473
-18.35974
-20.84454
-23.29916
-25.34481
-26.5652
-26.49738
-24.81127
-21.37584
-16.38339
-10.44001
-4.257467
1.469313
6.358963
10.31507
13.45112
15.8568
17.5411
18.41669
18.40385
17.60402
16.2846
14.86444
13.57759
12.5022
11.60069
10.72332
9.841209
8.985575
8.309662
7.901674
7.753233
7.727517
7.55335
7.083586
6.123075
4.638699
2.581842
0.06329536
-2.71075
-5.5478
-8.248068
-10.73121
-13.07475
-15.50286
-18.17179
-21.21592
-24.56288
-27.91471
-30.87755
-32.99858
-33.78676
-32.83012
-29.92392
-25.12911
-18.84311
-11.86733
-5.022133
0.9387035
5.5798
8.930742
11.30515
13.13318
14.57567
15.56789
15.76079
14.90673
13.0414
10.50311
7.844282
5.409117
3.250198
1.142471
-1.252045
-4.005726
-6.925678
-9.572113
-11.60998
-12.78035
-13.15514
-13.01137
-12.62637
-12.33678
-12.42277
-13.11565
-14.40086
-16.26524
-18.42046
-20.58087
-22.47808
-23.91216
-24.83951
-25.3061
-25.35425
-24.93575
-24.09306
-22.77812
-20.92625
-18.3949
-14.8068
-9.816292
-3.124146
5.379654
15.36996
26.10711
36.65156
46.14124
53.95946
60.05045
64.5627
67.72733
69.67952
70.29166
69.35119
66.78099
62.90104
58.26396
53.76624
50.1646
47.80666
46.50993
45.69189
44.65438
42.96029
40.64589
38.03112
35.5679
33.35035
30.94141
27.4956
22.13535
14.4505
4.672295
-6.214951
-16.95431
-26.30363
-33.60392
-38.75935
-42.09887
-44.18511
-45.47995
-46.37466
-47.08978
-47.75192
-48.2097
-48.12148
-46.97391
-44.17217
-39.43972
-32.90808
-25.21761
-17.28246
-10.04727
-4.105263
0.3097763
3.210648
4.855911
5.53978
5.55455
5.138054
4.47184
3.591507
2.505928
1.235641
-0.2107697
-1.652718
-2.943604
-3.932358
-4.604538
-4.968033
-5.021675
-4.74086
-3.941757
-2.596016
-0.8023605
1.069786
2.541481
3.118118
2.532425
0.8646393
-1.532631
-4.105247
-6.389053
-8.094406
-9.28125
-10.22091
-11.33336
-13.09666
-15.75688
-19.27971
-23.16203
-26.60461
-28.62159
-28.45156
-25.73481
-20.71252
-14.16886
-7.080582
-0.3746185
5.370079
9.953674
13.43008
15.91927
17.41298
17.86752
17.19693
15.51753
13.06503
10.2545
7.576782
5.365448
3.832214
2.942322
2.638443
2.780411
3.310089
4.065048
4.98674
6.030533
7.093536
8.138535
8.943039
9.302917
9.015991
7.956314
6.097595
3.635574
0.9052124
-1.85524
-4.409058
-6.816696
-9.305969
-12.13426
-15.52242
-19.45346
-23.71837
-27.77995
-31.09204
-32.99455
-32.93521
-30.62706
-26.0468
-19.57188
-11.81175
-3.666779
3.935974
10.14133
14.47371
16.91237
17.76144
17.57977
16.77493
15.63614
14.0329
11.75862
8.757034
5.280319
1.907349
-0.8474121
-2.552353
-3.289063
-3.329025
-3.158524
-3.126511
-3.409637
-4.143021
-5.332062
-7.031982
-8.836792
-10.13417
-9.98909
-7.67482
-2.924927
3.704788
11.01746
17.659
22.50958
25.18387
25.7827
24.65146
22.03003
18.04842
12.78783
6.667099
0.6184692
-4.275818
-6.966949
-7.033875
-4.788269
-1.087433
2.934875
6.335602
8.513275
9.448975
9.486267
9.255829
9.51062
10.88428
13.84567
18.33371
23.89847
29.74756
35.11688
39.37051
42.31
44.05548
44.83124
44.85562
44.0228
42.04102
38.5611
33.45309
26.87073
19.47482
12.16415
5.825684
1.126038
-1.918335
-3.877838
-5.762665
-8.585876
-12.96021
-18.70041
-25.12903
-31.4136
-36.90817
-41.43979
-45.12668
-48.03
-49.93811
-50.34
-48.64545
-44.72772
-38.86081
-31.4633
-22.6433
-11.94191
1.364258
17.57973
35.96436
54.63026
70.88261
82.22076
87.25208
85.91049
79.29201
69.01366
56.6752
43.55162
30.75999
19.23729
9.867584
3.311707
-0.2986908
-1.376877
-0.7997894
0.3175354
1.04982
1.007614
0.4105072
-0.01786804
0.5778656
2.584976
5.786819
9.22377
11.62971
11.91594
9.59967
5.056915
-0.6806488
-6.317703
-10.79294
-13.45755
-14.22806
-13.45905
-11.74007
-9.716537
-7.967346
-7.09343
-7.622177
-9.946976
-14.12299
-19.79561
-26.24352
-32.63121
-38.11414
-42.10406
-44.28094
-44.4234
-42.43591
-38.3799
-32.59448
-25.79684
-18.94572
-12.94287
-8.330261
-5.24324
-3.42572
-2.551514
-2.468369
-3.213379
-4.840866
-7.213852
-9.981567
-12.62424
-14.70953
-16.05038
-16.68385
-16.8689
-16.81143
-16.56792
-15.98221
-14.75685
-12.58287
-9.338974
-5.059845
-0.1915588
4.60199
8.559784
10.97787
11.50223
10.33838
8.411026
7.08667
7.945572
11.93329
19.07361
28.22758
37.32939
44.11395
46.92052
45.2394
39.64136
31.39412
21.82632
11.974
2.541809
-5.985168
-13.22061
-18.81429
-22.60522
-24.76567
-25.77768
-26.20096
-26.50758
-26.8911
-27.38248
-27.91644
-28.54271
-29.31801
-30.37393
-31.71762
-33.16039
-34.42867
-35.11357
-34.79485
-33.0401
-29.69479
-24.79314
-18.71045
-12.05983
-5.591293
-0.01060486
4.152237
6.755722
8.049179
8.477982
8.455734
8.201279
7.609268
6.393921
4.331741
1.431824
-1.870834
-5.041931
-7.634613
-9.563904
-11.1947
-13.16638
-16.02052
-19.953
-24.72162
-29.75278
-34.47081
-38.51698
-41.74059
-44.26286
-46.32588
-48.27103
-50.49461
-53.45227
-57.4288
-62.20123
-66.61989
-68.56529
-65.48482
-55.34453
-37.67448
-14.05191
12.13423
36.89035
56.81438
70.24127
77.37413
79.61252
78.60965
75.47507
70.54837
63.68225
54.81122
44.20081
32.51685
20.75076
9.969635
1.333832
-3.905396
-4.660461
-0.2927246
8.964691
21.90686
36.49728
50.44644
61.69318
68.97247
71.83093
70.53217
65.71994
58.1861
48.80548
38.436
27.89603
17.94971
9.320251
2.607178
-1.721375
-3.402344
-2.521179
0.5421753
5.097107
10.35529
15.63535
20.4292
24.36966
27.22971
28.85272
29.13199
28.16949
26.15646
23.47784
20.5834
17.89941
15.59256
13.67722
12.04135
10.43634
8.69165
6.696228
4.505463
2.311066
0.3696289
-1.187469
-2.330261
-3.19809
-4.059082
-5.180634
-6.802094
-9.074615
-12.03348
-15.5835
-19.5307
-23.45245
-26.7504
-28.72086
-28.72351
-26.45599
-22.10294
-16.30382
-9.935226
-3.89621
1.225128
5.178955
7.987198
9.876404
11.09866
11.75708
11.88849
11.46129
10.44475
8.940964
7.077362
5.012711
2.883667
0.8096313
-1.207367
-3.201416
-5.276825
-7.46492
-9.696823
-11.80959
-13.56795
-14.80829
-15.56198
-16.05722
-16.62045
-17.55035
-19.04085
-20.98685
-23.07556
-24.83707
-25.75439
-25.42235
-23.49817
-19.79327
-14.24178
-7.089966
1.197433
9.840942
17.97748
24.74989
29.49571
31.83667
31.68074
29.1308
24.47435
18.13844
10.63805
2.699875
-4.954636
-11.66124
-16.97914
-20.74301
-23.08476
-24.23651
-24.54477
-24.3242
-23.80737
-23.14316
-22.45729
-21.85953
-21.43245
-21.24315
-21.29857
-21.61473
-22.14462
-22.86333
-23.70354
-24.73593
-26.00612
-27.63606
-29.59821
-31.65898
-33.3624
-34.05624
-33.00826
-29.72481
-24.17229
-16.69934
-8.148956
0.5452271
8.553009
15.3237
20.63431
24.60713
27.37735
29.06686
29.79305
29.56389
28.51973
26.85152
24.82919
22.64638
20.54683
18.61642
16.94243
15.60606
14.58815
13.84833
13.38142
13.12828
13.05623
13.15131
13.26382
13.15552
12.48949
10.98422
8.512039
5.296066
1.721542
-1.656158
-4.466568
-6.592178
-8.262772
-9.92189
-11.98123
-14.73499
-18.10831
-21.76964
-25.09097
-27.34863
-27.7666
-25.75502
-21.08678
-14.08029
-5.582382
3.219971
11.03853
17.04292
20.89827
22.83826
23.46075
23.32692
22.77098
21.85352
20.49329
18.66306
16.50899
14.38838
12.71706
11.80705
11.6738
12.11475
12.62956
12.845
12.62294
12.02443
11.36603
10.82904
10.32042
9.547195
8.19104
5.984558
3.113373
0.04621887
-2.646835
-4.514938
-5.499146
-5.935715
-6.294769
-7.005753
-8.319183
-10.17014
-12.39369
-14.76266
-17.01489
-18.82431
-19.75021
-19.24326
-16.82521
-12.43604
-6.388153
0.5240479
7.26825
12.9691
17.08183
19.5237
20.51437
20.41
19.47549
18.00943
16.18634
14.19983
12.29221
10.61958
9.344742
8.469604
7.923904
7.4944
7.05806
6.53212
6.020218
5.807556
6.139908
7.092834
8.453644
9.71846
10.19662
9.392334
7.070633
3.413956
-1.125031
-5.994202
-10.72018
-14.96565
-18.58556
-21.62909
-24.28305
-26.83784
-29.4558
-32.10716
-34.49728
-36.08066
-36.2222
-34.41093
-30.38939
-24.34935
-16.8569
-8.743134
-0.8557892
6.044678
11.47197
15.28893
17.54892
18.54942
18.63849
18.12012
17.22455
16.2021
15.22838
14.48564
14.11839
14.15807
14.49353
14.96982
15.30035
15.21711
14.60136
13.42804
11.86071
10.07086
8.230934
6.43866
4.669029
2.79985
0.7121887
-1.708031
-4.51329
-7.608727
-10.81395
-13.92527
-16.6503
-18.81183
-20.4044
-21.57133
-22.65511
-24.07221
-26.11691
-28.78738
-31.73506
-34.20661
-35.32507
-34.34798
-30.85267
-24.87217
-16.96355
-7.98571
0.996109
9.013672
15.36257
19.69976
22.07906
22.86231
22.58868
21.7751
20.76206
19.69645
18.51794
17.18808
15.67056
14.01172
12.43977
11.10579
10.18645
9.708313
9.686089
9.914207
10.27859
10.62148
10.77657
10.68035
10.24753
9.44986
8.247978
6.750198
4.940857
2.884773
0.5989075
-1.866837
-4.464569
-7.100449
-9.611794
-11.86064
-13.68434
-15.16183
-16.45418
-17.82912
-19.60355
-21.81308
-24.27319
-26.43033
-27.53211
-26.91563
-24.24284
-19.66039
-13.71088
-7.321304
-1.29229
3.637558
7.133171
9.208221
10.09966
10.14383
9.775856
9.334839
9.011017
8.999756
9.277718
9.838425
10.60921
11.46494
12.28709
12.92523
13.23121
13.01332
12.21268
10.87466
9.180641
7.466629
5.921417
4.699745
3.641289
2.472801
0.8825378
-1.245628
-3.770477
-6.345833
-8.491051
-9.967407
-10.73331
-11.0945
-11.4099
-12.03187
-13.14696
-14.81263
-16.87977
-19.03844
-20.9154
-21.95407
-21.65949
-19.68458
-15.97391
-10.87193
-5.012218
0.8826141
6.192142
10.50489
13.6963
15.84424
17.05264
17.46535
17.12654
16.1453
14.58488
12.57251
10.27361
7.954342
5.879246
4.298862
3.353642
3.036732
3.271099
3.856743
4.565533
5.198475
5.572533
5.572159
5.139069
4.2463
2.918648
1.196053
-0.8712425
-3.157135
-5.545849
-7.882656
-10.02072
-11.87774
-13.45306
-14.92557
-16.53805
-18.43859
-20.63981
-22.94584
-25.05593
-26.46243
-26.71188
-25.41558
-22.53306
-18.30109
-13.25068
-8.009556
-3.241951
0.6251373
3.45517
5.369301
6.701206
7.695251
8.539818
9.296299
9.915424
10.32693
10.56087
10.69995
10.80595
10.95042
11.06341
11.00865
10.76266
10.27968
9.671894
9.122604
8.734989
8.485237
8.228153
7.774212
6.876007
5.479866
3.644474
1.559879
-0.56147
-2.642292
-4.693607
-6.818802
-9.09676
-11.57042
-14.22559
-17.16076
-20.40381
-23.9741
-27.68512
-31.00405
-33.13577
-33.29285
-30.97427
-26.14857
-19.44552
-11.8113
-4.183186
2.624485
8.200645
12.43481
15.39539
17.18827
18.03856
18.17739
17.8264
17.26509
16.69776
16.21307
15.86424
15.62219
15.38641
15.08245
14.63343
14.01653
13.25856
12.46311
11.71183
11.03542
10.31184
9.315117
7.857147
5.774223
3.110069
0.09643555
-2.978752
-5.827515
-8.19368
-10.05588
-11.49417
-12.66965
-13.86559
-15.39885
-17.43216
-20.09383
-23.41775
-27.09685
-30.65777
-33.43967
-34.58891
-33.40627
-29.56368
-23.22173
-15.11181
-6.337936
2.022835
9.061966
14.29256
17.65939
19.32115
19.63943
19.00941
17.76078
16.2345
14.75318
13.54002
12.78195
12.56597
12.83197
13.51092
14.53054
15.72988
16.92891
17.96323
18.61317
18.74738
18.37592
17.46544
16.15325
14.59877
12.88614
11.02414
9.033279
6.836052
4.393288
1.725922
-1.167473
-4.176102
-7.188347
-10.11831
-12.94447
-15.7244
-18.57947
-21.58284
-24.6062
-27.27036
-28.95956
-28.99203
-26.82723
-22.29835
-15.71821
-7.817688
0.4497375
8.191895
14.76605
19.84351
23.43295
25.71592
26.93787
27.27791
26.80774
25.53852
23.53687
20.90552
17.86846
14.77147
11.98438
9.780045
8.261086
7.327972
6.751114
6.32402
5.928993
5.580231
5.356888
5.263962
5.160439
4.771782
3.757393
1.837257
-1.0662
-4.815956
-9.06485
-13.3554
-17.27115
-20.48679
-22.89049
-24.55553
-25.70387
-26.59422
-27.53564
-28.71714
-30.24102
-31.97466
-33.57205
-34.41854
-33.77303
-31.01405
-25.88104
-18.65964
-10.13732
-1.413635
6.495789
12.88685
17.53006
20.54945
22.25095
22.9107
22.73624
21.92679
20.66008
19.12709
17.41775
15.54936
13.46614
11.16602
8.812065
6.718697
5.297752
4.870598
5.531097
6.945251
8.616028
9.98571
10.6945
10.68663
10.13223
9.323273
8.45948
7.61438
6.599571
5.217804
3.304413
0.8154297
-2.043091
-5.046753
-7.898735
-10.4672
-12.70393
-14.72385
-16.67624
-18.70221
-20.97128
-23.58427
-26.71371
-30.20851
-33.72156
-36.551
-37.77627
-36.59962
-32.68085
-26.32105
-18.31316
-9.826942
-1.864052
4.860207
10.14851
14.11576
17.06233
19.25018
20.82098
21.89271
22.44624
22.50584
22.08434
21.33865
20.45124
19.55333
18.79822
18.21067
17.80355
17.48364
17.20126
16.95308
16.78276
16.77552
16.79268
16.67145
16.12868
15.00557
13.33616
11.37439
9.482117
7.993279
7.028831
6.358162
5.62323
4.351875
2.307823
-0.4905548
-3.749771
-7.102158
-10.25992
-13.03128
-15.4856
-17.69342
-19.85764
-22.05261
-24.2414
-26.16019
-27.35472
-27.27193
-25.32922
-21.29328
-15.24436
-7.762314
0.2736664
7.999588
14.64989
19.69258
22.88938
24.23402
23.90215
22.33009
20.03516
17.54672
15.29042
13.52129
12.23057
11.26745
10.49359
9.851257
9.391022
9.208588
9.315697
9.5541
9.726563
9.509941
8.783028
7.66069
6.432549
5.396988
4.734383
4.343452
3.926674
3.084503
1.545006
-0.6506119
-3.201233
-5.703659
-7.835754
-9.517517
-10.86543
-12.11179
-13.47917
-15.10739
-17.06561
-19.37409
-22.01041
-24.6992
-26.95969
-28.11158
-27.54592
-24.91453
-20.37078
-14.55676
-8.394272
-2.764229
1.785324
5.120079
7.398872
8.922394
10.0135
10.86847
11.57103
12.13914
12.57985
12.87309
13.04438
13.10625
13.07377
13.0771
13.17409
13.46936
13.97887
14.71275
15.44312
15.89621
15.82619
15.03821
13.47549
11.22444
8.478676
5.478699
2.539429
-0.1605759
-2.507576
-4.42804
-5.931084
-7.063934
-7.940128
-8.655567
-9.425865
-10.41881
-11.81659
-13.80569
-16.52485
-20.02761
-24.12255
-28.34744
-31.91947
-33.93908
-33.5986
-30.47171
-24.73336
-17.16483
-9.008186
-1.458527
4.682346
9.066284
11.83121
13.43278
14.29358
14.81024
15.22743
15.66222
16.15637
16.76893
17.45332
18.08453
18.53654
18.68422
18.44723
17.87913
17.07122
16.10122
15.05929
13.9554
12.69569
11.23717
9.551357
7.641953
5.603558
3.523922
1.486115
-0.5918121
-2.833702
-5.429977
-8.439384
-11.85368
-15.39801
-18.68318
-21.44114
-23.4132
-24.66202
-25.45697
-26.17382
-27.11997
-28.4745
-30.1013
-31.57226
-32.38787
-31.94378
-29.84694
-25.96415
-20.56477
-14.25576
-7.818752
-2.06118
2.466667
5.45549
6.957661
7.259636
6.820229
6.095554
5.315983
4.614948
4.041901
3.584995
3.214664
3.036858
3.069336
3.322338
3.80563
4.395893
4.986282
5.464626
5.762424
5.823963
5.66795
5.389851
5.099754
4.975437
5.053181
5.326641
5.579662
5.640987
5.385674
4.725594
3.707092
2.368477
0.756588
-1.20079
-3.556149
-6.368366
-9.679001
-13.41232
-17.44097
-21.5376
-25.34746
-28.3683
-30.0509
-29.86709
-27.56983
-23.2876
-17.4757
-10.85951
-4.193222
1.904228
7.066986
11.22102
14.3888
16.64983
17.97534
18.33596
17.6679
16.12364
14.02895
11.85762
10.18275
9.420395
9.825821
11.39765
13.93551
17.02881
20.19935
23.01293
25.19459
26.58476
27.15846
26.9454
25.93244
24.03319
21.20314
17.48768
13.22225
8.884743
5.001175
1.88327
-0.4500275
-2.244293
-3.902802
-5.773788
-8.057251
-10.73398
-13.6484
-16.50381
-18.89616
-20.35361
-20.30951
-18.37604
-14.43835
-8.778374
-2.11731
4.655754
10.73004
15.52172
18.82726
20.82478
21.84392
22.2313
22.14275
21.577
20.46443
18.78339
16.62495
14.21269
11.89062
9.863991
8.31266
7.182076
6.342171
5.714058
5.20903
4.776054
4.33931
3.724892
2.628666
0.8301773
-1.768078
-5.019516
-8.509205
-11.72569
-14.30871
-16.12347
-17.25982
-18.0927
-18.96092
-20.12321
-21.73612
-23.7893
-26.13535
-28.46965
-30.41943
-31.47603
-31.23881
-29.39142
-25.96822
-21.35135
-16.08726
-10.80642
-5.945263
-1.781181
1.656994
4.42347
6.714977
8.587864
9.99873
10.88184
11.12064
10.70189
9.711819
8.368401
6.937717
5.762039
4.972034
4.447689
4.023876
3.475529
2.70665
1.760288
0.7759743
-0.1990433
-1.137058
-2.089386
-3.196365
-4.502151
-5.965324
-7.610767
-9.53698
-11.91087
-14.94422
-18.58018
-22.38316
-25.52453
-26.9904
-26.01244
-22.29737
-16.18121
-8.478485
-0.2590332
7.506676
14.12932
19.26001
22.72145
24.47192
24.63351
23.4652
21.35259
18.7215
16.02785
13.58022
11.57768
9.980255
8.669701
7.530159
6.505394
5.666031
5.086647
4.83065
4.809418
4.782829
4.404099
3.389153
1.686325
-0.5263443
-2.865738
-4.979935
-6.710716
-8.093735
-9.345856
-10.77361
-12.56175
-14.81344
-17.37716
-19.81597
-21.45638
-21.5642
-19.4817
-14.97826
-8.389046
-0.5010147
7.575623
14.76798
20.31059
23.8335
25.22758
24.71684
22.61562
19.35954
15.53207
11.69338
8.316666
5.660439
3.709656
2.185036
0.8552551
-0.4728775
-1.849121
-3.141273
-4.199791
-4.877327
-5.097359
-4.902008
-4.446091
-3.949417
-3.666512
-3.843918
-4.57756
-5.869049
-7.55201
-9.367416
-11.13044
-12.74956
-14.38644
-16.30671
-18.8093
-22.00426
-25.72215
-29.48468
-32.54875
-34.16609
-33.73469
-31.01395
-26.15746
-19.68142
-12.28004
-4.722092
2.314636
8.425613
13.37183
17.09464
19.69733
21.31846
22.09091
22.21986
21.85367
21.22032
20.5819
20.1431
20.02686
20.15617
20.40276
20.54147
20.4136
20.06663
19.67001
19.44305
19.46272
19.60154
19.52013
18.82723
17.26883
14.79592
11.66059
8.183792
4.731407
1.506889
-1.422852
-4.046509
-6.431961
-8.710449
-11.08015
-13.76532
-17.02547
-20.84568
-24.88087
-28.39663
-30.45213
-30.28223
-27.62542
-22.85405
-16.74427
-10.33546
-4.377861
0.7321854
4.96064
8.436249
11.25479
13.49171
15.08657
16.11445
16.61164
16.73902
16.7076
16.63711
16.67297
16.86253
17.25758
17.74343
18.27342
18.7266
19.07489
19.38441
19.61376
19.71786
19.52084
18.85833
17.57639
15.66143
13.21449
10.44492
7.58696
4.808708
2.259605
-0.06021118
-2.199722
-4.343521
-6.791428
-9.838112
-13.69098
-18.28166
-23.25674
-27.86639
-31.24313
-32.64752
-31.61177
-28.1859
-22.8668
-16.54327
-10.05818
-4.210602
0.6382065
4.414886
7.146217
9.049324
10.33492
11.21301
11.82006
12.34438
12.88342
13.46416
14.09135
14.66034
15.15566
15.52305
15.73463
15.69673
15.38815
14.73138
13.70524
12.36405
10.78422
9.046364
7.187576
5.155525
2.918762
0.4794159
-2.116837
-4.794937
-7.377014
-9.693207
-11.59136
-13.0211
-14.11429
-15.00244
-15.96214
-17.26881
-19.14338
-21.65551
-24.74139
-28.04787
-30.99229
-32.8331
-32.76548
-30.32278
-25.4473
-18.59747
-10.60455
-2.492714
4.939476
11.172
15.96202
19.28884
21.20934
21.84293
21.44044
20.26482
18.5415
16.49344
14.23486
11.82004
9.374146
7.036766
4.98719
3.441322
2.523979
2.337631
2.908813
4.226524
6.120888
8.276665
10.2663
11.63583
12.16659
11.85544
11.02452
9.958649
8.79916
7.412487
5.538109
2.965015
-0.2908516
-3.907284
-7.551964
-10.98839
-14.28761
-17.7326
-21.63449
-26.14783
-31.19146
-36.41814
-41.16734
-44.74977
-46.41579
-45.53321
-41.77773
-35.2627
-26.6813
-17.17079
-8.085217
-0.509903
4.941692
8.304527
10.10851
11.06515
11.84108
12.68542
13.62322
14.43338
14.92859
15.01198
14.74606
14.21299
13.43312
12.38413
10.97731
9.33176
7.750427
6.722855
6.766327
8.252998
11.15064
14.95253
18.91185
22.19499
24.23341
24.75292
23.80741
21.61662
18.40318
14.3634
9.607071
4.351761
-1.109398
-6.397285
-11.20777
-15.38409
-18.93083
-21.87096
-24.1165
-25.39212
-25.26613
-23.41006
-19.72224
-14.50753
-8.493549
-2.518936
2.641357
6.492355
8.885052
10.00444
10.1626
9.836914
9.523689
9.582363
10.32646
11.80954
13.92252
16.3483
18.76739
20.84613
22.38049
23.26189
23.46218
22.99657
21.90591
20.29996
18.31134
16.13946
13.8121
11.30885
8.499298
5.276035
1.633217
-2.332165
-6.445545
-10.46941
-14.2427
-17.79474
-21.2471
-24.6687
-28.08186
-31.23574
-33.6974
-34.88348
-34.14174
-31.10023
-25.73869
-18.51847
-10.13513
-1.526041
6.484827
13.22832
18.34338
21.71585
23.43746
23.73511
22.9297
21.50454
19.82943
18.22254
16.85582
15.74353
14.82727
14.0151
13.19586
12.25202
11.17696
9.957433
8.748346
7.70037
6.835293
6.107399
5.271178
4.075569
2.320936
0.0243125
-2.590407
-5.24702
-7.692842
-9.905659
-11.91337
-13.89786
-15.9958
-18.30609
-20.8985
-23.75831
-26.78471
-29.67792
-32.00485
-33.11972
-32.42339
-29.66987
-24.99639
-19.00986
-12.55387
-6.353395
-0.8773003
3.747087
7.631872
10.91071
13.56532
15.49067
16.56311
16.80612
16.41026
15.70824
14.958
14.24474
13.46045
12.389
10.87053
8.950644
6.94187
5.249697
4.14142
3.618227
3.417572
3.155985
2.520411
1.351055
-0.2864208
-2.2766
-4.451059
-6.809065
-9.325333
-11.96911
-14.69079
-17.44949
-20.30905
-23.29633
-26.41347
-29.3695
-31.59502
-32.33411
-30.96946
-27.20973
-21.3398
-14.13347
-6.531681
0.5694523
6.556242
11.17942
14.39277
16.24234
16.90457
16.52708
15.35877
13.67346
11.74905
9.846401
8.205826
6.939983
6.028168
5.41407
4.978069
4.62299
4.286572
3.928497
3.588528
3.311764
3.039967
2.630978
1.948738
0.9047775
-0.491024
-2.011612
-3.488094
-4.765182
-5.859665
-6.966473
-8.390839
-10.38576
-13.09053
-16.44099
-20.02514
-23.2867
-25.49225
-25.97726
-24.25258
-20.25796
-14.35711
-7.322872
-0.1799755
6.244301
11.33188
14.88754
16.93843
17.80313
17.80679
17.31457
16.60573
15.81822
15.01458
14.22812
13.40794
12.54325
11.67365
10.86513
10.18343
9.64278
9.146441
8.530338
7.771376
6.864765
5.970184
5.192202
4.562912
3.945793
3.139771
1.938776
0.2590122
-1.831358
-4.258352
-6.90527
-9.815672
-13.0194
-16.41611
-19.59348
-21.9453
-22.7299
-21.41969
-17.998
-12.86136
-6.868267
-1.035007
3.926662
7.652985
10.15465
11.68961
12.59489
13.05904
13.2873
13.3748
13.26622
12.95413
12.35518
11.3967
10.02945
8.346832
6.478313
4.690079
3.245918
2.285698
1.837437
1.747658
1.765511
1.578842
0.9401588
-0.3064919
-2.029427
-4.015022
-6.041985
-7.965466
-9.855461
-11.88426
-14.2462
-17.01647
-20.1455
-23.3551
-26.31588
-28.67069
-29.92784
-29.6935
-27.63874
-23.71699
-18.19435
-11.6218
-4.734966
1.746365
7.236504
11.50005
14.51491
16.45818
17.56709
18.04295
18.03292
17.63885
16.93382
16.06546
15.2612
14.66825
14.38441
14.41211
14.5918
14.69445
14.54921
14.08337
13.32079
12.44311
11.48148
10.37837
9.024002
7.182983
4.78384
1.937344
-0.9640121
-3.522045
-5.384659
-6.53627
-7.27573
-8.072025
-9.457672
-11.74043
-14.85861
-18.40673
-21.76186
-24.1812
-25.08078
-24.08747
-21.13759
-16.54939
-10.83623
-4.60791
1.497299
6.947571
11.48976
14.94728
17.36542
18.91402
19.74874
20.08285
20.09981
19.8723
19.41792
18.80266
17.98441
16.96543
15.82523
14.58729
13.29203
12.03622
10.81958
9.613438
8.355751
6.893349
5.164307
3.222847
1.114323
-1.083549
-3.319023
-5.586628
-7.873596
-10.09125
-12.13116
-13.81483
-15.05018
-15.99475
-16.88626
-17.99577
-19.60119
-21.79283
-24.47668
-27.28404
-29.64941
-30.84039
-30.32674
-27.83766
-23.52024
-18.0077
-12.02819
-6.246529
-1.089172
3.307316
7.040089
10.181
12.73137
14.59975
15.6263
15.85226
15.47151
14.78581
14.10082
13.64272
13.48631
13.5161
13.59457
13.53443
13.4128
13.32829
13.39381
13.72416
14.25642
14.79146
15.03461
14.78833
13.82703
12.23187
10.1261
7.665489
5.038742
2.317039
-0.463913
-3.286179
-6.024765
-8.694183
-11.21641
-13.58811
-15.81975
-17.77183
-19.17882
-19.55075
-18.43116
-15.61597
-11.33363
-6.226067
-1.052124
3.52079
7.243484
10.09593
12.28286
13.92784
14.93653
15.1516
14.51392
13.15746
11.34531
9.478027
7.820702
6.495239
5.561035
4.951004
4.583504
4.454445
4.50164
4.617523
4.758278
4.846489
4.851082
4.752754
4.448944
3.771049
2.512466
0.5849838
-1.929359
-4.734779
-7.460533
-9.809525
-11.64293
-13.11185
-14.44535
-15.91379
-17.66167
-19.70093
-21.98968
-24.36945
-26.60029
-28.21844
-28.69003
-27.48669
-24.28807
-19.24944
-12.88406
-5.98201
0.6691971
6.477516
11.18731
14.78678
17.3666
19.04834
19.92863
20.07941
19.54759
18.42081
16.75645
14.65745
12.21332
9.603004
7.084839
4.916298
3.356636
2.492416
2.263214
2.518768
3.008224
3.505943
3.833824
4.004791
4.017143
3.95356
3.839584
3.572777
3.053581
2.110054
0.6996307
-1.158424
-3.290474
-5.509087
-7.674301
-9.699646
-11.68439
-13.7247
-15.95703
-18.39894
-20.99709
-23.4749
-25.43216
-26.35303
-25.75977
-23.38089
-19.27715
-13.83113
-7.678741
-1.488495
4.11496
8.758743
12.18655
14.31454
15.14301
14.82193
13.63217
11.86581
9.86322
7.814651
5.963608
4.48558
3.58606
3.427383
4.068649
5.327209
6.848434
8.202194
9.026535
9.204041
8.822327
8.059601
7.05101
5.925339
4.712814
3.490891
2.323196
1.359741
0.6122437
-0.02429199
-0.793808
-1.911316
-3.465851
-5.287018
-7.13205
-8.776917
-10.13957
-11.30032
-12.50894
-14.04883
-16.08038
-18.67096
-21.66068
-24.70877
-27.23962
-28.66116
-28.36014
-25.99864
-21.55771
-15.49068
-8.50531
-1.51001
4.734116
9.692596
13.05492
14.88622
15.47919
15.29494
14.72614
14.10667
13.55501
13.09273
12.64078
12.13393
11.58617
11.09863
10.69577
10.34195
9.981842
9.525314
9.018356
8.549713
8.25444
8.191574
8.369186
8.598877
8.685135
8.467499
7.834854
6.759735
5.308273
3.573685
1.732681
-0.08203125
-1.774063
-3.29657
-4.707108
-6.059677
-7.387421
-8.690002
-9.925964
-11.00916
-11.89279
-12.48616
-12.54533
-11.82014
-10.13994
-7.426468
-3.837433
0.2052002
4.167664
7.49472
9.799133
11.01826
11.32736
10.95604
10.24406
9.453873
8.687759
7.971649
7.289688
6.630707
6.08342
5.717911
5.578217
5.613068
5.701202
5.598724
5.126114
4.223328
2.987442
1.612381
0.2758331
-0.916275
-1.964798
-3.023956
-4.240417
-5.715103
-7.434692
-9.312775
-11.20367
-13.04053
-14.76794
-16.36021
-17.88834
-19.36858
-20.84595
-22.38319
-24.12161
-26.05743
-28.09972
-29.83571
-30.68712
-30.04727
-27.49773
-23.01314
-17.02995
-10.37187
-3.858673
1.731659
5.991608
8.818787
10.34286
10.88844
10.78918
10.32379
9.711746
9.183578
8.889297
9.005371
9.603653
10.58006
11.76028
12.81076
13.42253
13.4207
12.80418
11.74701
10.56062
9.52002
8.785797
8.422821
8.219421
7.959015
7.294067
6.012451
4.021729
1.46727
-1.384293
-4.233643
-6.801559
-9.044022
-10.99396
-12.89783
-15.00198
-17.56859
-20.60847
-23.94717
-27.18744
-29.79782
-31.37233
-31.65508
-30.67953
-28.61586
-25.67857
-21.99525
-17.68152
-12.94131
-8.069939
-3.56292
0.06684875
2.261253
2.626534
0.8546524
-3.131256
-9.037827
-15.96756
-22.19736
-25.60544
-24.18869
-16.97652
-4.237778
12.49088
31.21803
50.23717
68.53532
85.94183
102.4815
118.1247
132.304
144.0686
152.0314
154.692
150.7674
139.4226
120.9375
96.79843
69.66753
42.59669
18.17938
-2.260956
-18.72377
-32.07291
-43.41344
-53.48257
-62.55676
-70.50177
-77.11214
-82.2646
-85.84808
-87.71236
-87.59763
-85.18604
-80.28404
-73.02727
-63.97057
-53.99388
-44.18927
-35.47525
-28.4019
-22.99228
-18.84496
-15.3627
-12.25795
-9.723984
-8.260391
-8.338242
-10.05356
-12.98988
-16.20105
-18.66478
-19.5625
-18.65134
-16.17915
-12.77113
-9.029053
-5.355515
-1.964066
1.10318
3.825775
6.161301
7.95079
9.131424
9.59549
9.355392
8.494431
7.245316
5.802383
4.351212
3.090057
2.229645
2.047089
2.802643
4.697968
7.799545
11.97128
16.79532
21.57985
25.74316
28.89977
31.01753
32.317
33.12726
33.67755
33.88922
33.51279
32.29955
30.19669
27.53328
24.81281
22.38106
20.23526
18.02582
15.21155
11.39238
6.675781
1.603683
-3.129349
-7.041672
-10.17479
-12.98204
-16.07959
-19.76447
-24.00058
-28.37561
-32.37659
-35.5845
-37.76895
-38.83502
-38.6787
-37.23001
-34.5103
-30.75804
-26.42969
-21.99573
-17.66205
-13.18695
-8.007874
-1.44458
6.741623
16.05708
25.41385
33.34351
38.57816
40.49471
39.1676
35.23232
29.54308
22.91553
15.9328
9.081711
2.715225
-2.819153
-7.17775
-10.1797
-11.9595
-12.98283
-14.00911
-15.81152
-18.83296
-23.14937
-28.2874
-33.39223
-37.48048
-39.77171
-39.97011
-38.35832
-35.69717
-32.9057
-30.88087
-30.123
-30.7897
-32.66705
-35.28113
-38.19659
-41.02336
-43.3925
-44.9919
-45.61206
-45.1873
-43.91103
-42.05415
-39.73314
-36.82202
-32.87534
-27.35527
-19.96666
-11.10254
-1.675278
6.998718
13.72565
17.87642
19.49753
19.3017
18.23909
17.14429
16.481
16.46492
17.08168
18.38849
20.52953
23.55805
27.40704
31.69387
35.80594
39.18832
41.5806
42.98966
43.60351
43.48209
42.17313
39.05923
33.62773
25.8924
16.70733
7.426872
-0.6738358
-6.806343
-10.73361
-12.65775
-12.5211
-9.873505
-4.011009
5.471596
17.99108
31.84182
44.53588
53.63452
57.36868
55.07909
47.07035
34.22473
17.59651
-1.735916
-22.62605
-43.65552
-63.00195
-78.56472
-88.39459
-91.22406
-87.02411
-76.99197
-63.28431
-48.25804
-33.68629
-20.34764
-8.159191
3.337818
14.33616
24.39682
32.68376
38.41769
41.29914
41.67255
40.34114
38.09302
35.53507
32.92913
30.23832
27.20258
23.53493
18.92017
13.17268
6.359634
-1.312023
-9.385838
-17.30144
-24.42192
-30.15335
-33.82735
-34.88822
-32.95325
-28.02629
-20.71012
-12.08063
-3.44643
4.058075
9.833069
13.93492
16.76304
18.87697
20.63091
22.06385
23.07542
23.57639
23.59997
23.31722
22.9606
22.57755
22.03317
21.17307
19.85989
18.19625
16.41304
14.7927
13.60836
13.06991
13.27038
14.14083
15.44904
16.83997
17.92092
18.35277
17.99763
16.95731
15.50422
13.87689
12.20077
10.43029
8.421705
5.977963
3.039017
-0.2361631
-3.284101
-5.356742
-5.601717
-3.372113
1.491862
8.507879
16.60769
24.58945
31.3751
36.46825
39.69592
41.29625
41.6693
41.2961
40.63002
39.98445
39.62031
39.56849
39.69152
39.63528
38.88283
36.95568
33.39333
27.89935
20.44991
11.39522
1.406086
-8.564602
-17.54834
-24.89974
-30.35336
-34.11999
-36.55631
-38.04161
-38.81435
-39.04482
-38.88934
-38.51744
-38.17443
-38.0005
-38.03825
-38.03089
-37.60423
-36.45831
-34.47521
-31.71205
-28.21951
-24.02873
-19.13819
-13.68803
-7.994179
-2.557892
1.984512
5.099586
6.58857
6.564827
5.474045
3.832764
2.015366
0.2623367
-1.319771
-2.708282
-3.85405
-4.668716
-5.07338
-4.923607
-4.110573
-2.631035
-0.6620178
1.474159
3.358757
4.610893
5.016228
4.516922
3.314163
1.687355
-0.07273102
-1.853607
-3.698822
-5.680099
-7.854004
-10.22213
-12.71203
-15.15502
-17.34846
-19.04441
-19.88712
-19.61712
-17.99181
-14.92715
-10.54543
-5.314713
0.1840363
5.247459
9.296608
12.09062
13.56985
13.93996
13.5071
12.6035
11.51701
10.42682
9.384308
8.326767
7.216476
5.997894
4.695465
3.341949
1.969696
0.5779572
-0.8596954
-2.385895
-3.918274
-5.298035
-6.330872
-6.93924
-7.225037
-7.501541
-8.131012
-9.37883
-11.32753
-13.83479
-16.5699
-19.20308
-21.44212
-23.08008
-23.989
-23.97617
-22.85046
-20.44833
-16.70621
-11.78404
-6.103058
-0.1881714
5.484619
10.53787
14.81837
18.25092
20.81219
22.5264
23.40591
23.51503
23.04726
22.1823
21.06192
19.7724
18.36176
16.90019
15.46706
14.10748
12.75627
11.30991
9.583557
7.472351
5.019333
2.383865
-0.2473297
-2.747513
-5.112137
-7.374451
-9.504486
-11.46974
-13.20323
-14.60681
-15.67429
-16.53305
-17.34856
-18.24504
-19.14052
-19.69603
-19.52023
-18.22156
-15.5974
-11.80939
-7.305573
-2.639191
1.640442
5.235413
8.04953
10.07443
11.38843
11.98817
11.9101
11.22099
10.14302
8.986557
8.041153
7.523178
7.51535
8.023285
8.928177
10.15761
11.68372
13.49339
15.61015
17.97701
20.45703
22.79582
24.70419
25.85709
25.9801
24.94411
22.66557
19.18646
14.61577
9.222153
3.325409
-2.623688
-8.195053
-13.03923
-16.94542
-19.91739
-22.05231
-23.52606
-24.35619
-24.44649
-23.61571
-21.70918
-18.74384
-14.92804
-10.67549
-6.378174
-2.441696
0.9369507
3.736435
5.944244
7.554123
8.516617
8.764648
8.310425
7.334106
6.16127
5.197327
4.679153
4.620682
4.807007
4.89595
4.732529
4.33493
3.948288
3.818771
4.076859
4.527084
4.774399
4.455643
3.428314
1.816696
-0.1151581
-2.049988
-3.858124
-5.463852
-6.807739
-7.782883
-8.257156
-8.244354
-8.063583
-8.296738
-9.571457
-12.29654
-16.28262
-20.74976
-24.51213
-26.50551
-26.18698
-23.57094
-19.17505
-13.72716
-7.896515
-2.207535
3.009125
7.595764
11.38846
14.28464
16.28401
17.5074
18.16028
18.43182
18.41142
18.12283
17.5607
16.78569
15.94289
15.22614
14.79079
14.75237
14.99179
15.24365
15.12021
14.27814
12.5578
9.982208
6.718033
2.812454
-1.718887
-6.919083
-12.65878
-18.53854
-23.92831
-28.18369
-30.96776
-32.39282
-33.02676
-33.53535
-34.3183
-35.34596
-36.24144
-36.6078
-36.12372
-34.75941
-32.62303
-29.8047
-26.31052
-22.10193
-17.19958
-11.83353
-6.587616
-2.028564
1.360672
3.377319
4.105118
3.818054
2.928024
1.775452
0.7113953
-0.056427
-0.3410492
-0.1536713
0.4471283
1.359543
2.503281
3.913818
5.590302
7.495285
9.443497
11.17297
12.32423
12.65195
12.14375
10.90616
9.190842
7.21109
5.127472
2.999863
0.903656
-1.10437
-2.952774
-4.505234
-5.718826
-6.7043
-7.668518
-8.811264
-10.35783
-12.35089
-14.69086
-17.21428
-19.58725
-21.43407
-22.22694
-21.57655
-19.15863
-15.07327
-9.732773
-3.819977
1.850098
6.593796
9.996887
12.01424
12.80557
12.68167
11.92863
10.89018
9.846634
8.984772
8.435776
8.202271
8.267151
8.579269
9.092499
9.650818
10.17227
10.50223
10.5352
10.3221
9.905212
9.454666
9.102798
8.935349
8.841736
8.64917
8.105347
7.016785
5.361389
3.222168
0.8120422
-1.613693
-3.79863
-5.595718
-6.97438
-8.046341
-9.003952
-9.994598
-11.16502
-12.54636
-14.10201
-15.69313
-17.03772
-17.82184
-17.65793
-16.26982
-13.50995
-9.615417
-4.992218
-0.2238007
4.179382
7.891434
10.65933
12.45663
13.29559
13.29218
12.54776
11.39879
10.14738
9.185944
8.781448
8.966217
9.617493
10.521
11.45105
12.21751
12.75244
13.00096
12.87568
12.30108
11.21934
9.662582
7.776993
5.700111
3.550903
1.355743
-0.8522339
-3.100746
-5.233002
-7.094414
-8.593727
-9.74369
-10.76277
-11.84038
-13.19862
-14.91336
-16.98355
-19.28522
-21.75597
-24.15749
-26.12266
-27.16079
-26.67657
-24.26643
-19.94164
-14.16765
-7.730568
-1.552864
3.707603
7.757065
10.53978
12.17398
12.89364
12.8625
12.29813
11.44486
10.59293
9.934715
9.636986
9.638054
9.799446
10.00126
10.122
10.13459
10.03832
9.901237
9.683525
9.392944
8.959549
8.40744
7.777611
7.099548
6.40152
5.539604
4.379539
2.782097
0.7529449
-1.536251
-3.768867
-5.642124
-7.087837
-8.196381
-9.225975
-10.4943
-12.13975
-14.20042
-16.52911
-18.9408
-21.13007
-22.81856
-23.53778
-22.84726
-20.5012
-16.51032
-11.2631
-5.380386
0.4353676
5.638462
9.885391
13.13212
15.45437
16.93006
17.67184
17.6749
16.98332
15.67767
13.92069
12.02007
10.33104
9.157347
8.561068
8.532219
8.812792
9.140539
9.375788
9.411569
9.355907
9.286177
9.312435
9.377567
9.406233
9.194818
8.560354
7.399299
5.651653
3.370259
0.6695173
-2.302185
-5.379132
-8.410224
-11.30688
-13.98268
-16.4113
-18.68802
-20.92597
-23.19906
-25.39857
-27.16778
-27.96627
-27.21579
-24.59899
-20.12068
-14.29384
-7.834879
-1.535648
3.969851
8.343462
11.50666
13.53181
14.61573
14.97226
14.75237
14.16484
13.34165
12.40042
11.49609
10.76194
10.34165
10.34675
10.79059
11.58553
12.53771
13.39001
13.89116
13.90605
13.44698
12.55972
11.30517
9.700275
7.692734
5.27216
2.510036
-0.3695831
-3.017456
-5.142986
-6.66547
-7.740646
-8.687023
-9.860676
-11.42339
-13.34136
-15.39343
-17.29718
-18.90038
-20.20148
-21.07207
-21.23754
-20.25423
-17.68386
-13.46487
-7.960068
-1.915047
3.768158
8.451416
11.93039
14.36086
16.111
17.46345
18.40681
18.76229
18.29626
16.9642
15.00648
12.77381
10.62722
8.809502
7.395889
6.274727
5.365387
4.699852
4.374008
4.566345
5.195175
5.998138
6.561737
6.584648
5.827812
4.384842
2.500122
0.4188385
-1.629486
-3.603844
-5.550415
-7.558289
-9.703766
-12.07777
-14.66101
-17.40305
-20.05255
-22.10387
-22.93569
-22.00951
-19.00905
-14.11719
-7.899261
-1.194107
5.139061
10.40578
14.26746
16.65622
17.69713
17.67731
16.85005
15.49298
13.89205
12.34206
11.08052
10.35088
10.19751
10.57289
11.21869
11.86693
12.24538
12.20955
11.73499
10.84193
9.553574
7.842819
5.750046
3.249756
0.4740753
-2.476303
-5.442688
-8.318466
-10.96581
-13.29993
-15.28291
-16.8931
-18.21033
-19.28522
-20.26431
-21.24435
-22.29364
-23.38306
-24.26404
-24.57759
-23.81003
-21.58429
-17.68816
-12.37865
-6.315048
-0.2831116
4.907501
8.873566
11.55138
13.15163
14.02997
14.64603
15.36794
16.51595
18.35992
20.82242
23.71109
26.58064
28.85579
30.01845
29.86598
28.39241
25.79788
22.47597
18.77107
15.14644
11.94319
9.421997
7.641327
6.505432
5.712173
4.847839
3.606567
1.773682
-0.5243988
-3.072754
-5.633286
-8.025238
-10.24194
-12.4157
-14.69363
-17.19792
-20.05716
-23.15303
-26.16513
-28.59198
-29.79541
-29.24879
-26.711
-22.31337
-16.54578
-10.24849
-4.159225
1.149628
5.338928
8.348831
10.24857
11.28465
11.71167
11.87271
11.94495
12.11504
12.42267
12.84827
13.38321
13.97443
14.53957
14.90784
14.9205
14.45856
13.55989
12.42505
11.31267
10.45421
9.872147
9.39212
8.741821
7.684509
6.092758
4.007874
1.54985
-1.178558
-4.01564
-6.882095
-9.658325
-12.15668
-14.23022
-15.92436
-17.4339
-19.08284
-21.21585
-23.83221
-26.59857
-28.81648
-29.61067
-28.34711
-24.85303
-19.4577
-12.86517
-5.966919
0.5164185
6.151321
10.76494
14.42206
17.17957
19.09386
20.31514
20.98271
21.27022
21.30902
21.149
20.70132
19.88434
18.65892
17.12314
15.51727
14.08775
12.93422
12.08134
11.48537
11.10843
10.92041
10.90836
10.94832
10.78491
10.18306
8.907562
6.930756
4.336304
1.320435
-1.962524
-5.354782
-8.734787
-12.10429
-15.48698
-18.99892
-22.58969
-26.14041
-29.14764
-30.94853
-30.78984
-28.24039
-23.37689
-16.7894
-9.532364
-2.57048
3.302917
7.853439
11.20184
13.69185
15.52277
16.75522
17.40308
17.40207
16.94725
16.31094
15.85498
15.74403
15.96391
16.29701
16.47458
16.45848
16.31285
16.2095
16.28081
16.45963
16.52702
16.16121
15.22751
13.74855
11.97784
10.16701
8.447784
6.7724
4.952866
2.84137
0.3921814
-2.162384
-4.596252
-6.701538
-8.424133
-9.837784
-11.09448
-12.36938
-13.85655
-15.78287
-18.28427
-21.45853
-25.09433
-28.67717
-31.40538
-32.35101
-30.88377
-26.87321
-20.79582
-13.57819
-6.302063
0.146759
5.315063
9.06459
11.65977
13.40575
14.59364
15.46443
16.15784
16.72755
17.16673
17.48701
17.52847
17.20688
16.49873
15.46324
14.3074
13.27567
12.6198
12.51932
13.08206
14.17426
15.53142
16.83034
17.6982
17.86519
17.13678
15.57549
13.37575
10.83719
8.134186
5.308228
2.308578
-0.9870605
-4.572128
-8.35881
-12.05956
-15.3286
-17.83022
-19.42554
-20.2025
-20.47585
-20.76646
-21.54265
-23.15503
-25.5531
-28.23965
-30.3864
-31.04848
-29.50214
-25.46371
-19.24199
-11.52104
-3.270584
4.57515
11.35445
16.65395
20.43697
22.74684
23.77757
23.73071
22.8902
21.60054
20.17299
18.82143
17.57439
16.37674
15.06572
13.61096
12.12398
10.8756
10.18538
10.22647
10.95253
12.01459
13.06586
13.70403
13.67026
12.91147
11.51555
9.732849
7.820679
6.021912
4.385025
2.912109
1.436707
-0.2486725
-2.182571
-4.413971
-6.721252
-8.919189
-10.82323
-12.442
-13.92868
-15.56795
-17.62984
-20.24651
-23.47284
-26.99712
-30.19699
-32.1302
-31.83989
-28.56288
-22.16595
-13.2674
-3.085175
6.719498
14.73106
20.15991
22.96368
23.65422
23.03389
21.77312
20.20816
18.53464
16.7809
15.10201
13.69214
12.69284
12.17079
11.94954
11.74871
11.29282
10.55971
9.67083
8.865936
8.285789
7.8769
7.521187
7.003418
6.188705
5.056305
3.78698
2.537842
1.513527
0.7691956
0.2557068
-0.1141357
-0.4772949
-1.035591
-1.964058
-3.301384
-5.072731
-7.122231
-9.270287
-11.39359
-13.51164
-15.71918
-18.09693
-20.5149
-22.46831
-23.31778
-22.36703
-19.19179
-13.94601
-7.329376
-0.3348846
6.016792
11.01926
14.45302
16.43389
17.27324
17.31495
16.80056
15.95756
15.02245
14.21752
13.66379
13.24514
12.73605
11.87455
10.55442
8.895515
7.300259
6.126366
5.542473
5.342958
5.10885
4.471869
3.325575
1.807707
0.1182861
-1.48345
-2.93767
-4.373217
-5.928319
-7.674379
-9.551051
-11.40567
-13.04969
-14.43338
-15.48213
-16.19179
-16.62695
-16.91953
-17.29595
-18.01788
-19.34408
-21.24732
-23.43608
-25.31633
-26.15321
-25.31824
-22.58915
-18.20824
-12.82634
-7.317907
-2.431303
1.432278
4.137768
5.889427
7.02676
7.885576
8.680483
9.501497
10.34527
11.12813
11.7933
12.1647
12.1886
11.84255
11.25819
10.56923
9.963688
9.56554
9.399853
9.431831
9.517548
9.618942
9.605583
9.466228
9.088402
8.359287
7.152302
5.37915
3.033627
0.1801033
-2.909893
-5.991249
-8.792416
-11.1364
-13.0534
-14.64044
-16.06432
-17.47491
-18.96861
-20.48846
-22.00764
-23.409
-24.51701
-25.10675
-24.76164
-23.15437
-20.06662
-15.66349
-10.41743
-5.107201
-0.4820633
3.006973
5.18264
6.33149
6.83712
7.089928
7.287567
7.495422
7.641373
7.753723
7.915306
8.176529
8.61692
9.229874
9.937698
10.6501
11.31779
11.88919
12.43845
12.96046
13.37076
13.53339
13.36369
12.89847
12.28008
11.67715
11.18633
10.76833
10.26569
9.421745
8.089584
6.231201
3.963341
1.506287
-0.969017
-3.388062
-5.678459
-7.767731
-9.631386
-11.22454
-12.74338
-14.38586
-16.38521
-18.6378
-20.79999
-22.19266
-22.09122
-20.15326
-16.49725
-11.85713
-7.21582
-3.55896
-1.346252
-0.6259766
-1.015656
-1.907028
-2.820694
-3.437347
-3.647018
-3.521072
-3.160507
-2.575195
-1.700211
-0.5080719
1.044617
2.763672
4.421997
5.749496
6.598053
6.941055
6.861664
6.466553
5.80249
4.955627
3.808029
2.344345
0.5597534
-1.436829
-3.520584
-5.533157
-7.41008
-9.131409
-10.75179
-12.49103
-14.49126
-16.80971
-19.36026
-21.98643
-24.40288
-26.3237
-27.39427
-27.25822
-25.63811
-22.41342
-17.68889
-11.97556
-6.042191
-0.7645111
3.149338
5.458847
6.396011
6.480408
6.321899
6.276428
6.346878
6.344635
6.037643
5.276306
4.111847
2.788086
1.509415
0.4948273
-0.2125702
-0.6329193
-0.8236542
-0.8518219
-0.7795563
-0.6481018
-0.3922577
-0.02330017
0.4085999
0.728302
0.6700745
0.05680847
-1.119232
-2.696671
-4.352066
-5.729813
-6.667953
-7.192993
-7.5457
-7.966675
-8.610336
-9.498917
-10.62363
-12.00885
-13.59636
-15.41817
-17.27736
-18.8692
-19.70659
-19.28616
-17.31599
-13.86253
-9.416992
-4.621094
-0.2149658
3.397186
6.032684
7.774506
8.866272
9.482513
9.730637
9.6651
9.342636
8.860809
8.417923
8.123566
8.003403
8.060532
8.192123
8.312332
8.303574
8.073318
7.596008
6.971451
6.336731
5.856537
5.719955
5.89537
6.298615
6.653259
6.649857
6.031403
4.7323
2.857361
0.6113663
-1.702583
-3.949333
-6.092461
-8.21402
-10.51684
-13.16713
-16.17879
-19.44437
-22.70946
-25.63985
-27.83017
-28.77086
-27.98235
-25.20111
-20.47982
-14.26475
-7.348732
-0.6046295
5.206169
9.667511
12.82871
14.98045
16.38166
17.23946
17.5323
17.16988
16.18907
14.7979
13.26237
11.85868
10.75298
9.881813
9.174881
8.542015
7.913315
7.368332
7.06543
7.050186
7.317825
7.730278
8.113663
8.274452
8.004593
7.082863
5.399658
2.958138
-0.1507111
-3.639214
-7.24939
-10.68082
-13.72952
-16.37248
-18.69487
-20.78157
-22.72839
-24.53587
-26.01365
-26.96178
-27.08967
-26.0515
-23.62255
-19.81423
-14.83961
-9.21933
-3.606853
1.485611
5.632648
8.674751
10.70984
11.95682
12.70731
13.2055
13.65246
14.06615
14.47247
14.75764
14.86882
14.79597
14.61213
14.45744
14.39378
14.34044
14.21165
13.95048
13.56676
13.21571
13.01339
12.99067
13.07718
12.99129
12.37123
11.04634
9.00297
6.389193
3.469568
0.5323219
-2.287554
-4.845158
-7.165529
-9.379341
-11.61447
-14.01048
-16.67757
-19.54249
-22.28286
-24.44653
-25.39357
-24.6184
-21.91541
-17.50438
-11.93518
-5.992791
-0.3714933
4.377954
7.953421
10.41951
11.94288
12.78373
13.11132
13.0644
12.74608
12.30316
11.8981
11.69614
11.85678
12.40527
13.22883
14.16549
15.02699
15.72211
16.22747
16.56495
16.71138
16.66077
16.32633
15.59471
14.46004
12.86578
10.79585
8.245616
5.21573
1.729096
-2.069798
-5.981737
-9.754686
-13.14581
-16.02107
-18.38741
-20.34068
-22.06723
-23.77926
-25.59507
-27.40078
-28.90837
-29.6047
-28.91136
-26.39426
-21.97268
-15.99038
-9.190542
-2.46192
3.506224
8.234266
11.64412
13.86099
15.20265
15.94211
16.27919
16.32207
16.09697
15.64801
15.00146
14.22338
13.29075
12.30698
11.34344
10.56501
10.12598
10.11314
10.51502
11.17549
11.87926
12.39858
12.6692
12.73386
12.7397
12.70403
12.53348
12.05227
11.04395
9.414902
7.192581
4.518673
1.515617
-1.724442
-5.161411
-8.761742
-12.43039
-16.07693
-19.55801
-22.7546
-25.49129
-27.50663
-28.37067
-27.69444
-25.24878
-21.11965
-15.75792
-9.905136
-4.22802
0.7812538
4.910049
8.285889
11.0752
13.28867
14.91255
15.90427
16.24305
16.13231
15.85159
15.70553
15.87148
16.33463
16.80057
16.93362
16.55038
15.68259
14.52804
13.43197
12.64337
12.16039
11.86242
11.44844
10.68
9.405758
7.645096
5.400711
2.769733
-0.1476364
-3.150379
-6.0215
-8.589577
-10.73784
-12.65018
-14.52369
-16.59024
-18.86278
-21.10878
-22.81492
-23.41898
-22.53135
-19.99131
-16.03781
-11.12864
-5.79565
-0.5539856
4.168747
8.091621
11.12595
13.2422
14.49045
14.96789
14.77943
14.16162
13.3094
12.45557
11.70638
11.15852
10.78108
10.49086
10.13218
9.607082
8.95977
8.253708
7.621796
7.025253
6.390358
5.556774
4.416069
2.929371
1.229469
-0.3904343
-1.700035
-2.571838
-3.130405
-3.752953
-4.818283
-6.692585
-9.482124
-13.08544
-17.10312
-20.92422
-23.83636
-25.15594
-24.53174
-21.85238
-17.48728
-11.96622
-6.007835
-0.2332802
4.856564
8.950649
11.91987
13.67384
14.30335
14.02051
13.21824
12.26826
11.5219
11.05874
10.85997
10.83094
10.81174
10.73722
10.6125
10.47667
10.32664
10.07
9.57798
8.71944
7.451393
5.787724
3.814381
1.656895
-0.5797005
-2.766937
-4.861137
-6.743877
-8.419243
-9.95504
-11.54985
-13.40856
-15.60091
-17.98481
-20.08363
-21.24002
-20.77785
-18.35956
-14.06773
-8.526936
-2.583645
2.927515
7.394053
10.62695
12.78774
14.16893
15.01955
15.47331
15.50813
15.12737
14.40928
13.55462
12.85111
12.46693
12.37627
12.4311
12.36713
12.01454
11.39926
10.65665
10.06339
9.827702
9.937389
10.15184
10.11922
9.469086
8.016382
5.778949
2.988677
0.03233624
-2.720968
-5.064299
-6.947997
-8.504676
-9.935662
-11.43381
-13.18476
-15.26466
-17.55228
-19.74402
-21.35608
-21.78044
-20.53744
-17.44294
-12.69781
-6.911154
-0.964469
4.383915
8.642943
11.65082
13.60994
14.76995
15.33626
15.45629
15.13161
14.41445
13.44845
12.43558
11.55507
10.91881
10.48611
10.10565
9.757452
9.466362
9.376795
9.606205
10.11689
10.72155
11.07087
10.86855
9.921528
8.305717
6.212982
3.907612
1.593742
-0.6126823
-2.662922
-4.483662
-5.936394
-6.907661
-7.414932
-7.674549
-8.019196
-8.870758
-10.51384
-13.01162
-16.22844
-19.72731
-22.96649
-25.31604
-26.11629
-24.84937
-21.34629
-15.94902
-9.424141
-2.845062
2.843895
7.000038
9.476196
10.54886
10.63837
10.15633
9.319115
8.304832
7.259636
6.36824
5.705154
5.299538
5.117676
5.02951
4.947418
4.889671
4.88591
5.008354
5.311028
5.677643
6.003204
6.189575
6.106735
5.71312
4.981659
3.780548
2.030769
-0.2061615
-2.763733
-5.361298
-7.739365
-9.745277
-11.29691
-12.44677
-13.27563
-13.86497
-14.30846
-14.67268
-15.01551
-15.29121
-15.35114
-14.86466
-13.50612
-11.09685
-7.741074
-3.83873
0.03549194
3.367058
5.856461
7.410507
8.184822
8.42984
8.386604
8.22644
8.053375
7.895126
7.81543
7.860016
8.034912
8.294907
8.488403
8.48114
8.18399
7.619598
6.992615
6.497543
6.27124
6.369476
6.63649
6.859818
6.764954
6.144333
4.856934
2.942749
0.4034119
-2.625717
-5.973755
-9.418854
-12.73216
-15.77802
-18.4846
-20.76579
-22.46365
-23.42026
-23.32607
-21.98676
-19.23016
-15.129
-10.01842
-4.579056
0.5049438
4.667618
7.513229
9.099197
9.634598
9.48143
8.975143
8.347443
7.583298
6.721695
5.802643
4.846817
3.979309
3.227829
2.621689
2.154984
1.809311
1.530594
1.299957
1.107483
0.8285828
0.4237213
-0.2386932
-1.21727
-2.50708
-4.034973
-5.633163
-7.159134
-8.46431
-9.545837
-10.366
-11.06944
-11.85602
-12.92671
-14.43013
-16.30246
-18.24232
-19.69441
-20.06689
-18.7785
-15.78674
-11.49747
-6.661087
-2.098145
1.621185
4.269623
6.00528
7.079559
7.793747
8.210587
8.263092
7.942535
7.252411
6.332535
5.356995
4.448883
3.598267
2.775696
1.891235
0.884201
-0.06578064
-0.8040466
-1.124588
-0.9649353
-0.5297394
-0.1373291
-0.08758545
-0.5807495
-1.553604
-2.727982
-3.79509
-4.517487
-4.858139
-4.983551
-5.190308
-5.745407
-6.872437
-8.580307
-10.69672
-12.88708
-14.69815
-15.67834
-15.47742
-13.95367
-11.14566
-7.433945
-3.289658
0.8012695
4.387894
7.221603
9.218323
10.41176
10.90651
10.84784
10.33777
9.578491
8.708603
7.847916
7.053299
6.21582
5.248184
4.06749
2.759232
1.504105
0.620163
0.2103424
0.2490082
0.5738678
0.8703308
0.9308777
0.5646973
-0.2507019
-1.469299
-2.935715
-4.4646
-5.897781
-7.076096
-8.042221
-8.889786
-9.87117
-11.18721
-12.88263
-14.7858
-16.46794
-17.46616
-17.29581
-15.82883
-13.063
-9.334442
-5.166351
-1.099731
2.389465
5.005722
6.726547
7.733109
8.178299
8.337082
8.349701
8.259155
8.085297
7.794617
7.345917
6.757721
6.087173
5.354691
4.627838
3.942902
3.349472
2.903397
2.606705
2.395325
2.190948
1.878998
1.337555
0.5504913
-0.4419556
-1.480072
-2.405457
-3.167709
-3.825363
-4.500793
-5.425964
-6.780167
-8.601456
-10.79242
-12.99562
-14.69182
-15.31671
-14.42256
-11.86487
-7.964645
-3.380325
1.025513
4.495117
6.628525
7.470032
7.362305
6.783066
6.078522
5.422043
4.846649
4.344681
3.895599
3.545731
3.413696
3.563293
4.018433
4.660339
5.386917
6.056091
6.538895
6.65155
6.305908
5.425262
4.002289
2.07843
-0.3320618
-3.027863
-5.853989
-8.629913
-11.23337
-13.58409
-15.74162
-17.73042
-19.61404
-21.31935
-22.5524
-22.8233
-21.67712
-18.79208
-14.22934
-8.591934
-2.7173
2.4646
6.266968
8.402512
9.005585
8.516998
7.503525
6.375244
5.417038
4.736893
4.378845
4.320724
4.506058
4.833481
5.241394
5.650116
5.887573
5.902115
5.679413
5.310852
4.883957
4.423416
3.835632
3.035263
1.935699
0.4943542
-1.169952
-2.92215
-4.57016
-5.981812
-7.203094
-8.449829
-9.950134
-11.93723
-14.44648
-17.28831
-20.09171
-22.27214
-23.11259
-22.11974
-19.09128
-14.2847
-8.395111
-2.299492
3.202255
7.503143
10.4109
12.08383
12.77141
12.80257
12.41697
11.80537
11.15758
10.73239
10.6341
10.87907
11.37659
11.9343
12.46574
12.88783
13.17482
13.34792
13.40952
13.27637
12.84614
11.95051
10.44119
8.297615
5.549591
2.375671
-0.9034805
-3.998581
-6.587021
-8.515541
-9.822159
-10.74152
-11.51501
-12.43179
-13.70268
-15.38341
-17.49224
-19.82332
-22.01395
-23.55306
-23.88997
-22.54836
-19.33011
-14.50089
-8.675823
-2.699589
2.703026
7.071758
10.33207
12.61983
14.17963
15.15479
15.66796
15.8299
15.73831
15.64277
15.68516
15.91376
16.24181
16.38075
16.02408
14.99508
13.38029
11.32593
9.200401
7.250957
5.642239
4.407055
3.372307
2.377792
1.321602
0.2108192
-0.9142723
-1.995663
-2.964735
-3.804243
-4.5383
-5.315498
-6.306936
-7.705692
-9.677958
-12.22181
-15.06826
-17.71021
-19.52049
-19.90905
-18.59669
-15.68828
-11.61456
-7.036147
-2.52575
1.643317
5.420494
8.897311
12.16585
15.14126
17.63006
19.381
20.21811
20.17933
19.43763
18.25004
16.86225
15.47707
14.22657
13.15696
12.26182
11.50861
10.90352
10.45072
10.12992
9.892939
9.577274
9.021716
7.99295
6.349898
4.085254
1.396711
-1.400986
-3.938677
-5.940677
-7.267274
-7.98548
-8.329668
-8.588125
-9.03298
-9.830963
-11.10081
-12.80592
-14.76281
-16.53154
-17.52899
-17.16875
-15.10931
-11.47884
-6.757798
-1.721017
2.907899
6.617056
9.306423
11.12527
12.40152
13.38481
14.12792
14.58704
14.64689
14.33031
13.81679
13.30168
12.95296
12.85612
12.92756
13.03811
13.06482
12.96382
12.69018
12.30783
11.7264
10.90446
9.882053
8.695995
7.526102
6.467367
5.549835
4.651852
3.663811
2.418453
0.9186249
-0.6940136
-2.2826
-3.729382
-5.052902
-6.404141
-7.965548
-9.821886
-12.09843
-14.74607
-17.6334
-20.60064
-23.2284
-25.06017
-25.57166
-24.31327
-21.22336
-16.63325
-11.26005
-5.903338
-1.321011
2.177719
4.552361
6.018012
6.958399
7.591436
8.099843
8.514804
8.903327
9.328718
9.93406
10.79897
11.84272
12.96738
13.90229
14.44537
14.45958
13.97658
13.13811
12.15637
11.16415
10.09583
8.894776
7.390582
5.659947
3.884014
2.373757
1.429559
1.100597
1.234799
1.402211
1.266166
0.5098448
-0.8468065
-2.650017
-4.653675
-6.632939
-8.466915
-10.12632
-11.69167
-13.27239
-15.00635
-16.9476
-18.92366
-20.58976
-21.39111
-20.79189
-18.47557
-14.52458
-9.392741
-3.771513
1.515014
5.915493
9.032066
10.84625
11.5559
11.52728
11.15215
10.78425
10.61008
10.50029
10.35102
9.926191
9.246984
8.467517
7.906034
7.801839
8.226105
9.005245
9.77932
10.25247
10.25865
9.909329
9.413677
8.977608
8.628078
8.171305
7.282454
5.699486
3.407417
0.6580443
-2.164688
-4.645997
-6.608092
-8.096226
-9.325478
-10.51699
-11.83621
-13.32628
-14.98558
-16.76171
-18.52392
-20.09442
-21.064
-20.95378
-19.309
-15.97582
-11.19441
-5.536568
0.2750348
5.566214
9.86762
12.98539
14.92828
15.80817
15.77286
14.98166
13.65095
12.06156
10.45259
8.98126
7.698365
6.577993
5.552501
4.604527
3.730132
3.004521
2.529712
2.440209
2.810377
3.652752
4.85774
6.19486
7.401777
8.175021
8.332877
7.831071
6.729855
5.163754
3.292767
1.138358
-1.239373
-3.791531
-6.48124
-9.235241
-11.94684
-14.57756
-17.06788
-19.41365
-21.60381
-23.44072
-24.69942
-25.05628
-24.25577
-22.12602
-18.68534
-14.11769
-8.851019
-3.408701
1.713331
6.012545
9.185881
11.15047
12.03906
12.18042
11.85919
11.26054
10.4766
9.562849
8.544664
7.514347
6.624594
5.955168
5.487343
5.122961
4.688631
4.155231
3.647121
3.337543
3.386093
3.780903
4.216913
4.330082
3.815496
2.640608
1.043598
-0.5744743
-1.947903
-2.941605
-3.703157
-4.605789
-5.910738
-7.812492
-10.29827
-13.17872
-16.19776
-19.01127
-21.16547
-22.22186
-21.81737
-19.68782
-15.88061
-10.7558
-4.950127
0.810133
5.873081
9.889149
12.74116
14.47793
15.27291
15.28
14.66319
13.61016
12.35459
11.11914
10.09568
9.343161
8.775949
8.364878
8.017014
7.676495
7.368017
7.047441
6.68642
6.222227
5.657846
4.918407
4.037838
2.999325
1.767056
0.3652821
-1.147068
-2.631308
-3.923969
-4.808027
-5.317776
-5.541735
-5.713671
-6.101799
-6.876736
-8.129866
-9.893742
-12.16415
-14.7912
-17.54936
-19.9946
-21.58139
-21.80797
-20.31139
-17.09489
-12.50257
-7.20229
-1.95405
2.606922
6.097124
8.47562
9.835146
10.41133
10.35747
9.729658
8.598907
7.10887
5.465158
3.971609
2.926483
2.404552
2.411203
2.719326
3.139429
3.492071
3.744396
3.746311
3.372498
2.519955
1.051455
-0.9707985
-3.397917
-5.888678
-8.131268
-9.822462
-10.88588
-11.45419
-11.81091
-12.2858
-13.15333
-14.52284
-16.16069
-17.59608
-18.16153
-17.29011
-14.7246
-10.61357
-5.524323
-0.09075928
4.9942
9.238709
12.31563
14.16558
14.83631
14.4422
13.19967
11.26058
8.870058
6.237458
3.571448
1.080093
-0.9527487
-2.307176
-2.915655
-2.841934
-2.359299
-1.814772
-1.48501
-1.514394
-1.947991
-2.781641
-3.958661
-5.499622
-7.340106
-9.435445
-11.6988
-13.98557
-16.20208
-18.24714
-20.03395
-21.29532
-21.68987
-20.72115
-18.07622
-13.7326
-7.998863
-1.571171
4.752308
10.19899
14.26311
16.71215
17.66532
17.37493
16.31646
14.9285
13.61434
12.64071
12.09132
11.92804
11.97958
12.14508
12.29354
12.37161
12.26652
11.82212
10.94815
9.631325
7.985847
6.156151
4.322514
2.56781
0.9276314
-0.5895119
-2.019943
-3.318653
-4.441551
-5.362068
-6.171146
-7.119259
-8.513813
-10.63974
-13.58217
-17.15928
-20.75195
-23.5805
-24.72705
-23.66114
-20.38593
-15.37257
-9.53101
-3.765499
1.195843
5.128235
7.998901
10.03522
11.40495
12.1605
12.30609
11.83699
10.87297
9.599144
8.305138
7.127518
6.157516
5.409248
4.868698
4.517128
4.300529
4.191063
4.140648
4.121918
4.00621
3.754433
3.283485
2.542763
1.567711
0.3425827
-1.069572
-2.583992
-4.161049
-5.736
-7.273476
-8.742546
-10.22553
-11.71222
-13.17552
-14.35687
-14.82867
-14.13335
-11.95775
-8.403511
-3.948982
0.5501709
4.363403
7.026108
8.555214
9.281403
9.636452
9.891907
10.02417
9.911163
9.412117
8.664734
7.907928
7.487648
7.612022
8.236115
9.156998
10.02586
10.58265
10.70273
10.52417
10.25243
10.10289
10.10361
10.14793
9.998993
9.387184
8.189896
6.4562
4.301582
1.921127
-0.5931091
-3.134033
-5.672913
-8.142578
-10.52086
-12.77878
-14.97844
-17.28726
-19.81676
-22.61938
-25.41766
-27.74561
-28.91814
-28.34245
-25.69966
-21.127
-15.21677
-8.805557
-2.810455
2.093292
5.464859
7.306992
7.953934
8.038712
8.351013
9.613571
12.25702
16.14917
20.65825
24.80592
27.7323
29.0239
28.76369
27.41113
25.53676
23.62344
21.83475
20.26234
18.88388
17.69949
16.7186
15.82207
14.79376
13.41379
11.57977
9.317444
6.782852
4.058273
1.19519
-1.765518
-4.865463
-8.058243
-11.23065
-14.12755
-16.34137
-17.4433
-17.05835
-15.00056
-11.31281
-6.449844
-1.029922
4.142807
8.357941
11.20639
12.56487
12.55034
11.41995
9.547119
7.223404
4.89502
2.852951
1.345978
0.527298
0.4551849
1.040207
2.068771
3.296936
4.41333
5.263733
5.688538
5.642609
5.120285
4.239014
3.209579
2.10997
1.074661
0.06155396
-0.9248505
-1.982056
-3.244446
-4.814774
-6.804718
-9.188553
-11.86984
-14.60783
-17.07315
-18.81366
-19.49554
-18.98889
-17.34328
-14.84622
-11.72707
-8.151291
-4.114563
0.353302
5.132919
9.910385
14.00871
16.6273
16.9227
14.38965
9.022369
1.593018
-6.584839
-13.74423
-17.84772
-17.15929
-10.50697
2.126755
19.41728
38.81599
57.1575
71.56845
80.18692
82.63654
79.78404
73.24043
64.54695
54.95747
45.18044
35.52182
26.02679
16.40141
6.206665
-5.103882
-17.83616
-31.87815
-46.42463
-60.27371
-71.99974
-80.37794
-84.75255
-85.01286
-81.6998
-75.79893
-68.51262
-60.79473
-53.24434
-45.92117
-38.54883
-30.8065
-22.46001
-13.51445
-4.111343
5.670868
15.7921
26.07611
36.01495
44.64796
50.57327
52.54569
49.87594
42.89557
33.06165
22.3429
12.63512
5.13578
0.1581497
-2.740341
-4.161842
-4.666451
-4.563698
-3.901016
-2.823944
-1.396095
0.4091568
2.827888
6.140015
10.56982
15.89846
21.45664
26.43866
30.01421
31.81985
31.83849
30.35476
27.66223
24.00434
19.57177
14.56038
9.26915
3.863625
-1.648506
-7.472672
-13.96809
-21.30148
-29.35203
-37.66139
-45.69267
-52.95934
-59.14957
-64.08031
-67.51413
-69.06883
-68.25759
-64.75063
-58.59273
-50.38929
-41.05014
-31.63482
-22.99193
-15.61804
-9.710182
-5.049042
-1.173248
2.606956
7.108238
13.06372
20.79015
30.00945
39.80827
48.79256
55.72202
59.97047
61.61503
61.50977
60.64255
59.76025
59.036
58.18192
56.63876
54.01266
50.33208
45.9325
41.34312
36.92518
32.83017
28.97299
25.32889
21.73888
18.09583
14.18871
9.775276
4.82296
-0.4521179
-5.435993
-9.284679
-11.3694
-11.64566
-10.7161
-9.638634
-9.324524
-10.01353
-11.35129
-12.60612
-13.13049
-12.85295
-12.19339
-11.79161
-12.07816
-13.10771
-14.56518
-16.14997
-17.84123
-19.92421
-23.04057
-27.77245
-34.58406
-43.71719
-55.28113
-69.10213
-84.70667
-101.1284
-116.7303
-129.5408
-137.482
-139.1063
-134.0421
-123.2791
-108.8214
-93.20479
-78.66254
-66.63638
-57.61302
-51.23959
-46.81154
-43.62641
-41.20271
-39.18015
-37.21883
-34.79568
-31.32969
-26.40966
-19.87177
-11.91656
-2.920227
6.712494
16.69178
26.67948
36.29883
44.96259
51.91066
56.61609
58.89555
59.01233
57.59135
55.37128
52.87943
50.52034
48.50963
46.92973
45.84834
45.20157
44.83954
44.57802
44.32111
44.13516
44.29059
45.17297
46.98293
49.72363
53.04735
56.31003
58.75748
59.67155
58.50462
55.1346
49.83124
43.11836
35.73975
28.35132
21.46124
15.40027
10.25685
6.007767
2.548538
-0.3139801
-2.970963
-5.815155
-9.218414
-13.27921
-17.63654
-21.57239
-24.15033
-24.53201
-22.38068
-17.97586
-12.13379
-5.858795
-0.06210327
4.851257
8.911591
12.49023
16.0437
19.86028
24.01334
28.4041
32.96368
37.59978
42.34387
47.15099
51.87268
56.20815
59.79301
62.32693
63.58199
63.45073
61.81047
58.60791
53.79202
47.39584
39.61359
30.8324
21.68848
12.8925
5.090683
-1.255417
-5.904144
-8.891235
-10.52077
-11.19287
-11.45186
-11.86778
-12.99884
-15.28322
-18.8774
-23.50673
-28.47751
-32.86398
-35.62639
-36.05133
-33.84277
-29.23555
-22.75053
-15.04556
-6.660645
2.108566
11.05595
20.14894
29.183
37.88423
45.90982
53.00097
59.04385
64.20621
68.81325
73.1993
77.57654
81.82742
85.75419
89.16587
92.09032
94.82487
97.8111
101.3214
105.1914
108.7672
110.9823
110.8806
107.8773
101.8836
93.19208
82.23045
69.39314
54.94677
39.46022
23.93198
9.90419
-0.8749161
-7.133682
-8.497604
-5.638275
0.06510925
7.176041
14.95674
23.39743
33.00822
44.06577
55.9487
67.04918
75.14876
78.21713
75.04214
65.55206
50.58694
31.44827
9.570587
-13.71466
-37.03766
-59.05859
-78.51016
-94.52182
-106.931
-116.3642
-124.1212
-131.4233
-139.0574
-147.0018
-154.624
-160.9814
-165.3528
-167.547
-167.9952
-167.5208
-166.8813
-166.4814
-166.1999
-165.4679
-163.3828
-158.8068
-150.5796
-137.831
-120.4745
-99.45807
-76.87988
-55.54089
-38.14777
-26.4538
-20.72638
-19.83063
-21.73248
-24.28308
-25.8526
-25.53339
-23.11157
-18.69989
-12.70557
-5.792847
1.184937
7.138855
11.00031
12.0387
10.07269
5.47052
-0.894165
-8.108215
-15.57245
-23.05029
-30.7218
-38.71234
-46.70776
-53.58252
-57.61078
-56.8786
-50.21069
-37.96088
-22.05426
-5.659485
7.986511
16.62671
19.8576
18.93433
16.04633
13.29999
11.85437
11.8252
12.51477
13.13239
13.19281
12.68695
11.8717
10.91797
9.750916
8.077576
5.613159
2.288971
-1.570892
-5.354034
-8.376923
-10.12836
-10.51355
-9.820923
-8.649902
-7.507477
-6.673126
-6.111694
-5.529968
-4.689728
-3.485107
-2.067047
-0.6517944
0.5159302
1.497833
2.584625
4.059448
5.942383
7.830109
8.958008
8.562164
6.389038
2.810089
-1.066711
-3.85556
-4.578766
-2.982422
0.3796997
4.400055
7.964935
10.44778
11.75925
12.30081
12.53064
12.79391
13.24097
13.82553
14.45175
14.98499
15.29694
15.26053
14.81891
13.97491
12.85736
11.71545
10.78668
10.1745
9.896301
9.83255
9.819122
9.697021
9.331818
8.560822
7.266571
5.330658
2.761169
-0.1803894
-3.197937
-5.901825
-8.014954
-9.337555
-9.829071
-9.391602
-8.001434
-5.590546
-2.199066
1.963776
6.471375
10.76273
14.44623
17.26056
19.30023
20.73495
21.75287
22.37491
22.56036
22.25955
21.53174
20.65588
19.94757
19.63632
19.65665
19.69141
19.30353
18.14008
16.11783
13.42844
10.4238
7.523712
4.992859
2.899109
1.222626
-0.1898499
-1.476349
-2.730011
-4.004364
-5.313995
-6.600098
-7.720093
-8.490387
-8.579956
-7.730988
-5.73764
-2.610382
1.324554
5.456665
9.032684
11.44272
12.41177
12.06998
10.80539
9.089203
7.287872
5.530365
3.76532
1.945679
0.08602905
-1.665588
-3.037506
-3.858002
-4.122955
-4.032379
-3.91806
-4.064117
-4.530182
-5.155396
-5.65097
-5.667694
-5.079651
-4.028259
-2.793854
-1.767242
-1.195313
-1.150757
-1.532593
-2.184372
-2.82962
-3.198303
-3.053513
-2.159821
-0.3437653
2.367584
5.784454
9.574356
13.28091
16.56689
19.10059
20.64806
21.05049
20.17664
18.08052
14.87137
10.86115
6.367783
1.787155
-2.608688
-6.635605
-10.11798
-12.99088
-15.17097
-16.63722
-17.39053
-17.51353
-17.06703
-16.23682
-15.21729
-14.27806
-13.70947
-13.79547
-14.62871
-16.12634
-18.12411
-20.26617
-22.2049
-23.56372
-24.00298
-23.36653
-21.72621
-19.21957
-16.14821
-12.82289
-9.544174
-6.503998
-3.935745
-1.942642
-0.6029968
0.05670166
0.2023621
0.02037048
-0.2781525
-0.5715179
-0.8563995
-1.214737
-1.677139
-2.212814
-2.796005
-3.44693
-4.210449
-5.186478
-6.35939
-7.673538
-8.956909
-9.996445
-10.7159
-11.18469
-11.61113
-12.13203
-12.71413
-13.01811
-12.6082
-10.98022
-7.818161
-3.122101
2.73613
9.166855
15.44711
20.84763
24.87697
27.24933
27.98457
27.27414
25.43712
22.76515
19.578
16.16272
12.87273
10.12561
8.346405
7.801605
8.473259
10.0546
11.95952
13.52145
14.10564
13.31618
11.00043
7.259605
2.375397
-3.287682
-9.240036
-15.15012
-20.83385
-26.24843
-31.45563
-36.34544
-40.59014
-43.57935
-44.48985
-42.66595
-37.90131
-30.67652
-21.9511
-12.9609
-4.724236
2.206955
7.720901
11.88838
14.81462
16.47877
16.76707
15.7748
13.76017
11.33537
9.131184
7.604687
6.912868
6.889107
7.160259
7.25787
6.884911
5.849092
4.328228
2.659782
1.160355
0.1608658
-0.3251152
-0.4520025
-0.6060534
-1.126593
-2.30303
-4.172715
-6.579669
-9.267791
-11.76363
-13.52248
-13.915
-12.46968
-8.994015
-3.864525
2.137411
7.942406
12.60842
15.67936
17.1599
17.44966
17.08259
16.43967
15.64457
14.682
13.55655
12.35889
11.35022
10.73143
10.58471
10.7708
10.93077
10.65179
9.582123
7.646843
4.941475
1.814186
-1.411285
-4.443634
-7.078819
-9.29361
-11.07064
-12.40712
-13.31099
-13.90789
-14.36418
-14.92157
-15.58148
-16.1077
-15.98714
-14.52363
-11.14738
-5.741722
1.21447
8.690521
15.51507
20.72141
23.76933
24.66277
23.86433
22.03996
19.86996
17.80475
16.02901
14.50795
13.13138
11.82326
10.66284
9.904114
9.786545
10.48834
11.92987
13.80061
15.62224
16.97118
17.65361
17.79579
17.76231
17.88997
18.46948
19.54526
20.97266
22.40358
23.49391
23.98236
23.82573
23.19363
22.55528
22.76805
24.94681
30.05635
38.4407
49.31363
60.79553
70.38986
76.03619
77.04764
74.63683
71.58113
71.02986
75.24694
84.56782
97.21439
109.9098
118.9202
121.1693
115.0046
100.4849
79.25262
54.03404
27.89995
3.445
-17.92189
-36.13152
-52.10006
-67.11665
-82.13461
-97.24892
-111.6549
-123.9755
-132.6973
-136.7491
-135.7351
-129.872
-120.0379
-107.3921
-93.38935
-79.5887
-67.4444
-58.14176
-52.12241
-48.91311
-47.1597
-45.30848
-42.14487
-37.28282
-30.99072
-23.53568
-14.53894
-2.595059
14.19391
37.40728
67.1049
101.5514
137.4365
170.719
197.7864
216.1898
225.0251
224.7259
216.6253
202.4237
183.9615
163.0732
141.5773
121.4213
104.3657
91.7267
83.83054
79.82446
78.03404
76.53891
73.82591
69.01056
61.75858
51.64778
38.00143
19.97023
-2.88324
-29.99251
-59.39091
-88.03793
-112.4948
-129.8058
-138.0781
-136.5761
-125.5528
-106.2871
-81.04861
-53.121
-26.33911
-4.227051
10.79996
17.7554
16.72003
7.981628
-8.563904
-33.03799
-64.73502
-101.1078
-137.5339
-168.3611
-188.8446
-196.7311
-192.962
-180.9613
-164.9145
-148.2628
-132.8242
-118.8416
-105.6084
-92.31714
-78.40109
-63.75967
-48.53174
-32.98068
-17.47382
-2.666809
10.63925
21.4173
28.92572
33.21429
35.27393
37.04474
40.7525
47.98529
58.85797
71.87256
84.13312
92.38904
94.32776
89.24084
78.21716
63.67841
48.1864
33.54456
20.50293
8.653931
-2.848572
-14.64142
-26.88153
-39.12866
-50.5835
-60.34039
-67.68054
-72.23956
-74.44531
-75.57147
-77.57953
-82.55536
-91.69122
-104.5792
-118.9231
-131.1802
-137.8461
-136.985
-128.9644
-116.2897
-102.4868
-90.61133
-82.28479
-77.60352
-75.69705
-75.60599
-76.91306
-79.57935
-83.62717
-88.75104
-94.11926
-98.58313
-101.1358
-101.1424
-98.48972
-93.53534
-87.01776
-80.12143
-74.46085
-71.73541
-73.25513
-79.14328
-88.03345
-97.12015
-102.8824
-102.2783
-93.70575
-77.47174
-55.40488
-30.10544
-3.688843
22.46295
47.87657
72.21709
94.7193
113.9571
128.3034
136.7143
139.166
136.9954
132.1472
126.5922
121.5876
117.4463
113.8438
110.3688
107.0015
104.1102
102.4248
102.3558
103.7538
105.7695
107.0425
106.2157
102.3659
95.34087
85.86994
75.45166
65.67052
57.7637
52.22479
48.70916
46.45354
44.60285
42.62428
40.19186
37.10133
32.95047
27.41695
20.74892
14.02829
9.294079
8.726475
13.60165
23.46418
36.16673
48.65712
58.23832
63.6286
65.00203
63.34582
59.58956
54.02919
46.49376
37.1003
26.89315
17.8219
11.98409
10.46991
12.82753
17.31837
21.82173
24.9168
26.17745
25.72922
23.40948
18.30726
9.037327
-5.176668
-23.47305
-43.19006
-60.67324
-72.88294
-78.74164
-79.44205
-77.51646
-75.38593
-74.20219
-73.47308
-71.97481
-68.66353
-63.35038
-56.76744
-50.09747
-44.5016
-40.97039
-40.47987
-43.85505
-51.63529
-63.41395
-77.5854
-91.51984
-102.3794
-108.2458
-108.7229
-104.8064
-98.12809
-90.064
-81.21578
-71.51688
-60.7496
-49.01425
-36.90984
-25.3609
-15.23741
-7.01049
-0.729744
3.924042
7.471329
10.36464
12.93079
15.37732
17.78168
20.20262
22.72585
25.36917
27.96341
30.11409
31.23853
30.8864
29.07234
26.37753
23.77739
22.26674
22.3251
23.99249
26.92657
30.7114
35.07056
39.83862
44.63971
48.7854
51.48718
52.04572
50.33768
46.91867
42.71783
38.61893
35.15714
32.25937
29.54352
26.67004
23.48804
20.19717
17.12723
14.57968
12.63531
11.15054
9.846008
8.448395
6.87442
5.127289
3.300171
1.383942
-0.7116394
-3.066345
-5.600952
-7.991638
-9.577423
-9.546997
-7.323975
-2.819122
3.475037
10.60147
17.48682
23.30798
27.55865
30.20972
31.54733
31.93268
31.75864
31.23993
30.47836
29.39273
27.93192
26.0856
24.01114
22.02402
20.42236
19.37112
18.68402
17.92886
16.56168
14.32486
11.28079
7.775269
4.257935
1.018158
-1.865845
-4.553253
-7.195374
-9.888672
-12.51151
-14.92551
-17.00528
-18.64465
-19.63449
-19.59134
-18.08478
-14.70529
-9.426422
-2.643341
4.780365
11.85873
17.76672
22.04776
24.74927
26.12341
26.51331
26.14722
25.13379
23.61804
21.81006
20.04333
18.57501
17.57697
16.92303
16.34033
15.48883
14.1496
12.3894
10.39819
8.48877
6.793884
5.308289
3.830566
2.182983
0.2555542
-1.947144
-4.286621
-6.758423
-9.38562
-12.31329
-15.47351
-18.59863
-21.05194
-22.08502
-21.10431
-17.86023
-12.70898
-6.385315
0.1849365
6.210205
11.24786
15.18549
18.11334
20.14563
21.34003
21.68549
21.2077
20.04535
18.50507
16.97125
15.72485
14.85699
14.26147
13.672
12.84558
11.62421
10.03424
8.221924
6.295166
4.198059
1.817078
-0.9006348
-3.843811
-6.699951
-8.999634
-10.43549
-10.9314
-10.87439
-10.93121
-11.71423
-13.35443
-15.37292
-16.65472
-15.90948
-12.27972
-5.742554
2.633667
11.12311
17.98535
22.0462
23.12433
21.94025
19.77191
18.07886
18.40436
22.19397
30.66562
44.32068
62.34637
82.37021
100.952
114.678
121.5088
121.6288
117.0973
110.6557
104.2911
98.27182
91.44415
82.31366
70.36401
56.6445
43.3681
32.75143
25.85318
22.10178
19.64059
16.46353
11.62381
5.737305
0.7633362
-1.096985
1.353424
7.572601
15.35764
21.83102
24.66992
23.15527
18.15158
11.50717
4.99585
-0.496582
-5.188477
-9.906738
-15.38391
-21.67804
-28.12265
-33.65186
-37.44434
-39.2856
-39.61159
-39.31964
-39.30316
-40.10652
-41.75346
-43.86778
-45.94725
-47.66289
-48.99434
-50.17622
-51.39525
-52.61465
-53.57643
-53.80772
-52.97604
-51.1507
-48.87236
-46.98064
-46.27192
-47.09223
-49.09006
-51.38729
-52.77191
-52.12444
-48.86417
-43.08297
-35.49863
-27.1473
-19.15398
-12.21458
-6.6959
-2.565086
0.4266014
2.491776
3.812214
4.440758
4.441746
3.914078
3.050396
2.030884
1.01054
-0.0464344
-1.273514
-2.768204
-4.519123
-6.309042
-7.799219
-8.653984
-8.740834
-8.243902
-7.546862
-7.11631
-7.325159
-8.361927
-10.20167
-12.73204
-15.6918
-18.85207
-21.99001
-24.9085
-27.52988
-29.85555
-31.95722
-33.8756
-35.56264
-36.72329
-36.95987
-35.74607
-32.6591
-27.56589
-20.70946
-12.75915
-4.655993
2.605597
8.349522
12.29645
14.65521
15.88887
16.4952
16.83667
17.04561
17.09877
16.92395
16.53297
16.03575
15.56783
15.19214
14.88845
14.66868
14.59021
14.70142
15.04256
15.51929
15.91906
16.04818
15.74365
14.94997
13.77267
12.2704
10.3604
7.929173
4.830204
1.030258
-3.21627
-7.591217
-11.82939
-15.79026
-19.61584
-23.57701
-27.84885
-32.46471
-37.27441
-41.92488
-46.03074
-49.06935
-50.58088
-50.18987
-47.79589
-43.59092
-38.21343
-32.57747
-27.52988
-23.70512
-21.21284
-19.77182
-18.93691
-18.22179
-17.2955
-16.02368
-14.43016
-12.57935
-10.68679
-9.040058
-7.95179
-7.798458
-8.83733
-11.14493
-14.60735
-18.83707
-23.2355
-27.33767
-30.79086
-33.47099
-35.50109
-37.13419
-38.53331
-39.73367
-40.51026
-40.47164
-39.37899
-37.17443
-33.97157
-30.1043
-26.06719
-22.38741
-19.70179
-18.50508
-18.87252
-20.36403
-21.93773
-22.2253
-20.18565
-15.78631
-10.09937
-5.052143
-2.511703
-3.321526
-6.801376
-10.8167
-12.77023
-10.71709
-4.217422
5.527695
16.22736
25.48895
31.89101
35.22115
36.37444
36.5145
36.44615
36.44644
36.49612
36.6133
37.15082
38.52727
40.72314
43.07719
44.30299
43.15898
39.32402
33.66211
27.81577
23.55861
21.86877
22.59923
24.79274
27.34016
29.44772
30.91273
31.78758
32.18582
32.11507
31.50568
30.386
28.87872
27.21298
25.40715
23.3046
20.56477
17.00726
12.72105
8.034943
3.421173
-0.8445435
-4.733292
-8.557205
-12.709
-17.44505
-22.5593
-27.48128
-31.38116
-33.40836
-33.04115
-30.15431
-25.14899
-18.75891
-11.88623
-5.375458
0.1419983
4.415009
7.55954
9.823059
11.58862
13.10596
14.44778
15.58194
16.46405
17.09796
17.73865
18.7056
20.19434
22.25992
24.81827
27.72995
31.07181
35.0408
39.80365
45.32233
51.15543
56.40802
60.17807
61.83621
61.06259
58.01846
52.9653
46.1004
37.56506
27.55157
16.40659
4.819519
-6.375885
-16.48026
-25.09192
-32.29947
-38.53387
-44.26208
-49.7843
-55.11395
-59.95505
-64.01138
-67.10828
-69.15479
-70.11685
-69.75912
-67.63626
-63.33411
-56.74542
-48.26526
-38.88531
-29.81656
-21.94748
-15.70322
-10.89365
-6.956696
-3.364655
0.1131287
3.457062
6.406769
8.736115
10.47174
11.87485
13.22327
14.74057
16.43036
18.11926
19.53769
20.4873
20.86926
20.71677
20.12079
19.12653
17.70428
15.74048
13.19177
10.07684
6.53775
2.838165
-0.7425537
-3.993805
-6.759064
-9.008392
-10.83282
-12.34793
-13.70856
-15.14471
-16.81323
-18.77548
-20.80798
-22.40039
-22.83823
-21.45114
-17.94366
-12.55252
-5.973724
0.8751526
7.139801
12.31833
16.32001
19.33618
21.63791
23.3981
24.62991
25.32413
25.51547
25.3378
24.95139
24.53094
24.14413
23.69983
23.02634
21.93811
20.32397
18.21631
15.75534
13.09088
10.31686
7.452759
4.452454
1.205292
-2.173828
-5.516815
-8.620178
-11.36279
-13.72598
-15.83707
-17.80594
-19.74786
-21.74411
-23.85901
-26.18628
-28.76431
-31.48328
-33.8497
-35.10315
-34.43121
-31.36246
-26.02707
-19.21536
-12.0867
-5.659271
-0.5192871
3.308411
6.23941
8.745758
11.07352
13.23181
15.09723
16.51199
17.58679
18.56192
19.58307
20.68478
21.73364
22.53845
22.99829
23.15894
23.06909
22.78619
22.27164
21.39716
19.9848
17.98016
15.46259
12.54691
9.425507
6.204468
2.953247
-0.3596497
-3.763153
-7.377441
-11.3428
-15.67065
-20.28986
-24.88385
-28.95203
-31.77802
-32.68399
-31.21359
-27.26346
-21.29645
-14.08377
-6.630737
0.1580505
5.676086
9.729675
12.44321
14.11746
15.14914
15.77945
16.25647
16.64249
16.9942
17.27716
17.45462
17.50674
17.42023
17.21832
16.89487
16.48206
15.92252
15.25345
14.48486
13.63879
12.69086
11.4881
9.852722
7.670227
4.976318
1.971802
-1.075439
-3.945374
-6.636047
-9.279449
-12.12173
-15.34583
-18.96231
-22.82718
-26.56314
-29.59717
-31.25211
-30.86957
-28.03452
-22.7338
-15.50958
-7.269714
0.8607483
7.952484
13.48291
17.29947
19.62396
20.77893
21.1051
20.83173
20.16833
19.29291
18.41589
17.7851
17.47467
17.44159
17.44281
17.21393
16.54425
15.45648
14.18597
13.00513
12.13074
11.43335
10.66614
9.406799
7.426697
4.787109
1.766113
-1.19696
-3.817444
-6.048706
-8.067322
-10.0675
-12.27295
-14.78455
-17.57574
-20.63757
-23.72192
-26.41699
-28.14825
-28.18719
-25.92633
-21.16827
-14.27905
-6.08313
2.300598
9.892029
15.97418
20.19812
22.58044
23.38025
22.91693
21.5683
19.6886
17.51709
15.38623
13.50439
12.05853
11.20746
10.96027
11.10852
11.48248
11.81116
11.87585
11.63147
11.02618
10.03326
8.603088
6.615784
3.943298
0.7384644
-2.744629
-6.148865
-9.044922
-11.27063
-12.91046
-14.34686
-16.12665
-18.71753
-22.16046
-26.13928
-30.0285
-32.87689
-33.92981
-32.68219
-28.99115
-23.19049
-15.98444
-8.167969
-0.5860596
6.03418
11.35144
15.24835
17.79364
19.27917
19.9187
19.93823
19.50726
18.73694
17.66602
16.41803
15.06879
13.73163
12.56006
11.65558
11.05792
10.66675
10.28888
9.646423
8.5849
7.020142
4.995911
2.704346
0.2907715
-2.15918
-4.617432
-7.043823
-9.445862
-11.73151
-13.91901
-16.14917
-18.49976
-21.06152
-23.57043
-25.47382
-25.992
-24.43243
-20.40375
-14.12555
-6.330627
1.931641
9.515015
15.5755
19.72205
22.09344
23.18658
23.62683
23.9209
24.30487
24.84607
25.35425
25.66095
25.77551
25.74493
25.79095
26.19623
27.28333
29.17181
31.83002
34.78632
37.35944
38.86346
38.62616
36.37848
32.22144
26.60339
20.12537
13.48315
7.233398
1.843445
-2.446533
-5.764648
-8.48407
-11.13141
-14.23541
-18.05927
-22.52039
-27.17352
-31.27118
-33.93515
-34.48175
-32.52145
-28.18121
-22.17258
-15.47427
-9.084656
-3.726685
0.341217
3.317657
5.571045
7.465454
9.098206
10.32376
11.02859
11.19492
10.96939
10.6456
10.4704
10.60345
11.0643
11.69391
12.32111
12.83942
13.11563
13.03824
12.47324
11.26123
9.348206
6.786743
3.717468
0.42099
-2.787628
-5.656891
-8.098389
-10.15381
-12.04556
-14.06595
-16.50095
-19.51627
-23.00668
-26.56396
-29.50922
-31.0152
-30.33243
-27.11276
-21.5625
-14.40179
-6.665131
0.6884766
6.886078
11.60291
14.92847
17.13586
18.53217
19.31021
19.55267
19.35696
18.78973
17.93787
16.96835
16.06863
15.31638
14.66025
13.98163
13.1879
12.28766
11.37259
10.57114
9.96994
9.509216
8.962402
8.001404
6.377411
4.053864
1.174042
-1.910278
-4.888977
-7.522705
-9.800537
-11.82065
-13.74435
-15.65314
-17.48972
-19.12146
-20.33499
-20.84729
-20.35837
-18.62082
-15.48145
-11.03128
-5.624329
0.1530457
5.596069
10.10818
13.35599
15.3418
16.27625
16.47269
16.16406
15.42148
14.29251
12.76178
10.99875
9.289063
8.034882
7.485779
7.699463
8.417175
9.194733
9.620575
9.405945
8.57489
7.317017
5.865814
4.314728
2.631714
0.7208252
-1.464569
-3.79361
-6.076599
-8.066498
-9.691895
-11.10211
-12.64532
-14.54871
-16.86505
-19.37454
-21.51569
-22.69328
-22.28322
-19.97427
-15.92464
-10.64978
-4.939346
0.3792267
4.649673
7.541565
9.076492
9.568375
9.453766
9.04425
8.62677
8.276688
8.023865
7.836517
7.714157
7.643768
7.636429
7.730728
7.829269
7.861465
7.742004
7.3909
6.817963
6.158279
5.430237
4.626877
3.605423
2.15065
0.1432953
-2.472244
-5.495621
-8.562714
-11.27266
-13.29933
-14.48648
-14.9399
-14.91354
-14.8148
-15.08011
-15.94868
-17.35014
-18.97371
-20.17842
-20.32883
-18.93266
-15.87038
-11.48778
-6.393936
-1.41626
2.818329
5.850334
7.561394
8.137787
7.908379
7.22847
6.374146
5.571213
4.865036
4.289337
3.810387
3.456749
3.252464
3.245186
3.454681
3.843567
4.333473
4.805962
5.232811
5.56266
5.898857
6.138184
6.168343
5.834236
4.974243
3.591705
1.741173
-0.4380646
-2.788971
-5.151283
-7.465202
-9.651627
-11.58845
-13.21991
-14.57272
-15.80413
-17.10081
-18.57499
-20.20384
-21.71996
-22.77431
-22.93331
-21.88876
-19.52967
-15.98748
-11.64195
-6.993393
-2.584309
1.137352
3.9403
5.785576
6.792389
7.225325
7.335264
7.259338
7.048647
6.673546
6.095762
5.316103
4.414761
3.541155
2.910168
2.718917
3.012028
3.813177
5.035636
6.618258
8.462669
10.34947
12.08028
13.35796
14.01572
13.94641
13.19571
11.86219
10.03997
7.826797
5.245984
2.374741
-0.7219639
-3.882586
-6.94207
-9.758108
-12.20942
-14.30061
-16.01502
-17.38585
-18.39729
-18.99058
-18.96865
-18.11853
-16.32249
-13.57257
-10.15043
-6.40432
-2.73431
0.6209564
3.57777
6.201736
8.508968
10.37663
11.65102
12.07005
11.62127
10.46315
8.990898
7.639107
6.72496
6.297386
6.20829
6.275223
6.268219
6.137596
5.854507
5.462975
4.960464
4.319511
3.458725
2.281158
0.8069153
-0.9581146
-2.863152
-4.718582
-6.333992
-7.600067
-8.479401
-9.059196
-9.561783
-10.24412
-11.39865
-13.11204
-15.32633
-17.72493
-19.75163
-20.77464
-20.18891
-17.70644
-13.47558
-8.117783
-2.499161
2.453461
6.039551
8.042572
8.619995
8.229401
7.315216
6.189575
4.917984
3.474976
1.907333
0.3049622
-1.053497
-2.032242
-2.604004
-2.944626
-3.275513
-3.807129
-4.558533
-5.400925
-6.175171
-6.713043
-7.048813
-7.295807
-7.636978
-8.193832
-8.996689
-9.980118
-10.99696
-11.96758
-12.86462
-13.73404
-14.73218
-15.99892
-17.60527
-19.46259
-21.20195
-22.26622
-22.02411
-20.10349
-16.42004
-11.35176
-5.534927
0.2852173
5.464951
9.588867
12.44971
14.03519
14.46135
13.93225
12.66026
11.00058
9.225571
7.603424
6.269211
5.20433
4.337494
3.600708
2.995605
2.490234
2.186859
2.084427
2.133469
2.207031
2.114563
1.700775
0.8532562
-0.4391632
-2.159119
-4.169159
-6.282166
-8.339172
-10.16251
-11.7029
-12.99609
-14.08846
-15.0829
-16.00635
-16.89131
-17.70685
-18.33832
-18.47343
-17.84158
-16.16431
-13.3663
-9.627365
-5.275101
-0.8225555
3.270676
6.608383
9.070755
10.59851
11.37018
11.66373
11.72224
11.73367
11.68306
11.46368
10.88953
9.929718
8.612518
7.149948
5.778778
4.616333
3.669571
2.856476
2.095078
1.371674
0.7451324
0.2888641
0.02017212
-0.1598663
-0.408493
-0.9002075
-1.732498
-2.846191
-4.095459
-5.339539
-6.469223
-7.598038
-8.890839
-10.49969
-12.52907
-14.91924
-17.4977
-19.91785
-21.73351
-22.47311
-21.72958
-19.3403
-15.35095
-10.1828
-4.429489
1.148483
5.853592
9.294235
11.40218
12.3943
12.61696
12.39621
11.88493
11.18463
10.26329
9.121063
7.884354
6.784698
6.025009
5.689545
5.703171
5.793335
5.814758
5.632965
5.260605
4.832336
4.408127
3.986618
3.403839
2.481567
1.095779
-0.7025299
-2.732086
-4.818146
-6.749069
-8.440628
-9.848282
-11.00891
-12.01591
-13.01099
-14.16002
-15.54256
-17.16055
-18.79367
-20.09184
-20.61845
-20.01912
-18.08997
-14.89227
-10.66847
-5.767715
-0.6820068
4.192032
8.448471
11.90015
14.44633
16.11292
16.97566
17.12468
16.69321
15.74245
14.34859
12.57454
10.55629
8.453751
6.449463
4.70079
3.273605
2.211884
1.48703
1.08754
0.9816742
1.104065
1.325104
1.430206
1.15181
0.2699585
-1.236389
-3.223282
-5.363953
-7.327499
-9.00946
-10.44585
-11.91051
-13.68027
-15.91888
-18.51292
-21.08762
-23.11563
-23.94283
-23.1489
-20.50948
-16.2682
-11.02916
-5.630951
-0.9131165
2.554474
4.548859
5.258545
5.055847
4.413803
3.671875
3.066528
2.697426
2.597435
2.736153
3.026093
3.418236
3.782188
4.083618
4.257866
4.233971
3.99334
3.528976
2.913216
2.244675
1.664948
1.155869
0.6860809
0.1436157
-0.6941605
-1.931984
-3.591614
-5.600525
-7.776108
-9.816101
-11.4186
-12.24086
-12.06897
-10.92709
-9.072289
-6.968277
-5.062515
-3.566437
-2.323334
-0.9389496
1.107407
4.056747
7.729088
11.61205
15.049
17.549
18.9715
19.44489
19.163
18.26348
16.71747
14.51421
11.80121
9.007278
6.715141
5.507034
5.635429
6.926933
8.878498
10.77493
11.99819
12.16151
11.24714
9.474308
7.20718
4.800697
2.448059
0.2212524
-1.89677
-3.945278
-5.845394
-7.431923
-8.523933
-9.074898
-9.176193
-9.173794
-9.444946
-10.29715
-11.88956
-14.13562
-16.82153
-19.69727
-22.46718
-24.6644
-25.79755
-25.34113
-22.98746
-18.76098
-13.09194
-6.549347
0.2277031
6.743931
12.76897
18.05384
22.35898
25.41326
26.99554
27.07508
25.91075
23.90328
21.59678
19.48684
17.85379
16.86173
16.45134
16.40998
16.49177
16.4701
16.16765
15.5466
14.62168
13.3629
11.73182
9.653477
7.049686
3.951207
0.5370378
-2.891502
-5.986496
-8.499043
-10.40817
-11.84777
-13.09094
-14.42604
-16.02834
-17.91975
-19.88713
-21.54179
-22.40526
-22.05726
-20.222
-16.92132
-12.44315
-7.262003
-1.983252
2.864813
6.865118
9.759021
11.4924
12.20999
12.18735
11.71216
10.99526
10.13282
9.127097
7.944983
6.689907
5.621192
5.051549
5.196784
6.030703
7.272643
8.487869
9.2934
9.409898
8.732462
7.356987
5.372004
2.92478
0.1740737
-2.688328
-5.456027
-7.895247
-9.901878
-11.51984
-12.89937
-14.28473
-15.84106
-17.48707
-18.91247
-19.63375
-19.08721
-16.9299
-13.16431
-8.185591
-2.733973
2.329995
6.313845
8.864357
10.05207
10.33594
10.25415
10.17798
10.25694
10.3641
10.29631
9.946262
9.355574
8.712271
8.205408
7.854586
7.547054
7.166723
6.584328
5.868874
5.195871
4.611353
4.085016
3.370588
2.131771
0.1848297
-2.367498
-5.303173
-8.26639
-11.01838
-13.59085
-16.11017
-18.76331
-21.58657
-24.3193
-26.39609
-27.18316
-26.17563
-23.11277
-18.19501
-11.97839
-5.244083
1.176392
6.637283
10.78041
13.54915
15.18096
16.07283
16.4979
16.65993
16.58996
16.23401
15.57161
14.66097
13.62331
12.60448
11.61779
10.56464
9.39283
8.063194
6.629936
5.220898
3.858986
2.568272
1.334717
0.1426277
-0.9148483
-1.723984
-2.203274
-2.530941
-2.938728
-3.789207
-5.268066
-7.388985
-10.04521
-13.01159
-16.02108
-18.63361
-20.39263
-20.72629
-19.26568
-16.01167
-11.37582
-6.109047
-0.9802551
3.41835
6.884796
9.53257
11.54325
13.0462
14.03305
14.49544
14.48577
14.2514
14.04414
14.0676
14.38879
14.89595
15.40475
15.74038
15.82912
15.68914
15.39548
15.05883
14.61353
13.93066
12.80118
11.05145
8.609169
5.633003
2.380104
-0.8469925
-3.775238
-6.317528
-8.472794
-10.34149
-11.99232
-13.5399
-15.12082
-16.85504
-18.74799
-20.52778
-21.7009
-21.60554
-19.73885
-16.02869
-10.8535
-4.959396
0.8008728
5.789055
9.741295
12.64639
14.66898
15.94861
16.50281
16.36871
15.68554
14.68729
13.69793
12.99647
12.6381
12.51862
12.38434
11.99312
11.1833
9.994499
8.523407
6.932945
5.344734
3.804489
2.358322
0.9683609
-0.41819
-1.834427
-3.278244
-4.767159
-6.23484
-7.58532
-8.790123
-9.866341
-11.01809
-12.41632
-14.09702
-15.81674
-17.04156
-17.20599
-15.86153
-12.96602
-8.803085
-4.016075
0.6839905
4.776497
7.990486
10.37908
12.10979
13.35426
14.17505
14.65216
14.75129
14.48302
13.90403
13.20534
12.6271
12.37809
12.46156
12.70561
12.86961
12.65095
11.96507
10.85505
9.545357
8.273026
7.140114
6.037216
4.763496
3.102539
1.053001
-1.138321
-3.176704
-4.831169
-6.089546
-7.109734
-8.226128
-9.660866
-11.57862
-14.00896
-16.85457
-19.93703
-22.99159
-25.57962
-27.08046
-26.88674
-24.5862
-20.26292
-14.57223
-8.449036
-2.85154
1.557205
4.629021
6.524818
7.615532
8.201378
8.492493
8.541931
8.4953
8.505615
8.792
9.512169
10.64729
12.01694
13.29554
14.20249
14.47536
14.10448
13.20724
12.06171
10.92584
9.965607
9.108467
8.130142
6.772354
4.808601
2.296333
-0.5116959
-3.188835
-5.396812
-6.959595
-8.011803
-8.807304
-9.644257
-10.81003
-12.36387
-14.27776
-16.41954
-18.50923
-20.0421
-20.44151
-19.17457
-15.99231
-11.23477
-5.544571
0.2264786
5.340332
9.417446
12.46371
14.67429
16.2126
17.1737
17.52862
17.3105
16.66647
15.82277
15.0645
14.59233
14.45139
14.56452
14.82365
15.11112
15.35563
15.41055
15.1424
14.47442
13.3557
11.77433
9.779427
7.449841
4.738922
1.657692
-1.762089
-5.37698
-8.869434
-11.91079
-14.20626
-15.67451
-16.41743
-16.73094
-16.9766
-17.42247
-18.24808
-19.52922
-21.09407
-22.60399
-23.53571
-23.27726
-21.41475
-17.78922
-12.65738
-6.660322
-0.621027
4.674664
8.71665
11.3077
12.57147
12.78537
12.34244
11.53571
10.59883
9.793398
9.220247
9.03772
9.261654
9.861414
10.68648
11.55722
12.2656
12.65538
12.69046
12.40073
11.95074
11.45362
11.02596
10.6493
10.25575
9.672744
8.7202
7.286306
5.319317
2.92065
0.181571
-2.729002
-5.694851
-8.614288
-11.43779
-14.23739
-17.04697
-19.96926
-22.95888
-25.84578
-28.24964
-29.59529
-29.31641
-26.96297
-22.47276
-16.20313
-8.92654
-1.62077
4.825747
9.77479
13.05604
14.87387
15.66644
15.83625
15.62638
15.03102
13.93279
12.30354
10.25626
8.160528
6.433752
5.427748
5.193304
5.539045
6.123857
6.641165
6.974735
7.122229
7.2332
7.374304
7.50816
7.441469
6.935041
5.818336
4.072451
1.832823
-0.6735191
-3.17075
-5.444794
-7.389576
-8.999126
-10.36042
-11.59113
-12.74274
-13.84746
-14.91431
-16.01314
-17.19409
-18.51595
-19.76484
-20.58599
-20.4557
-18.84929
-15.57344
-10.78133
-5.11993
0.5823441
5.541702
9.33469
11.80657
13.11118
13.45757
13.02216
12.0237
10.63636
9.162914
7.949028
7.308895
7.292023
7.7841
8.421009
8.839897
8.903706
8.666416
8.369457
8.274036
8.511131
8.993008
9.525528
9.855301
9.713715
8.999649
7.667694
5.753761
3.362053
0.6508789
-2.127678
-4.723404
-6.865952
-8.498657
-9.622002
-10.4181
-11.11077
-11.90672
-13.04895
-14.62238
-16.67216
-18.98691
-21.21216
-22.7308
-23.01717
-21.63636
-18.47998
-13.93438
-8.638046
-3.395683
1.179214
4.77758
7.422478
9.337898
10.75484
11.87907
12.65834
13.02382
12.89113
12.36878
11.67744
11.04057
10.64449
10.41347
10.12712
9.536041
8.484154
6.972878
5.226158
3.468788
1.855087
0.4294052
-0.9201508
-2.311966
-3.800148
-5.293152
-6.654335
-7.684784
-8.233643
-8.305099
-7.996033
-7.513832
-7.05619
-6.806427
-6.959274
-7.702576
-9.1959
-11.36774
-13.87057
-16.06854
-17.2028
-16.61922
-14.10231
-10.00747
-5.134964
-0.3752213
3.556107
6.369888
8.211998
9.356796
10.08562
10.53936
10.67064
10.43832
9.925453
9.280205
8.701134
8.325417
8.065636
7.65612
6.767632
5.182213
3.023117
0.6752243
-1.368286
-2.753174
-3.483025
-3.850494
-4.301285
-5.172333
-6.417801
-7.75676
-8.828873
-9.495407
-9.90274
-10.42975
-11.40805
-13.00793
-15.14796
-17.51219
-19.76738
-21.51814
-22.46127
-22.28554
-20.77306
-17.81619
-13.54086
-8.317001
-2.725174
2.537766
6.908859
9.998856
11.80905
12.55374
12.59506
12.298
11.85384
11.41896
10.9054
10.26436
9.427795
8.420929
7.334152
6.323776
5.530411
4.988602
4.761948
4.69574
4.658295
4.470261
3.953003
3.021225
1.694427
0.05583191
-1.761032
-3.546814
-5.09082
-6.264755
-7.021683
-7.452835
-7.767456
-8.267761
-9.244949
-10.90775
-13.19656
-15.73634
-17.94501
-19.11023
-18.71396
-16.59137
-12.94658
-8.321228
-3.369629
1.347137
5.379105
8.479385
10.5934
11.75264
12.09584
11.77188
11.00819
9.941528
8.724838
7.398712
6.074066
4.890518
4.007095
3.510681
3.356506
3.459518
3.695053
4.030121
4.471916
5.03257
5.666321
6.121597
6.115135
5.443794
4.041428
2.044418
-0.2695923
-2.602554
-4.764267
-6.686348
-8.459854
-10.18992
-12.01936
-14.03294
-16.26718
-18.64866
-20.91562
-22.72704
-23.57764
-23.02631
-20.81073
-16.99278
-11.97795
-6.43557
-1.159966
3.316658
6.6688
8.990387
10.56668
11.66785
12.48739
13.01111
13.23319
13.10426
12.74179
12.32819
11.99068
11.77143
11.50096
11.0201
10.23328
9.250488
8.244347
7.475739
6.996704
6.655174
6.204887
5.301941
3.85186
1.906799
-0.3292465
-2.586098
-4.622849
-6.313904
-7.622696
-8.563705
-9.231323
-9.71492
-10.16547
-10.73249
-11.46587
-12.34905
-13.22503
-13.73805
-13.46637
-12.08631
-9.514915
-6.033951
-2.229462
1.242462
3.864143
5.399551
5.981667
5.978653
5.774818
5.68026
5.837502
6.238495
6.81749
7.446587
7.979027
8.437027
8.832893
9.232384
9.618416
9.924263
9.972511
9.65416
8.933952
7.858482
6.600288
5.177628
3.563271
1.705742
-0.4274063
-2.747955
-5.024719
-7.00605
-8.521957
-9.579643
-10.40004
-11.29488
-12.58067
-14.48762
-17.10802
-20.29424
-23.62932
-26.46392
-28.03904
-27.73521
-25.25644
-20.75137
-14.88078
-8.591576
-2.767197
2.016479
5.524673
7.938194
9.4804
10.35965
10.76234
10.71515
10.26033
9.481895
8.550323
7.639938
6.904747
6.376045
5.980789
5.606926
5.19445
4.822914
4.616714
4.700119
5.125336
5.819351
6.502808
6.850845
6.512199
5.318848
3.323502
0.7606163
-2.163269
-5.240086
-8.367878
-11.53795
-14.67451
-17.68359
-20.45869
-22.87609
-24.76376
-26.06948
-26.53646
-25.85163
-23.706
-19.927
-14.64501
-8.384312
-1.904926
4.14127
9.241074
13.24531
16.15812
18.05174
19.03579
19.15585
18.57136
17.52818
16.34613
15.27266
14.4587
13.82804
13.2025
12.43593
11.39289
10.10405
8.649126
7.138376
5.597507
4.07513
2.543255
0.9551201
-0.6767273
-2.350054
-3.95802
-5.314113
-6.19546
-6.523623
-6.318821
-5.821329
-5.424627
-5.517144
-6.5301
-8.652328
-11.74558
-15.3199
-18.56094
-20.51842
-20.3517
-17.77489
-13.11384
-7.368785
-1.740427
2.850489
5.962712
7.78522
8.823975
9.579352
10.21014
10.65673
10.7091
10.29098
9.598208
8.987753
8.796619
9.167376
10.04959
11.0722
11.90868
12.27645
12.09925
11.55093
10.9608
10.65295
10.74684
11.13458
11.35964
10.99488
9.737791
7.553867
4.749256
1.720623
-1.182354
-3.867558
-6.44516
-9.147652
-12.11179
-15.3205
-18.62756
-21.6698
-24.0855
-25.43139
-25.30373
-23.43362
-19.8097
-14.73143
-8.782127
-2.763325
2.733921
7.266338
10.71407
13.222
14.9659
16.0854
16.6844
16.82796
16.52044
15.92149
15.12227
14.23608
13.38289
12.61748
11.97747
11.50607
11.25965
11.21468
11.42415
11.85537
12.42857
13.01097
13.36504
13.20252
12.26853
10.48378
7.90609
4.861908
1.741791
-1.165703
-3.65638
-5.790001
-7.649811
-9.362274
-10.92709
-12.35133
-13.58147
-14.54503
-15.16615
-15.21785
-14.48648
-12.73794
-9.963402
-6.302345
-2.150574
2.055496
5.881355
9.06797
11.49392
13.13841
14.01993
14.18427
13.81374
13.13461
12.42259
11.87899
11.56485
11.48672
11.54852
11.67578
11.80457
11.94749
12.1148
12.28449
12.4112
12.30537
11.79809
10.68388
8.874496
6.396614
3.45594
0.3968582
-2.412682
-4.642235
-6.243568
-7.397915
-8.398434
-9.609154
-11.33957
-13.6911
-16.55386
-19.52169
-21.93864
-23.14391
-22.59926
-20.0644
-15.74997
-10.27151
-4.49622
0.7184143
4.708305
7.282669
8.564919
8.972694
8.969063
8.841766
8.727695
8.612091
8.389156
7.996582
7.522766
7.057087
6.678238
6.428879
6.181927
5.863831
5.502617
5.053162
4.549515
4.023087
3.430763
2.687126
1.689709
0.3274193
-1.424019
-3.44445
-5.5872
-7.597984
-9.326321
-10.75424
-12.05177
-13.41727
-15.0142
-16.77016
-18.36258
-19.34674
-19.21239
-17.68663
-14.82745
-10.90732
-6.398804
-1.853832
2.259666
5.660454
8.204525
10.02679
11.29894
12.16304
12.75791
13.13704
13.28729
13.21383
12.9255
12.46244
11.86718
11.15521
10.3525
9.521053
8.766899
8.293659
8.294514
8.882481
10.03635
11.46262
12.67225
13.16004
12.5668
10.80321
8.014103
4.589214
0.9380112
-2.612366
-5.916569
-8.954197
-11.79317
-14.46902
-16.97046
-19.28269
-21.27834
-22.80767
-23.58201
-23.32124
-21.80571
-19.0423
-15.3395
-11.20421
-7.212353
-3.8172
-1.174061
0.8710976
2.587074
4.240303
5.890991
7.438
8.733795
9.728779
10.52002
11.21608
11.96698
12.76832
13.49788
13.9177
13.82777
13.11402
11.87903
10.39723
8.930576
7.662109
6.569458
5.412239
3.918541
1.889545
-0.6822701
-3.501759
-6.061134
-7.963654
-8.99181
-9.298542
-9.281631
-9.40012
-10.06393
-11.41311
-13.40715
-15.76336
-18.16412
-20.09295
-21.08488
-20.66644
-18.56403
-14.87651
-10.01049
-4.73399
0.1859436
4.125114
6.930962
8.689697
9.754677
10.41314
10.80968
10.94801
10.78358
10.3607
9.827469
9.458366
9.438511
9.821388
10.44193
11.02023
11.29895
11.17107
10.80412
10.39085
10.12146
10.03239
9.98296
9.73563
9.012684
7.683163
5.6637
3.101616
0.2103195
-2.726315
-5.412479
-7.667591
-9.438406
-10.91292
-12.22813
-13.65289
-15.11885
-16.45104
-17.2334
-17.03428
-15.56062
-12.72172
-8.784077
-4.140095
0.5198956
4.680079
7.911669
10.03177
11.13094
11.41337
11.24601
10.87367
10.51353
10.201
9.935499
9.636688
9.193384
8.548939
7.683346
6.654774
5.503677
4.281847
2.982468
1.59903
0.2355766
-1.03479
-2.071259
-2.805723
-3.24342
-3.572178
-3.979328
-4.560469
-5.280606
-5.973103
-6.539845
-6.981195
-7.557301
-8.538199
-10.02791
-11.87444
-13.53207
-14.37057
-13.88248
-11.90776
-8.679446
-4.692954
-0.4583063
3.691516
7.543265
10.97628
13.86626
16.04111
17.35909
17.77702
17.37398
16.27914
14.63604
12.59582
10.28609
7.806036
5.309686
2.962249
0.8927099
-0.8282231
-2.124933
-2.983209
-3.393599
-3.379784
-3.147701
-2.990987
-3.196347
-3.976888
-5.457028
-7.561334
-10.16118
-13.11222
-16.20903
-19.2186
-21.7982
-23.50179
-23.87744
-22.67668
-19.91269
-15.86224
-11.05099
-5.978118
-1.093208
3.300718
6.969781
9.748013
11.51222
12.19712
11.85803
10.62446
8.836445
6.842547
4.955344
3.427464
2.365672
1.864627
1.849225
2.160126
2.541188
2.739305
2.554557
1.839144
0.6733618
-0.856719
-2.495343
-4.077772
-5.485622
-6.717555
-7.875205
-9.102263
-10.54271
-12.17313
-13.87926
-15.30516
-15.93779
-15.2196
-12.83743
-8.851592
-3.747666
1.628493
6.452704
10.02376
12.13746
12.93645
12.81283
12.18372
11.30657
10.38855
9.552042
8.94006
8.659308
8.807261
9.279795
9.874749
10.38173
10.54342
10.32767
9.845168
9.271779
8.749288
8.255034
7.611263
6.598293
5.104256
3.155673
0.9193077
-1.357639
-3.466986
-5.30749
-6.931875
-8.426688
-9.842473
-11.19953
-12.43614
-13.34732
-13.64529
-13.00291
-11.1641
-8.157454
-4.24185
0.08889389
4.226028
7.645075
10.07484
11.50608
12.11558
12.19698
11.97357
11.52559
10.83251
9.804953
8.499964
7.043072
5.67642
4.636086
4.088705
4.014263
4.225956
4.480904
4.582151
4.46031
4.124069
3.6399
3.051586
2.345284
1.49052
0.5021763
-0.5345535
-1.460283
-2.105129
-2.506592
-2.845802
-3.466019
-4.68766
-6.663372
-9.318928
-12.40357
-15.50312
-18.13737
-19.84807
-20.2298
-18.97097
-16.06105
-11.73868
-6.51059
-1.116772
3.777092
7.74992
10.67483
12.65216
13.89011
14.53869
14.69963
14.40213
13.63308
12.4864
11.1312
9.718361
8.415001
7.240063
6.14238
5.056267
3.92144
2.741894
1.673576
0.9235153
0.6237564
0.8801041
1.515213
2.252895
2.770756
2.826786
2.312737
1.396343
0.3078804
-0.7846527
-1.736599
-2.66571
-3.770645
-5.259499
-7.260567
-9.808914
-12.69604
-15.67242
-18.35166
-20.20693
-20.79108
-19.7515
-16.98249
-12.72292
-7.565224
-2.242035
2.479454
6.080017
8.406898
9.506081
9.657211
9.147446
8.237122
7.092972
5.860085
4.760185
3.99807
3.829292
4.356453
5.628815
7.462646
9.56781
11.62781
13.36123
14.62632
15.32403
15.46363
14.90373
13.65617
11.69971
9.180244
6.390854
3.646484
1.111931
-1.229996
-3.550957
-6.121719
-9.096771
-12.50494
-16.14925
-19.684
-22.67737
-24.64762
-25.20212
-24.07042
-21.19507
-16.88582
-11.68378
-6.267693
-1.347557
2.505676
4.986702
6.048256
5.899376
4.93399
3.533295
2.143478
1.068649
0.5028076
0.467041
0.8492813
1.456116
2.056229
2.382462
2.189133
1.350273
-0.1230011
-2.109039
-4.306267
-6.441002
-8.270859
-9.674561
-10.68765
-11.37928
-11.80369
-11.90945
-11.67057
-11.02148
-10.00852
-8.87706
-7.878731
-7.358452
-7.595703
-8.654343
-10.43558
-12.62153
-14.7355
-16.20322
-16.52484
-15.33582
-12.57404
-8.501976
-3.606186
1.553665
6.451324
10.76123
14.27454
16.78261
18.17021
18.33483
17.39142
15.64182
13.60113
11.79258
10.5547
9.949646
9.742027
9.640221
9.447563
9.144272
8.871056
8.755379
8.831352
8.93808
8.832977
8.282982
7.165207
5.569954
3.512733
1.1035
-1.622559
-4.623573
-7.718048
-10.63541
-13.11877
-15.00394
-16.26527
-17.09544
-17.5302
-17.43501
-16.54179
-14.52052
-11.29238
-7.250206
-3.122047
0.2369385
2.138428
2.441277
1.565552
0.2838287
-0.6659546
-0.7816544
-0.09272766
1.117668
2.477768
3.711769
4.774048
5.739616
6.620842
7.331047
7.618126
7.14502
5.738914
3.441605
0.4915314
-2.728416
-5.845665
-8.591774
-10.82504
-12.47968
-13.65699
-14.39899
-14.85513
-15.1937
-15.53269
-15.98032
-16.49783
-16.84107
-16.64568
-15.57912
-13.35767
-9.947098
-5.66568
-1.014641
3.353539
6.846146
9.136772
10.19942
10.23463
9.583435
8.550598
7.27565
5.829697
4.220177
2.501816
0.8534698
-0.4824371
-1.32692
-1.712791
-1.837219
-2.032166
-2.496445
-3.270981
-4.147606
-4.803841
-4.998215
-4.690598
-4.122528
-3.62706
-3.519073
-3.929535
-4.86409
-6.139404
-7.541031
-8.810623
-9.662384
-9.765862
-8.880463
-6.92099
-4.008842
-0.4548798
3.311974
6.895439
10.02698
12.57287
14.47874
15.61489
15.82521
14.94766
13.05889
10.4016
7.397575
4.499222
2.093063
0.3753662
-0.5935593
-0.8564682
-0.5571671
0.1885071
1.144859
2.029961
2.657413
2.891602
2.681728
2.030685
0.9784737
-0.5435867
-2.610886
-5.257156
-8.419636
-11.77906
-14.89577
-17.16951
-18.08434
-17.26232
-14.6687
-10.56077
-5.445572
-0.03504181
5.086864
9.321255
12.35033
14.06754
14.60159
14.24848
13.2967
11.94911
10.25723
8.296284
6.197208
4.212048
2.669495
1.838711
1.804913
2.418423
3.292473
3.954006
4.091202
3.560566
2.458721
1.010931
-0.5884705
-2.238411
-3.962667
-5.874285
-8.101154
-10.62479
-13.3806
-16.24494
-19.02392
-21.55113
-23.53415
-24.53635
-24.10334
-21.95621
-18.09178
-12.88694
-6.957692
-0.9135828
4.704082
9.561264
13.53299
16.5702
18.6047
19.59927
19.54036
18.59822
17.05722
15.23588
13.43682
11.78102
10.33253
9.069583
7.995425
7.117037
6.507792
6.221804
6.195413
6.350306
6.469699
6.241261
5.358599
3.636124
1.036531
-2.224524
-5.71759
-9.027105
-11.80853
-13.86809
-15.29552
-16.30389
-17.15757
-18.12981
-19.33593
-20.65649
-21.83085
-22.30552
-21.52127
-19.03591
-14.85795
-9.436083
-3.585148
1.802822
6.132942
9.195328
11.2558
12.77514
14.17571
15.62201
17.01185
18.13913
18.9063
19.33313
19.54785
19.68302
19.79759
19.88505
19.90369
19.83218
19.652
19.33005
18.77794
17.83665
16.41403
14.53907
12.46961
10.54512
9.027164
7.934174
6.960213
5.75214
3.998169
1.685631
-0.9976501
-3.74395
-6.284714
-8.50914
-10.44859
-12.17203
-13.6451
-14.77501
-15.54059
-16.0499
-16.5298
-17.17871
-17.93236
-18.4333
-18.19256
-16.71401
-13.83649
-9.820702
-5.26025
-0.8325729
2.914291
5.776711
7.85894
9.341496
10.50695
11.52055
12.43655
13.29374
14.08871
14.73124
15.09904
15.12833
14.71548
13.92952
12.9348
12.04031
11.50931
11.54794
12.05793
12.80223
13.45475
13.6874
13.37276
12.50929
11.28548
9.925045
8.628571
7.440662
6.308414
5.15173
3.867081
2.455589
0.9443283
-0.6261101
-2.175503
-3.671162
-5.17416
-6.728672
-8.487785
-10.61084
-13.16878
-16.07617
-18.99267
-21.34035
-22.42138
-21.76729
-19.15925
-14.87706
-9.59708
-4.052174
1.062515
5.304218
8.57132
10.95562
12.57397
13.59864
14.04956
13.86932
13.08619
11.8009
10.19474
8.586868
7.292103
6.500332
6.351044
6.769173
7.543385
8.464146
9.357204
10.09506
10.59369
10.81225
10.70568
10.24421
9.401752
8.116859
6.462669
4.422623
2.108578
-0.3705788
-2.791862
-4.890915
-6.437271
-7.433601
-8.104847
-8.746029
-9.793022
-11.45931
-13.83197
-16.7063
-19.74248
-22.38801
-24.12176
-24.45617
-23.10079
-20.08836
-15.79774
-10.87182
-6.046776
-1.938431
1.193989
3.354853
4.798618
5.77076
6.47295
6.929026
7.087086
6.857119
6.280348
5.527866
4.878981
4.602669
4.858656
5.65391
6.829409
8.155401
9.336847
10.23063
10.82158
11.20561
11.43143
11.48751
11.17492
10.3508
8.957705
7.174858
5.312458
3.762245
2.7752
2.310396
2.096241
1.688848
0.7853928
-0.730648
-2.705786
-4.921053
-7.084078
-9.086281
-10.83358
-12.41274
-13.87746
-15.25306
-16.63694
-18.08572
-19.66206
-21.2186
-22.52843
-23.11622
-22.55502
-20.58051
-17.19801
-12.79588
-7.949991
-3.286162
0.6823092
3.687395
5.733149
7.041869
7.871966
8.559597
9.26857
10.12263
11.18227
12.40711
13.70989
14.98289
16.01946
16.60092
16.68481
16.2509
15.48679
14.60674
13.7493
12.93293
12.11009
11.1201
9.832615
8.343571
6.768226
5.290442
4.032827
2.988269
2.055981
1.116349
0.02278686
-1.295416
-2.742047
-4.212379
-5.565184
-6.757444
-7.907577
-9.199821
-10.82809
-12.96923
-15.55108
-18.24393
-20.6129
-22.05872
-22.08261
-20.37848
-16.96599
-12.12196
-6.478519
-0.7916737
4.273308
8.164852
10.69134
12.03203
12.49739
12.49403
12.36948
12.24003
12.02909
11.62488
10.88547
9.831174
8.609653
7.431785
6.448887
5.733315
5.314322
5.144251
5.236301
5.578693
6.137594
6.781261
7.297354
7.489487
7.189413
6.40073
5.149813
3.610298
1.883774
0.0239315
-1.9144
-3.927925
-5.94372
-7.872396
-9.671949
-11.33402
-12.85678
-14.37724
-16.08053
-18.00268
-20.00171
-21.74086
-22.75381
-22.5872
-21.03188
-18.13424
-14.24136
-9.886086
-5.550968
-1.614567
1.67104
4.167194
5.873028
6.782829
6.973251
6.579739
5.823471
4.933334
4.028511
3.135818
2.283623
1.518341
1.020401
1.003105
1.68552
3.122406
5.168583
7.401993
9.305771
10.45195
10.61613
9.702225
7.811085
5.181053
2.064892
-1.257366
-4.520863
-7.549381
-10.22735
-12.50574
-14.60548
-16.73786
-19.11252
-21.83947
-24.65894
-27.05744
-28.3097
-27.78085
-25.11504
-20.50945
-14.54349
-8.01231
-1.805565
3.482212
7.443211
9.917259
10.9663
10.78311
9.691635
8.074631
6.363205
4.797272
3.582495
2.811897
2.532892
2.863932
3.803228
5.303289
7.122513
8.983919
10.49101
11.46633
11.81383
11.508
10.59446
9.02136
6.903172
4.366274
1.706713
-0.8467579
-3.073193
-4.993408
-6.861897
-8.976423
-11.62417
-14.78904
-18.2497
-21.59598
-24.37033
-26.05152
-26.18414
-24.50138
-20.99662
-16.00877
-10.1225
-4.102236
1.300047
5.617707
8.661088
10.57511
11.61672
12.10125
12.25412
12.24897
12.12687
11.95028
11.78051
11.63705
11.58743
11.56867
11.53836
11.38097
11.02307
10.38656
9.566438
8.708189
7.959172
7.428544
7.092995
6.837709
6.439683
5.740021
4.647581
3.210694
1.509487
-0.4030211
-2.493344
-4.722407
-7.096299
-9.614026
-12.24294
-15.00037
-17.87668
-20.89117
-23.91538
-26.61666
-28.47851
-29.0239
-27.88433
-25.02045
-20.75391
-15.66286
-10.49534
-5.885006
-2.247604
0.3120594
1.892723
2.797613
3.320324
3.652126
3.976988
4.442396
5.212147
6.425888
8.178095
10.43289
12.97799
15.47159
17.5237
18.84512
19.29671
18.97719
18.05346
16.74398
15.22637
13.5947
11.87535
9.944279
7.709064
5.081974
2.124302
-0.9317169
-3.852886
-6.354477
-8.266342
-9.62365
-10.61605
-11.48274
-12.50129
-13.88057
-15.67918
-17.92926
-20.43633
-22.82941
-24.56245
-24.99133
-23.61338
-20.22992
-15.08046
-8.859909
-2.427448
3.40551
8.123497
11.64555
14.16201
15.99103
17.30031
18.13431
18.43838
18.17683
17.40913
16.3298
15.23383
14.37
13.8254
13.46923
13.1095
12.56112
11.75145
10.70644
9.61454
8.617325
7.854271
7.258255
6.654755
5.888222
4.797508
3.445541
1.938904
0.4507904
-0.8801117
-2.051056
-3.137032
-4.305405
-5.787384
-7.71698
-10.15285
-12.93643
-15.73121
-18.02867
-19.28037
-18.97943
-16.86096
-13.06194
-7.986916
-2.32502
3.201141
7.952217
11.50958
13.7141
14.68789
14.65504
13.86692
12.54343
10.89804
9.14048
7.489304
6.253967
5.649887
5.837967
6.743568
8.063683
9.36277
10.27089
10.61309
10.45684
10.04203
9.584953
9.094978
8.362671
7.037521
4.898819
1.938026
-1.5168
-4.907433
-7.677345
-9.479469
-10.37376
-10.68614
-10.93311
-11.49261
-12.66312
-14.42247
-16.63464
-18.91055
-20.7571
-21.68414
-21.14268
-18.88667
-14.92762
-9.743332
-4.057449
1.245438
5.511269
8.362068
9.822144
10.30284
10.27136
10.23469
10.49671
11.163
12.10145
13.14435
14.13905
15.03165
15.84793
16.50884
16.88947
16.77838
16.00337
14.51176
12.51449
10.40764
8.521942
7.154015
6.193398
5.427193
4.626083
3.564491
2.238487
0.7921677
-0.6041489
-1.861816
-3.012009
-4.244835
-5.694695
-7.333611
-9.087364
-10.79572
-12.40079
-13.99863
-15.74811
-17.6801
-19.55754
-20.80554
-20.72153
-18.82949
-15.12234
-10.16015
-4.766327
0.2418518
4.34536
7.432495
9.654327
11.25227
12.31521
12.93292
13.09892
12.90379
12.57849
12.30115
12.22676
12.37996
12.75657
13.31248
14.11916
15.15871
16.33195
17.49796
18.37757
18.76588
18.45248
17.44081
15.79596
13.69128
11.25445
8.547539
5.715981
2.855301
0.1575089
-2.278717
-4.305267
-5.838211
-6.899368
-7.576828
-8.010681
-8.299103
-8.570671
-8.979607
-9.7397
-11.10413
-13.15955
-15.86139
-18.77593
-21.19228
-22.20051
-21.15683
-17.89043
-12.79641
-6.809677
-0.8787689
4.10939
7.762825
10.02543
11.18084
11.51585
11.36202
11.07343
10.87789
11.03201
11.53822
12.36881
13.35252
14.37028
15.31976
16.19419
17.05664
17.8961
18.60304
19.07829
19.18498
18.8653
18.0927
16.89788
15.26664
13.19559
10.70866
7.949692
5.191139
2.591415
0.2454681
-1.957832
-4.122772
-6.391922
-8.69342
-10.86201
-12.5652
-13.57446
-13.95258
-13.99508
-14.21564
-15.0012
-16.56479
-18.68252
-20.81501
-22.22109
-22.13522
-20.122
-16.05465
-10.30433
-3.594231
3.172649
9.162296
13.68943
16.41251
17.36407
16.87312
15.44022
13.56346
11.61968
9.869888
8.487808
7.519421
6.997215
6.971926
7.394934
8.182335
9.149384
10.11806
10.92397
11.49132
11.78039
11.78154
11.52102
10.90804
9.840851
8.189062
5.914299
3.095308
-0.001830101
-3.051168
-5.687293
-7.709578
-9.195912
-10.3677
-11.50156
-12.76057
-14.13491
-15.49221
-16.78718
-17.99776
-19.11292
-19.99994
-20.26245
-19.42698
-17.12049
-13.35159
-8.517534
-3.353148
1.372547
5.129398
7.752399
9.411497
10.35304
10.785
10.76849
10.35405
9.60141
8.711025
7.898544
7.342651
7.179161
7.322044
7.626713
7.884628
7.99284
7.918869
7.723045
7.42305
6.984653
6.415672
5.668961
4.786442
3.823009
2.82391
1.789387
0.6821671
-0.5087891
-1.798599
-3.154137
-4.6036
-6.11142
-7.746468
-9.47934
-11.31275
-13.1509
-14.93095
-16.62746
-18.27189
-19.98221
-21.66723
-23.09628
-23.77757
-23.16344
-20.87966
-16.89675
-11.65078
-5.875481
-0.439621
4.037476
7.228317
9.177498
10.18535
10.62486
10.78336
10.84351
10.94995
11.1128
11.35303
11.5471
11.62099
11.4971
11.08127
10.33773
9.258202
7.995155
6.658936
5.465073
4.432976
3.556992
2.714821
1.764908
0.5617218
-0.8964157
-2.46669
-3.982773
-5.206985
-6.020905
-6.390625
-6.457932
-6.416321
-6.54158
-7.015244
-7.928009
-9.226776
-10.73186
-12.24358
-13.65578
-14.901
-16.03703
-17.12402
-18.16162
-19.05974
-19.54922
-19.33051
-18.10022
-15.82449
-12.61128
-8.847916
-4.984604
-1.395172
1.693909
4.211746
6.213776
7.731598
8.758896
9.300827
9.43985
9.358444
9.263489
9.302551
9.407211
9.424438
9.167007
8.540207
7.618347
6.616928
5.777832
5.305817
5.204224
5.34375
5.536743
5.581528
5.350418
4.789856
3.955261
2.854935
1.60704
0.2571259
-1.153854
-2.614456
-4.176056
-5.871994
-7.681808
-9.434738
-10.99049
-12.12761
-12.71062
-12.73776
-12.32793
-11.72792
-11.23801
-11.09732
-11.43065
-12.20178
-13.11389
-13.68837
-13.43051
-11.97742
-9.358307
-5.982986
-2.453766
0.6512146
2.989914
4.585327
5.659058
6.45723
7.184448
7.860367
8.430511
8.906128
9.306183
9.694199
10.07208
10.30322
10.14421
9.457077
8.189163
6.476547
4.595505
2.839996
1.489014
0.6919098
0.4237976
0.490097
0.6531677
0.5797424
0.06135559
-0.9838257
-2.442871
-4.042175
-5.466522
-6.490814
-7.011765
-7.063889
-6.87059
-6.652924
-6.635086
-6.96701
-7.690353
-8.71666
-9.875458
-10.88773
-11.39775
-11.1171
-9.812927
-7.439301
-4.215073
-0.5468597
3.022919
5.967743
7.963181
8.916901
8.980698
8.415329
7.543274
6.56929
5.543427
4.4953
3.417877
2.348389
1.360306
0.5577545
-0.01795959
-0.3855438
-0.5640259
-0.5712433
-0.4082947
-0.09979248
0.2522125
0.4662628
0.3884735
-0.0905304
-0.996109
-2.270737
-3.724182
-5.197754
-6.569992
-7.77066
-8.781738
-9.75116
-10.80821
-12.12502
-13.74173
-15.46245
-16.81393
-17.28291
-16.46654
-14.1945
-10.79926
-6.831284
-2.980453
0.1989746
2.461929
3.842422
4.618881
4.990417
5.150818
5.139008
4.939301
4.577042
4.089737
3.575272
3.158447
2.979019
3.074387
3.411423
3.827682
4.113037
4.085587
3.583115
2.589508
1.14151
-0.5831757
-2.475281
-4.439194
-6.404633
-8.292603
-9.967102
-11.35649
-12.33434
-12.97113
-13.302
-13.54114
-13.88455
-14.46153
-15.29428
-16.13278
-16.66342
-16.43187
-15.14677
-12.74889
-9.489838
-5.840393
-2.361984
0.4596558
2.446381
3.669464
4.441406
5.13623
6.032669
7.220612
8.622971
10.01555
11.11693
11.84554
12.20709
12.26709
12.12343
11.78056
11.12871
10.13129
8.853607
7.430786
6.115158
4.952774
3.79155
2.39122
0.5565948
-1.796555
-4.488586
-7.177017
-9.543655
-11.37837
-12.70148
-13.70346
-14.60141
-15.56465
-16.71233
-18.00473
-19.37004
-20.55342
-21.15866
-20.73293
-18.92836
-15.6255
-11.09161
-5.913162
-0.789505
3.586121
6.797028
8.770874
9.613815
9.578888
8.949951
7.993011
6.887039
5.816559
4.90007
4.304703
4.176025
4.559525
5.373108
6.367828
7.221283
7.647339
7.601974
7.233154
6.850525
6.685791
6.740021
6.899246
6.887177
6.525238
5.777222
4.832642
3.905319
3.13826
2.531296
1.868774
0.8906097
-0.6610413
-2.897476
-5.738708
-8.925293
-12.1268
-15.00476
-17.18884
-18.3308
-18.1369
-16.49217
-13.52873
-9.659714
-5.527115
-1.715225
1.381302
3.630417
5.196457
6.31691
7.192902
7.896744
8.41748
8.706146
8.80011
8.732658
8.598526
8.514038
8.573868
8.832184
9.247513
9.686142
9.990883
10.03542
9.743423
9.162033
8.383934
7.480324
6.429062
5.134712
3.486076
1.540474
-0.5291672
-2.43206
-3.857231
-4.711792
-5.15303
-5.497826
-6.072136
-7.094704
-8.553185
-10.38133
-12.32772
-14.06571
-15.19906
-15.36685
-14.24107
-11.72467
-8.088493
-3.86174
0.1685104
3.37661
5.481789
6.617195
7.144295
7.481583
7.844994
8.213165
8.393753
8.227104
7.684586
6.973663
6.391609
6.200539
6.464592
7.025726
7.608658
7.989281
8.03363
7.775894
7.365509
6.900681
6.485733
6.048653
5.480629
4.674744
3.650284
2.408211
1.033211
-0.4333878
-2.028206
-3.716785
-5.493431
-7.358639
-9.309734
-11.33453
-13.48063
-15.7268
-18.10299
-20.51003
-22.79351
-24.59661
-25.51239
-25.08712
-22.96258
-19.08888
-13.76623
-7.645145
-1.565624
3.680008
7.665794
10.24957
11.69206
12.38643
12.71672
13.00382
13.4431
14.11871
15.01053
16.06943
17.12582
17.98662
18.44458
18.40615
17.94886
17.22936
16.38903
15.45149
14.39726
13.17545
11.7635
10.22466
8.637522
7.118856
5.726128
4.398529
3.126526
1.91276
0.7445755
-0.3615398
-1.495029
-2.801058
-4.354944
-6.183786
-8.166447
-10.01504
-11.51129
-12.62965
-13.51392
-14.49141
-15.92978
-17.97966
-20.58901
-23.3361
-25.60218
-26.70436
-26.13259
-23.68236
-19.53074
-14.25225
-8.498407
-2.949403
1.981775
6.092861
9.345863
11.80714
13.6181
14.86308
15.6522
16.18954
16.55794
16.86117
17.09634
17.1991
17.13273
16.96815
16.75867
16.62194
16.71436
17.01335
17.457
17.88894
18.07297
17.86613
17.19484
16.11187
14.76877
13.28902
11.76946
10.22182
8.591215
6.777611
4.712948
2.306179
-0.3619881
-3.121771
-5.795622
-8.149052
-9.989271
-11.30301
-12.19148
-12.84124
-13.56141
-14.61948
-16.25835
-18.55984
-21.46299
-24.55172
-27.20638
-28.67684
-28.30493
-25.82914
-21.45818
-15.79874
-9.627659
-3.677395
1.63612
6.096287
9.69989
12.45104
14.41117
15.68932
16.4059
16.74876
16.86489
16.84975
16.71738
16.47882
16.0815
15.53268
14.87122
14.15669
13.45338
12.84389
12.37829
12.04279
11.83857
11.72517
11.62892
11.43171
10.99552
10.24493
9.160458
7.807175
6.313595
4.860561
3.54908
2.366405
1.205452
-0.04429626
-1.347637
-2.567669
-3.530914
-4.171795
-4.555706
-4.932842
-5.611755
-6.848408
-8.745201
-11.22159
-14.01974
-16.71317
-18.8143
-19.7445
-19.1202
-16.79362
-12.97555
-8.1996
-3.157673
1.484932
5.32938
8.243649
10.31043
11.66404
12.41557
12.62969
12.3726
11.71995
10.79872
9.773918
8.792141
7.995621
7.453026
7.253998
7.386547
7.790085
8.372334
8.957664
9.429504
9.636551
9.496426
8.947815
8.049641
6.936436
5.723923
4.513054
3.313858
2.110294
0.7532959
-0.770752
-2.38834
-3.916382
-5.218048
-6.206451
-6.963787
-7.677574
-8.559757
-9.814371
-11.48749
-13.5766
-15.87594
-18.19438
-20.10764
-21.13089
-20.86029
-19.03193
-15.71882
-11.37109
-6.628633
-2.161329
1.556917
4.406282
6.465799
7.938812
8.974062
9.559832
9.596483
9.011621
7.883375
6.463301
5.116417
4.148037
3.772638
4.085558
4.984425
6.315659
7.857695
9.394987
10.68648
11.38694
11.3152
10.39006
8.817549
6.970467
5.262074
3.927259
2.998331
2.21567
1.193972
-0.3548164
-2.530439
-5.142273
-7.890903
-10.41394
-12.56895
-14.41088
-16.09261
-17.84014
-19.83966
-22.23016
-24.88234
-27.49106
-29.48843
-30.32578
-29.49764
-26.75583
-22.1873
-16.20844
-9.526783
-2.875986
3.117588
8.027422
11.59955
13.84482
14.86204
14.93903
14.47625
13.82927
13.25925
12.83802
12.52789
12.16624
11.62326
10.8981
10.06697
9.32003
8.739862
8.3489
8.003099
7.544525
6.906988
6.053837
5.082729
4.096107
3.213203
2.378899
1.52816
0.5261345
-0.7041664
-2.137741
-3.694748
-5.257717
-6.802605
-8.318451
-9.843807
-11.41679
-13.00958
-14.60953
-16.19617
-17.7716
-19.32419
-20.8124
-22.01985
-22.55153
-22.04826
-20.16595
-16.90157
-12.4868
-7.480576
-2.522141
1.82885
5.26907
7.782715
9.489662
10.65482
11.43625
11.99409
12.36706
12.58135
12.62535
12.51263
12.23967
11.78826
11.17499
10.37996
9.445915
8.466442
7.547329
6.832455
6.336319
6.040653
5.899342
5.833908
5.843292
5.930008
6.08379
6.216221
6.195442
5.76046
4.795071
3.24926
1.230385
-1.048164
-3.386681
-5.591656
-7.613232
-9.449081
-11.25207
-13.16619
-15.36671
-17.92507
-20.90128
-24.13533
-27.32082
-29.99632
-31.53838
-31.40529
-29.2466
-25.09663
-19.33591
-12.6263
-5.801071
0.4378357
5.594582
9.439873
12.03703
13.55766
14.21112
14.23283
13.89624
13.36254
12.87327
12.55793
12.517
12.82441
13.43871
14.27546
15.16139
15.92091
16.28575
16.08715
15.20499
13.71425
11.85037
9.911049
8.213043
6.921402
6.062729
5.461044
4.895157
4.133331
3.032852
1.584435
-0.2354965
-2.380363
-4.759224
-7.345596
-10.00539
-12.61036
-15.09389
-17.51216
-19.96272
-22.54597
-25.11871
-27.21833
-28.16928
-27.27667
-24.14886
-18.90723
-12.24617
-5.10479
1.505066
6.888237
10.71134
13.01613
14.1171
14.26869
13.79554
12.84716
11.57589
10.11948
8.695808
7.53167
6.902199
7.017097
7.79306
9.023209
10.32378
11.36402
11.96307
12.15915
12.08652
11.86497
11.51869
10.92174
9.935822
8.458801
6.536484
4.364075
2.136185
-0.06604004
-2.292984
-4.64003
-7.209305
-9.945831
-12.82648
-15.78625
-18.69662
-21.50865
-24.16867
-26.52878
-28.22929
-28.84178
-27.93619
-25.30003
-21.06221
-15.59264
-9.498932
-3.430634
2.073044
6.759857
10.46059
13.18127
14.98795
15.94052
16.21443
15.98294
15.49609
14.90744
14.31972
13.72359
13.1781
12.79233
12.71384
13.04086
13.73077
14.59323
15.3062
15.5584
15.18324
14.23325
12.87282
11.22409
9.27774
6.928223
4.06369
0.7745361
-2.673096
-5.914047
-8.604446
-10.58508
-11.98323
-13.07062
-14.1216
-15.31352
-16.6333
-18.05766
-19.59145
-21.33969
-23.26064
-25.16577
-26.50568
-26.64537
-25.04932
-21.6055
-16.70256
-11.1438
-5.791946
-1.196564
2.48291
5.458755
8.067184
10.5192
12.7637
14.67021
16.04794
16.89407
17.30708
17.41693
17.40448
17.29121
17.11804
16.8257
16.43822
15.98834
15.57199
15.23582
14.97929
14.80479
14.62411
14.4202
14.11349
13.68694
13.11411
12.33397
11.27791
9.872086
8.071564
5.847534
3.248611
0.3172913
-2.803452
-5.916412
-8.879105
-11.55852
-13.92955
-16.08553
-18.23729
-20.59161
-23.27513
-26.21893
-29.06668
-31.31725
-32.31114
-31.46448
-28.48808
-23.50342
-17.08347
-10.11632
-3.541153
1.933182
5.917175
8.525208
10.13667
11.21744
12.18115
13.25223
14.42105
15.59492
16.64268
17.55043
18.34897
19.05502
19.62044
19.92305
19.81712
19.27876
18.41016
17.43082
16.6633
16.26344
16.18225
16.13455
15.79095
14.86963
13.37573
11.54999
9.6978
8.106003
6.806488
5.557281
4.01886
1.96936
-0.5975494
-3.433731
-6.100296
-8.290985
-9.888382
-10.99829
-11.96213
-13.11023
-14.77235
-17.09769
-20.13672
-23.69418
-27.37427
-30.52267
-32.38531
-32.22272
-29.67444
-24.92337
-18.53577
-11.42142
-4.495087
1.535919
6.302216
9.717651
11.94727
13.27966
13.98813
14.33398
14.50925
14.65399
14.81488
15.03323
15.34528
15.73154
16.19656
16.73981
17.32651
17.98114
18.76031
19.70636
20.76834
21.79294
22.46085
22.49188
21.71082
20.1723
18.05093
15.63388
13.23679
10.97464
8.866882
6.840149
4.817535
2.761688
0.7015076
-1.309814
-3.228241
-4.995392
-6.657562
-8.320038
-10.1196
-12.23141
-14.80679
-17.91431
-21.46664
-25.19388
-28.57068
-30.91159
-31.53278
-29.93607
-26.12471
-20.57295
-14.0775
-7.547119
-1.692154
3.100113
6.702759
9.253967
10.99306
12.05122
12.59888
12.78546
12.75133
12.67401
12.68863
12.96219
13.51993
14.37512
15.3261
16.16528
16.66321
16.56682
15.86951
14.62044
13.04924
11.35164
9.761139
8.322906
7.063568
5.910431
4.737015
3.516647
2.227158
0.8357239
-0.6506348
-2.251648
-4.000168
-5.860199
-7.751556
-9.543076
-11.13026
-12.56479
-14.06721
-15.95294
-18.52847
-21.75412
-25.19649
-28.00467
-29.23412
-28.16963
-24.69727
-19.29163
-12.81535
-6.298721
-0.5244751
4.059097
7.364197
9.526123
10.78192
11.3699
11.51357
11.42587
11.28513
11.25696
11.45396
11.89981
12.58296
13.46045
14.39711
15.24823
15.84935
16.07727
15.937
15.42252
14.52533
13.21027
11.47639
9.340729
6.950882
4.533508
2.324799
0.5428162
-0.8311157
-1.991318
-3.206436
-4.690063
-6.538849
-8.662857
-10.86771
-12.92853
-14.72234
-16.29758
-17.83177
-19.58893
-21.86945
-24.79808
-28.2648
-31.8613
-34.93198
-36.68085
-36.46416
-33.88617
-29.06995
-22.63257
-15.39983
-8.288269
-1.955307
3.197037
7.137955
10.0237
12.14798
13.74942
14.93759
15.82166
16.38353
16.66986
16.67776
16.49315
16.32394
16.36136
16.80528
17.72328
19.0056
20.3463
21.39648
21.80363
21.36494
20.08115
18.04543
15.46335
12.54565
9.561127
6.688278
4.198288
2.27713
0.892334
-0.1955719
-1.416107
-3.137054
-5.566818
-8.562057
-11.8735
-15.15631
-18.19287
-21.02573
-23.84109
-26.85033
-30.04633
-33.202
-35.92691
-37.72269
-38.17159
-36.92577
-33.85155
-29.05424
-22.88771
-15.86316
-8.630798
-1.818405
4.096863
8.787949
12.1671
14.34523
15.63385
16.34286
16.81622
17.3396
18.03787
18.98111
19.98181
20.83871
21.27742
21.25587
20.81183
20.16991
19.60718
19.31332
19.39705
19.73618
20.08922
20.1543
19.75058
18.81201
17.46419
15.89307
14.25148
12.55811
10.65205
8.344131
5.488983
2.091629
-1.70459
-5.604309
-9.370972
-12.83435
-15.85617
-18.47702
-20.74094
-22.77217
-24.75452
-26.90773
-29.32959
-31.92198
-34.3739
-36.01437
-36.18994
-34.35089
-30.3595
-24.54678
-17.62442
-10.37924
-3.518463
2.471664
7.403778
11.18146
13.86902
15.56926
16.48065
16.86992
17.04224
17.17056
17.31793
17.44067
17.3719
17.06624
16.57309
16.03041
15.66014
15.57214
15.74886
16.08351
16.46524
16.71921
16.72498
16.35246
15.47263
14.06958
12.22119
10.08839
7.918961
5.915268
4.174927
2.638916
1.138062
-0.4785614
-2.260239
-4.140457
-5.999481
-7.750198
-9.400223
-11.03513
-12.82472
-14.9335
-17.49541
-20.41046
-23.38623
-25.89156
-27.31808
-27.08128
-24.85889
-20.66371
