-8.780884
-9.749344
-11.12347
-13.06004
-15.57242
-18.39859
-20.97261
-22.54575
-22.51164
-20.54269
-16.86481
-12.12167
-7.163483
-2.806839
0.5420227
2.816132
4.234039
5.037292
5.378616
5.327484
4.968842
4.474487
4.021317
3.819199
3.955902
4.356232
4.853409
5.219849
5.335815
5.189514
4.892395
4.565613
4.305298
4.152435
4.117523
4.161545
4.228531
4.227325
4.041946
3.554916
2.685822
1.432602
-0.1059875
-1.762344
-3.352051
-4.80101
-6.109222
-7.415451
-8.973999
-10.88864
-13.13293
-15.38719
-17.17584
-17.92929
-17.3004
-15.21725
-11.94414
-8.029449
-3.965485
-0.1870422
3.065384
5.606339
7.394592
8.357361
8.525833
8.001358
7.036438
5.974518
5.083191
4.519699
4.274017
4.322189
4.596848
5.096954
5.794937
6.627472
7.509171
8.240631
8.68013
8.739426
8.337433
7.447571
6.091736
4.373489
2.435089
0.569809
-1.021057
-2.176102
-2.901306
-3.350235
-3.77829
-4.348206
-5.155106
-6.255829
-7.623398
-9.320602
-11.39175
-13.86832
-16.61841
-19.32883
-21.49553
-22.60359
-22.33417
-20.54575
-17.38632
-13.15955
-8.206665
-2.844833
2.62825
7.960968
12.8499
16.99091
20.14886
22.16313
23.01968
22.8521
21.82959
20.17424
18.10588
15.80864
13.46053
11.23502
9.293381
7.790253
6.805984
6.396317
6.481201
6.914169
7.519394
8.064148
8.393219
8.336914
7.825806
6.774475
5.207214
3.190857
0.8118286
-1.782349
-4.477615
-7.168396
-9.802231
-12.26566
-14.50395
-16.51669
-18.29614
-19.89107
-21.2294
-22.05989
-22.02356
-20.72708
-18.00578
-13.97816
-9.094345
-4.009995
0.6499176
4.463509
7.257011
8.998627
9.798454
9.745972
9.036217
7.925835
6.725616
5.721611
5.097015
4.898849
4.969971
5.154617
5.283684
5.268105
5.124329
4.913963
4.68676
4.488998
4.350464
4.141975
3.788605
3.114326
2.08313
0.7778702
-0.6110077
-1.815292
-2.63636
-2.994041
-3.041641
-2.97551
-3.057076
-3.509331
-4.460075
-6.023666
-8.185837
-10.79797
-13.40957
-15.48106
-16.36211
-15.65841
-13.38091
-9.883522
-5.84198
-1.933609
1.299095
3.671333
5.209991
6.107376
6.526367
6.628586
6.587234
6.544952
6.647591
6.953835
7.474022
8.146294
8.916985
9.616554
10.07478
10.17938
9.84848
9.141647
8.192581
7.139122
6.06192
5.028168
3.90197
2.47599
0.7162704
-1.367554
-3.552059
-5.545418
-7.22477
-8.649776
-10.01966
-11.56698
-13.4991
-15.77695
-18.17384
-20.29072
-21.62821
-21.75466
-20.36542
-17.40032
-13.06428
-7.810009
-2.208519
3.115166
7.732235
11.43858
14.1588
15.99788
16.9949
17.18977
16.67039
15.616
14.21377
12.69087
11.32421
10.16027
9.242853
8.507477
7.846092
7.217546
6.652004
6.158133
5.769403
5.492289
5.179201
4.712543
3.990515
2.95583
1.655098
0.1761379
-1.374399
-2.865924
-4.232912
-5.502496
-6.748759
-8.152682
-9.949781
-12.26795
-15.07645
-18.03733
-20.54624
-21.88046
-21.45229
-19.03847
-14.86373
-9.637602
-4.106037
1.018528
5.377248
8.865383
11.59931
13.73001
15.33621
16.3343
16.59258
16.06512
14.78288
13.00008
10.98768
9.047446
7.368523
6.015774
4.962164
4.174893
3.717363
3.671822
4.143375
5.057234
6.191423
7.10815
7.377748
6.771572
5.294439
3.188547
0.7969265
-1.539289
-3.658228
-5.492422
-7.147427
-8.805433
-10.58035
-12.5905
-14.91332
-17.45153
-19.87851
-21.70759
-22.32393
-21.28374
-18.47312
-14.13747
-8.917492
-3.592876
1.220757
5.209717
8.353317
10.84521
12.87122
14.47309
15.61713
16.15705
15.98471
15.13022
13.76382
12.12403
10.49418
9.104042
8.026875
7.224552
6.577255
5.971931
5.338745
4.697392
4.080036
3.515736
2.97345
2.380314
1.697018
0.9832687
0.3625946
-0.08905792
-0.4163666
-0.8083496
-1.500237
-2.690819
-4.379135
-6.230759
-7.684044
-8.108498
-6.982597
-4.104515
0.3478394
5.968864
12.22413
18.53822
24.48939
29.88807
34.68539
39.06219
43.2969
47.66309
52.22206
56.76862
60.60455
62.74275
62.08174
57.78029
49.57357
37.9744
24.16636
9.731796
-3.742558
-15.11069
-23.77764
-29.71869
-33.27819
-34.93062
-35.08717
-34.08245
-32.13849
-29.43428
-26.18079
-22.51717
-18.63437
-14.75396
-11.09738
-7.936893
-5.567991
-4.121002
-3.466949
-3.128244
-2.288448
0.01551819
4.601097
11.74927
20.91272
30.60813
38.81243
43.51854
43.46016
38.5815
30.03364
19.76947
9.847234
1.809645
-3.703185
-6.850364
-8.234571
-8.559751
-8.357134
-7.959998
-7.57458
-7.346424
-7.388157
-7.749849
-8.363356
-9.070959
-9.699814
-10.20302
-10.69203
-11.46504
-12.82939
-15.04087
-18.05883
-21.54039
-24.90916
-27.55055
-29.11472
-29.63192
-29.54415
-29.47478
-29.9991
-31.37299
-33.36787
-35.39985
-36.71759
-36.60823
-34.63913
-30.83929
-25.57092
-19.45958
-13.24609
-7.5271
-2.75568
0.8100166
3.232578
4.677673
5.398315
5.668026
5.679558
5.573654
5.390537
5.14941
4.833599
4.456905
4.023651
3.538879
3.019352
2.483055
1.958431
1.523617
1.179478
0.9292183
0.7237358
0.4912186
0.2002182
-0.132946
-0.5291405
-0.9980335
-1.587721
-2.396915
-3.509031
-4.934427
-6.682735
-8.716948
-11.03939
-13.67525
-16.52229
-19.30463
-21.49495
-22.46223
-21.63203
-18.75651
-14.09036
-8.28222
-2.230684
3.258059
7.681928
10.88513
13.01959
14.32774
15.00863
15.20022
14.97215
14.41856
13.70615
13.00105
12.46133
12.1737
12.0558
11.94252
11.65704
11.11017
10.37385
9.610683
8.976534
8.527479
8.122722
7.462079
6.289749
4.482632
2.169621
-0.3481312
-2.750269
-4.857335
-6.67959
-8.338166
-10.01701
-11.85361
-13.90766
-16.14445
-18.38327
-20.31922
-21.49054
-21.41007
-19.71274
-16.34703
-11.64329
-6.253567
-0.9548702
3.619949
7.091267
9.379803
10.61859
11.00101
10.70538
9.843298
8.567818
7.038731
5.534241
4.274498
3.41869
3.021526
3.006355
3.256985
3.638927
4.102257
4.590439
5.033524
5.301624
5.161095
4.399792
2.851665
0.4967079
-2.49831
-5.786816
-8.955978
-11.62817
-13.56228
-14.76206
-15.42036
-15.93273
-16.64558
-17.80477
-19.43083
-21.38597
-23.31051
-24.69514
-24.98277
-23.63816
-20.3957
-15.2892
-8.769341
-1.588402
5.373779
11.38644
16.05441
19.31857
21.39407
22.61424
23.21908
23.35784
23.12428
22.56666
21.87011
21.3003
21.10904
21.45311
22.30759
23.40826
24.32266
24.66515
24.19765
22.94436
21.14102
19.0205
16.74479
14.35394
11.81221
9.164169
6.605942
4.468361
3.059837
2.524399
2.727524
3.318474
3.859909
3.995506
3.518486
2.388046
0.6441498
-1.512878
-3.805771
-5.854179
-7.157486
-7.336403
-6.193604
-3.842789
-0.7137451
2.661484
5.801971
8.433876
10.44361
11.92422
12.95444
13.59389
13.88727
13.88692
13.66653
13.26744
12.78669
12.23998
11.69115
11.15591
10.61843
10.0667
9.421555
8.64875
7.717873
6.712105
5.759415
4.988197
4.324593
3.596649
2.572952
1.004784
-1.105728
-3.58419
-6.10112
-8.371262
-10.29654
-11.98587
-13.65112
-15.45872
-17.43316
-19.36387
-20.8378
-21.39106
-20.66125
-18.46873
-14.87258
-10.21774
-4.982559
0.1627045
4.606045
7.894951
9.804329
10.352
9.780056
8.49791
6.908997
5.388191
4.152458
3.286541
2.715698
2.284561
1.847832
1.354233
0.8365517
0.4003639
0.1978188
0.3046188
0.6906967
1.227139
1.717403
1.938007
1.646961
0.6259537
-1.266079
-3.936398
-7.131432
-10.4444
-13.42941
-15.8238
-17.58309
-18.8783
-19.95805
-20.95932
-21.76692
-22.12741
-21.66932
-20.07008
-17.18009
-13.08441
-8.069473
-2.592606
2.837772
7.769093
11.81558
14.81707
16.78023
17.82927
18.09462
17.71164
16.73819
15.22708
13.32797
11.25297
9.291855
7.702587
6.60368
5.915661
5.496532
5.104897
4.532261
3.686909
2.532784
1.025421
-0.8839264
-3.168232
-5.697994
-8.201344
-10.37144
-11.95376
-12.88252
-13.32423
-13.63178
-14.21497
-15.32272
-16.99485
-19.00327
-20.95806
-22.34903
-22.69483
-21.59051
-18.85293
-14.58923
-9.269497
-3.513416
2.000904
6.734322
10.42463
13.09394
14.94761
16.22301
17.11082
17.66017
17.90253
17.86826
17.6314
17.22513
16.70721
16.05386
15.23832
14.29139
13.28475
12.38487
11.70475
11.21826
10.72857
9.970139
8.677635
6.792942
4.450809
1.922363
-0.5207443
-2.745613
-4.793594
-6.804186
-8.943104
-11.33954
-13.99019
-16.81057
-19.61985
-22.08111
-23.73345
-24.08223
-22.71777
-19.53226
-14.84649
-9.281893
-3.643116
1.290203
5.105108
7.705908
9.274382
10.14612
10.56288
10.63689
10.40843
9.884487
9.069126
8.112457
7.19631
6.514114
6.141838
6.001234
5.893162
5.578413
4.941502
3.938986
2.690828
1.290947
-0.184391
-1.737373
-3.364754
-4.975039
-6.387054
-7.363707
-7.842922
-7.917593
-7.923529
-8.215652
-9.054844
-10.53404
-12.44502
-14.39895
-15.85737
-16.3626
-15.56308
-13.35662
-9.859741
-5.442097
-0.6729069
3.82996
7.483156
10.0644
11.52264
12.06369
11.97583
11.48467
10.74292
9.805899
8.781879
7.748007
6.929251
6.379648
6.039114
5.735104
5.215096
4.362995
3.19212
1.870192
0.5127945
-0.7505989
-1.894562
-2.938496
-3.820276
-4.480188
-4.798618
-4.761562
-4.406092
-3.997238
-3.831808
-4.197248
-5.287895
-7.072512
-9.386288
-11.7977
-13.78979
-14.77607
-14.39371
-12.52722
-9.424206
-5.56127
-1.52215
2.153629
5.108545
7.218853
8.530588
9.183054
9.354084
9.19487
8.7834
8.21039
7.489655
6.64477
5.680536
4.593941
3.423733
2.255913
1.299484
0.7111988
0.6699009
1.234779
2.261835
3.429367
4.367281
4.73772
4.348093
3.332935
1.906879
0.3548222
-1.056011
-2.250498
-3.283634
-4.302443
-5.573433
-7.374004
-9.909443
-13.13017
-16.6836
-19.87897
-21.90545
-22.04626
-20.03542
-16.11292
-10.97784
-5.492783
-0.4520855
3.629438
6.622782
8.591616
9.736788
10.2634
10.30512
9.99626
9.46389
8.809366
8.132927
7.558073
7.057007
6.583324
6.051584
5.341434
4.538502
3.788309
3.276226
3.16926
3.502491
4.112799
4.701794
4.974819
4.682787
3.796064
2.408207
0.7451725
-0.9687996
-2.565584
-4.032402
-5.407415
-6.797533
-8.358614
-10.16427
-12.19413
-14.21951
-15.86295
-16.62056
-16.05423
-13.8304
-9.90712
-4.589178
1.521286
7.644365
13.04201
17.13531
19.59353
20.37433
19.77029
18.20987
16.20001
14.14461
12.25972
10.58247
9.071857
7.711584
6.502499
5.535963
4.895849
4.579063
4.510897
4.522999
4.44735
4.160662
3.683228
3.019924
2.193094
1.207882
0.04193497
-1.320745
-2.866972
-4.523741
-6.245897
-7.925543
-9.58193
-11.30002
-13.19289
-15.24747
-17.22926
-18.70169
-19.15277
-18.18965
-15.67795
-11.91248
-7.484989
-3.021654
0.961298
4.24415
6.815187
8.701836
9.938196
10.52501
10.45674
9.810415
8.784004
7.568172
6.382534
5.359604
4.507376
3.768211
3.07358
2.376133
1.668486
1.000566
0.324337
-0.4008007
-1.326441
-2.586296
-4.313122
-6.47657
-8.954363
-11.51654
-13.93776
-16.16779
-18.25256
-20.31326
-22.47323
-24.82435
-27.34258
-29.90126
-32.16914
-33.64356
-33.76698
-32.02108
-28.1624
-22.25606
-14.83243
-6.649231
1.449009
8.790054
14.96666
19.83694
23.43026
25.86291
27.35203
28.08239
28.28346
28.1563
27.84003
27.4225
26.87608
26.0955
24.97744
23.44129
21.48989
19.29338
17.0312
14.83701
12.80735
10.88953
8.998199
7.041595
4.963566
2.779591
0.5971069
-1.511116
-3.522861
-5.324745
-6.869541
-8.108295
-9.069031
-9.959095
-11.08949
-12.73146
-15.00257
-17.66869
-20.08378
-21.4609
-21.11901
-18.75263
-14.60134
-9.329227
-3.797501
1.193684
5.125526
7.862061
9.522438
10.37295
10.75639
10.88181
10.87825
10.72179
10.40409
9.916077
9.343094
8.757065
8.242504
7.823212
7.442341
7.003708
6.504639
6.02013
5.644997
5.390594
5.149914
4.7286
3.949585
2.758251
1.232109
-0.4613113
-2.120819
-3.627548
-4.957989
-6.159237
-7.344341
-8.671482
-10.17725
-11.72417
-13.00799
-13.52794
-12.70215
-10.06662
-5.49844
0.6172562
7.46611
14.01272
19.34259
22.83117
24.33647
24.01369
22.30572
19.68842
16.57023
13.27105
10.03479
7.048401
4.527931
2.691658
1.656082
1.537567
2.268818
3.643486
5.374687
7.140957
8.602348
9.535843
9.784733
9.173496
7.589653
4.952553
1.345993
-2.961208
-7.541077
-11.94748
-15.83936
-19.12537
-21.95515
-24.53754
-27.00374
-29.20671
-30.73602
-31.0672
-29.80246
-26.7714
-22.1844
-16.56416
-10.57241
-4.91828
-0.1372795
3.500452
5.995939
7.56481
8.597992
9.372713
10.06778
10.75834
11.4026
11.97262
12.47011
12.9136
13.27893
13.50511
13.43313
12.84512
11.64483
9.796755
7.406755
4.659542
1.732193
-1.162077
-3.836758
-6.088238
-7.872618
-9.11376
-9.920237
-10.44246
-10.91595
-11.66638
-12.96739
-15.02458
-17.76956
-20.9105
-23.73034
-25.46739
-25.41689
-23.29885
-19.36656
-14.30658
-8.996494
-4.081495
-0.007644653
3.207479
5.676126
7.497055
8.714617
9.29513
9.279301
8.733427
7.846125
6.693707
5.299063
3.672127
1.858229
0.1006241
-1.299829
-1.970163
-1.783188
-0.8603687
0.4180202
1.580681
2.247066
2.190561
1.481085
0.2948475
-1.01437
-2.121811
-2.699671
-2.588566
-1.811737
-0.5728703
0.6952648
1.6509
2.077286
2.040453
1.921124
2.272036
3.570032
5.991247
9.33869
13.03214
16.42502
18.9167
20.20137
20.33674
19.71726
18.8036
17.96529
17.42622
17.1644
17.04996
16.92815
16.74521
16.57183
16.56624
16.8187
17.34069
18.02362
18.68586
19.10328
19.08537
18.45854
17.04943
14.7158
11.37597
7.168272
2.39672
-2.442362
-6.895594
-10.6845
-13.84294
-16.68303
-19.62259
-22.92297
-26.53792
-30.07552
-32.86694
-34.18611
-33.51122
-30.71057
-26.07827
-20.2578
-14.01859
-8.067593
-2.904104
1.253042
4.399641
6.612356
8.020618
8.720377
8.885138
8.732599
8.451447
8.156248
7.834156
7.396527
6.739516
5.873846
4.878261
3.858496
2.864982
1.822386
0.586545
-0.9204693
-2.646035
-4.478488
-6.285381
-8.048127
-9.879274
-11.93599
-14.35394
-17.16568
-20.25045
-23.39554
-26.38739
-28.9562
-30.77406
-31.41184
-30.45461
-27.66441
-23.09287
-17.14913
-10.56723
-4.188964
1.300485
5.532194
8.555756
10.67488
12.32574
13.83085
15.35203
16.74654
17.74773
18.11812
17.76905
16.81952
15.54133
14.23418
13.07214
12.09555
11.21254
10.32389
9.318588
8.135923
6.700448
4.948679
2.88901
0.5673056
-1.900949
-4.351218
-6.647041
-8.835703
-11.04218
-13.45113
-16.19599
-19.23639
-22.35173
-25.12779
-26.99013
-27.28279
-25.48487
-21.4427
-15.45106
-8.243465
-0.8204298
5.883934
11.228
15.00191
17.32993
18.48546
18.6918
18.04052
16.64219
14.66075
12.38349
10.14774
8.264702
6.90938
6.12172
5.869118
6.055554
6.647123
7.547726
8.616385
9.644062
10.37959
10.62721
10.26028
9.248222
7.664237
5.623143
3.327557
0.9811413
-1.180092
-3.082554
-4.766417
-6.4714
-8.499731
-11.05356
-14.02651
-16.95101
-19.10578
-19.67269
-18.21657
-14.70895
-9.673305
-3.987288
1.471434
6.040209
9.462675
11.80986
13.35246
14.2351
14.56394
14.30676
13.49211
12.24567
10.77021
9.300079
7.93518
6.715962
5.587979
4.549968
3.638686
2.932784
2.484084
2.189609
1.873288
1.340638
0.5691342
-0.3586264
-1.199533
-1.711778
-1.781521
-1.460591
-0.9986935
-0.687377
-0.7909369
-1.449666
-2.746116
-4.636776
-6.971026
-9.532995
-11.92156
-13.63155
-14.15708
-13.15665
-10.64567
-7.033507
-3.00767
0.7142534
3.545005
5.266193
5.962447
5.963572
5.611659
5.171165
4.718489
4.181458
3.494136
2.582189
1.56525
0.6657104
0.1309252
0.06853104
0.4855099
1.154963
1.778913
2.142064
2.090988
1.659697
0.9822321
0.1585655
-0.8089943
-1.946399
-3.34702
-5.051804
-7.034647
-9.292118
-11.76542
-14.48038
-17.40433
-20.33886
-22.83258
-24.20866
-23.80015
-21.23362
-16.70663
-10.86705
-4.684289
0.9492702
5.513113
8.910366
11.30291
12.95296
14.01506
14.485
14.38995
13.80856
12.93543
12.00218
11.20551
10.58695
10.13773
9.845774
9.670351
9.56883
9.501244
9.330089
8.94341
8.266027
7.285653
6.059968
4.646995
3.055576
1.216875
-0.8693056
-3.147306
-5.445764
-7.645856
-9.701414
-11.68853
-13.76258
-15.95275
-18.04008
-19.5526
-19.85798
-18.49377
-15.34279
-10.74568
-5.363151
0.02795124
4.763022
8.48591
11.06802
12.57864
13.15211
12.96599
12.18053
11.07869
9.949458
9.045648
8.578183
8.501034
8.702976
8.974217
9.175838
9.189214
9.014408
8.655417
8.152466
7.504543
6.630492
5.544883
4.240226
2.868006
1.596981
0.5727425
-0.2080517
-0.8793259
-1.736849
-3.159321
-5.336376
-8.318321
-11.84547
-15.42448
-18.3955
-20.13754
-20.18047
-18.35285
-14.86241
-10.10411
-4.703627
0.7278728
5.738663
9.998598
13.32191
15.6281
16.94718
17.3449
17.03097
16.23846
15.23147
14.22039
13.28532
12.43411
11.65686
10.96629
10.37831
9.98362
9.78463
9.751894
9.774124
9.636372
9.134171
8.116959
6.496048
4.321426
1.784451
-0.880085
-3.439835
-5.801716
-7.986515
-10.10904
-12.3054
-14.71932
-17.40983
-20.33083
-23.26585
-25.81725
-27.47944
-27.76886
-26.4382
-23.53596
-19.46964
-14.81968
-10.12852
-5.819874
-2.140522
0.8321915
3.062035
4.509922
5.218559
5.273369
4.840015
4.133755
3.316826
2.542259
1.862976
1.29237
0.7809677
0.302002
-0.1720886
-0.6486626
-1.068226
-1.410278
-1.623653
-1.736519
-1.810268
-1.942707
-2.214722
-2.715893
-3.467754
-4.440876
-5.602859
-6.947212
-8.505383
-10.30887
-12.39639
-14.5795
-16.47797
-17.51559
-17.08567
-14.83093
-10.80084
-5.525917
0.2386322
5.660614
10.1274
13.38918
15.48661
16.66558
17.20489
17.2888
16.98378
16.28742
15.22837
13.84783
12.25286
10.58973
9.008858
7.64447
6.552048
5.733894
5.056583
4.413525
3.677647
2.739029
1.543503
0.1105423
-1.477871
-3.122566
-4.68272
-6.113976
-7.405266
-8.614365
-9.85479
-11.29445
-13.05639
-15.14592
-17.40245
-19.42481
-20.6612
-20.5142
-18.55232
-14.64772
-9.167488
-2.870396
3.358364
8.744896
12.80675
15.43446
16.76159
17.12362
16.7978
16.04819
15.03697
13.88813
12.68857
11.51939
10.42285
9.399841
8.410637
7.367996
6.242744
5.003349
3.662582
2.221653
0.7274017
-0.7833633
-2.273575
-3.743923
-5.208069
-6.662663
-8.080509
-9.364433
-10.42686
-11.19723
-11.71793
-12.15327
-12.7634
-13.75523
-15.13677
-16.66914
-17.83605
-17.97914
-16.56549
-13.41888
-8.80719
-3.399891
1.960617
6.595551
10.11911
12.55812
14.1293
15.08097
15.50137
15.35391
14.60415
13.26536
11.58613
9.798857
8.19735
6.897955
5.899601
5.135582
4.573923
4.266188
4.253395
4.573996
5.059383
5.500496
5.642353
5.28006
4.42012
3.180904
1.775938
0.3725967
-0.9290752
-2.213863
-3.588684
-5.162266
-7.042173
-9.165043
-11.41176
-13.49729
-15.02015
-15.50862
-14.6351
-12.32718
-8.765587
-4.534512
-0.2324142
3.472277
6.21908
7.929705
8.752287
8.980919
8.822445
8.492397
8.090294
7.754669
7.483269
7.317127
7.301056
7.406097
7.639332
7.925575
8.272915
8.554432
8.713097
8.615471
8.141575
7.250088
5.880375
4.09156
1.98415
-0.2321243
-2.365154
-4.156914
-5.440872
-6.279022
-6.835506
-7.469387
-8.472813
-9.979565
-11.85097
-13.73208
-15.08959
-15.41609
-14.45125
-12.18935
-8.942467
-5.212978
-1.594616
1.396931
3.437977
4.516033
4.853489
4.771374
4.672733
4.784649
5.13768
5.596401
5.930328
5.98175
5.681435
5.084946
4.298157
3.418545
2.5182
1.63332
0.8408089
0.2536545
-0.04158783
-0.0235672
0.1613312
0.2522926
-0.003578186
-0.8033943
-2.166618
-3.98386
-6.065651
-8.24736
-10.41607
-12.61472
-14.94234
-17.43708
-20.03698
-22.38879
-23.97246
-24.23434
-22.75085
-19.41578
-14.53527
-8.743748
-2.773785
2.696388
7.189659
10.44386
12.39971
13.13697
12.87642
11.96578
10.73562
9.576706
8.817581
8.623055
8.97353
9.663952
10.43639
11.01059
11.26013
11.13809
10.7079
10.05761
9.200594
8.073856
6.541664
4.55805
2.11669
-0.6330013
-3.493359
-6.215036
-8.660744
-10.73075
-12.48401
-14.11728
-15.83698
-17.86561
-20.18137
-22.57745
-24.51658
-25.37025
-24.53877
-21.72034
-17.04663
-11.06181
-4.568846
1.690718
7.142311
11.45168
14.55114
16.47104
17.29478
17.13902
16.1717
14.59843
12.66683
10.56448
8.397773
6.208136
4.055857
2.062408
0.3932581
-0.708663
-1.176943
-1.039355
-0.4660931
0.269105
0.8746829
1.103805
0.8959622
0.3041229
-0.4337211
-1.132586
-1.6517
-2.011628
-2.436695
-3.161196
-4.441656
-6.352441
-8.800365
-11.48444
-13.97292
-15.76727
-16.37718
-15.43278
-12.73139
-8.401513
-2.943822
2.898631
8.318704
12.63884
15.556
17.08766
17.57255
17.45519
17.07771
16.53139
15.69271
14.3432
12.33611
9.763373
6.9549
4.353061
2.370584
1.281941
1.099209
1.620489
2.47699
3.253474
3.589809
3.278224
2.258074
0.5730877
-1.538467
-3.88061
-6.27343
-8.688734
-11.15781
-13.71106
-16.41647
-19.20696
-21.92034
-24.27933
-25.87644
-26.27666
-25.15177
-22.29527
-17.78587
-12.01237
-5.60074
0.7381001
6.318579
10.60548
13.39088
14.71762
14.85529
14.18408
13.15441
12.13716
11.34239
10.8466
10.48852
10.09643
9.58749
8.93692
8.260818
7.784637
7.658081
7.933441
8.44149
8.947441
9.131279
8.755306
7.721737
6.071976
3.999519
1.723042
-0.5581551
-2.7477
-4.821445
-6.843761
-8.868977
-10.93571
-13.07766
-15.23638
-17.26352
-18.83744
-19.50601
-18.8644
-16.7201
-13.10942
-8.406281
-3.174309
1.986973
6.592003
10.36425
13.25639
15.27221
16.51202
17.11065
17.26838
17.12106
16.85823
16.62043
16.4697
16.40311
16.2918
15.94669
15.19932
13.96833
12.29562
10.40502
8.628254
7.209045
6.284126
5.73127
5.296089
4.586082
3.281368
1.302544
-1.171654
-3.824806
-6.307549
-8.415386
-10.15371
-11.74381
-13.54709
-15.87735
-18.76757
-21.9526
-24.88708
-26.95388
-27.59021
-26.45216
-23.51643
-19.0192
-13.43767
-7.391224
-1.534813
3.524803
7.357986
9.811321
11.03958
11.37357
11.25388
11.0462
10.88679
10.75834
10.55861
10.20592
9.708672
9.161629
8.747482
8.688919
9.145706
10.052
11.2201
12.3231
13.05494
13.1916
12.6221
11.35178
9.514694
7.285591
4.815712
2.328217
-0.04515076
-2.169426
-4.047928
-5.822655
-7.768738
-10.12001
-12.8927
-15.85747
-18.49815
-20.20482
-20.43149
-18.90317
-15.68696
-11.23982
-6.197029
-1.249855
3.046425
6.406715
8.769943
10.26205
11.10782
11.49654
11.52696
11.22483
10.56521
9.573364
8.424583
7.382538
6.709808
6.530785
6.78772
7.250496
7.65081
7.850624
7.838074
7.722519
7.593216
7.351753
6.724854
5.488083
3.505478
0.8800964
-2.082222
-5.089325
-7.931213
-10.6249
-13.34737
-16.31281
-19.54995
-22.96793
-26.2455
-28.89371
-30.37819
-30.23523
-28.22868
-24.44897
-19.28001
-13.34988
-7.338417
-1.808914
2.970787
6.949081
10.23824
12.96918
15.1661
16.80772
17.86604
18.37939
18.52339
18.51183
18.4757
18.41606
18.19514
17.68455
16.82616
15.70387
14.52889
13.57098
12.9747
12.66548
12.38494
11.80153
10.6492
8.817688
6.407249
3.653099
0.8460922
-1.840118
-4.361023
-6.837601
-9.422951
-12.27332
-15.43867
-18.78136
-22.03052
-24.71148
-26.25449
-26.11555
-23.98319
-19.88738
-14.23838
-7.810402
-1.446442
4.100952
8.352394
11.23014
12.88609
13.62464
13.69352
13.38319
12.84021
12.29624
11.92773
11.82726
12.0443
12.46615
12.89933
13.11462
13.01945
12.59865
12.03568
11.50278
11.1313
10.91905
10.67105
10.16218
9.09449
7.378593
5.023445
2.280014
-0.5361862
-3.184891
-5.521645
-7.661095
-9.792671
-12.14871
-14.79965
-17.71178
-20.58095
-23.01614
-24.63784
-24.99881
-23.88823
-21.19683
-17.12139
-12.06831
-6.666843
-1.569309
2.727509
5.930721
8.108379
9.430824
10.16442
10.50481
10.60361
10.55376
10.38255
10.19666
10.00449
9.888489
9.798172
9.694557
9.534691
9.248116
8.824425
8.141098
7.130169
5.659412
3.819016
1.672913
-0.5872879
-2.733467
-4.662868
-6.28064
-7.664135
-8.957153
-10.39692
-12.12393
-14.27565
-16.81236
-19.48552
-21.90166
-23.55944
-23.9976
-22.90366
-20.25091
-16.28703
-11.47335
-6.349819
-1.449604
2.833214
6.301426
8.893948
10.68056
11.76136
12.21159
12.1467
11.69757
11.06593
10.39074
9.842735
9.435848
9.112354
8.746166
8.209438
7.424042
6.379257
5.109413
3.644066
2.051811
0.430809
-1.144547
-2.564857
-3.761688
-4.725628
-5.563408
-6.468887
-7.663315
-9.356026
-11.65828
-14.51187
-17.57047
-20.28279
-21.89812
-21.79496
-19.61446
-15.43882
-9.778011
-3.43206
2.767677
8.134045
12.22637
14.89411
16.20087
16.39795
15.79149
14.73027
13.47398
12.26263
11.184
10.22805
9.32914
8.444485
7.552673
6.700653
5.894787
5.079063
4.176292
3.027958
1.594082
-0.1077881
-1.900917
-3.606274
-5.072876
-6.31628
-7.394558
-8.450253
-9.551476
-10.71881
-11.99489
-13.45141
-15.21088
-17.26107
-19.37332
-21.05071
-21.68824
-20.77776
-18.12483
-13.92917
-8.782818
-3.38871
1.672562
5.966465
9.324898
11.75094
13.28135
14.03711
14.17204
13.85414
13.25918
12.55278
11.81005
11.07415
10.38639
9.772049
9.288551
8.954414
8.728104
8.466698
8.042259
7.365219
6.454422
5.370705
4.115349
2.686775
1.013489
-0.9432373
-3.152336
-5.498878
-7.841835
-10.10913
-12.36723
-14.84179
-17.66537
-20.7841
-23.83486
-26.12936
-26.93366
-25.6641
-22.18199
-16.77811
-10.23199
-3.456673
2.598366
7.286156
10.34961
11.85962
12.17762
11.68238
10.74143
9.580826
8.375961
7.216423
6.269287
5.756386
5.803009
6.467735
7.57206
8.875313
10.08154
11.03123
11.60149
11.71515
11.32114
10.31722
8.708015
6.594391
4.180756
1.733429
-0.4829865
-2.365646
-4.05571
-5.789276
-7.868187
-10.38983
-13.17204
-15.74774
-17.48197
-17.79316
-16.36028
-13.31558
-9.138168
-4.525162
-0.1962891
3.325363
5.827545
7.324326
7.909904
7.792854
7.157249
6.28038
5.488731
5.077515
5.244507
5.967613
7.054207
8.163712
9.030838
9.527184
9.703758
9.692314
9.606018
9.517365
9.371422
9.091728
8.576241
7.786102
6.770943
5.677948
4.682297
3.880676
3.236053
2.525635
1.333229
-0.6829376
-3.631104
-7.2631
-10.97585
-13.90485
-15.21619
-14.30064
-10.97813
-5.667046
0.8732529
7.67012
13.83109
18.6994
22.02867
23.84345
24.43499
24.17237
23.33768
22.19542
20.94919
19.78865
18.85385
18.28024
18.051
18.04329
18.085
17.95632
17.56729
16.88162
15.91218
14.61279
12.89586
10.55273
7.373619
3.335205
-1.400963
-6.457016
-11.35089
-15.65712
-19.13515
-21.75275
-23.72943
-25.4363
-27.2515
-29.44477
-32.01641
-34.63835
-36.69319
-37.47493
-36.50718
-33.73301
-29.63107
-24.92025
-20.40669
-16.61919
-13.68707
-11.52054
-9.854626
-8.504719
-7.358364
-6.413349
-5.64661
-5.034664
-4.514492
-3.932117
-3.255741
-2.434731
-1.493015
-0.5013275
0.4667168
1.393326
2.274555
3.12759
3.940002
4.588196
4.875183
4.635666
3.7677
2.342052
0.6375732
-1.051132
-2.510506
-3.653973
-4.593456
-5.571259
-6.83358
-8.590057
-10.90756
-13.64948
-16.47996
-18.90961
-20.36201
-20.29635
-18.43005
-14.79332
-9.857635
-4.291916
1.057259
5.572586
8.874619
10.8737
11.73767
11.69566
11.03244
9.974716
8.741493
7.491409
6.407448
5.61821
5.1791
5.05938
5.123932
5.207802
5.112755
4.75174
4.125343
3.364403
2.565132
1.799416
1.007401
0.09260559
-1.092789
-2.62793
-4.492676
-6.595886
-8.728226
-10.81124
-12.81847
-14.82166
-16.91649
-19.12695
-21.29245
-23.02588
-23.72862
-22.79875
-19.90329
-15.15823
-9.150597
-2.844055
2.808853
7.149925
9.987221
11.55351
12.34488
12.76082
12.98543
13.06049
12.91121
12.59335
12.28101
12.23584
12.55492
13.23724
14.04553
14.71333
15.20767
15.60135
16.14984
17.00905
18.07909
18.99724
19.28275
18.59152
16.8642
14.40689
11.61133
8.859467
6.341721
4.031357
1.798676
-0.5277557
-3.080307
-5.927216
-9.043976
-12.33067
-15.45076
-17.80864
-18.79201
-17.86877
-14.87041
-10.08794
-4.222916
1.860596
7.323593
11.62216
14.63646
16.412
17.18683
17.16316
16.51271
15.36375
13.85049
12.18011
10.53111
9.162323
8.142014
7.46875
7.022949
6.661987
6.271591
5.828873
5.385223
4.996292
4.659027
4.260056
3.657791
2.723709
1.418945
-0.1208496
-1.640854
-2.862015
-3.689819
-4.214813
-4.756821
-5.706314
-7.35434
-9.828842
-12.99876
-16.52753
-19.83095
-22.33015
-23.42979
-22.69104
-19.97423
-15.37901
-9.413895
-2.74646
3.888824
9.90538
14.94075
18.84033
21.64082
23.43584
24.4017
24.67986
24.439
23.80714
22.87839
21.65048
20.11661
18.28033
16.09796
13.6866
11.1937
8.802856
6.684967
4.948227
3.579086
2.481689
1.520782
0.4646454
-0.7563324
-2.141174
-3.518265
-4.692429
-5.572021
-6.166794
-6.678177
-7.367722
-8.422745
-9.929428
-11.83723
-13.98418
-16.121
-17.95059
-19.04828
-19.0119
-17.5135
-14.51373
-10.25752
-5.339203
-0.443512
3.852951
7.202896
9.596802
11.18497
12.20981
12.84084
13.17706
13.24576
13.05521
12.63066
12.00175
11.26195
10.43295
9.573425
8.746933
7.98558
7.374771
6.947342
6.670441
6.448135
6.13121
5.554672
4.680344
3.597168
2.464935
1.49263
0.8321381
0.5260468
0.4650574
0.4832458
0.292366
-0.4449997
-1.9739
-4.400291
-7.526588
-10.83572
-13.59187
-15.11156
-15.00097
-13.31854
-10.52484
-7.254677
-4.094093
-1.375046
0.8286057
2.617805
4.096634
5.272369
6.087029
6.469193
6.411339
6.013107
5.45665
4.923393
4.543198
4.318077
4.211372
4.137741
4.11068
4.208298
4.556328
5.215324
6.103302
6.959213
7.402206
7.189743
6.261726
4.771675
3.018738
1.288193
-0.28862
-1.677956
-2.969101
-4.272003
-5.653305
-7.160912
-8.872849
-10.76254
-12.6945
-14.39791
-15.38759
-15.21867
-13.62865
-10.69585
-6.844086
-2.685944
1.224998
4.55632
7.210129
9.281227
10.87029
12.0355
12.76783
13.05064
12.95085
12.57369
12.02259
11.31767
10.42291
9.246639
7.791283
6.160858
4.534763
3.121281
1.990166
1.055668
0.0809288
-1.124935
-2.68058
-4.519577
-6.404385
-8.136978
-9.577778
-10.73603
-11.75832
-12.82298
-14.06683
-15.57346
-17.31258
-19.0918
-20.67197
-21.67878
-21.74058
-20.52791
-17.89643
-14.02046
-9.382008
-4.727215
-0.7720013
1.869593
3.01576
2.82202
1.739052
0.296051
-1.090139
-2.223387
-3.096518
-3.767906
-4.228859
-4.349964
-3.953711
-2.961044
-1.491337
0.1779375
1.766356
3.052783
3.993211
4.665899
5.174661
5.562836
5.720708
5.576572
5.099223
4.413887
3.635705
2.856689
2.031505
0.9880829
-0.4056911
-2.277519
-4.543755
-6.903382
-8.942839
-10.17523
-10.18961
-8.781545
-6.077344
-2.443473
1.565073
5.343
8.446404
10.59686
11.76486
12.06299
11.7284
10.94372
9.931736
8.85184
7.794662
6.787226
5.830941
4.97758
4.338773
4.012238
3.961717
4.011501
3.867135
3.306945
2.319637
1.03119
-0.2498183
-1.274089
-2.005562
-2.550926
-3.110954
-3.909186
-5.053155
-6.495889
-8.287116
-10.36289
-12.65703
-15.01605
-17.1129
-18.48663
-18.7226
-17.5573
-14.96319
-11.25695
-6.950806
-2.64003
1.176495
4.209177
6.420059
7.86059
8.633652
8.829777
8.492907
7.743427
6.728249
5.650274
4.691383
3.992805
3.580359
3.412415
3.409525
3.415268
3.399551
3.283056
3.006096
2.537273
1.844078
0.9120235
-0.2013378
-1.397228
-2.610649
-3.727009
-4.800999
-5.939026
-7.322739
-9.072592
-11.20912
-13.59672
-15.99243
-18.08636
-19.51067
-19.94043
-19.07915
-16.77775
-13.12098
-8.477516
-3.492985
1.122616
4.777679
7.202305
8.44437
8.849804
8.816154
8.591232
8.238758
7.683914
6.88755
5.940678
5.052574
4.472031
4.348145
4.654942
5.140182
5.575264
5.784081
5.800591
5.704983
5.511665
5.109875
4.260025
2.68401
0.3219681
-2.589508
-5.600327
-8.131832
-9.755611
-10.37814
-10.23954
-9.823784
-9.772564
-10.45987
-11.93243
-13.86074
-15.56023
-16.28461
-15.44619
-12.91212
-8.933067
-4.170296
0.6461258
4.904087
8.242714
10.61293
12.17744
13.1365
13.63459
13.78682
13.61691
13.14328
12.36243
11.27896
10.05663
8.841137
7.818371
7.083614
6.666782
6.481731
6.415989
6.347809
6.093273
5.58717
4.688766
3.279453
1.35997
-0.9939423
-3.600384
-6.224602
-8.63538
-10.85084
-12.97951
-15.22031
-17.78845
-20.65718
-23.61539
-26.25434
-27.97528
-28.29062
-27.0187
-24.26785
-20.46792
-16.15009
-11.82573
-7.898132
-4.536263
-1.745178
0.6275864
2.698719
4.582947
6.265581
7.676245
8.700676
9.216497
9.242237
8.946083
8.613672
8.540371
8.943256
9.723265
10.61157
11.22068
11.24401
10.51718
9.130745
7.27466
5.197151
3.124851
1.077848
-0.9740486
-3.072382
-5.247473
-7.516157
-9.858908
-12.21566
-14.51942
-16.56858
-18.03672
-18.52397
-17.60315
-15.07766
-11.07083
-6.083965
-0.829464
3.945671
7.68644
10.20989
11.64237
12.35016
12.6675
12.86566
13.09619
13.40877
13.78243
14.17265
14.49778
14.64338
14.55575
14.19137
13.54078
12.67625
11.59683
10.36786
9.047255
7.713414
6.33604
4.948667
3.525533
2.02141
0.4960186
-1.017703
-2.373272
-3.414309
-4.092626
-4.563401
-5.118048
-6.108974
-7.811981
-10.23675
-13.11941
-15.89184
-17.82402
-18.33044
-17.0872
-14.20359
-10.18187
-5.690265
-1.335314
2.432115
5.446387
7.665845
9.116494
9.83669
9.838966
9.197488
8.017551
6.530361
4.964507
3.518754
2.312765
1.362296
0.7016954
0.3656248
0.4719837
1.100259
2.337503
4.124123
6.226741
8.27593
9.822912
10.52351
10.18301
8.763083
6.430521
3.376539
-0.1464
-3.856655
-7.498116
-10.84413
-13.74392
-16.12062
-17.96384
-19.17418
-19.62975
-19.11204
-17.46556
-14.63592
-10.72958
-6.096589
-1.237424
3.320858
7.165192
10.06413
12.04379
13.28512
14.04855
14.55317
14.88787
14.99167
14.76139
14.1106
13.05559
11.7282
10.28637
8.826171
7.46819
6.211454
5.128825
4.291823
3.690562
3.281526
2.896421
2.327672
1.328809
-0.160821
-2.115961
-4.298141
-6.354441
-7.998896
-9.057206
-9.567956
-9.826538
-10.32691
-11.55375
-13.82877
-17.1589
-21.10044
-24.90936
-27.73678
-28.91411
-28.16347
-25.66124
-21.97235
-17.75704
-13.61306
-9.913223
-6.786877
-4.123192
-1.789719
0.3623123
2.437275
4.420794
6.338297
8.183804
9.979185
11.69885
13.33139
14.79226
15.98522
16.85134
17.4016
17.75552
18.06152
18.42813
18.79187
18.93119
18.5654
17.43176
15.47338
12.85813
9.937693
7.052725
4.492041
2.416838
0.8167744
-0.3965607
-1.435425
-2.591837
-4.138329
-6.191973
-8.601383
-10.9
-12.3655
-12.39235
-10.68156
-7.415436
-3.184183
1.228321
5.177153
8.282089
10.39529
11.58495
11.98615
11.74445
11.01983
10.01245
8.951754
8.041248
7.410114
7.052973
6.894842
6.838467
6.799414
6.783466
6.803577
6.919636
7.125292
7.368372
7.492998
7.323124
6.707233
5.542797
3.927023
1.976553
-0.0697155
-1.991184
-3.680586
-5.110418
-6.401751
-7.795267
-9.579914
-11.92273
-14.90631
-18.28846
-21.64463
-24.32822
-25.69199
-25.23744
-22.77178
-18.54732
-13.091
-7.195408
-1.592167
3.145948
6.788755
9.349806
10.92662
11.63998
11.51778
10.70089
9.388016
7.887257
6.510569
5.443008
4.708126
4.199346
3.879247
3.790171
4.03588
4.616115
5.454304
6.321117
6.991282
7.350136
7.380198
7.151347
6.658911
5.904121
4.784504
3.344143
1.689722
-0.02614975
-1.698258
-3.368513
-5.168222
-7.335421
-9.935146
-12.80276
-15.48721
-17.41632
-18.07308
-17.1279
-14.61028
-10.83399
-6.39806
-1.945231
2.030436
5.180536
7.376593
8.566808
8.797445
8.13124
6.739732
4.862504
2.845083
1.052423
-0.2604465
-0.9356689
-1.034136
-0.6885347
-0.09131336
0.5894499
1.271724
1.892175
2.335057
2.420268
2.00906
0.9572325
-0.7311106
-2.947777
-5.515016
-8.186892
-10.70855
-12.83904
-14.39716
-15.2512
-15.42292
-15.1498
-14.79551
-14.72853
-15.0842
-15.69361
-16.00383
-15.34075
-13.20015
-9.452571
-4.471319
1.055874
6.33502
10.80529
14.17312
16.42582
17.74937
18.33202
18.36295
17.99575
17.4038
16.6954
16.00121
15.36539
14.75136
14.14633
13.54535
12.98847
12.50863
12.12486
11.79619
11.42548
10.93711
10.26479
9.323725
8.025742
6.313152
4.129574
1.524683
-1.306242
-4.150742
-6.807636
-9.189322
-11.38198
-13.60081
-16.02415
-18.73224
-21.59123
-24.21024
-26.13915
-26.85989
-26.06656
-23.7094
-20.07067
-15.67908
-11.12634
-6.947084
-3.466358
-0.8702736
0.8738365
1.846809
2.138399
1.87903
1.245356
0.4011879
-0.4921646
-1.34705
-2.214508
-3.16161
-4.277308
-5.565922
-6.904493
-8.040892
-8.8006
-9.07419
-8.907522
-8.488844
-8.106024
-8.006546
-8.31702
-8.921398
-9.614864
-10.13202
-10.29411
-10.06297
-9.568325
-9.038818
-8.72517
-8.825729
-9.384193
-10.38836
-11.65531
-12.82434
-13.40708
-12.91659
-10.95606
-7.435287
-2.657536
2.704765
7.750889
11.69114
14.06475
14.91071
14.59331
13.69454
12.72998
11.94175
11.33672
10.76678
10.14188
9.456314
8.823288
8.331543
8.060005
8.005814
8.101517
8.357384
8.733437
9.251808
9.859108
10.4341
10.80957
10.85065
10.49617
9.762863
8.80275
7.734726
6.686218
5.669884
4.562157
3.158302
1.225334
-1.370811
-4.576767
-8.065376
-11.26017
-13.46565
-14.08984
-12.85017
-9.853577
-5.551903
-0.5996094
4.312027
8.618134
11.93793
14.07119
15.02396
14.93521
14.10173
12.81757
11.33199
9.778854
8.188812
6.587311
5.002441
3.542137
2.278587
1.244713
0.3762741
-0.4629364
-1.350685
-2.269669
-3.097343
-3.692696
-3.912849
-3.706734
-3.148506
-2.358597
-1.526161
-0.8212051
-0.3962021
-0.3665771
-0.7893066
-1.664139
-2.975761
-4.694794
-6.689934
-8.742424
-10.43248
-11.29387
-10.87433
-8.965912
-5.67186
-1.435181
3.09787
7.32254
10.76373
13.23792
14.72754
15.4446
15.65677
15.5853
15.42305
15.29733
15.33876
15.56943
16.01834
16.63521
17.2952
17.81187
17.97633
17.5919
16.60364
15.12982
13.30522
11.32567
9.243637
6.961609
4.380341
1.464127
-1.648026
-4.656479
-7.225937
-9.180908
-10.49689
-11.44267
-12.3904
-13.71947
-15.64206
-18.07637
-20.71045
-22.99886
-24.36365
-24.32867
-22.70665
-19.66241
-15.68913
-11.44812
-7.546127
-4.443985
-2.282761
-0.9514618
-0.1611938
0.4510956
1.151642
2.064941
3.192886
4.503845
5.928146
7.405823
8.892426
10.29222
11.45045
12.19421
12.32172
11.77284
10.728
9.48053
8.405365
7.767838
7.617569
7.760788
7.917267
7.854813
7.451508
6.758057
5.81041
4.671127
3.290863
1.60849
-0.4145508
-2.74765
-5.270187
-7.855377
-10.33809
-12.52577
-14.08656
-14.67151
-14.02759
-12.03653
-8.853271
-4.894272
-0.7628632
2.954422
5.787292
7.635071
8.59549
8.940506
8.978287
8.88755
8.722771
8.355637
7.71109
6.745522
5.580864
4.410133
3.386497
2.681557
2.260979
2.079742
2.007507
1.961792
1.823715
1.531998
1.060822
0.4089355
-0.3106384
-1.016747
-1.626221
-2.115318
-2.53756
-3.074303
-3.892662
-5.129616
-6.865707
-9.104309
-11.81416
-14.80688
-17.74889
-20.20432
-21.69826
-21.8138
-20.36005
-17.46986
-13.51942
-9.121048
-4.881012
-1.302048
1.263557
2.734489
3.220833
2.977173
2.337883
1.627304
1.086006
0.8620911
0.9968643
1.469933
2.232422
3.248413
4.484932
5.937485
7.615158
9.489098
11.44308
13.22343
14.57431
15.22414
15.00439
13.90216
12.07472
9.78627
7.295227
4.809525
2.367538
-0.03392029
-2.462784
-5.03093
-7.774826
-10.63536
-13.44615
-15.85475
-17.39946
-17.65352
-16.32663
-13.51221
-9.599396
-5.233368
-1.097107
2.31398
4.846741
6.60144
7.837036
8.806732
9.562927
10.1356
10.60588
11.07368
11.7386
12.71114
13.9411
15.17397
16.08408
16.34743
15.85616
14.75414
13.25346
11.57922
9.819351
7.990189
6.019791
3.866913
1.586472
-0.6931305
-2.835205
-4.722992
-6.24884
-7.401794
-8.216553
-8.832947
-9.491951
-10.46706
-11.89775
-13.75458
-15.72787
-17.2743
-17.79974
-16.87711
-14.38914
-10.61
-6.073235
-1.387085
2.879814
6.356186
8.883308
10.50713
11.40997
11.80867
11.8317
11.5359
10.90573
9.936394
8.761162
7.62014
6.817139
6.573166
6.91713
7.666794
8.510033
9.185883
9.602287
9.834053
9.998352
10.09357
9.930305
9.250603
7.934769
6.052429
3.905922
1.867661
0.218811
-0.998642
-1.962021
-2.93483
-4.142052
-5.693748
-7.578018
-9.765221
-12.11928
-14.43973
-16.41177
-17.54538
-17.35791
-15.49413
-11.95304
-7.154213
-1.889809
2.980827
6.723389
8.960991
9.8013
9.569725
8.701477
7.511604
6.114532
4.530022
2.859261
1.281357
0.03853607
-0.6386566
-0.7003479
-0.2412186
0.5330887
1.39856
2.199043
2.93486
3.685806
4.48465
5.331856
6.056885
6.45591
6.305946
5.449615
3.889885
1.893974
-0.1792603
-1.968437
-3.217033
-4.013832
-4.605667
-5.393982
-6.67321
-8.586708
-10.96752
-13.49168
-15.68316
-17.01065
-17.08017
-15.70777
-12.97983
-9.221786
-4.926903
-0.5799103
3.390884
6.728081
9.372437
11.28235
12.42294
12.76397
12.3271
11.21716
9.645752
7.85968
6.101818
4.621716
3.507515
2.786648
2.457619
2.436081
2.63517
2.984737
3.452976
3.946541
4.404198
4.675377
4.612171
4.115891
3.108913
1.58041
-0.4010811
-2.670864
-5.074539
-7.445763
-9.633434
-11.56583
-13.22607
-14.73209
-16.19371
-17.59779
-18.68576
-19.02335
-18.15418
-15.70979
-11.71645
-6.553459
-0.9563904
4.253468
8.49361
11.49395
13.36831
14.39892
14.91986
15.10868
15.02225
14.63481
13.95288
13.13521
12.37163
11.84884
11.56969
11.39091
11.02957
10.31135
9.181871
7.784819
6.413759
5.284048
4.50408
3.982529
3.497213
2.801491
1.750071
0.3680983
-1.248158
-2.908498
-4.478416
-5.920108
-7.266171
-8.605307
-10.04624
-11.69505
-13.58474
-15.69234
-17.86343
-19.78883
-21.031
-21.09818
-19.70964
-16.88094
-13.00649
-8.707946
-4.67971
-1.446181
0.7641642
2.041346
2.658568
2.945633
3.112442
3.280609
3.38952
3.331648
3.051112
2.608838
2.173004
2.008919
2.27997
2.952316
3.955905
5.093449
6.2189
7.265891
8.186218
8.876005
9.237233
9.141359
8.564806
7.67779
6.70686
5.843126
5.138819
4.439878
3.516132
2.1766
0.3707638
-1.885666
-4.534985
-7.579281
-11.00776
-14.63859
-18.04998
-20.59301
-21.59386
-20.62365
-17.76151
-13.51873
-8.73279
-4.202755
-0.4321499
2.388041
4.337837
5.596802
6.29604
6.462982
6.111542
5.31451
4.322975
3.44775
2.999374
3.131187
3.820301
4.840099
5.869854
6.640537
7.007286
6.978737
6.643829
6.084679
5.278278
4.113174
2.47541
0.3426323
-2.074081
-4.373741
-6.144852
-7.096725
-7.216049
-6.767677
-6.101486
-5.605534
-5.521992
-5.886173
-6.577347
-7.335732
-7.851894
-7.717342
-6.56456
-4.121731
-0.3790321
4.295593
9.174793
13.32781
15.95131
16.5342
15.05707
11.9106
7.740665
3.234421
-1.069458
-4.809471
-7.800423
-9.898781
-11.07746
-11.30228
-10.66663
-9.335587
-7.543011
-5.579365
-3.71088
-2.152058
-0.9982872
-0.2811317
0.07979584
0.1509514
-0.06485748
-0.5920334
-1.52224
-2.88224
-4.594261
-6.479362
-8.344063
-10.03237
-11.51277
-12.93687
-14.41581
-15.97543
-17.44749
-18.55177
-18.97129
-18.42295
-16.75253
-13.95562
-10.21169
-5.83847
-1.232277
3.198158
7.036499
9.96907
11.85598
12.74076
12.81692
12.36086
11.64326
10.92088
10.30817
9.886818
9.705521
9.765175
10.07482
10.61925
11.31473
12.02055
12.60333
12.90159
12.83855
12.43841
11.64881
10.39523
8.557724
6.084656
3.121338
-0.03078461
-2.982933
-5.396149
-7.135284
-8.4338
-9.668007
-11.22289
-13.33158
-15.92271
-18.7224
-21.26999
-23.05531
-23.58246
-22.5799
-19.9912
-16.09927
-11.46642
-6.732773
-2.449234
1.110832
3.941498
6.219391
8.016815
9.369774
10.17918
10.34633
9.953117
9.212059
8.411835
7.780151
7.402763
7.253845
7.26442
7.392647
7.616089
7.988434
8.479965
8.974335
9.286972
9.187691
8.525856
7.182404
5.202232
2.702492
-0.08167267
-2.876045
-5.38446
-7.400124
-8.865501
-9.830116
-10.5322
-11.25721
-12.32455
-13.84328
-15.79939
-17.9084
-19.67865
-20.55527
-20.07622
-18.03142
-14.63276
-10.4123
-6.02047
-2.075287
1.061424
3.35759
4.932793
5.965096
6.52961
6.640266
6.305786
5.6026
4.728912
3.918747
3.40712
3.253212
3.477409
3.943287
4.571877
5.306507
6.106964
6.881081
7.522892
7.824497
7.513767
6.444874
4.592884
2.150921
-0.6018639
-3.302837
-5.717384
-7.731956
-9.427525
-10.99011
-12.56263
-14.25774
-16.03687
-17.80861
-19.4001
-20.54596
-20.93498
-20.31315
-18.51685
-15.52357
-11.55219
-7.01252
-2.408592
1.765057
5.187088
7.710285
9.445477
10.54366
11.28984
11.81166
12.19392
12.46348
12.62445
12.74445
12.85415
13.02419
13.14317
13.13288
12.85247
12.24706
11.4109
10.48074
9.634331
8.873192
8.105701
7.066105
5.584248
3.574675
1.171316
-1.335108
-3.619139
-5.410158
-6.684124
-7.547798
-8.332174
-9.339098
-10.81301
-12.80792
-15.12001
-17.3265
-18.85999
-19.1885
-17.97071
-15.19329
-11.17738
-6.513597
-1.887558
2.224943
5.525032
7.972223
9.66828
10.66713
11.01212
10.71805
9.906061
8.773729
7.685105
6.887078
6.541202
6.662413
7.123883
7.739458
8.312495
8.758237
9.000146
9.060376
8.942385
8.656796
8.212346
7.567921
6.636466
5.328228
3.653455
1.750577
-0.1621265
-1.901929
-3.389467
-4.732565
-6.138927
-7.81805
-9.892108
-12.35832
-15.03827
-17.66883
-19.87859
-21.23945
-21.38322
-20.07201
-17.27792
-13.23355
-8.436448
-3.463613
1.094344
4.785555
7.408686
8.935179
9.523556
9.433903
8.951382
8.31176
7.674328
7.014938
6.237497
5.299443
4.20806
3.137938
2.347093
2.031188
2.238273
2.802002
3.424346
3.847614
3.971413
3.831202
3.512865
3.059433
2.314028
1.085562
-0.7546501
-3.169643
-5.920832
-8.617464
-10.97941
-12.84199
-14.3264
-15.7322
-17.37209
-19.37751
-21.54118
-23.39246
-24.28133
-23.70304
-21.4178
-17.69179
-13.06786
-8.246334
-3.811581
-0.06978989
2.92421
5.262177
7.025505
8.24902
8.891026
8.949265
8.523972
7.765251
6.847084
5.902294
5.04884
4.36005
3.933773
3.843807
4.110771
4.667126
5.336071
5.96196
6.355057
6.451569
6.251892
5.782173
5.129951
4.343338
3.474266
2.531036
1.558502
0.4447098
-0.9039993
-2.664139
-4.977043
-7.805763
-10.93703
-13.92877
-16.1835
-17.13347
-16.44662
-14.05706
-10.27531
-5.667786
-0.83461
3.722
7.664948
10.82627
13.12299
14.48116
14.93378
14.58338
13.64199
12.47543
11.41093
10.68391
10.34619
10.26464
10.22572
10.11452
9.922462
9.677277
9.499397
9.32534
9.058456
8.560608
7.708786
6.463783
4.919785
3.205429
1.390198
-0.423111
-2.290192
-4.241455
-6.250793
-8.285004
-10.34027
-12.4245
-14.57948
-16.83627
-19.00522
-20.72081
-21.42839
-20.54764
-17.75356
-13.16145
-7.309708
-1.026596
4.817719
9.679794
13.29041
15.76764
17.3644
18.29942
18.66232
18.49352
17.79948
16.64175
15.22325
13.74196
12.38132
11.23897
10.33408
9.64798
9.222656
9.1064
9.364288
9.956039
10.74103
11.39563
11.61168
11.15306
9.947021
8.128494
5.886292
3.399124
0.77565
-1.995132
-5.041962
-8.476501
-12.36099
-16.6067
-20.95389
-25.01962
-28.31934
-30.33031
-30.59119
-28.86829
-25.18677
-19.89726
-13.63283
-7.185547
-1.293198
3.436035
6.784012
8.864502
10.01523
10.61745
10.96196
11.1228
11.10783
10.91307
10.56271
10.18469
9.896103
9.790436
9.905991
10.1935
10.55722
10.94382
11.33206
11.65958
11.84204
11.74052
11.18546
10.08905
8.441422
6.332474
3.97316
1.592392
-0.6897736
-2.815475
-4.875061
-7.023132
-9.366745
-11.94492
-14.63629
-17.13351
-18.98729
-19.73207
-18.91154
-16.39987
-12.40477
-7.438873
-2.242432
2.525543
6.409851
9.29422
11.29825
12.69373
13.65311
14.18658
14.24147
13.70169
12.55861
10.99838
9.344818
7.976608
7.190231
7.039307
7.351318
7.835403
8.150253
8.12381
7.741211
7.086472
6.210556
5.041031
3.464569
1.431412
-0.872879
-3.10704
-4.745605
-5.429733
-5.10791
-4.153351
-3.234879
-3.038513
-4.088593
-6.463974
-9.880661
-13.67473
-17.05083
-19.23633
-19.58737
-17.802
-13.93268
-8.486893
-2.238464
3.840485
8.974228
12.67151
14.83406
15.68187
15.55464
14.77481
13.56627
12.11903
10.53035
8.988541
7.657806
6.662323
6.087906
5.954651
6.236816
6.841843
7.716278
8.675171
9.586029
10.32568
10.75952
10.77527
10.25844
9.127182
7.315186
4.945877
2.270142
-0.3173828
-2.466446
-4.00618
-5.045776
-6.008789
-7.406845
-9.610657
-12.61282
-15.99927
-18.99196
-20.75594
-20.64474
-18.3335
-14.05089
-8.442322
-2.395905
3.210831
7.722107
10.84077
12.66692
13.49138
13.76944
13.7916
13.79291
13.85829
14.02856
14.2865
14.64014
15.0786
15.51306
15.83952
15.855
15.4337
14.52754
13.17613
11.53479
9.794876
8.045715
6.305054
4.476761
2.388672
0.003723145
-2.537491
-5.038696
-7.215729
-8.843353
-9.894852
-10.48726
-10.91129
-11.56844
-12.79578
-14.70103
-17.18405
-19.80151
-21.90245
-22.80853
-22.03343
-19.46158
-15.39328
-10.39565
-5.099686
-0.1158142
4.177856
7.511276
9.739777
10.8607
10.9677
10.34393
9.375519
8.427261
7.783203
7.620438
7.915161
8.502777
9.225189
9.910812
10.49274
10.92065
11.14244
11.15712
10.94037
10.41623
9.507645
8.176071
6.469482
4.499756
2.434814
0.446106
-1.321869
-2.725861
-3.750656
-4.507935
-5.218292
-6.243454
-7.877029
-10.1293
-12.64986
-14.73412
-15.64088
-14.86914
-12.37128
-8.576004
-4.20517
0.08700562
3.916687
7.150177
9.875504
12.13203
13.88234
15.00023
15.39407
15.04964
14.16374
12.99292
11.72882
10.52011
9.360229
8.186935
6.928513
5.590225
4.228073
2.892456
1.610153
0.3219299
-0.9802399
-2.310425
-3.653992
-4.91803
-6.033554
-6.856033
-7.311646
-7.339127
-7.00322
-6.498672
-6.177948
-6.477997
-7.668442
-9.853912
-12.69393
-15.56608
-17.57245
-18.0449
-16.63074
-13.47701
-9.179962
-4.45755
-0.09733582
3.484039
6.08374
7.871872
9.028381
9.7006
9.987648
9.958717
9.698151
9.312294
8.975212
8.732635
8.569496
8.333786
7.895195
7.283623
6.637314
6.163116
5.97583
6.017426
6.104187
5.944855
5.378349
4.394081
3.146461
1.765465
0.3758469
-1.050774
-2.596703
-4.356995
-6.429504
-8.838432
-11.54014
-14.30265
-16.7927
-18.49718
-18.92998
-17.76997
-15.04166
-11.07037
-6.375397
-1.521477
3.049728
7.052109
10.30615
12.68994
14.08004
14.45433
13.89381
12.69159
11.14272
9.439274
7.672981
5.847668
4.011169
2.285221
0.8921585
0.01504135
-0.2877388
-0.2038574
-0.07662964
-0.3052902
-1.173714
-2.704948
-4.723629
-6.835701
-8.673542
-9.911003
-10.50468
-10.52895
-10.21697
-9.826469
-9.59425
-9.72224
-10.32066
-11.41845
-12.87207
-14.34564
-15.37734
-15.46533
-14.31377
-11.93637
-8.679913
-5.036242
-1.471867
1.699852
4.453259
6.813635
8.850039
10.53522
11.77819
12.40243
12.34487
11.68056
10.56956
9.306589
8.138207
7.242455
6.654495
6.316308
6.028152
5.62359
4.962919
4.003983
2.772626
1.347976
-0.1663055
-1.689432
-3.093633
-4.282002
-5.241945
-6.059776
-6.913424
-8.015216
-9.536788
-11.4674
-13.59756
-15.52156
-16.68561
-16.58605
-14.9496
-11.76909
-7.369675
-2.344089
2.635753
6.946554
10.22303
12.34862
13.46763
13.7516
13.4237
12.6042
11.39275
9.833775
7.980762
5.903915
3.692019
1.449429
-0.6865959
-2.533445
-3.971148
-4.922579
-5.456987
-5.747272
-6.030365
-6.502794
-7.248997
-8.199482
-9.236479
-10.21539
-10.96915
-11.37528
-11.35989
-10.99493
-10.4759
-10.1176
-10.14677
-10.65197
-11.45283
-12.06224
-11.88846
-10.47236
-7.674236
-3.795738
0.5370407
4.636074
8.03767
10.54287
12.32216
13.7001
14.91651
16.09762
17.20035
18.09556
18.64845
18.80954
18.55493
17.82206
16.59536
14.89708
12.93671
11.07621
9.661301
8.799141
8.264599
7.493351
5.767273
2.557369
-2.256821
-8.248348
-14.58791
-20.36556
-24.85581
-27.71423
-28.99145
-29.01036
-28.25549
-27.1985
-26.16666
-25.25912
-24.36937
-23.16423
-21.23423
-18.27808
-14.21783
-9.292526
-3.976761
1.12674
5.556358
8.980186
11.32388
12.66656
13.14997
12.95962
12.28807
11.3689
10.40183
9.555138
8.948509
8.586693
8.409004
8.315346
8.222229
8.093918
7.907791
7.620949
7.145706
6.368057
5.205956
3.599976
1.58812
-0.7351761
-3.17971
-5.572319
-7.780693
-9.719048
-11.3672
-12.7753
-14.0031
-15.14424
-16.21301
-17.06583
-17.43292
-16.98956
-15.44662
-12.66073
-8.794373
-4.221359
0.5124664
4.859459
8.461533
11.1074
12.79393
13.61819
13.76769
13.45391
12.93525
12.37591
11.87434
11.37933
10.79597
10.03877
9.121819
8.121536
7.247803
6.66256
6.357239
6.137672
5.721809
4.872971
3.536621
1.878723
0.1278687
-1.467743
-2.838089
-4.009148
-5.077621
-6.121414
-7.131859
-8.110794
-9.077629
-10.0983
-11.17892
-12.25197
-12.98988
-12.98802
-11.89902
-9.665199
-6.585037
-3.175583
0.01667786
2.624039
4.510307
5.810066
6.758217
7.483177
8.037292
8.353905
8.427414
8.281395
8.064293
7.900352
7.855553
7.921959
7.957283
7.879333
7.578453
7.029488
6.189766
5.069969
3.719849
2.23143
0.7270203
-0.6848526
-1.900093
-2.960556
-3.896217
-4.86274
-5.985435
-7.308487
-8.837212
-10.57111
-12.45369
-14.33331
-16.02941
-17.18223
-17.436
-16.58784
-14.5622
-11.54763
-7.93116
-4.225533
-0.868866
1.743546
3.453964
4.396233
4.811928
5.070084
5.488876
6.221275
7.191345
8.21373
9.022491
9.469162
9.527061
9.250504
8.716499
7.94136
6.896873
5.59333
4.109024
2.546967
1.053001
-0.3057175
-1.566383
-2.814072
-4.085014
-5.33123
-6.271187
-6.652893
-6.375969
-5.567078
-4.624084
-4.109848
-4.447495
-5.78569
-7.96067
-10.46876
-12.70541
-14.0911
-14.18246
-12.814
-10.16129
-6.607094
-2.739487
0.82798
3.667862
5.615173
6.756973
7.36805
7.736107
8.049332
8.396301
8.754997
9.062988
9.251884
9.297943
9.183029
8.93261
8.530678
8.029701
7.420952
6.715759
5.918503
5.083298
4.258865
3.463058
2.67836
1.756149
0.6017303
-0.8513184
-2.520554
-4.246567
-5.820648
-7.191772
-8.528183
-10.10603
-12.31624
-15.23129
-18.63475
-21.96315
-24.46135
-25.47353
-24.58942
-21.90331
-17.81325
-12.98969
-8.064835
-3.534241
0.36203
3.596329
6.223755
8.383148
10.07158
11.30913
12.00082
12.15359
11.81354
11.11981
10.30795
9.564941
9.016159
8.625
8.319
7.972046
7.479935
6.824142
5.89917
4.614929
2.895798
0.7542572
-1.699997
-4.235245
-6.637787
-8.831711
-10.75746
-12.49962
-14.09084
-15.5107
-16.61647
-17.26326
-17.26641
-16.5079
-14.83385
-12.07468
-8.181198
-3.214699
2.487572
8.334938
13.62914
17.71775
20.19151
21.05338
20.61873
19.38522
17.82282
16.24038
14.67228
13.02508
11.21149
9.198036
7.198883
5.428741
4.08297
3.193504
2.69249
2.404907
2.167023
1.932205
1.605896
1.111664
0.3109589
-0.9020844
-2.503189
-4.31546
-6.129517
-7.771591
-9.180237
-10.45871
-11.73238
-13.16447
-14.7998
-16.57484
-18.31813
-19.7233
-20.39146
-19.92126
-18.04713
-14.74046
-10.33165
-5.442657
-0.7821198
2.996185
5.564728
6.89444
7.244644
6.937561
6.295059
5.574677
4.878815
4.300377
3.881836
3.677101
3.709656
3.927261
4.217125
4.457397
4.63839
4.760887
4.907486
5.096283
5.250893
5.186432
4.694473
3.657318
2.090744
0.1912231
-1.786774
-3.668762
-5.363098
-6.83712
-8.140045
-9.313614
-10.45486
-11.72974
-13.25512
-15.02708
-16.79701
-18.08023
-18.30916
-17.00364
-14.04852
-9.755394
-4.796318
0.07086182
4.225006
7.356995
9.446358
10.64104
11.13723
11.08261
10.55669
9.642479
8.475616
7.256706
6.22744
5.571564
5.34201
5.446953
5.684578
5.897163
5.975471
5.909576
5.652306
5.17981
4.46386
3.448669
2.167091
0.7520294
-0.6071091
-1.763596
-2.698662
-3.548515
-4.515373
-5.787193
-7.465881
-9.511795
-11.79533
-14.07381
-16.05449
-17.43561
-17.95157
-17.34673
-15.54303
-12.64036
-8.90007
-4.788208
-0.7970352
2.667412
5.37825
7.307304
8.602875
9.414452
9.821289
9.903282
9.669044
9.18306
8.56942
7.923546
7.275192
6.595871
5.8041
4.910492
4.001534
3.218246
2.595261
2.033867
1.316734
0.2316284
-1.23365
-2.876663
-4.376831
-5.454544
-6.064804
-6.436081
-6.902336
-7.813812
-9.310684
-11.34806
-13.66314
-15.86368
-17.4819
-18.08472
-17.36372
-15.2162
-11.82689
-7.621548
-3.182442
0.9530563
4.346004
6.807262
8.309723
8.946098
8.943226
8.537579
7.970829
7.458553
7.128807
6.995163
7.077721
7.31321
7.674957
8.129162
8.630672
9.119236
9.551853
9.888042
10.07691
10.04814
9.691586
8.874329
7.520008
5.662418
3.488132
1.272533
-0.7601891
-2.505798
-4.096775
-5.710716
-7.531567
-9.588947
-11.73313
-13.63726
-14.89851
-15.12611
-13.99235
-11.46007
-7.692167
-3.199142
1.358376
5.269451
8.082726
9.669277
10.25923
10.28016
10.04308
9.716543
9.206118
8.377731
7.201488
5.818487
4.503824
3.499638
2.956316
2.767272
2.768709
2.800095
2.808053
2.907358
3.1078
3.325908
3.358329
2.96368
1.95481
0.3341475
-1.753618
-4.052534
-6.226831
-8.146722
-9.734539
-11.07433
-12.35129
-13.75303
-15.34496
-17.00941
-18.42849
-19.06651
-18.49755
-16.46201
-13.03204
-8.625191
-3.842218
0.7060733
4.601249
7.564548
9.602807
10.80509
11.34656
11.4596
11.26114
10.89304
10.38492
9.828508
9.279209
8.771767
8.313021
7.857998
7.343334
6.660698
5.774744
4.709583
3.536758
2.341942
1.197191
0.1462536
-0.8068199
-1.627901
-2.360413
-2.993774
-3.524059
-4.002689
-4.500946
-5.147251
-6.106949
-7.574406
-9.536659
-11.75244
-13.62643
-14.45284
-13.67326
-11.10414
-7.062027
-2.194115
2.678127
6.944138
10.23023
12.46685
13.77578
14.28369
14.12026
13.39266
12.2253
10.76256
9.235779
7.853836
6.783638
6.084476
5.712029
5.533192
5.386585
5.165012
4.810478
4.364799
3.909382
3.459755
2.990238
2.464134
1.813736
1.026787
0.1104584
-0.9427872
-2.110962
-3.416161
-4.960777
-6.859108
-9.202621
-11.9205
-14.75529
-17.25873
-18.89741
-19.22704
-18.02168
-15.4312
-11.87342
-7.939163
-4.184227
-1.03495
1.321632
2.809891
3.492424
3.482315
2.934105
2.139137
1.367943
0.9511337
1.103279
1.910316
3.159286
4.587402
5.853706
6.765137
7.366173
7.762802
8.097176
8.454948
8.772316
8.886375
8.633743
7.933052
6.767311
5.323364
3.726006
2.079193
0.4594498
-1.122536
-2.65686
-4.185318
-5.736717
-7.412399
-9.265556
-11.32578
-13.40289
-15.08705
-15.8629
-15.21865
-12.96906
-9.305428
-4.833267
-0.2574005
3.786354
7.009651
9.413559
11.1461
12.36329
13.09616
13.32803
13.038
12.35287
11.48772
10.69466
10.27081
10.3307
10.91699
11.95514
13.32315
14.80911
16.16734
17.11891
17.41508
16.93108
15.73729
14.03128
12.03558
9.913818
7.755676
5.558273
3.329498
1.082428
-1.168625
-3.472824
-5.930954
-8.62854
-11.51199
-14.23985
-16.28496
-17.09227
-16.36198
-14.1386
-10.87584
-7.185776
-3.637772
-0.656189
1.611832
3.192139
4.189087
4.68129
4.741669
4.387985
3.749786
3.009262
2.447662
2.321747
2.80365
3.8806
5.380035
6.993332
8.345901
9.171768
9.301773
8.701721
7.446289
5.631073
3.401245
0.9079285
-1.743439
-4.470047
-7.178329
-9.80098
-12.28513
-14.58867
-16.72256
-18.71667
-20.4935
-21.87244
-22.4929
-21.8988
-19.70883
-15.74988
-10.17839
-3.558807
3.306503
9.58223
14.61534
18.05919
19.93074
20.43912
19.9059
18.72951
17.10831
15.22229
13.26721
11.49298
10.19061
9.623932
9.785172
10.46048
11.23596
11.66551
11.44139
10.51588
9.052048
7.232162
5.213974
2.966934
0.4481049
-2.335693
-5.243744
-8.017014
-10.42728
-12.3788
-13.97145
-15.41626
-16.96686
-18.72308
-20.52632
-21.96468
-22.44714
-21.4549
-18.76469
-14.54826
-9.360458
-4.031281
0.6749878
4.274811
6.612122
7.885117
8.335739
8.229736
7.694672
6.888763
5.960648
5.083023
4.432053
3.991821
3.618698
3.050842
2.152298
1.082672
0.299942
0.4333191
1.961441
4.998154
9.141464
13.61002
17.50728
20.11836
21.13297
20.66292
19.05423
16.68549
13.84644
10.62927
7.009659
2.917862
-1.635193
-6.450317
-11.07405
-14.84029
-17.00674
-16.93784
-14.38843
-9.630844
-3.425064
3.215866
9.341049
14.34537
17.98541
20.31636
21.49075
21.65453
20.95776
19.5695
17.78148
15.84517
14.05768
12.48386
11.09904
9.783539
8.456207
7.171524
6.013901
5.118362
4.485077
4.09227
3.787857
3.432678
2.87529
1.98439
0.7898712
-0.7297516
-2.485657
-4.486069
-6.686356
-9.094543
-11.71574
-14.51143
-17.49091
-20.4792
-23.24901
-25.4006
-26.40289
-25.74498
-23.1338
-18.71002
-13.0598
-7.173584
-1.971626
1.920921
4.353539
5.595154
6.075058
6.160622
5.943649
5.411179
4.461662
3.123451
1.626122
0.2820358
-0.6098938
-0.9948425
-0.9355698
-0.7049255
-0.5075531
-0.4369507
-0.4144058
-0.3033295
-0.003700256
0.480423
0.8771133
0.9389114
0.4348984
-0.6789322
-2.291786
-4.1959
-6.244568
-8.419601
-10.73426
-13.21854
-15.7491
-17.99403
-19.43393
-19.55877
-18.00151
-14.67796
-9.89402
-4.26326
1.42308
6.366219
9.997284
12.11113
12.86842
12.65584
11.9492
11.08334
10.2023
9.293961
8.330719
7.332207
6.436081
5.874054
5.726517
6.002388
6.563873
7.223106
7.82399
8.302521
8.584808
8.571663
8.112045
7.026886
5.195885
2.642151
-0.4081268
-3.626701
-6.682716
-9.405006
-11.77554
-13.92242
-15.94872
-17.8161
-19.30795
-20.07036
-19.72689
-18.04138
-15.03964
-10.94701
-6.191559
-1.323967
3.143761
6.771935
9.348824
10.88166
11.55595
11.66468
11.48199
11.18141
10.79876
10.32543
9.702606
8.957893
8.138664
7.321297
6.55143
5.804428
5.050087
4.239937
3.365135
2.387032
1.250031
-0.1794739
-1.977509
-4.122711
-6.448044
-8.690254
-10.5525
-11.80853
-12.48796
-12.79507
-13.0828
-13.64739
-14.61189
-15.80914
-16.82874
-17.16972
-16.38665
-14.32016
-11.1232
-7.231842
-3.225952
0.4375381
3.475182
5.785004
7.412178
8.430878
8.923721
8.999466
8.772804
8.366982
7.8927
7.437836
7.065323
6.785721
6.613007
6.558655
6.664749
6.878815
7.101471
7.150177
6.846298
6.061165
4.784401
3.142006
1.389824
-0.1672363
-1.328629
-2.05481
-2.495132
-2.923767
-3.583672
-4.549873
-5.816216
-7.259911
-8.753334
-10.18364
-11.33791
-11.93055
-11.62814
-10.18554
-7.54882
-3.96109
0.07007599
3.949753
7.142929
9.401505
10.69497
11.22835
11.26434
11.05025
10.77971
10.50839
10.23926
9.906342
9.527649
9.087013
8.639175
8.214447
7.810242
7.40213
6.975906
6.524567
5.987686
5.336449
4.431389
3.169899
1.486969
-0.6377106
-3.114502
-5.753273
-8.333855
-10.67502
-12.69157
-14.3968
-15.92434
-17.42275
-19.03645
-20.70971
-22.22528
-23.18524
-23.10476
-21.66414
-18.76933
-14.67352
-9.848289
-4.942909
-0.4855652
3.11853
5.7276
7.413055
8.352814
8.75943
8.840233
8.792786
8.70195
8.679863
8.701645
8.734299
8.700142
8.548325
8.233459
7.779938
7.27169
6.776413
6.340652
5.95311
5.59111
5.18499
4.670639
3.929993
2.897415
1.504395
-0.162529
-1.973854
-3.673782
-5.024765
-5.893372
-6.329796
-6.531883
-6.788612
-7.40583
-8.507523
-10.0918
-11.88583
-13.39933
-14.00793
-13.2126
-10.78106
-6.944305
-2.308029
2.29319
6.19426
9.065704
11.04762
12.52274
13.83115
15.03487
15.91528
16.16898
15.64776
14.45281
12.91869
11.42902
10.19796
9.248238
8.478249
7.683357
6.785416
5.841911
4.934296
4.14328
3.506111
2.980225
2.538567
2.138176
1.676239
1.062294
0.235733
-0.8546448
-2.199432
-3.780907
-5.569054
-7.519836
-9.619293
-11.86304
-14.21223
-16.54364
-18.67776
-20.37464
-21.40839
-21.57293
-20.61105
-18.36248
-14.86447
-10.34019
-5.302971
-0.4212341
3.749886
6.84053
8.800812
9.869247
10.3502
10.45567
10.26582
9.670395
8.611198
7.215149
5.773354
4.624084
4.066559
4.153854
4.713005
5.47802
6.122772
6.51696
6.696495
6.773834
6.812157
6.782356
6.504578
5.803303
4.653065
3.094177
1.332222
-0.3982773
-1.981544
-3.41708
-4.819447
-6.39677
-8.28685
-10.46968
-12.8365
-15.0888
-16.82214
-17.63354
-17.09712
-14.9724
-11.32845
-6.558659
-1.262421
3.768147
7.933952
10.90765
12.66728
13.40889
13.41082
12.86892
11.9086
10.62352
9.095825
7.539623
6.222347
5.327553
4.939369
5.002003
5.312134
5.664886
5.934254
6.022984
5.974735
5.827976
5.511852
4.914764
3.907543
2.395416
0.4488449
-1.755764
-4.050293
-6.275841
-8.406788
-10.53905
-12.78319
-15.20406
-17.78247
-20.37056
-22.6932
-24.41567
-25.11719
-24.47702
-22.37388
-18.95393
-14.67799
-10.19286
-6.110939
-2.794266
-0.3111153
1.596123
3.21209
4.687424
6.053978
7.213104
8.125317
8.907074
9.756851
10.8636
12.2584
13.72809
14.89854
15.43274
15.16475
14.11971
12.55449
10.71675
8.800102
6.895977
4.976212
3.041645
1.083061
-0.8703842
-2.798855
-4.654594
-6.410484
-8.020271
-9.440662
-10.74013
-11.98668
-13.34277
-14.93345
-16.67075
-18.23651
-19.1385
-18.86264
-17.03452
-13.74578
-9.396145
-4.711285
-0.4104118
3.028889
5.429787
6.949444
7.855755
8.458977
8.878036
9.140411
9.196735
8.984344
8.560551
8.007339
7.431091
6.871536
6.381912
5.948364
5.609917
5.489258
5.584454
5.92469
6.319637
6.539349
6.250858
5.206467
3.362064
0.9101257
-1.748489
-4.229324
-6.165161
-7.543793
-8.528061
-9.525536
-10.92894
-12.90374
-15.28276
-17.58002
-19.24866
-19.7334
-18.80066
-16.51081
-13.14069
-9.156174
-5.06813
-1.324692
1.742645
3.949471
5.377213
6.198738
6.624939
6.906517
7.16304
7.462845
7.797844
8.096916
8.330055
8.463478
8.454811
8.190811
7.567017
6.493599
5.001007
3.258957
1.501183
-0.04222107
-1.229698
-2.092606
-2.792488
-3.525124
-4.472237
-5.65741
-7.027954
-8.550461
-10.22729
-12.10843
-14.21479
-16.34145
-18.0356
-18.73601
-17.93262
-15.45434
-11.6129
-7.077873
-2.656631
0.9883499
3.588638
5.229164
6.170746
6.70742
7.010765
7.152794
7.190849
7.270149
7.491646
7.959915
8.662956
9.479599
10.28551
10.94438
11.40922
11.71992
11.88452
11.86739
11.57526
10.86758
9.627251
7.828445
5.494286
2.743935
-0.1799088
-2.972176
-5.279816
-6.855652
-7.702652
-8.112976
-8.556267
-9.549759
-11.3707
-13.86852
-16.47495
-18.33385
-18.62807
-17.00281
-13.58355
-8.965202
-3.922318
0.8110809
4.797836
7.8461
9.99807
11.36156
11.99527
12.01609
11.53648
10.79119
10.05112
9.585999
9.500534
9.750305
10.11453
10.3111
10.15536
9.558167
8.647079
7.676056
6.920776
6.473145
6.308868
6.222488
5.977859
5.38591
4.371277
2.97258
1.402161
-0.122406
-1.425781
-2.404388
-3.087585
-3.653122
-4.430771
-5.789658
-7.928055
-10.71851
-13.63226
-15.89224
-16.79028
-15.90407
-13.33046
-9.572342
-5.354233
-1.249084
2.382065
5.4422
7.933578
9.871384
11.24744
12.03049
12.27591
12.09306
11.66118
11.07916
10.44928
9.8367
9.354523
9.085876
9.023193
9.085938
9.14856
9.09494
8.890106
8.6194
8.405136
8.295059
8.188156
7.815445
6.938553
5.460449
3.482101
1.26149
-0.9925385
-3.176514
-5.381683
-7.737198
-10.3606
-13.22421
-16.10048
-18.62823
-20.36478
-20.88336
-19.90945
-17.37805
-13.45978
-8.57666
-3.319748
1.653641
5.812958
8.850952
10.78119
11.81161
12.16969
12.11456
11.77078
11.23659
10.53003
9.709335
8.85762
8.165405
7.803925
7.809784
8.156525
8.670929
9.146637
9.406494
9.401474
9.113953
8.689438
8.172775
7.516159
6.583969
5.267914
3.561768
1.639908
-0.1964264
-1.777863
-3.033859
-4.173019
-5.550095
-7.46315
-10.07753
-13.28072
-16.67403
-19.70741
-21.80991
-22.49384
-21.49287
-18.8188
-14.73889
-9.818985
-4.752533
-0.1596375
3.556122
6.279175
8.175125
9.519073
10.54059
11.42169
12.14384
12.66043
12.94432
13.01666
12.94687
12.83482
12.73685
12.64251
12.55553
12.44937
12.27948
12.05597
11.72606
11.21912
10.47778
9.401817
7.942108
6.092758
3.951134
1.657249
-0.5595779
-2.571274
-4.352997
-5.860382
-7.184875
-8.393967
-9.575317
-10.8297
-12.23708
-13.75695
-15.30432
-16.61905
-17.25615
-16.89169
-15.27925
-12.49226
-8.874321
-4.917953
-1.108437
2.162735
4.714485
6.553261
7.71801
8.39563
8.745308
8.905228
9.013672
9.14212
9.298309
9.484451
9.716896
9.983635
10.34558
10.84306
11.38329
11.85268
12.11463
12.0706
11.7568
11.31504
10.85978
10.45155
10.022
9.325188
8.209984
6.600533
4.549294
2.235153
-0.1500778
-2.46489
-4.628006
-6.604492
-8.470428
-10.27663
-12.15356
-14.23434
-16.50284
-18.75567
-20.57561
-21.39441
-20.74876
-18.46927
-14.70345
-9.961151
-4.923782
-0.1931648
3.8367
7.000473
9.325779
10.86617
11.65937
11.71474
11.11304
10.01413
8.740047
7.601555
6.872967
6.645287
6.814796
7.235485
7.710583
8.131149
8.42804
8.633255
8.646152
8.40461
7.797222
6.779621
5.390934
3.733139
1.90556
-0.0008735657
-1.891272
-3.676353
-5.226383
-6.475538
-7.429142
-8.178921
-8.898685
-9.759569
-10.86658
-12.22746
-13.67752
-15.00712
-15.90082
-16.08712
-15.31421
-13.50015
-10.71762
-7.221202
-3.411128
0.3497276
3.759453
6.681218
9.021525
10.78974
11.91088
12.33545
12.01245
10.99162
9.422197
7.584538
5.780039
4.289994
3.279788
2.752306
2.619741
2.725141
2.940951
3.179954
3.370334
3.459227
3.336825
2.883341
1.96735
0.4964962
-1.463261
-3.756886
-6.058174
-8.087769
-9.590614
-10.50164
-10.88746
-10.9574
-10.98665
-11.24437
-11.90284
-12.89563
-14.00656
-14.81108
-14.86192
-13.79559
-11.54757
-8.2673
-4.405972
-0.4790573
3.141239
6.235691
8.802174
10.90985
12.55643
13.60131
13.89222
13.33101
11.96808
10.11597
8.174519
6.497215
5.303871
4.526073
3.976337
3.445427
2.839859
2.183723
1.613686
1.153786
0.7350349
0.2023849
-0.6485329
-1.87019
-3.378456
-4.985123
-6.479057
-7.706749
-8.715454
-9.557236
-10.30092
-11.01476
-11.73663
-12.49306
-13.39774
-14.47585
-15.60561
-16.50723
-16.75937
-15.95875
-13.93559
-10.81429
-6.965279
-2.940659
0.8204727
4.064827
6.716339
8.78756
10.31638
11.30056
11.72021
11.60426
11.05569
10.28844
9.547394
9.043373
8.872406
8.92778
9.031883
8.97065
8.57431
7.812523
6.732056
5.41523
3.810379
1.883896
-0.4724045
-3.198288
-6.043297
-8.64164
-10.63374
-11.81306
-12.20511
-12.04497
-11.5825
-11.06225
-10.67392
-10.57658
-10.86913
-11.53113
-12.38383
-13.04796
-13.04704
-12.00874
-9.86348
-6.886787
-3.609695
-0.5949173
1.851997
3.59951
4.728821
5.392532
5.683899
5.62944
5.250626
4.559235
3.594612
2.500298
1.438011
0.6230927
0.215744
0.293808
0.7801208
1.495277
2.198418
2.644859
2.700912
2.372841
1.706688
0.7232208
-0.5781708
-2.268028
-4.307487
-6.568764
-8.835167
-10.9417
-12.76298
-14.30743
-15.70354
-17.01114
-18.17471
-18.94771
-18.97551
-17.86465
-15.44036
-11.74163
-7.098221
-2.086258
2.697006
6.725525
9.652649
11.4509
12.31404
12.5461
12.40062
12.03653
11.48962
10.74427
9.787506
8.646378
7.427185
6.243744
5.209534
4.348763
3.614388
2.901337
2.071213
1.005119
-0.3707199
-1.943962
-3.591904
-5.156044
-6.518242
-7.65535
-8.631287
-9.498955
-10.33463
-11.15324
-12.00644
-12.89746
-13.8432
-14.69744
-15.21021
-15.03067
-13.8135
-11.40784
-7.892075
-3.647194
0.763092
4.709381
7.707214
9.480072
10.02911
9.557579
8.367592
6.810295
5.167717
3.647232
2.393333
1.518593
1.097908
1.192726
1.811905
2.861824
4.16526
5.43087
6.378609
6.802025
6.620644
5.979622
5.079033
4.165298
3.35479
2.657097
1.914131
0.9578857
-0.3197708
-1.990952
-4.020798
-6.331543
-8.842941
-11.39668
-13.7201
-15.47141
-16.19761
-15.51095
-13.23708
-9.544769
-4.922852
-0.1329651
4.062912
7.122116
8.791946
9.225319
8.748032
7.811134
6.805717
5.975586
5.440536
5.205643
5.185646
5.240082
5.241112
5.014595
4.487221
3.703133
2.758484
1.800514
0.8950577
-0.001358032
-0.9793396
-2.106216
-3.352257
-4.579826
-5.591179
-6.275871
-6.610275
-6.736137
-6.880882
-7.264084
-8.057037
-9.32811
-11.02525
-12.95264
-14.76152
-15.97013
-16.15423
-15.09528
-12.82928
-9.691353
-6.165657
-2.773735
0.1037979
2.279694
3.827858
4.927361
5.801636
6.58358
7.339645
7.978432
8.369354
8.397789
8.082565
7.617393
7.171432
6.872055
6.673439
6.392761
5.773468
4.748672
3.402527
1.947273
0.6259155
-0.4642563
-1.331261
-2.111031
-2.916306
-3.796402
-4.671318
-5.485073
-6.243355
-7.127075
-8.33371
-9.908905
-11.71785
-13.34156
-14.20264
-13.74068
-11.6678
-8.136543
-3.675358
0.9918938
5.236629
8.666527
11.14571
12.74892
13.646
13.9895
13.81213
13.20985
12.28227
11.22226
10.21875
9.402473
8.770866
8.232033
7.672035
6.970539
6.161533
5.275932
4.391617
3.502762
2.602406
1.606476
0.4538574
-0.8778725
-2.381351
-3.937263
-5.466908
-6.855194
-8.097141
-9.235546
-10.45837
-11.96675
-13.89359
-16.17083
-18.41034
-20.08292
-20.58308
-19.50777
-16.7784
-12.7082
-7.852186
-2.850555
1.752228
5.632015
8.656164
10.82488
12.2253
12.94145
13.07473
12.78704
12.30577
11.84873
11.62622
11.72734
12.13897
12.73084
13.31622
13.69
13.77653
13.60137
13.25239
12.8106
12.27777
11.5653
10.51532
9.002851
7.018787
4.703598
2.330778
0.1944528
-1.534268
-2.814477
-3.764065
-4.604844
-5.594405
-6.935053
-8.685579
-10.78086
-12.97229
-14.8879
-16.11101
-16.31398
-15.25503
-12.937
-9.600571
-5.652652
-1.599152
2.124295
5.238008
7.623892
9.297871
10.35426
10.89759
11.01156
10.78413
10.32817
9.851469
9.573416
9.641656
10.1089
10.85216
11.68047
12.35844
12.753
12.76904
12.49944
12.07609
11.5961
11.06755
10.40735
9.440041
7.987237
6.036439
3.662619
1.153421
-1.152572
-3.008511
-4.386139
-5.478646
-6.600337
-8.023643
-9.851886
-12.06013
-14.45005
-16.80901
-18.92153
-20.50834
-21.201
-20.56598
-18.26828
-14.2872
-9.091818
-3.455687
1.690045
5.602234
8.057096
9.225497
9.539804
9.402568
9.034502
8.445237
7.645058
6.709938
5.852285
5.347013
5.354776
5.854871
6.662674
7.603028
8.500605
9.295335
9.90479
10.25833
10.29093
9.855141
8.908753
7.499383
5.778328
3.908903
2.050335
0.2966201
-1.280423
-2.572927
-3.565622
-4.274137
-4.848094
-5.53593
-6.599852
-8.224087
-10.40667
-12.94342
-15.46111
-17.47093
-18.52003
-18.28811
-16.64626
-13.73027
-9.898491
-5.636767
-1.496145
2.122756
4.994524
7.085944
8.434879
9.134754
9.325726
9.107109
8.708708
8.328018
8.169651
8.343479
8.800192
9.386764
9.864529
10.05627
9.876522
9.409225
8.840944
8.373568
8.198711
8.346201
8.764858
9.235314
9.458391
9.149172
8.136523
6.429931
4.200674
1.727708
-0.7143383
-2.917046
-4.835915
-6.521707
-8.120955
-9.785958
-11.65157
-13.74194
-15.8958
-17.82612
-19.07375
-19.20601
-17.93654
-15.19855
-11.26922
-6.662409
-1.975527
2.307528
5.855478
8.508781
10.28038
11.28561
11.74397
11.85367
11.80889
11.74439
11.70432
11.70654
11.72385
11.74934
11.77804
11.82475
11.8199
11.67853
11.28088
10.56458
9.558178
8.408655
7.235645
6.067963
4.88015
3.517441
1.898148
0.06510544
-1.868359
-3.717411
-5.3008
-6.553452
-7.519245
-8.329224
-9.137402
-10.05647
-11.09209
-12.262
-13.55414
-14.91432
-16.22708
-17.1777
-17.42776
-16.60016
-14.54102
-11.34113
-7.375584
-3.186111
0.6198235
3.65189
5.802197
7.167866
7.999596
8.489555
8.700768
8.590137
8.157665
7.441658
6.622208
5.999916
5.784775
6.047333
6.600243
7.142044
7.372856
7.184639
6.670315
5.997623
5.368263
4.857986
4.426323
3.911201
3.143234
2.030891
0.5895386
-1.042122
-2.661949
-4.114815
-5.3097
-6.184715
-6.864128
-7.50161
-8.225647
-9.165543
-10.3564
-11.69786
-12.94269
-13.74769
-13.65345
-12.38026
-9.901802
-6.423065
-2.419525
1.5998
5.252113
8.373039
10.91887
12.93305
14.40709
15.287
15.56069
15.23222
14.43803
13.31275
11.99401
10.52351
8.975914
7.385979
5.857529
4.505791
3.356575
2.404572
1.556786
0.7022934
-0.2894135
-1.468842
-2.871895
-4.482437
-6.166649
-7.801514
-9.196838
-10.2672
-11.02619
-11.58517
-12.13763
-12.88416
-14.00339
-15.48351
-17.24912
-18.99866
-20.38417
-20.997
-20.45461
-18.58073
-15.41384
-11.33875
-6.847755
-2.559746
1.095917
3.85498
5.677338
6.713112
7.132019
7.106064
6.649841
5.828659
4.659126
3.352806
2.214897
1.495377
1.387276
1.816521
2.586212
3.412537
4.130005
4.683189
5.164383
5.729546
6.336906
6.872665
7.093384
6.771614
5.837891
4.380951
2.639099
0.8593597
-0.6804504
-1.930443
-2.964058
-4.016953
-5.338989
-7.112976
-9.368378
-11.86964
-14.25803
-16.00067
-16.70924
-16.0703
-14.1146
-11.12998
-7.588295
-4.015862
-0.8145294
1.776047
3.76841
5.215775
6.287399
7.112022
7.68837
8.035919
8.184326
8.179596
8.081161
7.996254
7.92878
7.848366
7.692162
7.335663
6.70195
5.808876
4.762131
3.710823
2.849098
2.222977
1.752403
1.218056
0.4643173
-0.5661316
-1.747017
-2.850204
-3.743675
-4.419434
-5.137558
-6.22728
-7.911438
-10.17487
-12.65356
-14.79385
-16.06627
-16.08865
-14.75626
-12.27243
-9.001755
-5.386627
-1.91362
1.023575
3.177734
4.44278
4.867996
4.658157
4.057556
3.270126
2.518112
1.842178
1.290024
0.8941193
0.7609406
0.9606171
1.565811
2.509842
3.607666
4.715607
5.580887
6.080246
6.111145
5.680557
4.848022
3.692093
2.320404
0.8540039
-0.5567169
-1.853287
-2.989655
-4.03746
-5.084106
-6.243927
-7.524246
-8.864136
-10.10062
-11.04697
-11.49873
-11.21695
-10.02676
-7.872726
-4.827774
-1.174164
2.667877
6.186844
8.935776
10.63272
11.27496
11.05511
10.24475
9.134827
7.913559
6.655029
5.335022
3.949982
2.555328
1.276398
0.2347107
-0.4438171
-0.7103119
-0.5808258
-0.167984
0.3575439
0.7919464
0.9833221
0.8506927
0.3557129
-0.4061432
-1.31218
-2.298782
-3.314957
-4.400833
-5.656158
-7.174942
-9.045792
-11.30106
-13.79973
-16.23871
-18.21415
-19.26931
-19.04353
-17.40616
-14.51728
-10.8001
-6.810585
-3.044395
0.1459045
2.604591
4.331581
5.369217
5.835022
5.835281
5.530151
5.089165
4.696785
4.428551
4.308083
4.300957
4.347336
4.434715
4.589088
4.879501
5.315979
5.838745
6.283142
6.481384
6.296768
5.68103
4.679642
3.417641
2.029106
0.616684
-0.7589798
-2.084663
-3.373863
-4.627991
-5.90728
-7.271713
-8.823639
-10.57282
-12.39712
-13.9733
-14.83467
-14.54206
-12.8765
-9.940475
-6.121758
-2.094131
1.611023
4.546204
6.567299
7.739166
8.272675
8.35704
8.147911
7.787254
7.285667
6.783531
6.35199
6.125381
6.190704
6.592361
7.258308
8.046074
8.811539
9.37117
9.677139
9.648628
9.184364
8.203911
6.653206
4.550041
1.999901
-0.7500916
-3.461311
-5.816353
-7.680656
-9.04747
-10.04356
-10.92307
-11.91869
-13.24091
-14.84286
-16.55069
-17.94428
-18.58565
-18.12267
-16.30735
-13.23447
-9.198914
-4.739517
-0.4013138
3.263573
5.972763
7.614105
8.281769
8.226311
7.68486
6.95089
6.264427
5.839012
5.72953
5.933342
6.315788
6.710411
6.971199
6.982407
6.791382
6.494759
6.213837
5.994644
5.804832
5.477051
4.839035
3.741333
2.148643
0.1992645
-1.821564
-3.605888
-4.926643
-5.74926
-6.292877
-6.923302
-8.001373
-9.638424
-11.6891
-13.68036
-14.97747
-15.0564
-13.65025
-10.85587
-7.080524
-2.896519
1.166431
4.684132
7.379623
9.224197
10.29876
10.80569
10.9268
10.88235
10.73947
10.50179
10.15837
9.598625
8.863163
7.99229
7.157219
6.481026
6.054806
5.849079
5.718945
5.537182
5.198956
4.68325
3.896633
2.803612
1.349319
-0.4620934
-2.469658
-4.454426
-6.133701
-7.348446
-8.123669
-8.722744
-9.490196
-10.68874
-12.40711
-14.45375
-16.47062
-17.89579
-18.26175
-17.16819
-14.48086
-10.40537
-5.40942
-0.1629333
4.658733
8.580978
11.45418
13.33972
14.50849
15.26558
15.74944
16.04554
16.16913
16.16003
16.14937
16.29337
16.64389
17.1083
17.4722
17.46633
16.93019
15.84629
14.36146
12.62704
10.76947
8.798742
6.652437
4.292242
1.690365
-1.05102
-3.859503
-6.550638
-9.005774
-11.10042
-12.859
-14.36485
-15.74747
-17.153
-18.4991
-19.58699
-20.05482
-19.56061
-17.92234
-15.20904
-11.70405
-7.799236
-3.915781
-0.3067646
2.793024
5.264193
7.011703
7.990698
8.28817
8.051439
7.539736
6.95089
6.442537
6.03371
5.717173
5.488056
5.364635
5.436357
5.693495
6.039764
6.233168
6.130949
5.623287
4.81263
3.920349
3.089668
2.344133
1.511688
0.3856487
-1.259562
-3.35269
-5.663889
-7.86949
-9.724442
-11.22158
-12.5192
-13.8412
-15.21788
-16.48221
-17.20121
-16.95872
-15.50054
-12.92213
-9.608442
-6.096575
-2.841817
-0.1453285
1.920759
3.43036
4.498505
5.235394
5.716122
5.950941
5.999898
5.865739
5.552711
5.052722
4.366364
3.58314
2.813265
2.199643
1.781596
1.592789
1.567684
1.623349
1.626791
1.434968
0.9013469
-0.07028246
-1.474044
-3.211048
-5.047108
-6.768745
-8.200517
-9.339569
-10.31508
-11.39314
-12.77273
-14.48227
-16.31742
-17.81833
-18.48572
-17.86753
-15.7541
-12.25939
-7.826544
-3.107765
1.269491
4.8165
7.292088
8.674145
9.145586
8.930256
8.283979
7.422112
6.499769
5.686378
5.034851
4.667755
4.645164
5.025631
5.788609
6.807896
7.899952
8.803635
9.309757
9.216389
8.505131
7.21619
5.478764
3.439697
1.222126
-1.029758
-3.186264
-5.15329
-6.919304
-8.620834
-10.43375
-12.54308
-14.90766
-17.27772
-19.14283
-19.9309
-19.17921
-16.70995
-12.79531
-7.973618
-2.978951
1.634384
5.397659
8.177017
10.01124
11.052
11.51656
11.57223
11.3545
10.9306
10.4113
9.812347
9.2015
8.604095
8.053207
7.595352
7.247108
7.007256
6.850769
6.716644
6.517647
6.163353
5.596458
4.777557
3.733047
2.478256
1.014542
-0.6312485
-2.473343
-4.463989
-6.595573
-8.859108
-11.26186
-13.75651
-16.21899
-18.34635
-19.6526
-19.66296
-17.99081
-14.55128
-9.645714
-3.925163
1.789284
6.703499
10.3158
12.51709
13.51488
13.73063
13.54388
13.19615
12.7462
12.14233
11.3576
10.45102
9.616592
9.022705
8.782669
8.80574
8.942261
8.978363
8.741852
8.184723
7.333115
6.189758
4.79187
3.177399
1.333862
-0.6584625
-2.70752
-4.705551
-6.608261
-8.408188
-10.28876
-12.39806
-14.78258
-17.2868
-19.48143
-20.73135
-20.42514
-18.23512
-14.25226
-9.054352
-3.409851
1.86528
6.22937
9.395798
11.35875
12.29071
12.41148
11.97234
11.192
10.29521
9.424759
8.65242
7.996078
7.444855
7.020401
6.837875
7.017654
7.628677
8.540024
9.465485
9.996658
9.81575
8.842972
7.220581
5.26683
3.300598
1.496887
-0.2103882
-1.938843
-3.816666
-5.900208
-8.153244
-10.4794
-12.77104
-14.85483
-16.45169
-17.23717
-16.81398
-14.94179
-11.53224
-6.844193
-1.411484
4.040939
8.795349
12.31898
14.41756
15.27034
15.23813
14.70552
13.94846
13.05844
12.05322
10.9989
10.02715
9.335526
9.065521
9.170181
9.47319
9.760437
9.956802
10.07559
10.19649
10.35883
10.48996
10.43385
10.00581
9.106293
7.719147
5.953079
3.924271
1.68161
-0.7557373
-3.428207
-6.394745
-9.630112
-12.92447
-15.88896
-17.96304
-18.60353
-17.44269
-14.44221
-9.991745
-4.771301
0.4452667
5.058151
8.732712
11.40338
13.1944
14.30334
14.92812
15.11209
14.84911
14.20041
13.2805
12.21971
11.17467
10.297
9.675598
9.423431
9.560318
10.00412
10.63329
11.21617
11.47272
11.23163
10.40247
8.974915
6.954697
4.317993
1.047729
-2.817093
-7.120316
-11.56195
-15.72693
-19.2285
-21.80655
-23.27376
-23.48042
-22.27882
-19.55849
-15.42519
-10.21872
-4.455475
1.192001
6.106613
9.955475
12.65442
14.3476
15.2919
15.69992
15.73605
15.49709
14.923
13.99385
12.77895
11.4252
10.16949
9.200012
8.633499
8.374374
8.202698
7.789001
6.92952
5.611145
3.978851
2.34343
0.911972
-0.1298218
-0.8394623
-1.328552
-1.806152
-2.433853
-3.324326
-4.531433
-5.999603
-7.534317
-8.776077
-9.335251
-8.805374
-6.98378
-3.968155
-0.1409302
3.951065
7.818146
11.14796
13.86217
15.98985
17.60114
18.72041
19.27682
19.20766
18.50764
17.33417
15.86432
14.37318
13.08894
12.0811
11.36655
10.73141
9.953232
8.809097
7.237366
5.284515
3.126511
0.9397125
-1.137115
-3.039322
-4.735565
-6.118469
-7.06601
-7.478165
-7.335709
-6.771301
-6.026505
-5.331093
-4.800598
-4.312401
-3.548737
-2.043976
0.5885925
4.527359
9.589996
15.16692
20.30448
23.88681
25.00136
23.13819
18.48473
11.76512
4.056152
-3.553169
-10.26309
-15.68018
-19.74989
-22.57024
-24.24886
-24.84403
-24.3927
-23.07538
-21.164
-19.05942
-17.12008
-15.55876
-14.42244
-13.59637
-12.96305
-12.43381
-12.03063
-11.8082
-11.85016
-12.16124
-12.72152
-13.48876
-14.39794
-15.36859
-16.22047
-16.70924
-16.41239
-14.98493
-12.21754
-8.154419
-3.144863
2.253136
7.444996
11.93209
15.38404
17.70681
18.9486
19.26675
18.90213
18.07001
16.99803
15.90015
14.90733
14.09453
13.48749
13.03902
12.57386
11.88128
10.70178
8.8596
6.342609
3.316488
0.1048441
-2.828869
-5.047644
-6.288853
-6.439524
-5.682047
-4.358561
-2.866568
-1.628493
-0.9689276
-1.036764
-1.876201
-3.338918
-5.143299
-6.900138
-8.131635
-8.327738
-7.216622
-4.835156
-1.641666
1.59013
4.077913
5.31983
5.184486
4.002565
2.383335
0.9142075
0.01838112
-0.1379433
0.3732567
1.398434
2.784767
4.333771
5.818825
7.025715
7.724644
7.830578
7.350952
6.415611
5.230511
3.962177
2.736362
1.589638
0.5005074
-0.6399193
-1.864101
-3.179363
-4.544838
-5.807102
-6.89959
-7.764954
-8.445854
-9.085556
-9.929695
-11.04655
-12.33933
-13.48389
-13.92909
-13.24116
-11.17942
-7.868034
-3.751236
0.5183563
4.303017
7.182014
8.958694
9.709587
9.607689
8.945
8.02018
7.080353
6.334114
5.869484
5.680527
5.644905
5.617569
5.431427
5.018303
4.376091
3.521889
2.540321
1.467148
0.3687668
-0.7353592
-1.800095
-2.852287
-3.886833
-4.907356
-5.964233
-6.99913
-7.943298
-8.7332
-9.357559
-9.874939
-10.45546
-11.25487
-12.34972
-13.64711
-14.80458
-15.40149
-15.02591
-13.41476
-10.59154
-6.824448
-2.649109
1.314713
4.552933
6.777573
7.931824
8.1707
7.772827
6.97612
5.995285
4.877747
3.66272
2.417816
1.249298
0.2593536
-0.4689636
-0.946228
-1.31044
-1.700119
-2.279877
-3.100769
-4.12233
-5.192657
-6.172058
-6.933426
-7.446457
-7.796051
-8.052429
-8.42067
-9.056671
-10.08516
-11.55428
-13.40851
-15.47653
-17.53714
-19.35138
-20.58151
-20.96996
-20.20647
-18.10454
-14.66852
-10.20413
-5.234039
-0.435257
3.639313
6.768738
8.940262
10.41985
11.49498
12.27902
12.75868
12.86427
12.47844
11.59181
10.43306
9.202133
8.157547
7.473694
7.17485
7.25
7.626068
8.197311
8.825989
9.460281
10.02087
10.49454
10.82381
10.90178
10.63416
9.896896
8.634155
6.82074
4.528503
1.788315
-1.308853
-4.619247
-7.900055
-10.65213
-12.29305
-12.29552
-10.4174
-6.890076
-2.412308
2.186981
6.203918
9.258789
11.39548
12.80394
13.64574
13.87308
13.3562
11.96498
9.738998
6.93187
3.837067
0.7414703
-2.243942
-5.029999
-7.596848
-9.827042
-11.58282
-12.75229
-13.32343
-13.36462
-12.96921
-12.26129
-11.30087
-10.15704
-8.916046
-7.674225
-6.528503
-5.575958
-4.806824
-4.241699
-3.870331
-3.672302
-3.617096
-3.546936
-3.169922
-2.147552
-0.2105103
2.665161
6.250427
10.09671
13.66534
16.49036
18.25937
18.8736
18.30231
16.60779
13.92554
10.4335
6.455994
2.371307
-1.432098
-4.72348
-7.401642
-9.610901
-11.53253
-13.24789
-14.76788
-15.92096
-16.62234
-16.86523
-16.85666
-16.85938
-17.13434
-17.7515
-18.61319
-19.56952
-20.44351
-21.27643
-22.14673
-23.16446
-24.35599
-25.61652
-26.67978
-27.25754
-27.1091
-25.99539
-23.84311
-20.72363
-16.81464
-12.46799
-8.066589
-3.963837
-0.3805847
2.523468
4.763397
6.297791
7.009094
6.796112
5.537933
3.409943
0.7164917
-2.001648
-4.242706
-5.571899
-5.875702
-5.291534
-4.133698
-2.87854
-1.841461
-1.300171
-1.315918
-1.786224
-2.491425
-3.278931
-4.031372
-4.688599
-5.325562
-5.991699
-6.754517
-7.652924
-8.637726
-9.523804
-10.09164
-10.03619
-9.088837
-7.159332
-4.382965
-1.112427
2.193481
5.093689
7.30072
8.70639
9.401428
9.541565
9.282684
8.731018
7.965332
7.048218
6.118408
5.365143
4.960602
5.056946
5.590973
6.349152
7.007019
7.248474
6.857574
5.840408
4.378311
2.712189
1.007172
-0.673996
-2.346222
-4.045502
-5.782303
-7.533936
-9.264603
-11.00421
-12.75119
-14.48093
-15.99147
-16.93391
-16.88173
-15.54471
-12.84537
-8.98671
-4.394043
0.3971863
4.890442
8.693954
11.58553
13.49413
14.45564
14.6026
14.07515
13.07771
11.81859
10.51726
9.387787
8.560669
8.100021
7.948334
7.853439
7.533447
6.754807
5.435333
3.692825
1.781921
-0.02267456
-1.509308
-2.623993
-3.492432
-4.286011
-5.184677
-6.302917
-7.686523
-9.299591
-11.05031
-12.76448
-14.20555
-15.10262
-15.18649
-14.23531
-12.16795
-9.1147
-5.366089
-1.37085
2.36618
5.43811
7.620346
8.904831
9.431473
9.396042
8.967697
8.201065
7.112411
5.775818
4.361755
3.138367
2.369339
2.18631
2.561127
3.302597
4.0961
4.641708
4.823776
4.691422
4.383377
4.050827
3.724533
3.30574
2.58963
1.390228
-0.4234772
-2.721207
-5.212769
-7.61528
-9.649231
-11.15997
-12.09126
-12.41916
-12.02141
-10.79488
-8.656784
-5.651154
-2.087357
1.586075
4.846756
7.272278
8.65007
9.109146
8.904831
8.390465
7.866127
7.43428
7.148201
6.95446
6.87561
6.971115
7.357239
8.066956
9.023445
10.07729
10.96384
11.48708
11.48624
10.94839
9.967964
8.663399
7.132553
5.468826
3.766739
2.090866
0.5117493
-0.9890823
-2.470413
-4.033669
-5.74128
-7.50589
-9.062546
-9.976364
-9.847694
-8.411598
-5.697342
-2.059273
1.979454
5.935356
9.526436
12.63866
15.34554
17.71668
19.79238
21.53992
22.88953
23.90434
24.79134
25.80576
27.17564
28.90855
30.68609
32.03255
32.43239
31.48938
29.08642
25.33283
20.42335
14.50907
7.729729
0.1449509
-8.049011
-16.54065
-24.96874
-33.048
-40.64678
-47.7489
-54.36732
-60.28265
-65.1123
-68.29144
-69.37
-68.24248
-65.19791
-60.79075
-55.62357
-50.12628
-44.47461
-38.76515
-33.03775
-27.50431
-22.48042
-18.2016
-14.76762
-12.0391
-9.626625
-7.097126
-4.145359
-0.7609634
2.793648
6.06992
8.583656
9.984226
10.16113
9.244888
7.613255
5.678989
3.748699
2.015133
0.5129166
-0.8137341
-2.011217
-3.128751
-4.158501
-5.123051
-6.075764
-6.994923
-7.760046
-8.046887
-7.482155
-5.747932
-2.799608
1.067217
5.275711
9.123936
12.12908
14.03362
14.91236
14.94987
14.40358
13.46844
12.19544
10.63379
8.843456
7.027267
5.434177
4.338409
3.875893
4.043762
4.613861
5.239815
5.623222
5.617775
5.292183
4.84166
4.461266
4.257599
4.154915
4.008881
3.625107
2.924957
1.876755
0.5227356
-1.121407
-3.064827
-5.234146
-7.426895
-9.215912
-10.09734
-9.524048
-7.23642
-3.363037
1.600891
6.900375
11.82678
15.79794
18.53789
20.02345
20.37891
19.80617
18.59877
17.03752
15.42126
14.00092
12.93022
12.26016
11.98291
11.981
12.13419
12.31609
12.32851
12.03149
11.30887
10.19347
8.804581
7.459396
6.398178
5.712646
5.336945
5.041061
4.545609
3.65741
2.326767
0.5644684
-1.471283
-3.672119
-5.871597
-7.81044
-9.147476
-9.465622
-8.414658
-5.862991
-2.01683
2.671036
7.592926
12.12543
15.86394
18.63091
20.50397
21.68146
22.36563
22.60364
22.37277
21.68517
20.55356
19.18839
17.80922
16.64331
15.78482
15.17316
14.56801
13.71609
12.53209
10.99484
9.289932
7.564377
5.945892
4.474426
3.168823
1.96698
0.8302307
-0.3017578
-1.597443
-3.177246
-5.186462
-7.6073
-10.15573
-12.33463
-13.51501
-13.18842
-11.09921
-7.442932
-2.701294
2.385071
7.0401
10.66171
12.92569
13.83398
13.59924
12.62695
11.21759
9.628357
7.982666
6.249481
4.410583
2.538269
0.8374634
-0.4189453
-1.003662
-0.8692932
-0.217865
0.6089172
1.241974
1.468323
1.264618
0.8327942
0.4343567
0.1984863
0.1061707
-0.04849243
-0.4768066
-1.393555
-2.834503
-4.808075
-7.244659
-9.969543
-12.69119
-14.94772
-16.16095
-15.84219
-13.79617
-10.15479
-5.416779
-0.2951965
4.529694
8.491638
11.30576
12.91559
13.44513
13.14206
12.27063
11.09305
9.75061
8.34079
6.926239
5.608948
4.5383
3.812897
3.502869
3.510284
3.649933
3.737549
3.663513
3.376862
2.874542
2.171265
1.256439
0.1990356
-0.8965759
-1.892303
-2.61911
-2.940796
-2.87738
-2.5914
-2.358521
-2.515503
-3.294861
-4.802551
-6.870789
-9.060516
-10.71536
-11.1875
-10.08997
-7.306091
-3.192535
1.711487
6.703979
11.14587
14.57483
16.79544
17.85794
17.98624
17.44952
16.46478
15.21204
13.85266
12.55646
11.55527
11.11008
11.34268
12.21115
13.41885
14.5614
15.32814
15.61659
15.52615
15.21179
14.79446
14.22227
13.35353
12.10571
10.46272
8.607147
6.821045
5.291092
4.092102
3.058807
1.891464
0.3156738
-1.765091
-4.271973
-6.911453
-9.275482
-10.97887
-11.71797
-11.41727
-10.18198
-8.243835
-5.859573
-3.346817
-0.9898376
0.9580688
2.34227
3.167252
3.546967
3.714279
3.869156
4.175293
4.656952
5.268219
5.957504
6.61615
7.171844
7.42981
7.313843
6.734756
5.768143
4.652512
3.647812
2.998947
2.664459
2.423904
1.88353
0.8207855
-0.7975769
-2.794739
-4.818848
-6.598999
-7.985458
-9.044586
-9.957291
-10.92719
-12.07957
-13.42458
-14.89711
-16.31104
-17.46748
-18.04877
-17.76511
-16.40825
-13.96155
-10.66002
-6.971725
-3.423157
-0.3593597
2.003494
3.754959
5.058319
6.06189
6.831772
7.340622
7.54953
7.474411
7.279495
7.0961
7.056549
7.238922
7.620285
8.157829
8.790916
9.416328
9.875069
10.02209
9.700417
8.844521
7.509453
5.772087
3.800499
1.73365
-0.3340073
-2.319611
-4.104645
-5.585594
-6.650337
-7.210991
-7.398476
-7.442787
-7.65834
-8.339874
-9.634941
-11.465
-13.55277
-15.44434
-16.59378
-16.63533
-15.39571
-12.96647
-9.639847
-5.852211
-2.022865
1.508743
4.502235
6.878845
8.551605
9.494507
9.735535
9.340515
8.506821
7.500366
6.602882
6.046524
5.936798
6.202087
6.679577
7.193432
7.529198
7.581802
7.336655
6.862503
6.263561
5.627354
5.012085
4.391605
3.741318
3.009792
2.202385
1.387234
0.6541977
-0.03206253
-0.7421951
-1.577549
-2.676743
-4.042934
-5.59123
-7.214783
-8.823082
-10.40636
-11.99851
-13.46529
-14.46073
-14.5102
-13.25424
-10.60309
-6.917938
-2.826649
0.9927359
4.099875
6.390667
8.024334
9.210758
10.02389
10.44321
10.34735
9.70318
8.614623
7.263917
5.897719
4.697095
3.732408
2.975166
2.348584
1.694416
0.915884
0.0328064
-0.9018726
-1.734512
-2.313435
-2.594173
-2.615885
-2.508648
-2.504915
-2.778816
-3.416237
-4.417252
-5.692604
-7.068645
-8.41468
-9.605362
-10.60473
-11.441
-12.27508
-13.24545
-14.45149
-15.83322
-17.09705
-17.8872
-17.83048
-16.72712
-14.60846
-11.77947
-8.62096
-5.507408
-2.681797
-0.1593208
2.041286
3.938587
5.482468
6.535255
7.029449
7.034264
6.735229
6.334526
6.077843
6.013458
6.075676
6.151459
6.0569
5.718491
5.153015
4.456223
3.694221
2.961098
2.218025
1.37989
0.3901749
-0.8726196
-2.365036
-3.978165
-5.561913
-6.966553
-8.070763
-8.854111
-9.364754
-9.629448
-9.769585
-9.892693
-10.17069
-10.79266
-11.7542
-12.86601
-13.68943
-13.72208
-12.50417
-10.03252
-6.671913
-3.116318
-0.1320496
1.775581
2.480476
2.212929
1.401115
0.5171967
-0.1759033
-0.5739365
-0.6740494
-0.4952393
-0.006225586
0.8107452
1.944069
3.211876
4.37796
5.167122
5.424217
5.201744
4.681
4.099152
3.551422
2.980469
2.243782
1.125153
-0.361824
-2.118446
-3.843674
-5.306267
-6.333679
-6.964775
-7.379601
-7.780945
-8.364975
-9.2174
-10.35099
-11.64197
-12.97907
-14.11932
-14.74746
-14.54267
-13.24488
-10.79932
-7.440865
-3.615326
0.1983414
3.541191
6.200966
8.158386
9.437271
10.11394
10.17664
9.633873
8.612991
7.387222
6.343819
5.823463
5.987823
6.68721
7.565277
8.20874
8.37059
8.009628
7.293152
6.417664
5.447952
4.370636
3.066101
1.472305
-0.2823944
-2.00264
-3.498718
-4.620316
-5.421417
-6.026398
-6.579208
-7.163406
-7.774139
-8.373734
-8.989471
-9.705078
-10.515
-11.32466
-11.86804
-11.77327
-10.74249
-8.706818
-5.868301
-2.667328
0.3956757
2.959396
4.885269
6.186356
6.975296
7.303497
7.160034
6.59404
5.639526
4.454727
3.309937
2.452957
2.045258
2.125107
2.492508
2.871429
2.993546
2.709732
1.987915
0.9457245
-0.2657471
-1.529495
-2.757156
-3.909317
-4.935852
-5.781204
-6.3806
-6.787918
-7.099548
-7.45639
-7.975479
-8.740631
-9.740891
-10.96468
-12.30356
-13.55635
-14.40562
-14.4644
-13.39369
-11.07712
-7.754898
-3.948929
-0.3227539
2.61647
4.64682
5.833923
6.441864
6.706772
6.73233
6.542419
6.095779
5.381653
4.485825
3.611603
2.87114
2.382843
2.160019
2.089905
2.124939
2.205307
2.261169
2.2565
2.184006
1.939346
1.491104
0.799881
-0.1506042
-1.353516
-2.768188
-4.377197
-6.119812
-7.87442
-9.600143
-11.26773
-12.9382
-14.66675
-16.3911
-17.88776
-18.72533
-18.42433
-16.63745
-13.37087
-8.980698
-4.102005
0.5186462
4.366936
7.167236
8.969841
9.97229
10.39211
10.35677
9.908035
9.040024
7.743706
6.126122
4.256142
2.289268
0.3905182
-1.185425
-2.141739
-2.268631
-1.463356
0.1214142
2.117302
3.996422
5.328697
5.856575
5.608719
4.772858
3.591476
2.224091
0.7026901
-0.977005
-2.830498
-4.742973
-6.595085
-8.25499
-9.675667
-10.86134
-11.82131
-12.51498
-12.76961
-12.3922
-11.16294
-9.037483
-6.123329
-2.677963
0.9390182
4.343681
7.168358
9.188713
10.34549
10.75185
10.6546
10.31944
9.956642
9.698341
9.534943
9.453354
9.447769
9.573906
9.849411
10.20898
10.48943
10.47511
9.980789
8.960442
7.498329
5.776306
3.932327
2.089043
0.2777328
-1.479156
-3.108696
-4.550735
-5.778122
-6.862617
-7.955605
-9.279648
-10.94087
-12.91989
-15.03297
-16.93626
-18.17193
-18.30632
-17.01063
-14.16825
-10.02374
-5.060501
0.02207947
4.57148
8.114586
10.49109
11.83891
12.43805
12.61384
12.55939
12.35188
12.0267
11.55545
10.8991
9.975601
8.713257
7.045517
4.993282
2.650356
0.2107544
-2.115284
-4.135181
-5.750355
-7.002293
-7.997669
-8.927876
-9.923172
-11.0677
-12.32372
-13.60527
-14.80642
-15.9115
-17.00434
-18.18852
-19.64498
-21.37115
-23.14014
-24.5345
-25.02568
-24.16624
-21.7318
-17.81317
-12.76827
-7.179619
-1.680397
3.25098
7.27495
10.2321
12.11496
13.03345
13.21844
12.89464
12.26485
11.4765
10.64671
9.820623
9.060675
8.450795
8.053969
7.900915
7.952065
8.055537
8.055398
7.834615
7.245356
6.248999
4.890595
3.225455
1.425358
-0.3022282
-1.806147
-3.024057
-4.040629
-5.160896
-6.680496
-8.826786
-11.70603
-15.11448
-18.60069
-21.54798
-23.2764
-23.25861
-21.25756
-17.37733
-12.12535
-6.255005
-0.5140533
4.479046
8.330402
10.93825
12.40756
13.0028
13.09404
13.00386
12.95883
13.06594
13.28064
13.47705
13.58805
13.55708
13.42568
13.28036
13.17876
13.17118
13.29831
13.53831
13.79071
13.94187
13.79524
13.20129
12.11013
10.60725
8.834496
6.909904
4.804382
2.325439
-0.746994
-4.55217
-9.046394
-13.89568
-18.57507
-22.45241
-24.95135
-25.67464
-24.43854
-21.34853
-16.76269
-11.22143
-5.369751
0.1586533
4.853386
8.423576
10.80428
12.1246
12.64848
12.68607
12.59418
12.63794
12.97275
13.55847
14.24141
14.81871
15.11887
15.05294
14.66857
14.09292
13.4736
12.93591
12.49843
12.13119
11.72651
11.11484
10.13474
8.703873
6.833939
4.687103
2.459068
0.3781052
-1.453285
-2.978752
-4.264641
-5.452271
-6.770256
-8.432281
-10.52489
-12.95191
-15.3395
-17.15066
-17.78223
-16.8363
-14.22421
-10.2905
-5.640839
-0.9158707
3.367088
6.885971
9.519905
11.27365
12.1638
12.22743
11.58938
10.4341
9.115051
7.971024
7.281281
7.235733
7.822311
8.886345
10.14698
11.30988
12.07233
12.24944
11.83265
10.89365
9.635834
8.214912
6.760262
5.303795
3.831436
2.28376
0.6688232
-0.9533081
-2.522354
-3.94062
-5.255234
-6.553574
-7.960594
-9.596916
-11.53716
-13.73475
-16.03045
-18.1843
-19.752
-20.29109
-19.3436
-16.63869
-12.25094
-6.64695
-0.5711594
5.118065
9.712471
12.8839
14.6033
15.11721
14.75233
13.81942
12.5741
11.259
10.11009
9.367546
9.207413
9.658295
10.53696
11.54648
12.31972
12.66649
12.5379
12.08752
11.56514
11.11618
10.75393
10.33724
9.689903
8.630043
7.195587
5.505569
3.720345
1.956467
0.2350006
-1.539894
-3.488998
-5.681488
-8.207382
-10.99454
-13.92136
-16.73174
-18.97974
-20.10806
-19.59256
-17.16822
-12.93845
-7.4767
-1.643089
3.733719
8.046989
11.08726
12.96403
13.97162
14.38648
14.3678
14.03162
13.41673
12.68342
12.05734
11.75959
11.85865
12.27945
12.82205
13.1797
13.14953
12.67989
11.88065
10.9529
10.11623
9.462067
9.011139
8.675316
8.205872
7.389709
6.052841
4.202637
1.984474
-0.2843704
-2.260986
-3.770294
-4.900879
-6.143494
-8.243828
-12.04553
-18.12795
-26.52821
-36.60804
-47.12247
-56.57269
-63.50569
-66.94655
-66.46169
-62.24835
-54.89412
-45.18825
-33.95578
-22.04074
-10.22404
0.8242493
10.59709
18.80379
25.34217
30.36141
34.08374
36.78114
38.60376
39.62026
39.85454
39.31406
38.058
36.21375
33.98927
31.60417
29.26062
27.07914
25.10751
23.31419
21.64764
20.10724
18.71918
17.50724
16.51756
15.73161
15.02837
14.18233
12.94424
11.09998
8.607491
5.685097
2.769203
0.4529266
-0.6738472
-0.2828407
1.555321
4.43792
7.701283
10.66135
12.80379
13.86636
13.81979
12.85279
11.22561
9.238426
7.159447
5.196846
3.45352
1.887945
0.3948364
-1.152782
-2.742718
-4.198267
-5.323784
-5.986585
-6.235214
-6.263434
-6.303959
-6.507826
-6.863232
-7.251667
-7.569917
-7.864034
-8.305777
-9.0499
-10.11897
-11.33635
-12.46965
-13.38915
-14.16644
-15.0643
-16.41051
-18.34449
-20.64132
-22.73776
-23.8713
-23.41874
-21.15745
-17.3188
-12.54572
-7.653084
-3.329666
-0.05297852
2.04813
3.078373
3.234486
2.763386
1.922333
0.9702606
0.1718788
-0.2678108
-0.316391
-0.06244659
0.2545471
0.3706017
0.1496887
-0.3970566
-1.148792
-1.965816
-2.781219
-3.688282
-4.804749
-6.211311
-7.935875
-9.873627
-11.80116
-13.50028
-14.7373
-15.32405
-15.17554
-14.35762
-13.02714
-11.55618
-10.3447
-9.696465
-9.678894
-10.02183
-10.21024
-9.705002
-8.187729
-5.679466
-2.575401
0.6273117
3.43615
5.6269
7.226822
8.396133
9.289124
9.940742
10.34021
10.42618
10.2859
10.03189
9.804871
9.693657
9.664925
9.639641
9.526306
9.327232
9.033737
8.703392
8.338379
7.8965
7.312157
6.480362
5.329231
3.840973
2.119843
0.2697601
-1.510933
-3.125412
-4.588852
-5.969475
-7.448616
-9.046112
-10.68642
-12.08579
-12.88177
-12.68262
-11.22882
-8.539772
-4.827141
-0.5852966
3.635757
7.255081
9.919273
11.51503
12.18603
12.20364
11.75175
10.93867
9.724487
8.081001
6.100121
4.075493
2.342316
1.128464
0.4552307
0.06673431
-0.3310928
-0.9699631
-1.872612
-2.834915
-3.618317
-4.120911
-4.475082
-4.882935
-5.524567
-6.40535
-7.372513
-8.261154
-8.951172
-9.541779
-10.27142
-11.42349
-13.04483
-15.01067
-16.89146
-18.17566
-18.39583
-17.23691
-14.6552
-10.89307
-6.433868
-1.850418
2.263855
5.538895
7.775406
8.990417
9.389008
9.24614
8.870728
8.488174
8.212448
7.946762
7.554062
6.819061
5.631897
4.097275
2.352478
0.5484772
-1.32251
-3.331345
-5.718124
-8.545898
-11.74869
-15.14827
-18.41438
-21.3141
-23.6907
-25.50917
-26.73859
-27.53864
-28.10924
-28.78981
-30.05466
-32.2621
-35.41791
-38.85957
-41.2709
-40.97771
-36.56131
-27.48645
-14.43011
0.791275
15.8495
28.62924
37.85129
43.2085
45.09627
44.24362
41.31467
36.85919
31.28773
25.17732
19.10583
13.6387
9.146622
5.625153
2.868561
0.607193
-1.245377
-2.610092
-3.123734
-2.483261
-0.5654602
2.43808
6.002335
9.451706
12.11142
13.60136
13.79224
12.84901
11.04002
8.570847
5.576736
2.10054
-1.753128
-5.685822
-9.205078
-11.69261
-12.61337
-11.72316
-9.244308
-5.690247
-1.827301
1.652618
4.31514
6.037811
7.019363
7.559219
7.978973
8.404816
8.872925
9.256561
9.447235
9.397125
9.190109
8.994705
8.906494
8.944595
8.871933
8.397659
7.266754
5.401627
2.938507
0.2043152
-2.428696
-4.722427
-6.591629
-8.152771
-9.59967
-11.08186
-12.69069
-14.35342
-16.00403
-17.58919
-19.17996
-20.92393
-22.82623
-24.74638
-26.20242
-26.62991
-25.48033
-22.49269
-17.85654
-12.12999
-6.043442
-0.2426605
4.759232
8.697556
11.50438
13.3054
14.30585
14.71568
14.73674
14.45209
13.9413
13.18105
12.17772
10.96278
9.627853
8.234177
6.800766
5.357819
3.875427
2.395981
0.9532013
-0.4072266
-1.687775
-2.884445
-3.96196
-4.881714
-5.551865
-5.986633
-6.288651
-6.636765
-7.243896
-8.255798
-9.690399
-11.44838
-13.29774
-14.93842
-16.0094
-16.08426
-14.83325
-12.10162
-8.051483
-3.167282
1.83725
6.294312
9.704712
11.83667
12.75958
12.68088
11.86386
10.60107
9.137894
7.721832
6.582748
5.81366
5.273651
4.757042
4.025391
2.93898
1.543053
-0.004981995
-1.480576
-2.682518
-3.516602
-4.0308
-4.328194
-4.497726
-4.602768
-4.657631
-4.687408
-4.65332
-4.509819
-4.205566
-3.788452
-3.34259
-3.064995
-3.12516
-3.59581
-4.469048
-5.511208
-6.389542
-6.694794
-6.164902
-4.812065
-2.944481
-1.039757
0.3646317
0.9192276
0.5649643
-0.4756393
-1.801369
-3.049812
-4.008842
-4.616066
-4.953384
-5.154953
-5.27475
-5.300049
-5.180008
-4.842613
-4.212791
-3.291756
-2.164688
-0.9488144
0.2147827
1.262199
2.186234
2.984535
3.616158
4.019424
4.11882
3.879433
3.330147
2.492401
1.431602
0.02750397
-1.901085
-4.527969
-7.84024
-11.47341
-14.76146
-16.88996
-17.2365
-15.54777
-12.14928
-7.738655
-3.163536
0.8955917
4.074699
6.331223
7.866707
8.902084
9.62619
10.09327
10.33245
10.34033
10.17233
9.875004
9.465328
9.030949
8.621799
8.310516
8.12191
8.010616
7.900818
7.640747
7.102303
6.165146
4.923206
3.534389
2.170547
0.9421844
-0.1748695
-1.303249
-2.554314
-3.995537
-5.620518
-7.364193
-9.267864
-11.42274
-13.84412
-16.28919
-18.22147
-18.88216
-17.60894
-14.15397
-8.835617
-2.546116
3.640064
8.845623
12.55613
14.73596
15.61572
15.51405
14.6889
13.33048
11.58229
9.644407
7.823545
6.367838
5.434196
5.007706
4.936975
5.003326
5.066612
5.121952
5.227945
5.457165
5.772007
6.002337
5.954361
5.466732
4.467318
3.032653
1.359712
-0.3361988
-1.942571
-3.450212
-4.897144
-6.444916
-8.194648
-10.16782
-12.23976
-13.99548
-14.9552
-14.67047
-12.98234
-10.03477
-6.29246
-2.346911
1.299488
4.334617
6.647945
8.237535
9.122099
9.321724
8.862404
7.930271
6.772545
5.662097
4.766621
4.128413
3.66945
3.32405
3.087317
2.956289
2.867094
2.69241
2.262042
1.445608
0.3238831
-0.9037781
-1.972307
-2.757031
-3.332586
-3.923983
-4.749861
-5.89455
-7.315519
-8.88003
-10.46082
-11.97071
-13.29874
-14.21141
-14.33005
-13.26045
-10.78401
-7.013552
-2.421598
2.353512
6.685017
10.18296
12.65535
14.12878
14.6994
14.56638
13.94025
13.06532
12.10249
11.11765
10.08123
8.934608
7.697033
6.486324
5.547714
4.985691
4.729012
4.50526
4.019154
3.074596
1.724716
0.157402
-1.387306
-2.718773
-3.80172
-4.689613
-5.517193
-6.44117
-7.613407
-9.193195
-11.29967
-13.84896
-16.56234
-18.87854
-20.09946
-19.61549
-17.1565
-12.92297
-7.540829
-1.870457
3.297749
7.412464
10.31437
12.12448
13.14615
13.63733
13.78638
13.70488
13.43489
13.01517
12.48774
11.88847
11.25117
10.57649
9.811836
8.914352
7.854774
6.619644
5.259323
3.758072
2.202072
0.640892
-0.8351822
-2.146339
-3.258881
-4.17923
-4.999626
-5.782822
-6.668297
-7.697968
-8.958549
-10.44679
-12.05601
-13.49467
-14.33414
-14.08871
-12.39233
-9.169754
-4.711449
0.3372345
5.225868
9.284576
12.08038
13.48693
13.6356
12.8325
11.5011
10.05459
8.828133
8.002197
7.610748
7.493813
7.521027
7.623955
7.861252
8.309303
8.954185
9.612534
9.985435
9.824493
8.989563
7.62323
5.927467
4.184151
2.478973
0.7879105
-1.033371
-3.039696
-5.186966
-7.388748
-9.566856
-11.79437
-14.18307
-16.72323
-19.10725
-20.77391
-21.03479
-19.39629
-15.82121
-10.75584
-5.039116
0.47435
5.110489
8.574402
10.88379
12.20121
12.74043
12.657
12.12072
11.26475
10.27402
9.271622
8.349594
7.556549
6.904442
6.420547
6.11692
6.005257
6.040833
6.139839
6.148727
5.984367
5.580338
4.973419
4.244423
3.380539
2.331253
0.9315414
-0.9508667
-3.32045
-6.041756
-8.887474
-11.63746
-14.15011
-16.37711
-18.20633
-19.36616
-19.38816
-17.77562
-14.3225
-9.25573
-3.324493
2.519356
7.42601
10.97315
13.23518
14.5975
15.4799
16.14779
16.60081
16.65153
16.16447
15.12412
13.70536
12.19039
10.79976
9.619453
8.650276
7.842583
7.127701
6.46212
5.814949
5.118057
4.262474
3.121445
1.636444
-0.1232834
-1.900864
-3.440765
-4.607918
-5.464821
-6.301033
-7.465752
-9.291901
-11.87579
-15.03645
-18.31371
-21.08007
-22.66164
-22.51263
-20.37341
-16.33008
-10.90224
-4.871277
0.9771881
5.976654
9.778305
12.29808
13.63301
13.96003
13.50255
12.51618
11.27679
10.04642
9.018547
8.290176
7.858612
7.671638
7.664658
7.78643
8.033623
8.337456
8.584274
8.635597
8.362511
7.677803
6.557732
5.031853
3.148415
1.036919
-1.184143
-3.379585
-5.415207
-7.212791
-8.791504
-10.25383
-11.73408
-13.41148
-15.34332
-17.35045
-19.07211
-19.88719
-19.19703
-16.59779
-12.09399
-6.135124
0.4530106
6.775436
12.13136
16.12132
18.79527
20.29082
20.88253
20.74825
19.9691
18.58603
16.70728
14.53275
12.27187
10.27579
8.683609
7.555382
6.791824
6.180519
5.526741
4.775185
3.98175
3.283249
2.817276
2.602921
2.479698
2.205475
1.582542
0.5791168
-0.6512222
-1.866203
-2.872299
-3.700775
-4.541534
-5.734444
-7.515572
-9.922798
-12.70064
-15.3689
-17.37455
-18.18953
-17.47676
-15.12876
-11.34289
-6.513008
-1.25737
3.806648
8.173508
11.46417
13.57539
14.52131
14.47984
13.65395
12.29833
10.68366
9.029297
7.543045
6.273758
5.271072
4.494888
3.956871
3.660118
3.626137
3.919006
4.507469
5.325569
6.156673
6.751366
6.82597
6.151768
4.61779
2.288033
-0.5679131
-3.622936
-6.476746
-8.909042
-10.862
-12.50768
-14.11877
-15.88403
-17.83386
-19.68752
-21.01889
-21.26802
-20.05568
-17.29128
-13.23284
-8.480713
-3.696785
0.4965973
3.745964
5.933712
7.200775
7.768478
7.845356
7.622623
7.217125
6.80883
6.547642
6.581066
6.936306
7.549549
8.228786
8.77932
9.146515
9.291733
9.316414
9.324436
9.340805
9.317652
9.160044
8.71932
7.885111
6.68549
5.074446
3.114569
0.9207134
-1.370146
-3.597279
-5.608116
-7.434414
-9.250299
-11.27476
-13.69321
-16.44024
-19.12499
-21.07959
-21.6019
-20.16575
-16.72255
-11.71129
-5.901752
-0.1527672
4.919946
8.956313
11.87233
13.72705
14.60492
14.54974
13.66626
12.11989
10.14459
8.05392
6.1588
4.620618
3.590995
3.0998
3.060928
3.29816
3.627542
3.794981
3.628568
3.061531
2.098698
0.8532724
-0.5065594
-1.814167
-2.990991
-3.968083
-4.788943
-5.548759
-6.356017
-7.262244
-8.276031
-9.349387
-10.41768
-11.51466
-12.64196
-13.66953
-14.31518
-14.14326
-12.73984
-9.898476
-5.841858
-1.119164
3.462612
7.20447
9.697857
10.90233
11.06819
10.50692
9.490252
8.172356
6.71623
5.247107
3.946547
2.924797
2.25489
1.881691
1.720825
1.668644
1.702717
1.855911
2.107338
2.368633
2.427937
2.095562
1.293434
0.08063126
-1.351204
-2.750427
-4.002174
-5.076427
-6.092297
-7.164654
-8.374523
-9.634911
-10.81456
-11.80547
-12.5538
-13.12558
-13.51299
-13.64721
-13.24444
-12.04279
-9.846031
-6.716637
-2.965214
0.8881187
4.341984
7.03838
8.879044
10.01245
10.6291
10.89018
10.78178
10.2878
9.337006
7.987511
6.428215
4.94981
3.84272
3.276012
3.214317
3.46349
3.78746
3.92572
3.664902
2.93137
1.73222
0.1835518
-1.545853
-3.328239
-5.056419
-6.714043
-8.299927
-9.824028
-11.28606
-12.74123
-14.24699
-15.85108
-17.52965
-19.06161
-20.09053
-20.15872
-18.89554
-16.19982
-12.41727
-8.111481
-3.935333
-0.351387
2.416199
4.321968
5.459763
5.973175
6.033112
5.780067
5.425041
5.176254
5.210403
5.588669
6.231834
6.977448
7.63681
8.054108
8.111588
7.779236
7.090691
6.103821
4.970108
3.790367
2.661263
1.631752
0.7108917
-0.1556091
-1.031403
-2.009064
-3.174278
-4.608681
-6.366302
-8.43454
-10.71162
-12.96764
-14.83722
-15.83321
-15.50146
-13.55016
-9.980988
-5.100319
0.4837494
6.058952
10.95528
14.67062
16.95156
17.82063
17.4538
16.17716
14.44129
12.65646
11.24598
10.39352
10.08778
10.0876
10.05138
9.566185
8.33609
6.277672
3.488976
0.2538834
-3.145866
-6.459564
-9.565956
-12.41398
-15.01697
-17.32452
-19.2449
-20.6624
-21.47519
-21.71671
-21.49812
-20.99606
-20.42143
-19.86115
-19.26617
-18.43002
-17.04664
-14.77679
-11.47495
-7.185204
-2.144875
3.144455
8.184517
12.51643
15.78644
17.74411
18.34177
17.7394
16.26402
14.37621
12.49731
10.94708
9.852112
9.165146
8.699905
8.291672
7.797081
7.068848
5.929222
4.253433
2.037079
-0.6160355
-3.475227
-6.255318
-8.663681
-10.45398
-11.41005
-11.43777
-10.57078
-8.990112
-7.037758
-5.18055
-3.815735
-3.237045
-3.526428
-4.551155
-5.979637
-7.297256
-7.948082
-7.432274
-5.487389
-2.258865
1.742523
5.768478
9.096657
11.25539
12.2001
12.13478
11.44244
10.47285
9.41787
8.351631
7.316338
6.355301
5.551376
4.989807
4.740044
4.79425
5.050842
5.401794
5.692612
5.830673
5.751015
5.397461
4.709457
3.669044
2.293884
0.7108307
-0.8999023
-2.33432
-3.474457
-4.361298
-5.109909
-5.974632
-7.188843
-8.856995
-10.79782
-12.64822
-13.86395
-13.93991
-12.58958
-9.792526
-5.926384
-1.576202
2.643448
6.267441
9.114433
11.15579
12.50697
13.29118
13.62463
13.59006
13.23919
12.59722
11.67564
10.52429
9.184227
7.752754
6.375778
5.194092
4.272247
3.565361
2.839676
1.866928
0.4769745
-1.355431
-3.514656
-5.828568
-8.086372
-10.1679
-11.98035
-13.52448
-14.84118
-16.01144
-17.17584
-18.44097
-19.85156
-21.1925
-22.07818
-21.99712
-20.52474
-17.54802
-13.33279
-8.48671
-3.76799
0.1455002
2.927895
4.563438
5.344261
5.631035
5.770668
5.927856
6.086769
6.177101
6.066162
5.712837
5.137955
4.49173
3.93438
3.602524
3.5522
3.70549
3.914368
4.001732
3.837936
3.342003
2.479279
1.246246
-0.3954697
-2.40377
-4.622803
-6.797195
-8.606857
-9.85704
-10.55363
-10.93169
-11.36652
-12.18794
-13.51716
-15.12637
-16.50463
-17.00925
-16.11373
-13.57654
-9.603081
-4.747993
0.2594109
4.760689
8.392513
11.09933
13.05187
14.40707
15.24386
15.52494
15.16203
14.20367
12.80769
11.21721
9.624458
8.128242
6.717667
5.332748
3.992283
2.803913
1.943554
1.525303
1.575024
1.96175
2.483727
2.959637
3.249615
3.377506
3.456417
3.647537
4.028927
4.577065
5.151176
5.546509
5.587635
5.151897
4.200298
2.745827
0.8878708
-1.175747
-3.080601
-4.338551
-4.462746
-3.158005
-0.4805412
3.079445
6.815559
10.04166
12.35713
13.7236
14.33074
14.39124
14.01298
13.15261
11.72211
9.761822
7.503384
5.393513
3.888607
3.284859
3.640839
4.806667
6.494843
8.340912
9.999245
11.18821
11.69683
11.39847
10.25747
8.373142
5.98262
3.383659
0.8419762
-1.510605
-3.632854
-5.643845
-7.667946
-9.791801
-11.94234
-13.87176
-15.19447
-15.56358
-14.75639
-12.6855
-9.559929
-5.701988
-1.592773
2.269623
5.432076
7.639244
8.854462
9.193184
8.912048
8.196022
7.202515
6.044632
4.819901
3.631798
2.649979
2.066864
1.937683
2.244583
2.835602
3.436356
3.801384
3.683716
2.967461
1.680481
0.01825714
-1.794777
-3.509102
-4.96077
-6.104416
-7.009834
-7.778183
-8.45327
-9.066383
-9.5037
-9.670464
-9.405754
-8.525078
-6.884514
-4.388382
-1.170296
2.52903
6.289154
9.694183
12.38924
14.19855
15.03219
14.82764
13.57159
11.14304
7.504852
2.797356
-2.609077
-8.125114
-13.08833
-16.94463
-19.40627
-20.45082
-20.36711
-19.56657
-18.4278
-17.24367
-16.16012
-15.27616
-14.60648
-14.23801
-14.24086
-14.69791
-15.58129
-16.75414
-18.00846
-19.07992
-19.76438
-19.84169
-19.13075
-17.45454
-14.6827
-10.80616
-5.995674
-0.7060394
4.528625
9.079559
12.52815
14.69076
15.62798
15.59225
14.83378
13.56319
11.84654
9.793266
7.539055
5.351303
3.547668
2.372215
1.941475
2.117111
2.646553
3.182404
3.480675
3.368965
2.766846
1.667999
0.1508865
-1.635735
-3.523666
-5.303391
-6.862083
-8.168236
-9.325829
-10.50279
-11.83321
-13.38262
-14.98569
-16.32099
-16.90948
-16.24705
-14.00386
-10.14638
-5.129578
0.3516464
5.486794
9.636467
12.54517
14.25206
14.98743
14.9349
14.2149
12.81242
10.8027
8.410599
6.019119
3.988983
2.553474
1.737495
1.398994
1.406288
1.680382
2.225914
3.000732
3.865891
4.555298
4.780457
4.377686
3.405968
2.058647
0.591095
-0.8605194
-2.322563
-3.895897
-5.651367
-7.571365
-9.515778
-11.27202
-12.6978
-13.6049
-13.81514
-13.14635
-11.41826
-8.614189
-4.929749
-0.786377
3.24485
6.608505
8.991966
10.33344
10.80003
10.67278
10.20512
9.627373
9.053665
8.538681
8.046829
7.544296
6.98893
6.412056
5.915497
5.607697
5.628067
5.996452
6.598351
7.214722
7.588356
7.502129
6.847336
5.690857
4.089172
2.185684
0.118782
-2.00116
-4.038162
-5.914108
-7.635796
-9.298866
-10.93357
-12.58801
-14.0881
-15.0815
-15.13541
-13.87007
-11.189
-7.320473
-2.786011
1.764282
5.754082
8.86879
10.99596
12.2645
12.86988
12.97974
12.69992
12.07972
11.1124
9.846329
8.418922
7.04686
5.947815
5.276955
5.083336
5.257477
5.614243
5.915894
5.954544
5.619804
4.930504
3.905289
2.610146
1.119026
-0.4508896
-1.987946
-3.349281
-4.513924
-5.548233
-6.555466
-7.663055
-8.938469
-10.38509
-11.8207
-12.94186
-13.29672
-12.47002
-10.18729
-6.511467
-1.877953
2.973099
7.211304
10.21172
11.75953
12.0576
11.56069
10.69411
9.691055
8.548233
7.197311
5.609451
3.882446
2.295174
1.135612
0.5276489
0.4144135
0.583931
0.7833481
0.9058151
0.9477692
1.002464
1.120827
1.265549
1.269691
0.9339218
0.1283112
-1.12748
-2.645752
-4.183525
-5.594368
-6.87114
-8.141937
-9.540321
-11.04561
-12.40618
-13.1817
-12.92126
-11.28497
-8.31295
-4.342918
0.03430176
4.243111
7.82785
10.52495
12.27571
13.11874
13.18755
12.57936
11.38927
9.773628
7.954224
6.173126
4.660637
3.556313
2.844788
2.474442
2.320602
2.217453
2.089027
1.848709
1.490791
1.027328
0.5620804
0.1485367
-0.1274414
-0.2507248
-0.2444992
-0.1597977
-0.128479
-0.280571
-0.7842102
-1.662033
-2.880066
-4.185616
-5.220985
-5.616768
-5.144356
-3.804169
-1.797668
0.6098557
3.164398
5.68232
8.04541
10.11832
11.679
12.49577
12.4583
11.62119
10.30978
8.882263
7.637993
6.706802
6.023903
5.444489
4.892143
4.425316
4.133675
4.073334
4.191971
4.285797
4.167175
3.718208
2.958809
2.006866
1.008614
0.0218277
-0.9985504
-2.152878
-3.547058
-5.244019
-7.243179
-9.470406
-11.72467
-13.69902
-14.98922
-15.15052
-13.88313
-11.16979
-7.287941
-2.79882
1.638374
5.413094
8.12101
9.702484
10.29245
10.14771
9.532211
8.603409
7.465378
6.185013
4.848221
3.564957
2.605331
2.11174
2.151489
2.683578
3.502457
4.360535
5.016663
5.251556
4.918228
3.985886
2.494919
0.60495
-1.44017
-3.386642
-5.044556
-6.282455
-7.153961
-7.759918
-8.279785
-8.880157
-9.62262
-10.49255
-11.3714
-12.0511
-12.1877
-11.51315
-9.79158
-7.048996
-3.617569
0.01693726
3.280136
5.692383
7.054291
7.442688
7.108261
6.443588
5.72702
5.107468
4.656677
4.310303
4.023117
3.778244
3.617752
3.574326
3.673599
3.883301
4.055527
4.099594
3.853531
3.203186
2.153656
0.7171936
-0.9853821
-2.798828
-4.522141
-6.03743
-7.200653
-8.019165
-8.632263
-9.179184
-9.84436
-10.75714
-11.96109
-13.36475
-14.71986
-15.58318
-15.53912
-14.26376
-11.73746
-8.308655
-4.510178
-1.000412
1.771317
3.649521
4.780594
5.373672
5.597534
5.489716
4.932053
3.921371
2.588913
1.203857
0.09143066
-0.5017395
-0.582077
-0.3382263
-0.01347351
0.1066284
-0.0690155
-0.5198364
-1.183105
-2.013443
-3.006439
-4.180923
-5.495773
-6.82637
-8.05014
-9.061386
-9.850372
-10.48572
-11.09489
-11.77142
-12.56773
-13.39412
-14.03276
-14.18394
-13.5327
-11.87013
-9.169693
-5.679001
-1.829651
1.82785
4.883163
7.152771
8.714966
9.887741
11.022
12.37315
14.05008
16.02907
18.25998
20.65718
23.13437
25.50075
27.51054
28.82907
29.12096
28.19273
26.00658
22.6931
18.44141
13.51425
8.105637
2.5392
-2.846268
-7.633362
-11.50775
-14.27635
-16.0285
-17.08626
-17.86481
-18.7948
-20.08827
-21.81334
-23.78232
-25.70404
-27.166
-27.73604
-27.05685
-24.918
-21.41182
-16.9201
-12.06198
-7.514893
-3.815521
-1.214996
0.3983154
1.344788
2.018387
2.672028
3.363419
4.01149
4.501923
4.807465
4.986603
5.177017
5.415955
5.652191
5.65979
5.183456
4.066238
2.344238
0.2544556
-1.91803
-3.918457
-5.715714
-7.384247
-9.042267
-10.75833
-12.46411
-14.01682
-15.30621
-16.35085
-17.28831
-18.39948
-19.88252
-21.79753
-23.96432
-25.99612
-27.41493
-27.83295
-27.05141
-25.01126
-21.8148
-17.59206
-12.44583
-6.579391
-0.2927399
5.974823
11.78419
16.78467
20.88431
24.1656
26.76248
28.65567
29.6675
29.57585
28.31639
26.09354
23.3338
20.52675
17.95807
15.65546
13.45125
11.17128
8.803299
6.51709
4.539169
2.97438
1.715836
0.4730682
-1.081818
-3.17244
-5.804367
-8.786926
-11.82413
-14.63147
-16.99606
-18.79254
-19.96878
-20.41022
-19.9825
-18.54649
-16.06433
-12.63518
-8.57666
-4.320038
-0.3242035
2.986145
5.382553
6.752335
7.144989
6.675659
5.576492
4.117355
2.585968
1.274506
0.3725891
-0.02069092
0.04862976
0.4558868
1.003525
1.543869
1.957657
2.246246
2.455261
2.673935
2.933212
3.179047
3.338364
3.391907
3.320862
3.124268
2.815948
2.320145
1.531204
0.3294983
-1.343124
-3.488358
-5.973236
-8.629562
-11.25211
-13.50713
-15.05524
-15.56416
-14.81094
-12.85008
-10.02222
-6.82756
-3.771164
-1.169724
0.9339142
2.629257
4.014099
5.181122
6.069901
6.604889
6.781708
6.654808
6.336098
5.948051
5.561279
5.171761
4.795967
4.369667
3.87516
3.333115
2.783386
2.287148
1.895744
1.520187
0.9824905
0.1478958
-1.089859
-2.64753
-4.309769
-5.867699
-7.125626
-8.031288
-8.723862
-9.445023
-10.49685
-12.09412
-14.33117
-17.01669
-19.76682
-21.93958
-22.91346
-22.2309
-19.73449
-15.70802
-10.67765
-5.391113
-0.4905167
3.547981
6.537308
8.533371
9.727913
10.32697
10.40365
10.00917
9.17535
8.070541
6.942768
6.05064
5.516422
5.291351
5.194675
4.969326
4.531776
3.96455
3.434799
3.12896
3.043453
3.047604
2.923714
2.519615
1.706263
0.5415211
-0.9198456
-2.590714
-4.344065
-6.124275
-7.805134
-9.342728
-10.73789
-12.11089
-13.59776
-15.32964
-17.20545
-18.87045
-19.75518
-19.24763
-16.97257
-12.95321
-7.661132
-1.787857
3.898988
8.908719
13.01477
16.289
18.85857
20.79824
22.09604
22.66489
22.51613
21.70312
20.39499
18.76236
16.97282
15.09199
13.13378
11.12458
9.148602
7.393402
6.033401
5.191029
4.843895
4.820072
4.81868
4.57626
3.932369
2.874687
1.52367
0.03674316
-1.463303
-2.966606
-4.472984
-6.038231
-7.686996
-9.445229
-11.40026
-13.62672
-16.09114
-18.59418
-20.73383
-21.90128
-21.53123
-19.26559
-15.18326
-9.762718
-3.752167
2.106567
7.218102
11.19268
13.93394
15.47161
15.94008
15.48642
14.31321
12.66799
10.85493
9.151947
7.748024
6.815872
6.355484
6.323433
6.583069
6.923035
7.181847
7.219147
7.025833
6.636139
6.198112
5.732063
5.189011
4.405914
3.164856
1.358582
-0.9233246
-3.377747
-5.649124
-7.440826
-8.717926
-9.688385
-10.64096
-11.90318
-13.61348
-15.70392
-17.8544
-19.65144
-20.58482
-20.21877
-18.25711
-14.59459
-9.538116
-3.611328
2.429459
7.929901
12.39175
15.60242
17.60333
18.56252
18.7491
18.33955
17.58459
16.67422
15.82697
15.18102
14.71756
14.31363
13.8127
13.09468
12.16075
11.1409
10.18263
9.38179
8.693283
7.943771
6.877304
5.336334
3.279968
0.8139191
-1.795486
-4.213989
-6.15506
-7.432358
-8.11969
-8.487198
-8.932831
-9.924057
-11.75285
-14.43001
-17.64441
-20.75966
-22.98654
-23.69576
-22.51585
-19.45345
-14.89281
-9.348404
-3.374985
2.510376
7.922409
12.53323
16.00832
18.18823
19.02383
18.71042
17.6532
16.33179
15.13487
14.29485
13.89914
13.87999
14.1664
14.56464
14.88669
14.95955
14.68765
14.078
13.26883
12.37729
11.4249
10.33804
8.898346
6.940735
4.514587
1.822906
-0.8738098
-3.351837
-5.568909
-7.617279
-9.634521
-11.77594
-14.15152
-16.72598
-19.45172
-22.14871
-24.5087
-26.05991
-26.27017
-24.69357
-21.19501
-16.05872
-9.897736
-3.58197
2.148529
6.743164
10.02264
12.07092
13.10657
13.39502
13.14191
12.54071
11.70325
10.84372
10.12177
9.66806
9.524353
9.638214
9.87027
9.992615
9.87738
9.399933
8.597382
7.645752
6.695892
5.873505
5.161865
4.37027
3.216034
1.540588
-0.6898193
-3.285339
-6.003113
-8.633301
-11.14294
-13.61771
-16.17358
-18.84039
-21.39673
-23.4505
-24.51645
-24.11151
-22.00143
-18.17493
-12.96423
-6.917633
-0.7330017
4.959534
9.672882
13.13943
15.40692
16.61987
17.02603
16.83118
16.19897
15.30453
14.30939
13.3996
12.68567
12.27029
12.12521
12.16812
12.30276
12.48206
12.66608
12.772
12.63492
12.02127
10.7507
8.720215
6.082123
3.132996
0.2119751
-2.369598
-4.577972
-6.525116
-8.481873
-10.69965
-13.35632
-16.46716
-19.81833
-23.0657
-25.67932
-27.08984
-26.78104
-24.54132
-20.45032
-14.99207
-8.893524
-2.833649
2.594727
7.104492
10.56036
13.01358
14.50513
15.18851
15.23404
14.84158
14.23877
13.54013
12.84845
12.10165
11.2905
10.39001
9.386749
8.332947
7.235657
6.159729
5.077728
4.035583
2.951843
1.778595
0.4179382
-1.142944
-2.786774
-4.30249
-5.459961
-6.24884
-6.834595
-7.660522
-9.242096
-11.88373
-15.54584
-19.62054
-23.15335
-25.0726
-24.68204
-21.76587
-16.70663
-10.3252
-3.529602
2.851257
8.270355
12.46188
15.35486
16.97159
17.42651
16.94394
15.81039
14.45297
13.27643
12.57138
12.4967
13.04404
14.10593
15.50363
17.09036
18.70557
20.23264
21.45648
22.1561
22.125
21.24374
19.5311
17.18051
14.46359
11.63455
8.893768
6.322693
3.839539
1.233154
-1.819244
-5.728271
-10.75385
-16.91574
-23.79187
-30.47052
-35.74789
-38.49374
-37.98718
-34.22125
-27.91763
-20.22498
-12.37112
-5.304962
0.5212097
5.03656
8.34491
10.61093
11.84409
11.9826
11.08871
9.386902
7.284363
5.270111
3.731964
2.874969
2.70816
3.094879
3.837128
4.765442
5.754852
6.641144
7.261169
7.396362
6.880524
5.6763
3.929657
1.949127
0.07531738
-1.437195
-2.577026
-3.542969
-4.708374
-6.467163
-9.032318
-12.35751
-16.07236
-19.59622
-22.22559
-23.31967
-22.38644
-19.31131
-14.36243
-8.204987
-1.701843
4.299438
9.123474
12.4516
14.32336
15.04602
15.04785
14.68225
14.15802
13.54218
12.87677
12.19159
11.57361
11.12152
10.90137
10.93585
11.18774
11.56744
11.94598
12.18549
12.16821
11.78406
10.95123
9.610229
7.787476
5.566223
3.121399
0.628418
-1.805725
-4.128906
-6.419312
-8.826416
-11.55182
-14.67389
-18.09448
-21.42548
-24.06824
-25.37939
-24.82556
-22.21252
-17.69434
-11.79999
-5.240662
1.22583
6.935242
11.43115
14.47845
16.07031
16.38239
15.80481
14.7464
13.63013
12.73755
12.1897
11.9798
12.03131
12.23035
12.4989
12.80847
13.11572
13.35742
13.44025
13.2821
12.76782
11.86102
10.49927
8.716492
6.569763
4.218933
1.829651
-0.437561
-2.459778
-4.312134
-6.111938
-8.096619
-10.45294
-13.22754
-16.23126
-19.00751
-20.92859
-21.33624
-19.78149
-16.13507
-10.74792
-4.353027
2.167114
7.94043
12.40399
15.27838
16.60107
16.53839
15.3678
13.34711
10.78876
8.098328
5.641968
3.790649
2.682861
2.284119
2.412964
2.84314
3.394104
3.989136
4.664917
5.398682
6.23175
7.184204
8.265503
9.475769
10.71838
11.77399
12.33411
12.13153
10.96069
8.846619
5.969116
2.51123
-1.372864
-5.671814
-10.3927
-15.47144
-20.54016
-24.96368
-27.85773
-28.3985
-26.11957
-21.13782
-14.19061
-6.405273
1.049622
7.234009
11.64667
14.25073
15.33887
15.31042
14.67389
13.90582
13.39941
13.42603
14.00458
14.95947
15.95721
16.66541
16.79938
16.35718
15.45898
14.32147
13.14856
12.02515
10.95129
9.811401
8.486877
6.802429
4.737549
2.37561
-0.1051025
-2.483826
-4.660706
-6.619812
-8.535522
-10.60504
-13.06537
-15.96619
-19.16394
-22.31909
-24.81573
-26.03906
-25.38397
-22.5517
-17.59979
-11.0246
-3.620728
3.693054
10.11737
15.19635
18.71295
20.758
21.45343
21.01392
19.63861
17.57587
15.14557
12.73901
10.79529
9.558167
9.123169
9.315979
9.862183
10.48999
11.01062
11.38025
11.59253
11.66241
11.4353
10.66742
9.106079
6.698486
3.703644
0.507782
-2.471191
-5.03537
-7.234589
-9.335663
-11.6456
-14.33685
-17.36938
-20.44922
-23.12878
-24.89896
-25.30212
-23.95627
-20.74997
-15.90854
-9.996582
-3.81192
1.886658
6.568512
10.06378
12.42548
13.88318
14.58191
14.60843
13.96619
12.71362
11.05643
9.277985
7.772858
6.800507
6.494659
6.811676
7.596375
8.657135
9.801575
10.93195
11.96176
12.78793
13.25989
13.22583
12.54724
11.27875
9.583069
7.630157
5.537689
3.24823
0.5280457
-2.903992
-7.195374
-12.31378
-18.01764
-23.81439
-29.09018
-33.10922
-35.10294
-34.52188
-31.1958
-25.45685
-18.08456
-10.146
-2.58255
3.928619
9.083344
12.88565
15.41092
16.75928
16.96661
16.18527
14.65555
12.74496
10.88046
9.375061
8.370544
7.828979
7.602081
7.537231
7.552734
7.608459
7.636169
7.499542
7.002502
5.973145
4.294861
2.004944
-0.6892395
-3.572601
-6.429779
-9.105743
-11.57434
-13.86703
-16.02066
-18.15793
-20.35083
-22.53387
-24.4874
-25.74329
-25.61765
-23.53171
-19.27209
-13.10483
-5.859314
1.369781
7.569519
12.09512
14.78851
15.91495
15.91663
15.24963
14.25986
13.24689
12.41595
11.94629
11.95706
12.45035
13.30124
14.30426
15.29767
16.13574
16.73944
17.09171
17.16757
16.87994
16.15622
14.8595
12.90018
10.33276
7.347382
4.155426
0.9911804
-1.998596
-4.849457
-7.628387
-10.50507
-13.62723
-17.05267
-20.69263
-24.23486
-27.20395
-28.98907
-28.9787
-26.82428
-22.49011
-16.43939
-9.397156
-2.2099
4.431671
10.05869
14.44275
17.51868
19.32617
19.96536
19.51968
18.20041
16.19418
13.78445
11.22299
8.727966
6.377319
4.307404
2.586456
1.304413
0.5724487
0.2826538
0.2720642
0.2334595
-0.06344604
-0.8228455
-1.98172
-3.406982
-4.897827
-6.288757
-7.607788
-8.985199
-10.58081
-12.51402
-14.82938
-17.3877
-19.93399
-22.04446
-23.17561
-22.89131
-20.94579
-17.3568
-12.50217
-7.02681
-1.608002
3.115921
6.6866
8.975418
10.03572
10.11836
9.620956
8.939606
8.383453
8.141144
8.217941
8.512192
8.912338
9.279449
9.570496
9.758133
9.809158
9.665421
9.207123
8.31395
6.877274
4.897675
2.410828
-0.4155731
-3.353195
-6.211227
-8.82991
-11.12466
-13.12752
