-10.85855
-12.34567
-14.5377
-17.45428
-20.7798
-24.00494
-26.50424
-27.66422
-26.99496
-24.32324
-19.8311
-14.00906
-7.640137
-1.539932
3.565323
7.271698
9.510818
10.56192
10.82518
10.6631
10.25328
9.638885
8.831818
7.884216
6.951141
6.265381
6.008087
6.219513
6.781174
7.475662
8.029427
8.308441
8.287064
8.044373
7.749374
7.473083
7.185959
6.773567
6.110184
5.107819
3.811676
2.350998
0.8458176
-0.6080856
-2.074104
-3.656677
-5.504005
-7.667801
-10.15594
-12.90524
-15.81351
-18.79378
-21.67561
-24.21435
-25.96616
-26.4034
-25.05099
-21.71816
-16.58981
-10.28132
-3.667961
2.422417
7.353119
10.90611
13.14678
14.33242
14.7523
14.6138
14.07391
13.24872
12.28748
11.36703
10.68406
10.35647
10.41794
10.80291
11.35757
11.96735
12.55083
13.11507
13.63531
14.05944
14.25903
14.08222
13.5165
12.5594
11.32366
9.854949
8.131599
6.053707
3.551982
0.6741724
-2.392475
-5.360212
-8.033572
-10.32063
-12.29893
-14.11139
-15.91524
-17.81734
-19.86173
-22.02664
-24.12854
-25.82748
-26.5674
-25.75728
-23.00401
-18.29173
-12.11639
-5.298508
1.215412
6.745617
10.9554
13.94194
15.97231
17.35691
18.27179
18.79257
18.94359
18.78613
18.48309
18.24347
18.22439
18.46499
18.91809
19.40142
19.78053
19.9351
19.82055
19.40742
18.69477
17.59556
16.04887
13.99358
11.46595
8.636742
5.754501
3.131981
0.9729767
-0.6563034
-1.85733
-2.815735
-3.750633
-4.822182
-6.114349
-7.616661
-9.310066
-11.17556
-13.29996
-15.77665
-18.61478
-21.6675
-24.47087
-26.37013
-26.61981
-24.79105
-20.81033
-15.17132
-8.696182
-2.298859
3.320847
7.824913
11.23438
13.77657
15.57443
16.6834
17.00987
16.49504
15.17764
13.34261
11.46333
10.05844
9.542252
9.989868
11.17728
12.65529
13.94814
14.73814
14.89371
14.54996
13.8672
12.96385
11.83228
10.43614
8.757553
6.807617
4.751724
2.698257
0.7747345
-1.001831
-2.61409
-4.05629
-5.288574
-6.296631
-7.211487
-8.2267
-9.693405
-11.86829
-14.7767
-18.05363
-20.95457
-22.595
-22.20375
-19.44203
-14.49338
-8.05658
-1.109467
5.406219
10.80183
14.83586
17.54976
19.23978
20.21484
20.74933
20.91345
20.6824
20.06302
19.11203
18.05833
17.12772
16.54181
16.36902
16.6244
17.18773
17.88173
18.57382
19.09442
19.34613
19.22183
18.67285
17.70068
16.37006
14.80067
13.06638
11.23941
9.31134
7.28595
5.128265
2.841599
0.4136658
-2.133667
-4.695648
-7.210495
-9.625656
-12.00848
-14.48973
-17.24586
-20.34555
-23.63536
-26.69821
-28.88052
-29.44498
-27.83737
-23.9366
-18.09731
-11.08655
-3.836258
2.846313
8.474289
12.89771
16.22202
18.60754
20.14821
20.87022
20.88654
20.35217
19.52113
18.62576
17.79732
17.10231
16.55989
16.20874
16.09477
16.29247
16.77113
17.39293
17.93637
18.13498
17.76999
16.77367
15.19792
13.1946
10.9613
8.692291
6.559006
4.701782
3.133087
1.781357
0.5127106
-0.8118896
-2.276321
-3.865189
-5.487762
-6.982819
-8.201736
-9.170227
-10.09972
-11.34804
-13.27263
-16.05331
-19.51479
-23.06445
-25.81194
-26.83051
-25.51797
-21.81462
-16.21629
-9.614227
-2.933212
3.058304
7.947693
11.63086
14.20172
15.82907
16.68277
16.90594
16.62993
16.05408
15.36227
14.79922
14.49783
14.49561
14.71382
15.02721
15.31067
15.45909
15.44005
15.28223
15.06088
14.74976
14.25717
13.44113
12.18825
10.53174
8.604401
6.643158
4.856285
3.357521
2.132507
1.057541
-0.004730225
-1.168533
-2.454475
-3.874184
-5.374046
-6.909355
-8.405602
-9.806442
-11.10059
-12.35996
-13.76388
-15.47201
-17.49462
-19.56261
-21.0923
-21.38468
-19.85719
-16.31233
-11.06162
-4.925079
1.130653
6.270699
10.00203
12.24438
13.18825
13.15249
12.42618
11.22881
9.716534
8.125275
6.727505
5.752972
5.343529
5.395901
5.702938
5.996334
6.09111
5.961693
5.774128
5.704159
5.818821
6.066328
6.230043
6.158239
5.805246
5.289913
4.770819
4.341664
3.951266
3.404912
2.571802
1.348142
-0.1869221
-1.917714
-3.703323
-5.531743
-7.433681
-9.459076
-11.59896
-13.73015
-15.76409
-17.61999
-19.33584
-20.99121
-22.55935
-23.84334
-24.44105
-23.86844
-21.70953
-17.9665
-12.9535
-7.379967
-2.059547
2.385265
5.642262
7.731827
8.81105
9.114853
8.737003
7.779652
6.347122
4.614948
2.877663
1.464092
0.6253853
0.3835258
0.6947937
1.360966
2.184303
2.983768
3.622322
4.009476
4.087494
3.829666
3.250839
2.402176
1.333939
0.1154099
-1.163078
-2.403404
-3.488953
-4.395828
-5.122437
-5.707085
-6.224358
-6.769562
-7.40094
-8.186501
-9.247971
-10.70567
-12.69678
-15.20993
-18.0206
-20.6704
-22.60455
-23.23496
-22.14232
-19.24391
-14.80909
-9.414726
-3.833405
1.213623
5.186287
7.881607
9.40078
10.09572
10.37174
10.54131
10.75513
10.91916
10.84521
10.36612
9.452972
8.242233
6.98587
5.944145
5.276733
4.97467
4.881241
4.801781
4.605492
4.232986
3.671486
2.91925
1.970787
0.8183517
-0.4727707
-1.8004
-3.045723
-4.079086
-4.849258
-5.370041
-5.743011
-6.0737
-6.475449
-7.048309
-7.874847
-9.089996
-10.75758
-12.90158
-15.38463
-17.93977
-20.14613
-21.52467
-21.6015
-20.08321
-16.99889
-12.64696
-7.572723
-2.352158
2.47226
6.500748
9.442932
11.15515
11.60893
10.8826
9.283371
7.186798
5.061569
3.292068
2.140701
1.635605
1.703766
2.21167
3.00293
4.007675
5.075363
6.072769
6.780594
7.069504
6.866165
6.230331
5.316177
4.263931
3.1754
1.997482
0.6747131
-0.8775635
-2.655777
-4.573639
-6.492676
-8.251831
-9.759216
-10.95227
-11.89069
-12.71332
-13.56216
-14.63045
-16.02808
-17.787
-19.71849
-21.49731
-22.60037
-22.4662
-20.67284
-17.12769
-12.19775
-6.598282
-1.232834
3.205856
6.338806
8.236969
9.217834
9.633896
9.687149
9.418365
8.831223
7.98497
7.071335
6.302811
5.840271
5.715561
5.865875
6.171036
6.561432
7.000427
7.478027
7.966171
8.409775
8.718109
8.82164
8.67836
8.238174
7.479721
6.352875
4.861328
3.087204
1.18309
-0.6902771
-2.415665
-3.929443
-5.272278
-6.548035
-7.909195
-9.466248
-11.33208
-13.5219
-16.007
-18.70753
-21.46454
-23.93283
-25.57982
-25.80554
-24.09007
-20.30809
-14.8501
-8.522964
-2.28804
3.010818
6.947235
9.525787
10.99026
11.60321
11.54202
10.87173
9.647507
8.040375
6.303299
4.721756
3.556992
2.944427
2.853394
3.194504
3.822403
4.589981
5.364441
6.027756
6.455841
6.540771
6.210876
5.475998
4.351685
2.941391
1.352585
-0.2592468
-1.78215
-3.108093
-4.230423
-5.213211
-6.190506
-7.330765
-8.773666
-10.54034
-12.50862
-14.56885
-16.57994
-18.47681
-20.24147
-21.76758
-22.81152
-23.05132
-22.13008
-19.86343
-16.38344
-12.10124
-7.529572
-3.218506
0.4474182
3.30629
5.360916
6.728241
7.541138
7.871719
7.750137
7.225616
6.335541
5.251312
4.211533
3.459656
3.222351
3.533371
4.238159
5.086777
5.782501
6.126266
6.120239
5.871094
5.523575
5.191147
4.85463
4.399872
3.726608
2.718979
1.397842
-0.127533
-1.676453
-3.135963
-4.473541
-5.670998
-6.819572
-7.995827
-9.283676
-10.75653
-12.46722
-14.40071
-16.50907
-18.57025
-20.15706
-20.78714
-19.95807
-17.44864
-13.40281
-8.336662
-2.989532
1.912727
5.869682
8.720764
10.57829
11.7246
12.459
12.96291
13.25757
13.29568
13.02249
12.40644
11.57501
10.73119
10.04607
9.639946
9.437996
9.279259
9.002625
8.588234
8.114449
7.727036
7.463249
7.223267
6.841507
6.130318
5.029121
3.584846
1.965569
0.3216934
-1.212212
-2.578148
-3.79612
-4.910851
-6.070442
-7.387321
-8.892509
-10.57803
-12.41219
-14.40911
-16.67969
-19.28954
-22.0922
-24.6423
-26.25341
-26.14856
-23.88791
-19.59486
-13.9081
-7.783512
-2.115398
2.553452
6.037464
8.444332
9.991489
10.8852
11.26867
11.35778
11.31949
11.32869
11.5018
11.83351
12.23542
12.60815
12.91522
13.16635
13.44759
13.71906
13.90734
13.88257
13.58026
13.02576
12.271
11.45177
10.61571
9.858149
9.128323
8.380283
7.549419
6.559205
5.371464
3.93888
2.235377
0.2669144
-1.84907
-4.02951
-6.1365
-8.047784
-9.759756
-11.37789
-13.09562
-15.15736
-17.76493
-20.76952
-23.74413
-25.97725
-26.67541
-25.30755
-21.82936
-16.7322
-10.83455
-5.117494
-0.2368774
3.537374
6.302352
8.385319
10.07122
11.50286
12.65586
13.43873
13.77814
13.7579
13.52256
13.27019
13.17048
13.25826
13.52142
13.90721
14.36123
14.80713
15.26011
15.64612
15.93738
16.10851
16.03495
15.60619
14.79171
13.61623
12.15982
10.59765
9.007744
7.398182
5.77869
4.092445
2.365685
0.66325
-0.9318695
-2.408085
-3.78442
-5.187733
-6.722755
-8.440567
-10.35022
-12.44511
-14.77848
-17.39582
-20.28533
-23.18459
-25.56059
-26.72331
-26.00899
-23.17394
-18.41405
-12.45176
-6.24913
-0.6671982
3.764439
6.928829
9.023174
10.36853
11.17097
11.61132
11.77951
11.77283
11.69661
11.65266
11.68201
11.71262
11.68
11.49274
11.18764
10.89015
10.75463
10.87825
11.25051
11.76494
12.20537
12.44936
12.34641
11.86184
11.02401
9.930244
8.706894
7.460213
6.278442
5.133102
3.901917
2.4188
0.5536652
-1.707237
-4.166626
-6.503571
-8.425316
-9.792503
-10.72735
-11.52399
-12.56524
-14.13298
-16.29883
-18.84822
-21.40271
-23.46494
-24.5797
-24.38481
-22.66188
-19.40885
-14.88844
-9.598633
-4.1931
0.6690979
4.513794
7.176788
8.808838
9.757172
10.36212
10.80118
11.08548
11.14647
10.95512
10.61926
10.36492
10.34077
10.66783
11.22812
11.83398
12.32237
12.6611
12.90976
13.18203
13.47529
13.6104
13.3385
12.39462
10.71497
8.435318
5.844276
3.270149
0.9438782
-1.069633
-2.854912
-4.533592
-6.200157
-7.882324
-9.56958
-11.25556
-12.96858
-14.82055
-16.92417
-19.34589
-22.06374
-24.80008
-27.04684
-28.12292
-27.3773
-24.40646
-19.26499
-12.53206
-5.128815
1.931175
7.833031
12.20411
15.04987
16.64688
17.35378
17.47887
17.21828
16.69579
15.99826
15.18963
14.40411
13.75021
13.35355
13.29059
13.50831
13.84676
14.07191
14.02536
13.66364
13.10588
12.5191
12.03684
11.64874
11.17927
10.46906
9.391464
8.001106
6.424309
4.837135
3.216522
1.495628
-0.4844284
-2.885712
-5.686058
-8.750999
-11.82458
-14.71898
-17.27637
-19.58845
-21.79727
-24.07154
-26.4593
-28.75147
-30.51411
-31.17381
-30.22568
-27.38161
-22.74548
-16.75149
-10.08838
-3.49218
2.396317
7.160133
10.62309
12.79739
13.86227
14.06584
13.71
13.08755
12.46524
12.04251
11.92943
12.1309
12.59295
13.19463
13.81612
14.37132
14.81385
15.10921
15.2491
15.20694
14.90445
14.23586
13.13083
11.59984
9.753571
7.788712
5.930908
4.332809
3.062592
2.036011
1.072144
0.03466797
-1.15332
-2.47673
-3.872543
-5.332977
-6.953705
-8.875732
-11.26411
-14.18904
-17.569
-21.18456
-24.64456
-27.4655
-29.09048
-29.02707
-26.9985
-23.04686
-17.54678
-11.12593
-4.530762
1.669571
7.074005
11.48318
14.84276
17.13029
18.37428
18.63762
18.07866
16.89449
15.39326
13.8855
12.66393
11.95692
11.86166
12.34746
13.19769
14.13815
14.90822
15.37045
15.51007
15.34523
14.85716
13.97868
12.67514
11.0096
9.17691
7.41745
5.92337
4.677551
3.507858
2.18486
0.5322418
-1.428009
-3.50647
-5.529648
-7.425507
-9.234589
-11.0751
-13.03021
-15.14224
-17.40601
-19.72902
-21.92963
-23.67503
-24.56745
-24.1361
-22.04207
-18.2458
-13.1027
-7.269043
-1.547058
3.39518
7.226143
9.877983
11.5427
12.40079
12.58988
12.1685
11.21948
9.967697
8.693512
7.763519
7.372253
7.584015
8.228752
9.096085
10.01462
10.88985
11.69212
12.30463
12.59286
12.32045
11.41913
9.922722
8.052994
6.133911
4.352859
2.719582
1.093979
-0.6576157
-2.570999
-4.498657
-6.268761
-7.781761
-9.055115
-10.2319
-11.51627
-13.1031
-15.05824
-17.41789
-20.08839
-22.83022
-25.21649
-26.61267
-26.38285
-24.08794
-19.76914
-13.93864
-7.553627
-1.578087
3.274223
6.753403
9.077049
10.59209
11.61517
12.18552
12.173
11.38668
9.897522
8.032913
6.364731
5.391159
5.321472
6.002541
6.980469
7.755951
7.99054
7.701393
7.093239
6.45816
5.925926
5.379677
4.609749
3.415077
1.797928
-0.0764389
-1.88343
-3.358566
-4.434914
-5.179001
-5.788216
-6.410049
-7.161819
-8.086243
-9.278259
-10.87082
-13.01295
-15.7356
-18.76171
-21.55511
-23.31465
-23.38444
-21.37141
-17.44323
-12.18748
-6.433197
-0.9532776
3.747665
7.46151
10.31115
12.47779
14.11927
15.27235
15.83895
15.70625
14.87199
13.51265
11.91537
10.47517
9.457947
8.9935
9.022491
9.42041
10.06428
10.89088
11.86018
12.81094
13.51172
13.63493
12.94798
11.37956
9.053818
6.274132
3.338707
0.5101089
-2.10141
-4.503807
-6.78524
-9.001366
-11.21488
-13.43233
-15.63905
-17.85516
-20.09179
-22.3526
-24.63757
-26.80446
-28.46645
-29.07646
-28.03199
-24.94906
-19.95042
-13.63383
-6.94294
-0.7755585
4.23848
7.913963
10.41092
12.02846
13.05841
13.62701
13.8403
13.75909
13.51488
13.26694
13.13651
13.17113
13.35112
13.64305
13.89677
14.05486
14.01681
13.77571
13.37148
12.85128
12.21388
11.38007
10.25696
8.729744
6.883629
4.853416
2.83342
1.005348
-0.549942
-1.839363
-2.988518
-4.094528
-5.288971
-6.64901
-8.246307
-10.1523
-12.37372
-14.90715
-17.66233
-20.55031
-23.35925
-25.73203
-27.21027
-27.26539
-25.48399
-21.75156
-16.40444
-10.13863
-3.822075
1.792145
6.256073
9.453598
11.54409
12.73076
13.21481
13.11456
12.59593
11.88728
11.25661
10.93507
11.00239
11.42829
12.0304
12.72185
13.43126
14.1945
15.00436
15.73485
16.18929
16.14046
15.52521
14.39538
12.9556
11.43655
9.949402
8.461472
6.808861
4.825523
2.456032
-0.1932449
-2.868294
-5.271004
-7.170036
-8.5261
-9.473175
-10.33721
-11.43077
-13.03474
-15.26568
-18.0501
-21.13207
-24.03596
-26.21024
-26.99778
-25.95648
-22.84711
-17.91856
-11.75175
-5.173096
0.9988556
6.151375
9.989662
12.5743
14.11688
14.90643
15.14608
14.96503
14.41685
13.59097
12.63498
11.78629
11.28816
11.25697
11.68261
12.35977
13.04779
13.52147
13.6487
13.39426
12.80498
11.94341
10.86266
9.629341
8.303268
6.901382
5.417168
3.777763
1.959839
-0.01778412
-2.044739
-3.992203
-5.739799
-7.266312
-8.658585
-10.05889
-11.61128
-13.39626
-15.42458
-17.72006
-20.21589
-22.70678
-24.77468
-25.83956
-25.34087
-22.94848
-18.78983
-13.41244
-7.624023
-2.186798
2.395973
5.949104
8.502388
10.15234
10.96336
11.01692
10.47726
9.598534
8.706535
8.074471
7.832245
8.011559
8.523689
9.248764
10.03323
10.71423
11.13239
11.17266
10.81622
10.10601
9.180428
8.184395
7.220253
6.291458
5.320076
4.22139
2.852036
1.123268
-0.9795685
-3.363312
-5.814003
-8.05748
-9.859444
-11.12887
-11.97298
-12.71208
-13.68601
-15.17014
-17.16608
-19.45728
-21.63427
-23.15588
-23.54047
-22.39761
-19.61288
-15.32351
-10.03017
-4.399849
0.8493271
5.158577
8.338882
10.49295
11.92294
12.91285
13.65069
14.12066
14.278
14.14954
13.81592
13.46375
13.2203
13.15415
13.23299
13.40495
13.53792
13.50283
13.20206
12.56272
11.60868
10.43566
9.215874
8.061546
7.045303
6.07267
5.005333
3.67704
1.972404
-0.09370422
-2.405441
-4.779289
-7.048187
-9.092171
-10.84155
-12.30356
-13.58559
-14.84606
-16.23914
-17.91939
-19.88354
-21.98138
-23.86875
-25.00054
-24.81901
-22.93637
-19.32408
-14.3122
-8.601585
-2.946785
2.022202
5.945442
8.761444
10.61649
11.68932
12.12335
12.05232
11.58904
10.91395
10.23482
9.749382
9.565948
9.673744
9.996162
10.44304
10.95214
11.48776
11.97578
12.32116
12.4579
12.36222
12.12415
11.8418
11.56107
11.19819
10.56496
9.504333
8.007355
6.218468
4.366226
2.626884
0.9789696
-0.7125931
-2.615658
-4.759998
-7.003437
-9.106018
-10.94143
-12.56511
-14.19852
-16.1576
-18.62196
-21.50426
-24.40952
-26.66191
-27.49723
-26.36309
-23.08979
-17.97054
-11.76666
-5.380035
0.3993912
5.08313
8.593353
11.11121
12.89441
14.1139
14.8982
15.22949
15.13267
14.6573
13.89748
12.98272
12.0854
11.35332
10.91043
10.83261
11.0156
11.38515
11.78033
12.1403
12.46645
12.78218
13.01643
13.02584
12.6391
11.73813
10.40608
8.825329
7.21825
5.720024
4.294937
2.789867
1.026485
-1.092491
-3.548859
-6.164818
-8.715351
-11.03319
-13.0035
-14.646
-16.06628
-17.48578
-19.11864
-21.09183
-23.23742
-25.13044
-26.11149
-25.50068
-22.94678
-18.52816
-12.83658
-6.735273
-1.101849
3.511526
6.872063
9.115129
10.57389
11.56276
12.32809
12.92807
13.35047
13.54106
13.51066
13.31616
13.12866
13.06886
13.17421
13.38999
13.56577
13.59846
13.41017
13.01272
12.4137
11.65118
10.73433
9.688639
8.597631
7.551671
6.638058
5.825689
5.063601
4.249267
3.338963
2.326261
1.231626
0.07404995
-1.209734
-2.659197
-4.328466
-6.133627
-7.916599
-9.490417
-10.77554
-11.82162
-12.82652
-14.09707
-15.77071
-17.76238
-19.64808
-20.78547
-20.5318
-18.52596
-14.88327
-10.15591
-5.195787
-0.7636204
2.650747
4.94342
6.313141
7.018017
7.253685
7.064034
6.399879
5.230125
3.697613
2.102634
0.8343124
0.2280121
0.4085007
1.249836
2.423302
3.574295
4.437084
4.923103
5.062069
4.914894
4.520626
3.883781
3.016792
2.01178
0.9944534
0.0241394
-0.9085388
-1.888981
-3.027866
-4.309994
-5.669079
-7.037487
-8.366772
-9.700424
-11.13799
-12.73022
-14.44574
-16.17421
-17.77754
-19.08421
-19.97075
-20.26768
-19.76898
-18.30509
-15.79889
-12.36071
-8.288986
-3.955009
0.2290726
3.919922
6.891724
9.006149
10.20824
10.53062
10.01565
8.831131
7.170753
5.312599
3.570366
2.206482
1.368279
1.059853
1.142578
1.366127
1.537399
1.501007
1.274437
0.9437103
0.620636
0.3677826
0.1984863
0.07904053
-0.1167603
-0.5142822
-1.271172
-2.439888
-3.986115
-5.72393
-7.459274
-8.987968
-10.28395
-11.47153
-12.75462
-14.33524
-16.27899
-18.4533
-20.54637
-22.16222
-22.80427
-22.11703
-19.89584
-16.18302
-11.3446
-5.953392
-0.6468353
4.031258
7.800972
10.63737
12.66474
14.01036
14.77401
14.96667
14.58126
13.66039
12.25227
10.49038
8.593967
6.779331
5.306721
4.362648
3.970684
4.063141
4.472786
4.958344
5.349518
5.594799
5.669571
5.542103
5.144299
4.2817
2.857563
0.9034042
-1.429913
-3.815178
-5.90591
-7.456257
-8.387844
-8.794647
-9.000744
-9.381321
-10.31704
-12.07454
-14.70545
-18.03541
-21.60712
-24.76215
-26.73551
-26.91763
-24.97357
-21.04696
-15.64422
-9.514839
-3.470615
1.809017
5.934303
8.821346
10.58712
11.52157
11.90873
11.96866
11.85808
11.63918
11.28867
10.83624
10.37293
9.983059
9.777615
9.77552
9.910847
10.01467
9.976255
9.763485
9.418917
9.053579
8.729725
8.447538
8.122578
7.636806
6.830761
5.667181
4.169071
2.398857
0.4560013
-1.540546
-3.473829
-5.272907
-6.892321
-8.362913
-9.755962
-11.15871
-12.68824
-14.48704
-16.65646
-19.1201
-21.61819
-23.68113
-24.70299
-24.16903
-21.80412
-17.76579
-12.53935
-6.868093
-1.463279
3.170075
6.771959
9.34776
11.03012
11.99599
12.4185
12.48701
12.3184
12.04688
11.77759
11.61396
11.61115
11.75567
12.02111
12.37002
12.74905
13.13516
13.46283
13.70641
13.83393
13.79123
13.45912
12.72939
11.55048
9.931105
8.00738
5.972816
4.067986
2.398619
0.9813814
-0.3131504
-1.591616
-2.92763
-4.334021
-5.787262
-7.257433
-8.804947
-10.49754
-12.37122
-14.47282
-16.72908
-19.04193
-21.21618
-22.88078
-23.52714
-22.68039
-20.0423
-15.72916
-10.28867
-4.555405
0.6688595
4.840021
7.860802
9.945921
11.39432
12.44912
13.14223
13.44896
13.36789
13.00728
12.55429
12.26136
12.29184
12.65981
13.34922
14.19323
15.06164
15.85186
16.5015
16.94143
17.16236
17.10448
16.68115
15.86752
14.64515
13.13236
11.4875
9.926373
8.523724
7.270653
5.97287
4.324596
2.148842
-0.575058
-3.582523
-6.523262
-9.045467
-10.99971
-12.46012
-13.66692
-14.96138
-16.57843
-18.61195
-20.93693
-23.24131
-25.02446
-25.65788
-24.61083
-21.58278
-16.73369
-10.6118
-4.082512
1.927887
6.733757
10.01352
11.83559
12.48423
12.35654
11.78471
11.03828
10.25351
9.547066
9.023346
8.793591
8.937695
9.392715
10.01495
10.57224
10.84792
10.69737
10.16726
9.392788
8.556152
7.748302
6.987907
6.200809
5.297203
4.258026
3.136738
1.99818
0.8687515
-0.2779007
-1.489441
-2.770775
-4.076576
-5.312496
-6.400875
-7.323093
-8.173939
-9.170929
-10.52956
-12.40347
-14.79342
-17.46196
-19.9709
-21.73674
-22.22705
-21.04586
-18.10848
-13.63906
-8.135258
-2.278652
3.284344
8.034897
11.69162
14.1529
15.5358
16.07587
16.05191
15.7367
15.30418
14.84256
14.39566
13.96031
13.53783
13.17355
12.92063
12.83885
12.95166
13.21858
13.56555
13.86279
13.99534
13.87347
13.43246
12.67715
11.62587
10.41208
9.106346
7.802273
6.503923
5.182848
3.737108
2.082954
0.1122837
-2.235197
-4.869398
-7.699091
-10.52777
-13.18777
-15.58533
-17.73872
-19.76583
-21.85192
-24.09027
-26.28574
-27.98192
-28.54067
-27.35716
-24.19348
-19.29067
-13.32368
-7.169312
-1.635986
2.827109
6.160105
8.52892
10.22586
11.39123
12.09589
12.35634
12.25894
11.92463
11.60587
11.48729
11.66912
12.1
12.6157
13.04384
13.29992
13.40609
13.40974
13.40174
13.37016
13.25481
12.97325
12.4185
11.54819
10.3916
9.005246
7.479065
5.904831
4.336977
2.71589
0.9659872
-0.9852037
-3.149392
-5.401499
-7.536122
-9.30686
-10.59686
-11.4188
-11.99322
-12.57344
-13.38377
-14.54935
-16.02115
-17.58948
-18.89728
-19.44386
-18.71729
-16.44359
-12.63552
-7.727446
-2.412554
2.567019
6.612093
9.427183
11.05405
11.75403
11.8096
11.49777
11.0187
10.45474
9.915104
9.447292
9.06056
8.80616
8.706818
8.752974
8.911919
9.15786
9.399624
9.638229
9.923512
10.2506
10.60988
10.87062
10.8485
10.41098
9.551849
8.340225
6.979321
5.735325
4.690895
3.836849
2.993214
1.952087
0.592598
-1.111607
-3.105808
-5.228336
-7.329636
-9.30209
-11.06086
-12.61203
-14.04103
-15.45111
-16.95912
-18.59287
-20.13175
-21.11806
-20.99776
-19.30853
-15.96215
-11.34313
-6.151909
-1.13105
3.148529
6.432365
8.733147
10.16492
10.88381
11.00304
10.6393
9.95887
9.170448
8.474281
7.971687
7.667374
7.509262
7.447876
7.410522
7.370193
7.284767
7.159653
7.018425
6.88485
6.747711
6.518341
6.060814
5.244293
4.041023
2.574989
1.125412
-0.04164886
-0.7362289
-1.023926
-1.135483
-1.372627
-1.986519
-3.014702
-4.354568
-5.830185
-7.320816
-8.809372
-10.39201
-12.18032
-14.23116
-16.48871
-18.73617
-20.69911
-22.03625
-22.41105
-21.52399
-19.26755
-15.7512
-11.35121
-6.647659
-2.242096
1.297165
3.676971
4.861588
5.070343
4.606628
3.799286
2.881699
2.020004
1.333588
0.8077698
0.529129
0.5428009
0.8686371
1.454895
2.182663
2.894653
3.441238
3.817566
4.026215
4.183029
4.328217
4.417633
4.343277
3.960098
3.171906
1.929672
0.3215637
-1.517288
-3.394913
-5.120499
-6.569733
-7.678558
-8.490509
-9.116928
-9.725372
-10.4985
-11.63406
-13.23204
-15.26949
-17.4921
-19.37244
-20.28561
-19.6736
-17.2811
-13.31151
-8.383636
-3.330307
1.138458
4.614487
7.074738
8.692535
9.73645
10.38438
10.67307
10.5574
10.03458
9.233231
8.400665
7.821304
7.672012
7.903702
8.378448
8.866913
9.139725
9.10141
8.744461
8.106308
7.237244
6.157455
4.872253
3.429337
1.915192
0.4151154
-1.014557
-2.344711
-3.588776
-4.764908
-5.887299
-7.01059
-8.278854
-9.799347
-11.66878
-13.88358
-16.33676
-18.76253
-20.80035
-22.01932
-22.01031
-20.55971
-17.66901
-13.57797
-8.766342
-3.916824
0.3801727
3.706635
5.972916
7.322464
8.063538
8.447067
8.693192
8.851761
8.850601
8.636978
8.172119
7.541336
6.868454
6.310669
5.935547
5.779343
5.767792
5.804764
5.838043
5.801941
5.705856
5.549362
5.288803
4.830154
4.066345
2.837479
1.126556
-0.9106293
-3.054886
-4.955429
-6.329605
-7.07901
-7.306213
-7.301453
-7.439468
-8.031525
-9.223892
-11.03206
-13.23341
-15.46399
-17.2485
-18.06709
-17.56856
-15.63615
-12.52933
-8.725037
-4.829239
-1.305206
1.595734
3.835617
5.546921
6.859406
7.891373
8.633041
9.109497
9.297943
9.28508
9.147858
8.986221
8.85321
8.729538
8.614807
8.446457
8.225327
7.955215
7.659698
7.329834
6.960648
6.4814
5.84079
5.091064
4.253662
3.376556
2.436081
1.370468
0.1469421
-1.231155
-2.642517
-3.949097
-4.992981
-5.809509
-6.540176
-7.477753
-8.917236
-11.00894
-13.70918
-16.6431
-19.21884
-20.7244
-20.59895
-18.54234
-14.73982
-9.740799
-4.333771
0.766571
5.087494
8.470795
11.04097
12.93886
14.27007
14.98531
14.95702
14.17732
12.8047
11.2162
9.80957
8.919052
8.669952
8.943924
9.480484
9.968735
10.25424
10.25294
10.05774
9.756393
9.439621
9.081299
8.581818
7.817841
6.706406
5.203842
3.320267
1.141586
-1.235428
-3.658096
-6.012497
-8.198517
-10.14342
-11.85681
-13.35728
-14.76224
-16.21613
-17.83331
-19.61833
-21.41307
-22.87497
-23.50137
-22.90152
-20.85504
-17.47823
-13.19122
-8.520386
-3.987793
0.04980469
3.400894
5.989746
7.726257
8.55426
8.503998
7.675552
6.377319
4.976105
3.829071
3.185135
3.124603
3.528671
4.177078
4.822571
5.217773
5.260025
4.94696
4.379028
3.735107
3.143234
2.648911
2.165085
1.582642
0.778656
-0.2520905
-1.412659
-2.543961
-3.497238
-4.217346
-4.78212
-5.328857
-6.022446
-7.015518
-8.380661
-10.13368
-12.21692
-14.38852
-16.3037
-17.52103
-17.60632
-16.29797
-13.60706
-9.806564
-5.377502
-0.8935394
3.188873
6.589211
9.191833
11.00906
12.08235
12.4827
12.25169
11.4674
10.24983
8.818687
7.496956
6.610268
6.334503
6.592476
7.076141
7.362686
7.112892
6.241211
4.962112
3.659958
2.662186
2.08963
1.771065
1.426903
0.7872162
-0.2591934
-1.659431
-3.238556
-4.80526
-6.223679
-7.412643
-8.384117
-9.234596
-10.13142
-11.25867
-12.81989
-14.89515
-17.42502
-20.14367
-22.58936
-24.18893
-24.38947
-22.82455
-19.39449
-14.41574
-8.50396
-2.503799
2.800911
6.889305
9.597427
11.07912
11.69275
11.80163
11.65291
11.33502
10.84077
10.16942
9.432526
8.832916
8.566132
8.723824
9.217155
9.810059
10.22699
10.31744
10.11701
9.807289
9.580521
9.511864
9.487602
9.287369
8.6558
7.517715
5.874886
3.878342
1.64967
-0.6898842
-3.020309
-5.196163
-7.069275
-8.570438
-9.695732
-10.61409
-11.57694
-12.83512
-14.55823
-16.68678
-18.90986
-20.66671
-21.33456
-20.4061
-17.71018
-13.55747
-8.567051
-3.550919
0.8431892
4.275013
6.779663
8.577633
9.91951
10.9754
11.7126
12.09861
12.0302
11.55381
10.81239
10.06017
9.527023
9.402794
9.777214
10.56515
11.62708
12.70135
13.59692
14.13915
14.23508
13.82822
12.9048
11.49306
9.682434
7.625835
5.482824
3.389824
1.465559
-0.2477722
-1.737972
-3.001029
-4.059267
-4.94901
-5.774363
-6.641994
-7.711523
-9.042243
-10.6868
-12.63763
-14.86697
-17.26385
-19.59879
-21.50643
-22.46379
-21.98933
-19.79396
-15.95596
-10.97967
-5.612733
-0.6311316
3.426252
6.402373
8.490856
10.08256
11.44453
12.68509
13.69867
14.29527
14.34724
13.93447
13.28994
12.74504
12.54082
12.66669
13.03055
13.46387
13.87925
14.27008
14.70309
15.16927
15.4786
15.3495
14.47791
12.78901
10.49288
8.03014
5.838314
4.158884
2.889004
1.630026
-0.03617859
-2.322035
-5.106253
-7.982866
-10.51428
-12.42842
-13.73347
-14.73199
-15.8297
-17.3266
-19.29278
-21.56792
-23.74796
-25.32387
-25.75052
-24.63645
-21.84874
-17.58422
-12.32839
-6.749872
-1.49218
2.970078
6.41721
8.824402
10.30577
11.02185
11.09464
10.67295
9.877266
8.841751
7.718513
6.670559
5.872719
5.438889
5.449696
5.862427
6.538013
7.261662
7.862358
8.258148
8.467049
8.563061
8.600533
8.507294
8.159813
7.406807
6.176189
4.494789
2.510021
0.3137932
-2.022839
-4.466187
-7.009583
-9.541901
-11.94703
-14.05294
-15.84369
-17.42495
-19.04675
-20.88675
-22.90742
-24.73927
-25.70748
-25.1629
-22.65163
-18.24094
-12.41715
-5.979538
0.295639
5.815117
10.24836
13.55561
15.74906
16.91798
17.15991
16.62948
15.60643
14.46076
13.55033
13.0675
13.06179
13.35761
13.71339
13.90449
13.72556
13.15523
12.26202
11.23597
10.2447
9.459007
8.876076
8.401115
7.842857
6.952423
5.603439
3.782272
1.645409
-0.6285019
-2.875175
-5.03611
-7.118248
-9.146759
-11.16859
-13.14749
-15.0946
-17.06863
-19.16244
-21.48611
-24.05057
-26.62946
-28.70218
-29.62267
-28.7179
-25.67043
-20.64266
-14.2345
-7.36187
-0.9339523
4.418488
8.482346
11.33277
13.2177
14.34456
14.84884
14.85305
14.44201
13.75468
12.93718
12.11276
11.35423
10.74086
10.3382
10.29536
10.78683
11.80389
13.21571
14.71622
15.92203
16.55042
16.45396
15.63054
14.20436
12.29927
10.00226
7.462143
4.844849
2.342255
0.07907104
-1.899826
-3.692429
-5.494064
-7.416885
-9.528564
-11.77238
-14.07935
-16.45689
-18.9671
-21.59471
-24.10966
-26.02597
-26.66701
-25.4791
-22.23431
-17.21074
-11.1008
-4.741791
1.107559
6.003906
9.856491
12.8087
15.02039
16.57805
17.43935
17.59695
17.09671
16.12738
15.0061
14.02155
13.44276
13.32085
13.63582
14.28101
15.13528
16.04037
16.79532
17.22296
17.15569
16.53825
15.43507
14.04124
12.5558
11.10287
9.657394
8.053864
6.133026
3.811935
1.13382
-1.689178
-4.433426
-6.897842
-9.03476
-10.86424
-12.52785
-14.18546
-16.04042
-18.2395
-20.80263
-23.53592
-25.9826
-27.52113
-27.47871
-25.42346
-21.33943
-15.69826
-9.283356
-2.928833
2.681122
7.167755
10.41774
12.51376
13.56607
13.71614
13.10303
11.94241
10.54175
9.191467
8.182785
7.650589
7.63147
8.033203
8.687714
9.414719
10.01736
10.34914
10.28625
9.840927
9.06459
8.068283
6.981232
5.894226
4.877106
3.907471
2.971283
2.007721
0.983139
-0.1422577
-1.369812
-2.68985
-4.126389
-5.695953
-7.494415
-9.607956
-12.10065
-14.94856
-17.99738
-20.90315
-23.16209
-24.22458
-23.56923
-20.9545
-16.46788
-10.56052
-3.979172
2.465683
8.05896
12.40347
15.34508
16.99713
17.56937
17.26996
16.30597
14.88257
13.2941
11.83725
10.82101
10.4021
10.59099
11.22003
12.02756
12.79942
13.37253
13.73863
13.88644
13.84622
13.63657
13.23041
12.60004
11.73233
10.64146
9.270462
7.632462
5.71994
3.622681
1.472336
-0.5990295
-2.54512
-4.410065
-6.284973
-8.297272
-10.50029
-12.8979
-15.45345
-18.10222
-20.79314
-23.33676
-25.3833
-26.41536
-25.88959
-23.42274
-19.0751
-13.34492
-7.060684
-1.044525
4.137634
8.224564
11.26843
13.42612
14.8969
15.76219
16.10399
16.0228
15.70288
15.37485
15.19235
15.1866
15.26236
15.31012
15.27534
15.2002
15.1432
15.15135
15.18784
15.13681
14.8167
14.10776
12.99745
11.56078
9.991653
8.440216
6.987137
5.620636
4.261932
2.814438
1.190063
-0.6082764
-2.511459
-4.42366
-6.221985
-7.879425
-9.415039
-10.91269
-12.45596
-14.12807
-15.97874
-18.05763
-20.32674
-22.56723
-24.3873
-25.1814
-24.38286
-21.68393
-17.18918
-11.46664
-5.36174
0.2820587
4.901077
8.286316
10.578
12.06946
13.03745
13.69913
14.13483
14.3613
14.39165
14.34412
14.34311
14.52563
14.94876
15.51813
16.10399
16.55312
16.80086
16.90335
16.99216
17.12823
17.22684
17.06842
16.39484
15.12492
13.34428
11.30635
9.344238
7.636337
6.179855
4.809219
3.307266
1.533188
-0.480835
-2.551331
-4.481613
-6.078125
-7.349503
-8.435135
-9.570831
-11.00641
-12.98216
-15.62634
-18.87773
-22.46422
-25.83009
-28.23683
-28.96054
-27.53531
-23.94998
-18.70526
-12.64122
-6.594604
-1.234741
3.194138
6.734818
9.563606
11.84064
13.54642
14.61245
14.91486
14.4845
13.4436
12.08488
10.69962
9.501915
8.606819
8.007019
7.72139
7.742104
8.133041
8.899689
9.948647
11.05309
11.87486
12.09068
11.52723
10.25099
8.462379
6.469109
4.467987
2.589951
0.8202515
-0.9358749
-2.719284
-4.59568
-6.552803
-8.568672
-10.56882
-12.51248
-14.37301
-16.12541
-17.81616
-19.43343
-20.9839
-22.35716
-23.43867
-23.9288
-23.51555
-21.89322
-18.89251
-14.65167
-9.563797
-4.301659
0.4791412
4.220852
6.73254
8.111511
8.675304
8.794437
8.689396
8.477543
8.139969
7.647205
7.068932
6.551235
6.259499
6.336895
6.833874
7.64167
8.614952
9.517418
10.16194
10.43444
10.30847
9.786968
8.857368
7.585876
6.026203
4.275558
2.377735
0.377388
-1.708046
-3.868069
-6.009317
-8.050947
-9.869846
-11.43328
-12.75238
-13.92927
-15.13862
-16.52943
-18.22363
-20.2254
-22.38966
-24.36228
-25.65433
-25.65987
-23.93152
-20.40619
-15.44621
-9.734064
-4.015836
1.115964
5.408157
8.796738
11.37062
13.16695
14.15509
14.30042
13.69955
12.59213
11.23891
9.905609
8.729925
7.791958
7.123717
6.745207
6.640626
6.781631
7.081837
7.426345
7.705194
7.800225
7.650616
7.225019
6.540084
5.655011
4.605795
3.379785
1.939437
0.2364883
-1.770284
-3.988289
-6.220229
-8.186728
-9.700404
-10.79017
-11.66746
-12.66731
-14.09395
-16.1046
-18.63377
-21.32355
-23.65712
-25.03266
-24.94006
-23.09512
-19.56694
-14.7608
-9.377077
-4.113003
0.4252396
3.935984
6.375376
7.880735
8.713444
9.092731
9.160017
8.989515
8.643759
8.200869
7.803831
7.539452
7.491734
7.677387
8.028574
8.417976
8.733213
8.880016
8.830036
8.603287
8.189419
7.603121
6.856581
5.972603
4.983105
3.919132
2.700001
1.257187
-0.4383125
-2.359058
-4.338448
-6.170513
-7.767666
-9.079456
-10.23529
-11.42474
-12.86452
-14.64367
-16.79079
-19.14693
-21.37488
-23.00546
-23.43357
-22.23546
-19.2858
-14.92851
-9.829948
-4.77837
-0.3934364
3.048801
5.583115
7.44141
8.834251
9.882648
10.60942
11.01734
11.15934
11.18213
11.23922
11.43728
11.79297
12.16064
12.33659
12.12377
11.41345
10.27052
8.915173
7.666397
6.731468
6.24807
6.153957
6.290298
6.449921
6.410954
5.967144
4.990456
3.432476
1.368359
-1.019966
-3.459755
-5.734787
-7.773605
-9.647476
-11.56441
-13.68572
-16.07008
-18.64684
-21.20815
-23.48575
-25.15454
-25.90885
-25.4327
-23.56801
-20.33483
-16.01691
-11.11481
-6.246029
-1.970692
1.330837
3.53125
4.709648
5.03381
4.757595
4.080635
3.200909
2.254665
1.386803
0.7101784
0.3217964
0.2553711
0.4220085
0.7056694
0.9513092
1.052219
1.021389
0.9289207
0.8692856
0.9224358
1.059731
1.093346
0.8598709
0.224575
-0.8370018
-2.167107
-3.572464
-4.899101
-6.148472
-7.437469
-9.03017
-11.12325
-13.78636
-16.9131
-20.19221
-23.20852
-25.49171
-26.61784
-26.19983
-24.04202
-20.12701
-14.75936
-8.494392
-2.039076
3.908512
8.850319
12.53046
14.96609
16.29251
16.69374
16.23726
15.04573
13.28779
11.26686
9.385371
8.08525
7.657668
8.172542
9.423038
10.96943
12.36277
13.22961
13.43597
13.03848
12.28432
11.40132
10.51885
9.574347
8.399137
6.798524
4.684874
2.106817
-0.7733645
-3.731562
-6.525038
-9.000354
-11.0842
-12.80285
-14.26137
-15.64102
-17.13544
-18.92666
-21.10443
-23.54538
-25.91784
-27.6097
-27.95586
-26.41091
-22.81433
-17.46063
-11.10753
-4.636305
1.159718
5.825958
9.347208
11.90104
13.73308
15.02501
15.81267
16.05832
15.83009
15.30796
14.68335
14.1683
13.8105
13.54792
13.32917
13.13702
13.00223
12.95277
12.96516
12.88143
12.54873
11.80009
10.62246
9.113373
7.445339
5.767418
4.125748
2.453651
0.6841431
-1.170509
-3.055176
-4.849678
-6.493217
-7.997066
-9.462204
-10.98294
-12.65723
-14.55438
-16.64933
-18.94709
-21.40724
-23.89741
-26.10009
-27.51046
-27.56025
-25.82415
-22.26714
-17.16921
-11.1245
-4.831573
1.084167
6.23365
10.45008
13.73524
16.22329
17.99092
19.09941
19.58374
19.5181
18.98598
18.1398
17.147
16.19566
15.45616
15.00073
14.82137
14.89815
15.14163
15.46189
15.74446
15.80884
15.5073
14.75159
13.51772
11.92983
10.19213
8.547394
7.143578
5.987701
4.928307
3.796288
2.411934
0.7156677
-1.249657
-3.347862
-5.469498
-7.541107
-9.560448
-11.60006
-13.75227
-16.17178
-18.95459
-22.09224
-25.35506
-28.23437
-30.03034
-30.04305
-27.83904
-23.44304
-17.36539
-10.43948
-3.500839
2.786804
8.118195
12.40274
15.65068
17.93433
19.24434
19.68398
19.45905
18.85091
18.11866
17.46194
16.92676
16.48703
16.15664
15.95021
15.96656
16.31097
16.98428
17.8169
18.55666
18.86485
18.47088
17.30689
15.45107
13.15085
10.72429
8.409737
6.321381
4.47094
2.745262
1.034996
-0.7727509
-2.711502
-4.756073
-6.771622
-8.691437
-10.42897
-11.93044
-13.23524
-14.45939
-15.80578
-17.52325
-19.75606
-22.40549
-25.15232
-27.38194
-28.38638
-27.61747
-24.84821
-20.28323
-14.48966
-8.19397
-2.112213
3.198471
7.40329
10.3961
12.24721
13.13574
13.30963
13.00468
12.44896
11.78494
11.14206
10.62151
10.29318
10.21756
10.38164
10.74045
11.13818
11.4483
11.56676
11.45984
11.19278
10.82935
10.41029
9.911346
9.248138
8.251984
6.772583
4.736832
2.166718
-0.7583923
-3.798492
-6.680099
-9.251495
-11.45079
-13.3616
-15.12415
-16.85782
-18.64003
-20.46495
-22.29105
-24.00829
-25.41942
-26.17751
-25.81348
-23.9149
-20.3047
-15.17206
-9.102737
-2.901871
2.714218
7.310532
10.83638
13.50169
15.51486
16.98714
17.87315
18.08498
17.64072
16.73817
15.69206
14.86465
14.47322
14.53745
14.90961
15.30528
15.46146
15.26123
14.73534
14.01974
13.27811
12.58058
11.89557
11.06473
9.873871
8.132584
5.81076
3.01004
-0.1196594
-3.389481
-6.628784
-9.734726
-12.64917
-15.36745
-17.90863
-20.27669
-22.52893
-24.76749
-27.11804
-29.62302
-32.19438
-34.47357
-35.9164
-35.85869
-33.78404
-29.52379
-23.40627
-16.13356
-8.655472
-1.839371
3.785614
8.046951
11.09973
13.18494
14.54085
15.29018
15.54352
15.3822
14.937
14.39288
13.90378
13.59525
13.47308
13.53008
13.72437
14.00308
14.28941
14.52066
14.63091
14.59261
14.39609
14.05719
13.50189
12.60359
11.15396
8.977371
6.099854
2.727081
-0.7678833
-3.983429
-6.650803
-8.771835
-10.5835
-12.44525
-14.69354
-17.48412
-20.82382
-24.49915
-28.14227
-31.21864
-33.11507
-33.23547
-31.19687
-26.96712
-20.9521
-13.89337
-6.704819
-0.1916962
5.166107
9.263977
12.33609
14.67865
16.55791
18.03653
19.04341
19.49388
19.33347
18.63799
17.62917
16.57312
15.67749
15.06169
14.67618
14.43832
14.26263
14.13884
14.0766
14.12556
14.2522
14.36513
14.33469
14.02591
13.33839
12.19348
10.55409
8.366287
5.610123
2.351929
-1.207626
-4.781555
-8.085861
-10.93396
-13.35188
-15.59619
-17.96111
-20.67238
-23.75768
-26.86432
-29.41386
-30.68224
-30.06685
-27.26495
-22.44038
-16.11714
-9.043259
-2.019989
4.30899
9.541367
13.52608
16.2981
17.97726
18.75726
18.90532
18.72997
18.55273
18.59084
18.93227
19.50404
20.1358
20.65524
20.95923
20.99127
20.74332
20.23793
19.50621
18.56308
17.46535
16.31245
15.15718
14.0401
12.91159
11.66264
10.17976
8.381958
6.254211
3.886826
1.388107
-1.132172
-3.597763
-5.983307
-8.318848
-10.62669
-12.94635
-15.29573
-17.68715
-20.14018
-22.64223
-25.088
-27.20499
-28.56439
-28.6179
-26.89391
-23.17578
-17.69612
-11.11861
-4.332916
1.827515
6.827713
10.49579
12.98732
14.59299
15.56866
16.03362
15.97784
15.38246
14.31175
12.95868
11.60603
10.58786
10.11198
10.27986
10.99048
12.02083
13.07962
13.92207
14.37132
14.35123
13.89041
13.02708
11.80957
10.28577
8.508774
6.519104
4.352493
2.049789
-0.3503418
-2.75473
-5.07782
-7.232849
-9.1819
-10.88963
-12.41882
-13.85768
-15.32472
-16.97237
-18.88504
-21.05119
-23.24355
-25.02179
-25.75352
-24.85854
-22.02368
-17.40062
-11.59695
-5.464233
0.1544189
4.741547
8.129471
10.46855
12.01312
12.98871
13.47676
13.46677
12.99791
12.196
11.31538
10.65218
10.43954
10.72998
11.41922
12.29828
13.07739
13.55421
13.64804
13.37141
12.80965
12.02917
11.0833
9.964737
8.67952
7.205414
5.506378
3.609955
1.56308
-0.5279083
-2.534775
-4.341522
-5.895828
-7.202072
-8.344482
-9.476639
-10.75638
-12.35976
-14.45889
-17.09721
-20.18172
-23.25818
-25.61313
-26.42979
-25.05893
-21.33592
-15.67522
-8.988907
-2.33017
3.41861
7.828461
10.91796
13.00285
14.43198
15.3917
15.89077
15.84066
15.2728
14.38033
13.5108
13.02097
13.09424
13.70953
14.60933
15.46093
16.01902
16.22274
16.14624
15.91838
15.58569
15.0633
14.22066
12.92197
11.21302
9.290085
7.439476
5.86647
4.597618
3.522491
2.425819
1.102798
-0.4953995
-2.303955
-4.208206
-6.145256
-8.109688
-10.18378
-12.39516
-14.75891
-17.23181
-19.71535
-22.09722
-24.21352
-25.81497
-26.49826
-25.84113
-23.50652
-19.49228
-14.18504
-8.290321
-2.637539
2.102501
5.65609
8.132633
9.858593
11.1735
12.22177
12.96793
13.31792
13.28178
12.99336
12.6915
12.53803
12.53489
12.58218
12.5307
12.32734
12.03256
11.7818
11.6608
11.6417
11.60646
11.37056
10.81919
9.968523
8.867928
7.636658
6.390051
5.241451
4.277184
3.489034
2.776698
1.954143
0.8592663
-0.6094131
-2.387563
-4.285774
-6.04479
-7.515147
-8.721975
-9.863662
-11.22871
-13.0088
-15.30194
-17.96485
-20.72086
-23.15379
-24.82105
-25.26883
-24.15515
-21.39474
-17.17143
-12.0109
-6.524956
-1.366972
2.970152
6.264601
8.563435
10.10112
11.11224
11.7621
12.09945
12.12128
11.81796
11.23896
10.55205
9.990326
9.714252
9.70216
9.85387
9.985474
10.00864
9.93338
9.832699
9.77478
9.729908
9.558456
9.085342
8.253944
7.116554
5.791336
4.364746
2.866737
1.257256
-0.5095596
-2.382889
-4.226166
-5.86792
-7.207352
-8.290306
-9.247986
-10.23518
-11.37619
-12.69394
-14.13876
-15.71124
-17.35209
-19.032
-20.56025
-21.55077
-21.5145
-20.04188
-17.0176
-12.71197
-7.79483
-3.006439
0.9944763
3.891243
5.698891
6.62117
6.896484
6.671455
5.993057
4.930405
3.652527
2.396225
1.369019
0.7407227
0.5537567
0.7111053
1.105545
1.617615
2.160217
2.720139
3.271713
3.766464
4.156281
4.390991
4.396729
4.193909
3.813751
3.260284
2.543945
1.61644
0.3884125
-1.199387
-3.165482
-5.428421
-7.794556
-10.05833
-12.06631
-13.76337
-15.23589
-16.63043
-18.10367
-19.73314
-21.48297
-23.11899
-24.29497
-24.60242
-23.6866
-21.38757
-17.81277
-13.3445
-8.539337
-3.977112
-0.0716095
2.978607
5.164307
6.600311
7.367172
7.541031
7.21048
6.510284
5.629593
4.778137
4.106293
3.700745
3.53241
3.523575
3.59404
3.670135
3.763092
3.892029
4.108139
4.368149
4.558502
4.509659
3.986679
2.808792
0.9588318
-1.390869
-3.956161
-6.434586
-8.621155
-10.44064
-11.8551
-12.92213
-13.72374
-14.35693
-14.97809
-15.7939
-17.00394
-18.61694
-20.32831
-21.57846
-21.71335
-20.21429
-16.9669
-12.31006
-6.991852
-1.862946
2.421127
5.576141
7.731766
9.249573
10.48773
11.60033
12.48396
12.93803
12.81134
12.14738
11.12675
10.01048
8.977005
8.066956
7.239166
6.404221
5.603104
4.93457
4.550385
4.467041
4.673065
5.007706
5.275162
5.27742
4.878754
4.067657
2.876358
1.407242
-0.2018433
-1.780518
-3.232239
-4.50563
-5.652649
-6.817688
-8.121841
-9.678528
-11.54994
-13.70718
-16.04478
-18.40845
-20.54021
-22.07904
-22.60638
-21.7084
-19.17441
-15.13585
-10.09308
-4.791992
0.00881958
3.749191
6.237305
7.587204
8.116531
8.140198
7.840561
7.321289
6.598785
5.781601
5.017395
4.440903
4.171967
4.234055
4.542984
4.995163
5.494385
5.96962
6.420609
6.865128
7.297348
7.681839
7.923447
7.886734
7.46666
6.63092
5.420837
3.949585
2.320663
0.6200714
-1.100601
-2.845642
-4.587646
-6.268936
-7.804718
-9.167526
-10.40054
-11.63162
-13.09467
-14.91678
-17.14444
-19.57358
-21.77478
-23.1787
-23.23512
-21.59503
-18.25774
-13.60789
-8.268845
-2.923798
1.861542
5.784256
8.737549
10.78033
12.00116
12.51912
12.44406
11.91924
11.10236
10.1837
9.333282
8.706436
8.433823
8.598755
9.187164
10.06825
11.03078
11.85336
12.38269
12.5959
12.49745
12.10345
11.37057
10.25063
8.742111
6.994736
5.258865
3.763504
2.597717
1.63063
0.611908
-0.6385803
-2.152115
-3.754654
-5.224045
-6.444656
-7.520233
-8.708038
-10.34099
-12.60815
-15.54536
-18.94565
-22.40611
-25.34924
-27.16116
-27.33472
-25.60735
-22.07097
-17.12296
-11.41829
-5.615417
-0.2759857
4.181488
7.522461
9.651672
10.58812
10.54366
9.838959
8.861923
7.918243
7.190002
6.664993
6.262772
5.945343
5.720612
5.698395
5.930634
6.409088
6.945862
7.354523
7.448608
7.1884
6.682983
6.106766
5.568436
5.051056
4.41893
3.505569
2.221634
0.5888977
-1.194
-2.958237
-4.596436
-6.075012
-7.459229
-8.80545
-10.11871
-11.41504
-12.8011
-14.44652
-16.50546
-19.03444
-21.72385
-24.01979
-25.23184
-24.74382
-22.3299
-18.15463
-12.80696
-7.019608
-1.537498
3.152451
6.806458
9.372627
10.96962
11.69638
11.68468
11.05225
9.969185
8.646973
7.345543
6.315445
5.709633
5.612473
5.900002
6.416237
6.963264
7.379036
7.546364
7.423752
7.020111
6.384171
5.61248
4.718002
3.726433
2.572128
1.230934
-0.3110352
-1.972122
-3.579033
-4.992462
-6.0896
-6.917854
-7.60141
-8.369446
-9.417694
-10.88476
-12.82523
-15.22935
-18.01038
-20.89787
-23.47951
-25.19077
-25.49126
-24.01786
-20.7347
-15.95848
-10.30331
-4.492462
0.8456841
5.351418
8.944992
11.69415
13.68687
14.97729
15.55462
15.46067
14.81109
13.8841
13.03735
12.53672
12.52626
12.93627
13.57731
14.24292
14.81533
15.23832
15.52616
15.68913
15.70417
15.52393
15.08046
14.34611
13.32303
12.04489
10.51985
8.731537
6.609173
4.103817
1.213705
-1.967775
-5.265675
-8.437834
-11.2467
-13.5778
-15.49628
-17.23945
-19.16556
-21.55651
-24.49014
-27.8047
-30.97555
-33.28486
-33.96788
-32.44857
-28.57368
-22.67363
-15.47732
-7.897289
-0.8409019
5.090971
9.616488
12.81777
14.94208
16.25725
16.98899
17.24187
17.10446
16.67118
16.10305
15.55929
15.18384
15.05422
15.13237
15.3595
15.63746
15.93567
16.20964
16.48467
16.70725
16.80212
16.71296
16.35632
15.70449
14.73513
13.39791
11.65078
9.477962
6.917515
4.070797
1.126301
-1.735939
-4.355946
-6.662579
-8.671494
-10.45361
-12.13446
-13.85818
-15.81933
-18.15396
-20.8658
-23.75343
-26.36419
-28.03767
-28.11301
-26.20723
-22.3007
-16.86128
-10.60907
-4.293106
1.467705
6.368179
10.30878
13.38622
15.68986
17.29807
18.24647
18.58279
18.39983
17.84074
17.11695
16.44312
16.00378
15.89735
16.12967
16.63604
17.31213
18.04986
18.78266
19.47437
20.09116
20.52388
20.62845
20.2527
19.28422
17.71194
15.62888
13.2354
10.74286
8.288727
5.885925
3.437149
0.7843857
-2.124878
-5.21386
-8.288399
-11.08653
-13.45013
-15.40675
-17.16421
-19.03079
-21.27292
-23.94359
-26.74858
-29.12433
-30.31313
-29.63702
-26.76884
-21.82344
-15.41152
-8.389809
-1.622421
4.319489
9.214462
13.09525
16.09333
18.23613
19.52455
19.89373
19.43446
18.36676
17.05345
15.8799
15.13261
14.92175
15.20705
15.85252
16.67065
17.51586
18.23882
18.71859
18.84451
18.51575
17.67901
16.32421
14.55274
12.54611
10.50192
8.540573
6.710548
4.987595
3.330902
1.701942
0.06993866
-1.586884
-3.284508
-5.008217
-6.727638
-8.338882
-9.768143
-11.00924
-12.22682
-13.70313
-15.72701
-18.44228
-21.66854
-24.93637
-27.56642
-28.89643
-28.41633
-25.94388
-21.65926
-16.06584
-9.86824
-3.83989
1.369484
5.421188
8.182816
9.787727
10.49725
10.58349
10.2802
9.790878
9.276596
8.892479
8.81385
9.106766
9.768204
10.69017
11.69202
12.61662
13.31643
13.72324
13.79979
13.55334
13.01338
12.20903
11.16451
9.876366
8.370064
6.644577
4.732849
2.659065
0.4816818
-1.743507
-3.934174
-5.981339
-7.869766
-9.583549
-11.15577
-12.63874
-14.12049
-15.65939
-17.34193
-19.13447
-20.9001
-22.38952
-23.13872
-22.65081
-20.52841
-16.65511
-11.33675
-5.250488
0.7911606
6.063538
10.12276
12.89677
14.5764
15.41196
15.62621
15.34399
14.6221
13.57285
12.36525
11.19839
10.26174
9.663475
9.429771
9.54071
9.977333
10.70255
11.60606
12.50072
13.11438
13.19124
12.55637
11.25275
9.492378
7.646179
6.02784
4.79702
3.899883
3.149529
2.30793
1.176571
-0.335289
-2.245998
-4.424652
-6.745483
-9.009163
-11.05665
-12.8084
-14.33916
-15.86404
-17.68462
-20.03395
-22.81332
-25.60819
-27.69262
-28.26897
-26.78945
-23.16607
-17.79984
-11.44799
-5.063412
0.5920143
4.976006
7.941029
9.631634
10.34964
10.49826
10.42407
10.43872
10.68697
11.23877
12.031
12.92765
13.80609
14.54461
15.15959
15.7035
16.31104
17.01789
17.75249
18.28777
18.34647
17.73199
16.39565
14.47212
12.20973
9.873631
7.642517
5.591591
3.678928
1.841805
0.0416832
-1.754242
-3.529057
-5.310051
-7.111099
-8.921185
-10.72219
-12.49821
-14.27439
-16.11031
-18.10026
-20.24018
-22.35999
-24.07912
-24.85197
-24.21406
-21.94061
-18.19002
-13.45465
-8.370598
-3.464655
0.9112396
4.637121
7.688248
10.07503
11.79237
12.85729
13.36498
13.50708
13.53743
13.62992
13.8962
14.29972
14.76457
15.14545
15.3518
15.28175
14.92246
14.31219
13.56658
12.83642
12.20013
11.63317
11.05673
10.34837
9.453286
8.39271
7.281851
6.174174
5.096914
3.966494
2.68154
1.2516
-0.2974682
-1.824493
-3.251032
-4.546484
-5.803829
-7.110481
-8.618315
-10.41085
-12.52023
-14.96731
-17.60005
-20.19201
-22.32151
-23.5166
-23.31716
-21.52373
-18.25775
-13.95174
-9.258636
-4.752083
-0.8299255
2.352573
4.872509
6.827347
8.271229
9.159325
9.489136
9.245811
8.622173
7.832886
7.112728
6.656258
6.475937
6.513752
6.648739
6.818729
6.93951
7.024391
7.021904
6.935364
6.78941
6.560604
6.286362
5.979359
5.661621
5.287193
4.798676
4.094521
3.107582
1.794563
0.1333466
-1.77491
-3.777481
-5.693687
-7.345726
-8.660332
-9.692413
-10.61936
-11.69312
-13.18179
-15.24261
-17.84813
-20.79476
-23.63271
-25.79187
-26.67864
-25.85757
-23.17762
-18.86736
-13.44337
-7.643326
-2.197411
2.332939
5.671867
7.795509
8.906792
9.26947
9.120659
8.606995
7.828484
6.893341
5.988724
5.25296
4.811836
4.710152
4.868149
5.179932
5.541832
5.9114
6.276619
6.634842
6.897385
6.93737
6.653709
5.999809
5.027718
3.864937
2.646652
1.462486
0.3521805
-0.7116852
-1.789696
-2.947052
-4.259972
-5.75856
-7.377655
-8.996719
-10.43189
-11.53665
-12.31621
-12.9269
-13.68078
-14.85782
-16.5533
-18.52331
-20.22742
-20.95236
-20.09797
-17.44097
-13.24593
-8.155991
-2.96151
1.682922
5.418137
8.203094
10.19839
11.59602
12.535
13.02475
13.06886
12.70959
12.09538
11.40656
10.79543
10.34241
10.07081
9.94899
9.937469
10.00041
10.10583
10.27307
10.43185
10.50496
10.34425
9.828537
8.922516
7.623734
6.016846
4.195923
2.327057
0.5727539
-0.9458466
-2.13681
-3.006332
-3.650986
-4.262924
-4.994003
-5.942535
-7.06102
-8.149933
-9.056839
-9.772537
-10.48796
-11.52966
-13.218
-15.58629
-18.41341
-21.19322
-23.28317
-24.08577
-23.17006
-20.44846
-16.13843
-10.78488
-5.098694
0.1758423
4.445923
7.409302
9.095978
9.808167
9.908981
9.677032
9.275528
8.758026
8.179321
7.65509
7.349487
7.420517
7.928513
8.778107
9.757416
10.67294
11.36517
11.82245
12.13263
12.38376
12.56134
12.55702
12.211
11.36809
10.05133
8.37999
6.591537
4.911911
3.475357
2.250381
1.086624
-0.1999512
-1.729752
-3.477844
-5.359985
-7.207123
-8.865936
-10.24307
-11.32925
-12.18378
-12.88725
-13.55309
-14.25955
-15.08978
-16.05336
-17.05127
-17.91103
-18.34589
-18.0842
-16.90053
-14.73869
-11.71567
-8.134613
-4.366959
-0.7306213
2.504044
5.217941
7.334045
8.825333
9.702896
10.04089
9.980423
9.695587
9.38295
9.144943
9.037369
9.039886
9.088394
9.146164
9.212265
9.33342
9.589203
10.03879
10.60118
11.16217
11.47336
11.37662
10.76126
9.703705
8.37529
6.966705
5.661026
4.53009
3.593979
2.755661
1.890366
0.8640137
-0.4322052
-2.060577
-3.926498
-5.872513
-7.693604
-9.265915
-10.64708
-12.04506
-13.69089
-15.74893
-18.21109
-20.86787
-23.39558
-25.34039
-26.2597
-25.78429
-23.72014
-20.12553
-15.35481
-9.933701
-4.511322
0.3419189
4.247101
7.052078
8.775345
9.523712
9.436111
8.663437
7.436554
6.028549
4.706558
3.687637
3.050323
2.702194
2.491058
2.265457
1.981277
1.723175
1.668823
1.940109
2.582947
3.483643
4.450165
5.286652
5.795334
5.894928
5.57695
4.931213
4.042984
3.006363
1.810028
0.4391632
-1.126938
-2.90332
-4.774673
-6.628601
-8.351898
-9.909805
-11.33885
-12.7381
-14.18747
-15.71225
-17.32118
-18.96471
-20.53789
-21.85243
-22.6172
-22.42871
-20.91628
-17.97
-13.76024
-8.819931
-3.832321
0.6003876
4.118942
6.674866
8.404266
9.547668
10.19908
10.42552
10.20941
9.609894
8.739914
7.790848
6.984451
6.465073
6.320831
6.474335
6.815094
7.210999
7.560043
7.784393
7.852173
7.717117
7.277679
6.464264
5.203644
3.573471
1.738754
-0.07292175
-1.692291
-3.08931
-4.340836
-5.601257
-6.971939
-8.497131
-10.09727
-11.65575
-13.11656
-14.47617
-15.77379
-17.13354
-18.62268
-20.2426
-21.86758
-23.17686
-23.74464
-23.14767
-21.14966
-17.74596
-13.23434
-8.077591
-2.806152
2.143707
6.461304
9.997101
12.66798
14.44347
15.34291
15.41466
14.79741
13.66499
12.27054
10.87946
9.748566
8.976852
8.568985
8.430054
8.406891
8.410385
8.404404
8.391953
8.36705
8.243469
7.905197
7.239059
6.242432
4.964676
3.563065
2.163513
0.8081818
-0.5318298
-1.874939
-3.209045
-4.424774
-5.379044
-6.031158
-6.449814
-6.820084
-7.417282
-8.465271
-10.05513
-12.19012
-14.78024
-17.64627
-20.48088
-22.80983
-24.0287
-23.61784
-21.32933
-17.34694
-12.28021
-6.965973
-2.124786
1.793724
4.764305
7.037582
8.853821
10.36967
11.56228
12.30586
12.60892
12.58686
12.41401
12.29919
12.33636
12.44875
12.48701
12.31977
11.91087
11.40379
10.95387
10.62886
10.3354
9.882843
9.09581
7.851517
6.304955
4.664421
3.224281
2.164833
1.469826
0.9599304
0.4379807
-0.2636566
-1.169266
-2.178314
-3.215988
-4.213287
-5.242592
-6.451935
-8.0131
-10.03912
-12.55811
-15.45912
-18.54747
-21.52898
-23.96295
-25.34749
-25.18882
-23.17969
-19.33993
-14.05735
-7.963058
-1.796539
3.836952
8.545746
12.19082
14.75665
16.32246
16.98872
16.86769
16.16116
15.13519
14.04859
13.1482
12.59981
12.41393
12.56091
12.92048
13.40002
13.96959
14.62291
15.3049
15.83451
15.95448
15.45876
14.2728
12.56281
10.65271
8.854546
7.363956
6.13134
5.006512
3.777706
2.351597
0.6724663
-1.208302
-3.239311
-5.345757
-7.42786
-9.397858
-11.14476
-12.65974
-14.05083
-15.53252
-17.31581
-19.43155
-21.61917
-23.37309
-24.08177
-23.27343
-20.75167
-16.73106
-11.75528
-6.50317
-1.596939
2.549919
5.777058
8.093857
9.571266
10.31774
10.41904
10.01831
9.306606
8.541641
7.966599
7.793297
8.064388
8.685774
9.49511
10.2678
10.90117
11.35652
11.68319
11.92238
12.06429
11.98052
11.52408
10.56885
9.120493
7.34556
5.48807
3.77847
2.281808
0.93995
-0.4032669
-1.855321
-3.429581
-5.04458
-6.568354
-7.946321
-9.175573
-10.34234
-11.55377
-12.92083
-14.54458
-16.47539
-18.74777
-21.19106
-23.43901
-24.93053
-25.05149
-23.3576
-19.81936
-14.80497
-8.972183
-3.090871
2.26736
6.759511
10.30932
12.93298
14.77466
15.92745
16.53393
16.7597
16.75252
16.68827
16.64009
16.68784
16.7969
16.95431
17.12381
17.29213
17.44661
17.53012
17.46445
17.09003
16.26532
14.89461
12.96898
10.61622
8.054386
5.564466
3.335295
1.465384
-0.0946579
-1.456936
-2.772898
-4.167728
-5.708271
-7.377846
-9.065552
-10.67479
-12.13976
-13.51031
-14.9166
-16.53531
-18.54564
-20.92881
-23.43671
-25.561
-26.64995
-26.11481
-23.67258
-19.41811
-13.85352
-7.72192
-1.714172
3.650774
8.131145
11.64791
14.23672
15.93725
16.89163
17.30117
17.42064
17.48394
17.53521
17.46334
17.06789
16.20776
14.93332
13.50624
12.25724
11.48428
11.32177
11.69032
12.40786
13.25361
13.95316
14.2996
14.12299
13.35719
12.07758
10.45126
8.677818
6.926582
5.247356
3.606812
1.890396
0.02084732
-2.013863
-4.141796
-6.24231
-8.265408
-10.19542
-12.08728
-14.03047
-16.15229
-18.52119
-21.09526
-23.60774
-25.58969
-26.46709
-25.72351
-23.07965
-18.65091
-12.94949
-6.718742
-0.758606
4.351929
8.327286
11.17546
13.06677
14.2394
14.90041
15.19415
15.22144
15.04352
14.70433
14.28197
13.83265
13.43685
13.1751
13.10789
13.25053
13.54493
13.89582
14.18499
14.34605
14.33476
14.11958
13.64206
12.84497
11.69715
10.19368
8.446766
6.597239
4.851931
3.338453
2.067308
0.9410343
-0.1976433
-1.500326
-2.986727
-4.584743
-6.188608
-7.703876
-9.166466
-10.72484
-12.58071
-14.91321
-17.71682
-20.78145
-23.68059
-25.85667
-26.7326
-25.87613
-23.12392
-18.66523
-12.99748
-6.776758
-0.6769028
4.701553
8.982613
11.98116
13.73595
14.40948
14.28454
13.67286
12.84019
11.98755
11.13993
10.28021
9.346042
8.372271
7.475155
6.836844
6.582681
6.705321
7.115164
7.615354
8.021656
8.148264
7.933913
7.349311
6.461338
5.336522
4.057839
2.676948
1.235321
-0.3046889
-1.996308
-3.905866
-6.013311
-8.231233
-10.49579
-12.68734
-14.73566
-16.6226
-18.39301
-20.088
-21.74138
-23.23887
-24.30672
-24.57315
-23.69969
-21.49284
-18.06406
-13.76099
-9.067237
-4.457832
-0.2705097
3.342896
6.30527
8.575234
10.07416
10.74085
10.62187
9.89842
8.840624
7.748673
6.864961
6.271467
5.940071
5.796935
5.731214
5.724382
5.801588
5.988783
6.31397
6.722974
7.117972
7.344909
7.299332
6.873171
6.005307
4.705713
2.982595
0.9011025
-1.416447
-3.786192
-6.058281
-8.117926
-9.885028
-11.39607
-12.7852
-14.25553
-16.01256
-18.11147
-20.3326
-22.20622
-23.06524
-22.3253
-19.68513
-15.35369
-9.993248
-4.471448
0.4209406
4.282709
7.045532
8.954205
10.26871
11.17114
11.72531
11.9535
11.90282
11.69095
11.48963
11.42932
11.58363
11.85322
12.09998
12.1712
11.98513
11.51232
10.7965
9.958739
9.088553
8.220057
7.317811
6.317463
5.163376
3.841915
2.411052
0.9425214
-0.4290933
-1.625908
-2.661049
-3.626303
-4.673449
-5.926647
-7.512049
-9.442537
-11.74972
-14.36302
-17.2162
-20.16952
-22.9282
-25.03558
-25.94735
-25.2314
-22.70228
-18.61807
-13.56152
-8.309801
-3.54339
0.3714828
3.389788
5.655814
7.367969
8.67195
9.592167
10.16827
10.47963
10.69856
11.04701
11.61634
12.32184
12.9966
13.43659
13.52246
13.2655
12.81193
12.3214
11.88261
11.44088
10.86655
10.07289
9.09915
8.08575
7.206814
6.56216
6.08836
5.558275
4.717517
3.399896
1.598061
-0.5231256
-2.795085
-5.05155
-7.269909
-9.517696
-11.91414
-14.55013
-17.47612
-20.60416
-23.69273
-26.28183
-27.73678
-27.47394
-25.14452
-20.82682
-15.04842
-8.670794
-2.590219
2.536777
6.418401
9.114366
10.83629
11.79451
12.12685
11.96903
11.50073
10.97208
10.66207
10.75067
11.21969
11.90933
12.5841
13.06289
13.34415
13.56851
13.88535
14.35436
14.82598
15.00392
14.63236
13.63063
12.12251
10.40911
8.79758
7.410881
6.206189
5.031606
3.762652
2.402246
1.061988
-0.1274357
-1.096671
-1.917264
-2.78247
-3.90133
-5.41999
-7.43768
-9.892185
-12.65453
-15.50614
-18.08271
-19.96914
-20.72712
-20.02112
-17.75647
-14.15742
-9.723529
-5.089752
-0.9107745
2.397002
4.712611
6.131999
6.925685
7.349599
7.605868
7.784421
7.950078
8.0729
8.159645
8.277257
8.434724
8.670159
8.936316
9.145217
9.154331
8.898951
8.357979
7.678583
7.023769
6.529043
6.226331
5.997839
5.588035
4.756543
3.422069
1.650522
-0.3184767
-2.22942
-3.889116
-5.257465
-6.431276
-7.596553
-8.912209
-10.44695
-12.22474
-14.22844
-16.42766
-18.74081
-20.93151
-22.5964
-23.26133
-22.46798
-19.99412
-16.05272
-11.23455
-6.334538
-2.045669
1.249866
3.543075
5.069687
6.108794
6.75036
6.940247
6.588347
5.738569
4.611058
3.578463
2.96718
2.970489
3.540906
4.453828
5.476842
6.459015
7.379456
8.242484
9.037416
9.651219
9.964098
9.854171
9.276605
8.224862
6.74355
4.912156
2.800907
0.5491362
-1.689761
-3.751995
-5.578751
-7.188471
-8.746043
-10.43841
-12.40378
-14.68265
-17.17091
-19.63278
-21.70974
-22.99894
-23.05707
-21.57816
-18.49982
-14.12365
-9.030567
-3.93047
0.5479012
4.078403
6.623619
8.436271
9.787654
10.867
11.70739
12.24575
12.46583
12.42309
12.24267
12.03084
11.88486
11.77882
11.65091
11.40289
10.99743
10.46394
9.838954
9.126939
8.303391
7.314648
6.129641
4.749981
3.223777
1.655094
0.1787553
-1.116972
-2.186976
-3.074649
-3.856489
-4.651889
-5.598396
-6.781767
-8.304054
-10.19831
-12.52509
-15.23102
-18.19561
-21.10483
-23.51705
-24.9195
-24.8411
-23.04757
-19.61152
-14.99757
-9.820635
-4.749973
-0.2314
3.500664
6.42665
8.634688
10.2187
11.25779
11.82983
12.08512
12.18455
12.33589
12.6467
13.08831
13.52893
13.81101
13.8494
13.64494
13.32483
12.94984
12.51373
11.9558
11.20557
10.29221
9.298368
8.364966
7.5619
6.870195
6.062103
4.871639
3.123622
0.83478
-1.761328
-4.35879
-6.644813
-8.450263
-9.812924
-10.94992
-12.16374
-13.71214
-15.67742
-17.92027
-20.13894
-21.89067
-22.70967
-22.21548
-20.25317
-16.87586
-12.43373
-7.495008
-2.673175
1.502407
4.737926
7.022397
8.572453
9.672824
10.56215
11.34643
11.97372
12.38349
12.54335
12.5534
12.52764
12.6246
12.91957
13.37936
13.90782
14.36349
14.65457
14.74837
14.6768
14.44783
14.05497
13.46507
12.62022
11.49543
10.12259
8.59132
7.00591
5.458191
3.97396
2.516233
1.015925
-0.5955422
-2.344099
-4.236433
-6.211142
-8.252766
-10.35717
-12.56944
-14.89688
-17.29578
-19.59514
-21.49907
-22.66879
-22.749
-21.51532
-18.99333
-15.45155
-11.32016
-7.113073
-3.234407
0.067137
2.693582
4.682051
6.106819
7.01644
7.471461
7.559719
7.404793
7.140844
6.92452
6.860418
7.004511
7.376586
7.913729
8.542755
9.188807
9.781555
10.25327
10.55597
10.60746
10.29417
9.570216
8.424046
6.927744
5.268891
3.620523
2.114712
0.7806482
-0.4571152
-1.705699
-3.045735
-4.504067
-6.05144
-7.616433
-9.183143
-10.72279
-12.26992
-13.9158
-15.75288
-17.85947
-20.15962
-22.37472
-23.97425
-24.39612
-23.15588
-20.10944
-15.58405
-10.25438
-4.937727
-0.3099937
3.272438
5.862635
7.742939
9.19486
10.38451
11.23482
11.60862
11.4362
10.81667
10.04156
9.517631
9.531447
10.1111
11.01451
11.80733
12.12622
11.76542
10.83519
9.610496
8.403784
7.417344
6.67182
6.034252
5.303494
4.357076
3.129275
1.702329
0.1954861
-1.344804
-2.912849
-4.566916
-6.34375
-8.266664
-10.3222
-12.46575
-14.67443
-16.89972
-19.15036
-21.36041
-23.33561
-24.72509
-25.06919
-23.88827
-20.89232
-16.17285
-10.19032
-3.717602
2.452425
7.644186
11.49517
13.91052
15.02538
15.08671
14.3751
13.19102
11.79042
10.43664
9.301997
8.500796
8.11415
8.16306
8.627889
9.404479
10.32402
11.16164
11.74149
12.00969
11.97861
11.76899
11.42594
10.9707
10.29305
9.243112
7.688067
5.618914
3.162383
0.5368671
-1.981049
-4.232768
-6.153541
-7.825774
-9.382735
-11.01682
-12.83699
-14.8961
-17.17393
-19.57778
-21.95451
-24.09057
-25.65971
-26.23924
-25.47026
-23.14858
-19.34428
-14.42368
-8.911909
-3.386171
1.688378
6.0214
9.4905
12.10369
13.8708
14.86537
15.14502
14.83231
14.08982
13.10588
12.10478
11.28501
10.81839
10.72671
10.96155
11.37349
11.80953
12.12871
12.20892
12.00445
11.48038
10.64668
9.500942
8.085196
6.458077
4.760865
3.135675
1.662978
0.3609877
-0.8831897
-2.197041
-3.755268
-5.585022
-7.629362
-9.725817
-11.73844
-13.65579
-15.55205
-17.55979
-19.69354
-21.75315
-23.32349
-23.86972
-22.97396
-20.43292
-16.47729
-11.5838
-6.431678
-1.654902
2.384498
5.589835
8.084299
10.01058
11.52978
12.6206
13.30659
13.56867
13.49699
13.28674
13.09484
13.07623
13.22345
13.52094
13.82639
14.0451
14.06046
13.81742
13.32638
12.60411
11.70295
10.56613
9.162406
7.454449
5.507698
3.465797
1.544935
-0.03821754
-1.207783
-2.046535
-2.793067
-3.687239
-4.890829
-6.427179
-8.216228
-10.12363
-12.03248
-13.95017
-15.93822
-18.10759
-20.48992
-22.94918
-25.12898
-26.48395
-26.47439
-24.77101
-21.39948
-16.73013
-11.38772
-6.006524
-1.129472
2.968469
6.189076
8.521116
9.97261
10.57098
10.41688
9.718671
8.776545
7.870369
7.258665
7.008467
7.072213
7.301291
7.548509
7.723444
7.79729
7.799796
7.701138
7.485243
7.052735
6.336364
5.307531
4.011874
2.514646
0.921
-0.6533542
-2.17369
-3.606943
-4.964021
-6.260922
-7.481941
-8.693216
-9.957879
-11.37011
-12.92807
-14.60899
-16.32989
-18.01036
-19.56226
-20.89003
-21.8413
-22.15276
-21.51364
-19.64869
-16.49299
-12.28998
-7.542524
-2.814167
1.437186
4.967334
7.790759
9.966742
11.57698
12.58762
13.00608
12.84207
12.24991
11.48084
10.81125
10.47862
10.60321
11.16144
12.00138
12.92869
13.71668
14.18545
14.25333
13.91526
13.27424
12.4595
11.59267
10.69369
9.708052
8.508884
6.980129
5.059404
2.723629
0.1165905
-2.648087
-5.379574
-7.924232
-10.1832
-12.11419
-13.77416
-15.28881
-16.86192
-18.64928
-20.77929
-23.16422
-25.46396
-27.08795
-27.34747
-25.69519
-21.92065
-16.32153
-9.61832
-2.798901
3.241035
7.903625
11.00967
12.74517
13.5031
13.70132
13.62081
13.44561
13.2021
12.94162
12.72101
12.60608
12.69262
13.01655
13.57309
14.26142
15.00695
15.69513
16.24883
16.57764
16.5634
16.08616
15.08602
13.59301
11.73028
9.723892
7.732872
5.892769
4.217724
2.698257
1.291458
-0.03006744
-1.298244
-2.522087
-3.689137
-4.848484
-6.100319
-7.611877
-9.593769
-12.25981
-15.62517
-19.46245
-23.22604
-26.13587
-27.42907
-26.62287
-23.65162
-18.91286
-13.14852
-7.155228
-1.637653
2.965286
6.481968
8.942303
10.50009
11.32868
11.60724
11.50027
11.21191
10.97676
11.01925
11.4705
12.33408
13.51244
14.79043
15.94333
16.78506
17.23229
17.26871
16.95298
16.36214
15.4914
14.37171
13.00419
11.46368
9.85656
8.384335
7.213684
6.41201
5.895092
5.360115
4.449249
2.865383
0.5808907
-2.216484
-5.134056
-7.852745
-10.20589
-12.19595
-14.01423
-15.87253
-17.94531
-20.2007
-22.49916
-24.50559
-25.80884
-26.00881
-24.74737
-21.85299
-17.42508
-11.83718
-5.637661
0.5578461
6.211063
10.94428
14.52204
16.92091
18.23565
18.63659
18.31775
17.48148
16.30925
14.96291
13.58554
12.24895
11.07705
10.15902
9.629303
9.544418
9.907619
10.57741
11.30342
11.81335
11.81752
11.26871
10.17774
8.743763
7.179615
5.640965
4.186369
2.798574
1.411757
-0.08444214
-1.722908
-3.554291
-5.563089
-7.686081
-9.825699
-11.867
-13.70518
-15.31538
-16.78538
-18.2153
-19.78194
-21.56565
-23.47989
-25.26973
-26.47042
-26.5502
-25.06228
-21.87936
-17.21348
-11.64097
-5.905478
-0.6711693
3.583418
6.746813
8.93416
10.3963
11.37762
11.96799
12.16736
11.91894
11.25048
10.22264
9.008806
7.802872
6.786564
6.072412
5.65749
5.481035
5.443462
5.474524
5.541079
5.669857
5.817775
5.913704
5.784534
5.275074
4.268726
2.783205
1.021198
-0.763299
-2.328293
-3.586172
-4.58128
-5.466456
-6.388726
-7.438394
-8.642662
-9.972218
-11.40797
-12.95415
-14.67469
-16.62781
-18.75675
-20.82018
-22.38828
-22.92446
-21.96411
-19.32402
-15.22594
-10.20854
-4.993155
-0.2404194
3.675901
6.677292
8.88283
10.48399
11.57794
12.19602
12.40068
12.28869
12.0367
11.84894
11.8971
12.2081
12.74831
13.37495
13.92048
14.2262
14.14586
13.59512
12.57806
11.25676
9.842648
8.605228
7.707331
7.166639
6.833374
6.485504
5.891001
4.889959
3.452616
1.624876
-0.5283356
-2.934269
-5.542843
-8.320627
-11.23072
-14.22535
-17.25828
-20.27509
-23.27065
-26.20633
-28.92323
-31.11337
-32.2611
-31.80031
-29.29054
-24.66602
-18.31918
-11.09519
-3.974745
2.18075
6.840796
9.959738
11.80372
12.78159
13.21354
13.25772
12.90346
12.12961
11.01829
9.748714
8.579315
7.749454
7.359846
7.383614
7.732529
8.291569
8.990635
9.800566
10.64136
11.40326
11.93708
12.09243
11.83649
11.26328
10.51248
9.70553
8.845675
7.839678
6.584608
4.987453
3.045004
0.8358097
-1.513912
-3.845501
-6.031227
-7.985748
-9.67922
-11.18085
-12.72631
-14.6282
-17.14799
-20.27514
-23.61935
-26.43593
-27.83428
-27.13212
-24.05782
-18.96287
-12.60603
-5.883337
0.4026279
5.76264
9.995548
13.07804
15.07352
16.14145
16.44448
16.21687
15.69968
15.11157
14.60571
14.2162
13.90351
13.58244
13.25777
13.01014
12.92041
13.03522
13.27625
13.4685
13.34313
12.66804
11.36267
9.57593
7.603184
5.735559
4.191008
2.960409
1.89937
0.8344193
-0.4228973
-1.906279
-3.556196
-5.255211
-6.890293
-8.411085
-9.902813
-11.49693
-13.32359
-15.50788
-18.08916
-20.99415
-23.97408
-26.59986
-28.28209
-28.45374
-26.74012
-23.08927
-17.90132
-11.90961
-5.981478
-0.7717476
3.349344
6.359598
8.428659
9.735075
10.44528
10.62974
10.33621
9.669128
8.79059
7.87475
7.101208
6.598711
6.414783
6.605843
7.136339
7.890909
8.663576
9.223227
9.341074
8.943172
8.06295
6.862705
5.549038
4.227757
2.930119
1.602631
0.2232132
-1.220608
-2.681465
-4.134453
-5.584904
-7.037594
-8.567142
-10.14108
-11.7413
-13.37757
-15.11738
-17.03114
-19.10308
-21.15221
-22.73087
-23.34572
-22.47039
-19.86966
-15.71777
-10.51233
-4.943035
0.363739
4.959351
8.701801
11.53687
13.5697
14.83609
15.40757
15.33171
14.66729
13.51483
11.99147
10.33014
8.775749
7.650227
7.159485
7.407551
8.281296
9.474033
10.60375
11.35568
11.57983
11.29642
10.68761
9.948006
9.210213
8.51392
7.716225
6.645805
5.150017
3.196079
0.9401283
-1.413063
-3.653416
-5.710377
-7.636364
-9.567169
-11.5743
-13.73241
-16.08798
-18.68097
-21.52645
-24.50359
-27.27588
-29.25729
-29.7819
-28.3019
-24.69217
-19.30835
-12.8891
-6.325275
-0.3509369
4.605507
8.475384
11.41324
13.60719
15.14356
16.09007
16.50936
16.50832
16.2574
15.94028
15.61447
15.29784
14.94388
14.51013
14.07313
13.719
13.48314
13.3635
13.23869
12.9446
12.36869
11.46174
10.27776
8.931854
7.55986
6.211014
4.929535
3.665825
2.392715
1.067924
-0.3201981
-1.752533
-3.18927
-4.546989
-5.800308
-6.893387
-7.910965
-8.99102
-10.36472
-12.25816
-14.78162
-17.77985
-20.80007
-23.17076
-24.14175
-23.2357
-20.33979
-15.83709
-10.45074
-4.929901
0.09351349
4.343269
7.787277
10.52911
12.70513
14.35955
15.52224
16.1875
16.45684
16.40063
16.1254
15.72954
15.34921
15.1103
15.05075
15.19191
15.43947
15.65828
15.7209
15.55389
15.0864
14.31892
13.26327
11.93768
10.45766
9.043724
7.87603
7.064407
6.52317
5.94632
4.954361
3.290298
0.9335938
-1.844597
-4.567497
-6.837864
-8.47155
-9.580597
-10.52198
-11.73153
-13.50886
-15.88434
-18.59803
-21.10559
-22.82514
-23.21366
-21.97586
-19.1187
-14.96558
-10.07843
-5.088009
-0.587368
3.040874
5.643536
7.352852
8.433498
9.171143
9.734699
10.13488
10.26907
10.0548
9.536602
8.912579
8.424297
8.254204
8.388638
8.667446
8.863953
8.833359
8.566418
8.154049
7.737007
7.33205
6.878513
6.199448
5.250671
4.039589
2.683411
1.265625
-0.2018509
-1.764072
-3.504349
-5.430248
-7.495243
-9.541233
-11.47261
-13.24548
-14.95869
-16.74754
-18.76779
-21.06198
-23.51625
-25.84571
-27.52713
-27.98856
-26.71924
-23.52939
-18.61441
-12.54099
-6.07209
0.09077072
5.44128
9.763893
13.00132
15.20005
16.36501
16.57084
15.97656
14.81296
13.41618
12.04531
10.89332
10.01342
9.412941
9.08782
9.08255
9.415792
10.01607
10.72134
11.2894
11.49115
11.11389
10.13285
8.635935
6.802649
4.849262
2.92271
1.110851
-0.6041069
-2.269316
-3.959658
-5.653156
-7.313166
-8.922913
-10.43836
-11.90575
-13.32643
-14.77718
-16.34956
-18.15148
-20.23992
-22.48413
-24.56364
-25.88068
-25.80275
-23.88019
-20.07804
-14.8051
-8.828114
-2.970507
2.131748
6.178514
9.22941
11.50139
13.21298
14.43336
15.13733
15.21478
14.632
13.49137
12.03997
10.58991
9.449743
8.80073
8.698719
9.081736
9.834209
10.79469
11.7828
12.56754
12.94679
12.76114
11.97157
10.67134
9.039625
7.297043
5.58621
3.997881
2.511297
1.071564
-0.3800678
-1.899975
-3.563522
-5.384035
-7.337198
-9.389748
-11.48941
-13.66949
-16.03519
-18.68924
-21.65841
-24.7761
-27.56121
-29.37449
-29.51752
-27.55606
-23.46955
-17.68268
-10.92408
-4.017302
2.35565
7.751497
11.97926
15.042
16.98606
17.88825
17.86011
17.10957
15.83861
14.30899
12.76142
11.32956
10.13243
9.292448
8.894515
8.981108
9.503325
10.2972
11.13099
11.79008
12.08834
11.98799
11.53505
10.81866
9.92062
8.844622
7.617766
6.228245
4.737497
3.212637
1.749751
0.3945932
-0.8429494
-2.03391
-3.311921
-4.805067
-6.614838
-8.800987
-11.35428
-14.19138
-17.23087
-20.33166
-23.24349
-25.60216
-26.94482
-26.80477
-24.87282
-21.1253
-15.88467
-9.818519
-3.718758
1.749961
6.185479
9.535074
11.92023
13.54519
14.54944
15.00218
14.94442
14.4731
13.8074
13.18186
12.82148
12.80121
13.08569
13.52003
13.97243
14.31323
14.43473
14.27177
13.71792
12.78272
11.52769
10.11336
8.71879
7.478108
6.357303
5.189483
3.770085
1.865557
-0.5414724
-3.328403
-6.229949
-8.988843
-11.40658
-13.45087
-15.17418
-16.71806
-18.23813
-19.85069
-21.65031
-23.65108
-25.72012
-27.51857
-28.59264
-28.42594
-26.67797
-23.36499
-18.83739
-13.73022
-8.763887
-4.446865
-1.025537
1.51339
3.365412
4.726147
5.681477
6.244547
6.380898
6.044266
5.337006
4.488075
3.754171
3.368174
3.421772
3.818926
4.376305
4.939621
5.368542
5.651836
5.844105
5.927347
5.800961
5.281256
4.191698
2.522093
0.3839264
-1.971468
-4.297805
-6.43637
-8.300541
-9.868365
-11.17478
-12.31902
-13.35212
-14.41137
-15.60972
-17.0357
-18.67758
-20.36353
-21.7184
-22.30894
-21.78297
-19.90294
-16.74744
-12.65023
-8.166021
-3.855496
-0.1815343
2.698425
4.875741
6.551306
7.916065
8.981898
9.579018
9.547448
8.875187
7.836572
6.92041
6.648371
7.328297
8.833081
10.74389
12.42846
13.43239
13.55046
12.88235
11.70877
10.29645
8.830315
7.328577
5.739731
3.965189
2.005455
-0.1276417
-2.373236
-4.671904
-6.938057
-9.132555
-11.20026
-13.09001
-14.82405
-16.50263
-18.27994
-20.30512
-22.55479
-24.72893
-26.28292
-26.56755
-25.05527
-21.6264
-16.6318
-10.72147
-4.72868
0.7112617
5.205215
8.631966
11.04409
12.57817
13.37498
13.53173
13.21188
12.5668
11.76752
10.98304
10.35218
9.989449
9.986023
10.32424
10.90526
11.55143
12.04059
12.22787
12.05329
11.62475
11.10542
10.63181
10.2259
9.789688
9.198303
8.302567
7.074333
5.568405
3.863029
2.046219
0.1698761
-1.765572
-3.765907
-5.84285
-8.024033
-10.36074
-12.92776
-15.81154
-18.99952
-22.30874
-25.36787
-27.64268
-28.5629
-27.69864
-24.88904
-20.34361
-14.59892
-8.403366
-2.470078
2.685287
6.84967
10.04833
12.42738
14.16338
15.35625
16.07951
16.36639
16.31871
15.9999
15.53608
15.05763
14.65316
14.47092
14.60335
15.10652
15.95624
17.01427
18.03973
18.77179
19.00758
18.6253
17.65015
16.21259
14.48679
12.64435
10.78619
8.907471
6.928848
4.73584
2.283585
-0.350296
-2.994247
-5.467438
-7.603073
-9.395676
-10.96848
-12.5376
-14.32091
-16.51605
-19.15182
-22.14041
-25.22078
-27.88399
-29.52815
-29.49985
-27.37158
-23.09747
-17.10202
-10.11732
-3.014969
3.421051
8.729141
12.74124
15.52856
17.2784
18.16792
18.37108
18.07263
17.45386
16.76489
16.23505
16.05104
16.26158
16.79704
17.45825
18.05334
18.47418
18.69803
18.79704
18.85403
18.86523
18.71471
18.24101
17.33051
15.97736
14.33682
12.6013
10.96208
9.473038
8.017059
6.390472
4.360733
1.796036
-1.265076
-4.611023
-7.951462
-10.96637
-13.51689
-15.63554
-17.50981
-19.41963
-21.61282
-24.17778
-26.96751
-29.62692
-31.58797
-32.26967
-31.18677
-28.13394
-23.29034
-17.17082
-10.55246
-4.159042
1.44281
5.955505
9.329132
11.64986
13.08531
13.78862
13.89967
13.57007
12.95543
12.22112
11.50339
10.94548
10.65633
10.71585
11.13974
11.88921
12.80318
13.68425
14.31068
14.53328
14.23145
13.38058
11.97804
10.127
8.005981
5.90976
4.125977
2.819778
1.952667
1.236786
0.3385162
-0.9764404
-2.695923
-4.627991
-6.450531
-8.01239
-9.355865
-10.7112
-12.40553
-14.69341
-17.68687
-21.20808
-24.87524
-28.01831
-29.92569
-29.94331
-27.72559
-23.33514
-17.24823
-10.23776
-3.080856
3.534348
9.12561
13.44601
16.4213
18.13994
18.84645
18.86412
18.51343
18.05011
17.61993
17.23895
16.89081
16.60236
16.45062
16.50685
16.79588
17.23709
17.64571
17.86386
17.78558
17.37576
16.64813
15.65149
14.39848
12.93225
11.34521
9.7565
8.304962
7.044662
5.886673
4.605652
2.971313
0.8344269
-1.719147
-4.453217
-7.096344
-9.476761
-11.60869
-13.60945
-15.70546
-18.10928
-20.93759
-24.18706
-27.67705
-31.04564
-33.77087
-35.11432
-34.40843
-31.24216
-25.72615
-18.50644
-10.63593
-3.168274
3.067474
7.737366
10.97588
13.14873
14.6804
15.79666
16.58954
17.04506
17.2139
17.2242
17.24109
17.347
17.47923
17.50375
17.25841
16.71568
15.96947
15.2458
14.73125
14.49651
14.43459
14.29796
13.86542
12.9989
11.7331
10.19834
8.589928
7.054779
5.66787
4.407143
3.154968
1.818802
0.3150864
-1.350555
-3.119827
-4.895927
-6.554131
-8.04496
-9.379501
-10.66903
-12.11635
-13.9402
-16.27446
-19.16467
-22.43875
-25.63917
-28.19456
-29.40511
-28.71014
-25.84003
-20.95099
-14.5507
-7.471878
-0.5623779
5.526535
10.38856
13.93772
16.2822
17.62831
18.16653
18.13278
17.72254
17.18562
16.78716
16.66454
16.86274
17.23068
17.52588
17.53881
17.17747
16.52108
15.7444
15.02962
14.38173
13.72959
12.9174
11.8112
10.43398
8.935791
7.492081
6.277374
5.329277
4.515961
3.694344
2.679604
1.370796
-0.2542267
-2.124924
-4.172951
-6.276169
-8.289612
-10.07165
-11.49524
-12.56812
-13.3858
-14.17221
-15.18946
-16.669
-18.6106
-20.8116
-22.79911
-23.95457
-23.73954
-21.80587
-18.14356
-13.11735
-7.4217
-1.768948
3.154785
6.963196
9.577747
11.11754
11.80516
11.8681
11.47983
10.79848
10.01985
9.323576
8.903347
8.853046
9.125515
9.584547
10.03041
10.33302
10.45581
10.45255
10.38039
10.28061
10.13813
9.844007
9.275375
8.331369
6.997605
5.393994
3.711855
2.163547
0.8588276
-0.1967416
-1.144674
-2.160253
-3.394805
-4.900458
-6.636528
-8.454147
-10.25892
-12.02793
-13.81429
-15.72842
-17.85456
-20.2173
-22.69504
-25.04201
-26.88645
-27.79547
-27.40379
-25.45944
-21.99413
-17.34819
-12.10782
-6.962576
-2.44808
1.1171
3.708488
5.461449
6.544052
7.006977
6.827812
6.023041
4.730885
3.269714
1.96051
1.083729
0.7103958
0.7531586
1.000698
1.29483
1.57793
1.872585
2.21183
2.541588
2.750458
2.712044
2.352829
1.653564
0.6508713
-0.6062088
-2.057556
-3.633255
-5.242031
-6.766312
-8.147789
-9.379425
-10.60066
-12.03176
-13.89488
-16.30923
-19.16235
-22.12179
-24.64102
-26.15261
-26.14469
-24.30993
-20.71597
-15.69928
-9.873276
-3.893318
1.632126
6.329147
9.968052
12.484
13.92722
14.39986
14.06202
13.12108
11.83556
10.42225
9.137028
8.067402
7.28001
6.798801
6.595371
6.670017
6.941177
7.352547
7.78315
8.148548
8.319046
8.228806
7.829865
7.108906
6.097088
4.789909
3.22839
1.404873
-0.6198425
-2.787022
-4.964703
-7.00647
-8.875233
-10.58075
-12.32249
-14.34865
-16.91061
-20.05921
-23.59011
-26.9482
-29.38144
-30.23447
-29.01396
-25.73351
-20.84468
-15.07244
-9.207836
-3.859108
0.6429672
4.240597
6.956375
8.954636
10.32582
11.1698
11.56884
11.63224
11.48223
11.25784
11.10157
11.10106
11.32376
11.68588
12.04143
12.19868
11.99957
11.39138
10.47659
9.461494
8.544117
7.880077
7.400578
6.930344
6.229389
5.097862
3.464615
1.421024
-0.8113594
-3.014545
-4.995789
-6.771339
-8.500511
-10.36291
-12.522
-15.039
-17.82734
-20.70962
-23.40678
-25.50855
-26.57203
-26.12355
-23.86337
-19.77809
-14.30444
-8.147196
-2.154808
3.006695
7.07777
10.07796
12.24283
13.8244
15.00593
15.86463
16.44398
16.76191
16.8243
16.71231
16.52294
16.32486
16.17468
16.07405
16.01321
15.91919
15.68998
15.23747
14.555
13.74819
12.95781
12.26045
11.60564
10.8817
9.907852
8.600307
6.936312
4.999037
2.90374
0.7334766
-1.499203
-3.837414
-6.297867
-8.852861
-11.40167
-13.87126
-16.26598
-18.59753
-20.87246
-22.977
-24.64759
-25.48234
-25.05695
-23.09747
-19.62348
-15.04317
-9.97901
-5.113438
-0.970726
2.252949
4.621506
6.363516
7.7097
8.762587
9.468313
9.780422
9.67774
9.256676
8.755402
8.395628
8.351925
8.681971
9.292025
10.02381
10.68929
11.10928
11.15997
10.85165
10.2343
9.436035
8.582497
7.737341
6.926193
6.117403
5.246269
4.233149
3.035233
1.592575
-0.1115227
-2.055502
-4.161945
-6.284237
-8.316809
-10.24023
-12.18308
-14.32811
-16.83737
-19.6692
-22.47643
-24.72525
-25.78555
-25.1936
-22.80404
-18.86118
-13.91157
-8.636669
-3.592451
0.9115238
4.76667
8.018934
10.64873
12.569
13.64514
13.79309
13.12199
11.92846
10.59832
9.456843
8.710108
8.382847
8.398475
8.707648
9.270864
10.024
10.83498
11.48457
11.69207
11.2828
10.24998
8.729695
6.957564
5.130095
3.291441
1.397196
-0.6474609
-2.839656
-5.038849
-7.03825
-8.604987
-9.685428
-10.44121
-11.18699
-12.21567
-13.71388
-15.60993
-17.69753
-19.65668
-21.17036
-21.90932
-21.55846
-19.87275
-16.74879
-12.37253
-7.242054
-2.061748
2.464286
5.901305
8.195738
9.637907
10.61727
11.43322
12.15007
12.66947
12.90176
12.83453
12.64907
12.52988
12.68981
13.19474
13.95904
14.82365
15.60427
16.23664
16.67067
16.91938
16.87515
16.38978
15.28407
13.45416
10.97399
8.048526
5.03628
2.230825
-0.1832333
-2.248731
-4.048599
-5.658442
-7.061198
-8.145867
-8.879831
-9.36405
-9.864271
-10.67687
-12.0439
-14.01132
-16.45509
-19.1106
-21.61544
-23.53746
-24.39145
-23.71302
-21.2113
-16.91197
-11.26113
-5.057786
0.7877793
5.577285
9.005383
11.15335
12.36302
12.99817
13.3007
13.3481
13.1581
12.72744
12.15354
11.53947
10.9813
10.52927
10.20445
10.02616
10.0316
10.32553
10.95407
11.88889
12.96728
13.90789
14.38973
14.20722
13.31276
11.87218
10.20047
8.635015
7.288507
6.127804
4.887427
3.304585
1.301484
-1.051278
-3.479343
-5.733869
-7.677958
-9.336279
-10.86073
-12.41797
-14.14575
-16.10566
-18.2638
-20.49863
-22.5279
-23.89363
-23.99166
-22.28541
-18.57913
-13.13607
-6.650295
-0.08431625
5.744963
10.33689
13.55116
15.5341
16.53537
16.76327
16.39793
15.65392
14.73481
13.94093
13.4292
13.23532
13.23286
13.2269
13.03841
12.59409
12.00483
11.47507
11.28138
11.54928
12.24901
13.13747
13.84444
14.0428
13.58752
12.57466
11.25828
9.988655
8.883327
7.885605
6.776054
5.306297
3.402695
1.174759
-1.084396
-3.179066
-4.963127
-6.494556
-7.946327
-9.474358
-11.19815
-13.1227
-15.258
-17.57941
-20.10513
-22.71011
-25.03873
-26.53716
-26.57899
-24.72776
-20.94942
-15.7506
-9.963257
-4.523788
-0.1394119
2.915886
4.772728
5.83593
6.471741
6.959579
7.331139
7.553421
7.529449
7.323761
7.044571
6.852715
6.872612
7.092781
7.41404
7.716385
7.975822
8.172241
8.391357
8.617111
8.726196
8.559189
7.936172
6.825455
5.353081
3.802605
2.400047
1.257126
0.3006516
-0.6935883
-1.941635
-3.584229
-5.551933
-7.678459
-9.750885
-11.63918
-13.30659
-14.79735
-16.241
-17.69225
-19.25302
-20.835
-22.22597
-23.00682
-22.73264
-21.0328
-17.88369
-13.65026
-8.905724
-4.352432
-0.4188766
2.747726
5.255844
7.253212
8.811447
9.860176
10.25231
9.994095
9.21843
8.171913
7.135483
6.330406
5.877464
5.826775
6.125702
6.675125
7.333649
7.887024
8.13942
8.006332
7.454727
6.593887
5.576569
4.489456
3.363525
2.173233
0.8600769
-0.6055756
-2.189713
-3.837158
-5.482269
-7.028305
-8.465775
-9.825211
-11.17958
-12.62721
-14.23459
-15.99869
-17.86288
-19.71855
-21.33998
-22.48013
-22.72942
-21.71425
-19.17583
-15.11829
-9.915726
-4.256485
1.080658
5.509918
8.724167
10.82454
12.09869
12.86061
13.3334
13.6033
13.64259
13.41792
12.98573
12.39784
11.75266
11.14091
10.57477
10.10602
9.66124
9.172546
8.54538
7.751175
6.798615
5.733643
4.674866
3.706284
2.943726
2.33812
1.777161
1.099777
0.186615
-1.004105
-2.35553
-3.71106
-4.970825
-6.141357
-7.377487
-8.833618
-10.58557
-12.54247
-14.54587
-16.40205
-18.08762
-19.68242
-21.16454
-22.30708
-22.63147
-21.57808
-18.85695
-14.65009
-9.615845
-4.646011
-0.5023346
2.491074
4.487762
5.930069
7.277054
8.720444
10.12767
11.23247
11.75844
11.65321
11.08105
10.34889
9.747818
9.440979
9.391815
9.435699
9.40181
9.150131
8.657562
7.934052
7.020279
6.000504
4.984451
4.086075
3.408142
2.96669
2.607132
2.114502
1.272263
0.02326965
-1.525452
-3.163208
-4.776581
-6.372665
-8.070862
-10.05519
-12.36148
-14.86024
-17.34328
-19.576
-21.37798
-22.59035
-22.98364
-22.17448
-19.82622
-15.8102
-10.42346
-4.428711
1.21109
5.656326
8.548172
10.07088
10.78001
11.23851
11.71178
12.11295
12.14528
11.62123
10.61734
9.495865
8.682236
8.454422
8.767212
9.343002
9.859695
10.09985
10.08594
9.943039
9.852417
9.869812
9.924225
9.807892
9.350113
8.471741
7.161453
5.521652
3.65358
1.698547
-0.2689056
-2.181717
-4.023956
-5.820236
-7.54834
-9.232498
-10.85356
-12.42789
-13.99286
-15.65512
-17.40793
-19.11983
-20.43742
-20.87709
-19.99567
-17.57584
-13.80367
-9.192932
-4.432373
-0.1504517
3.289154
5.809479
7.491943
8.483444
8.875275
8.638306
7.78952
6.401871
4.683075
2.987289
1.694778
1.105148
1.347672
2.3134
3.688034
5.111481
6.227844
6.804581
6.805099
6.321854
5.527176
4.530991
3.317276
1.765686
-0.1690826
-2.456085
-4.872253
-7.059189
-8.762726
-9.936172
-10.72571
-11.41106
-12.2355
-13.30031
-14.62141
-16.1628
-17.8609
-19.61694
-21.1821
-22.1096
-21.87595
-20.08299
-16.67946
-12.05708
-6.834259
-1.734406
2.70166
6.19313
8.685181
10.20201
10.79395
10.54318
9.574631
8.169998
6.641693
5.324768
4.440491
4.092041
4.241592
4.734726
5.433273
6.18779
6.897751
7.431213
7.730942
7.687057
7.243774
6.379898
5.109985
3.515976
1.689255
-0.2197723
-2.082062
-3.724312
-5.051468
-6.07283
-6.878532
-7.678741
-8.701378
-10.17213
-12.19704
-14.73039
-17.5015
-20.0104
-21.65137
-21.80742
-20.12529
-16.62637
-11.76396
-6.280609
-0.9581223
3.592972
7.124542
9.676216
11.48454
12.76124
13.60337
13.98586
13.91619
13.48818
12.9366
12.54642
12.53083
12.94358
13.62332
14.25578
14.52505
14.23737
13.42373
12.27773
11.08912
10.04978
9.173439
8.261604
7.032448
5.25621
2.925682
0.2351303
-2.480057
-4.894714
-6.855003
-8.38987
-9.690453
-10.92567
-12.19106
-13.54898
-15.07306
-16.84132
-18.86397
-21.03484
-22.98045
-24.1506
-23.94714
-21.97887
-18.33195
-13.52996
-8.333916
-3.487877
0.5645294
3.726685
6.163933
8.133415
9.801331
11.18645
12.20228
12.80975
13.03426
13.0004
12.8468
12.68365
12.56161
12.43346
12.29616
12.19217
12.18483
12.29112
12.50621
12.71878
12.77376
12.49568
11.77139
10.60315
9.178959
7.707859
6.340508
5.186611
4.17725
3.199512
2.086994
0.7439003
-0.8827629
-2.766937
-4.868557
-7.144634
-9.571896
-12.16291
-14.9251
-17.84076
-20.75504
-23.3178
-24.98056
-25.14445
-23.36804
-19.61739
-14.35083
-8.373272
-2.509445
2.608894
6.710781
9.819702
12.08612
13.61134
14.42255
14.54797
14.15677
13.51974
12.94033
12.62839
12.63342
12.92901
13.44859
14.20461
15.19521
16.3994
17.68163
18.82525
19.58192
19.77499
19.33262
18.26221
16.65467
14.59347
12.19525
9.624397
7.051655
4.63485
2.488943
0.5968857
-1.09263
-2.618982
-4.030775
-5.351807
-6.58563
-7.792126
-9.054525
-10.49216
-12.19031
-14.21854
-16.48912
-18.81824
-20.84626
-22.06325
-21.96326
-20.2299
-16.96067
-12.64456
-8.114351
-4.109222
-1.073793
0.9405537
2.19212
2.980591
3.501812
3.737423
3.620968
3.157223
2.571405
2.165625
2.215286
2.80032
3.812584
5.080637
6.410646
7.695383
8.83839
9.757738
10.30096
10.34243
9.84679
8.850863
7.533278
6.016874
4.384874
2.616062
0.6795444
-1.409105
-3.549229
-5.533037
-7.256918
-8.670441
-9.842772
-10.8859
-11.86649
-12.87305
-13.93746
-15.13488
-16.484
-17.94584
-19.27809
-20.09252
-19.87
-18.21534
-15.08932
-10.7968
-5.947076
-1.17326
3.036347
6.496914
9.182421
11.20921
12.66257
13.5512
13.86035
13.59209
12.85771
11.91173
11.06966
10.58743
10.56178
10.94707
11.52602
12.06693
12.36728
12.34442
12.00545
11.42401
10.62401
9.533075
8.091602
6.283498
4.251434
2.176303
0.2681406
-1.398127
-2.89512
-4.366618
-5.975563
-7.7773
-9.718914
-11.66417
-13.55967
-15.43669
-17.44294
-19.70047
-22.16144
-24.55564
-26.34722
-26.90627
-25.68307
-22.48072
-17.58855
-11.68715
-5.661665
-0.2102566
4.24238
7.670765
10.29366
12.36196
14.02
15.25523
16.05257
16.40526
16.43738
16.26537
15.99609
15.68202
15.34962
15.07665
14.94726
15.00109
15.16287
15.30093
15.2107
14.76094
13.9416
12.82144
11.53355
10.09381
8.460833
6.526802
4.274078
1.780113
-0.7226124
-3.036392
-5.085962
-6.890869
-8.555813
-10.16018
-11.70742
-13.09865
-14.35106
-15.5799
-17.01704
-18.92466
-21.28899
-23.7543
-25.6175
-26.11738
-24.67097
-21.20103
-16.09909
-10.07976
-3.971455
1.630087
6.341841
10.04906
12.72889
14.42361
15.22588
15.29147
14.8892
14.28877
13.74226
13.32909
13.04581
12.85122
12.73132
12.75259
13.01367
13.54664
14.2238
14.852
15.15968
14.96763
14.2559
13.11509
11.7093
10.1929
8.650545
7.051004
5.297155
3.309675
1.029057
-1.467796
-3.969469
-6.223541
-8.04635
-9.3916
-10.38662
-11.29694
-12.3582
-13.79349
-15.68722
-17.97107
-20.43905
-22.70946
-24.19993
-24.27465
-22.46203
-18.64305
-13.22849
-7.023527
-0.9037971
4.438347
8.714808
11.97814
14.44733
16.27532
17.46812
17.92708
17.58083
16.53661
15.01006
13.3691
11.91007
10.87251
10.3741
10.44131
10.96319
11.73588
12.54524
13.09771
13.22933
12.86378
12.04704
10.91552
9.686041
8.513224
7.535912
6.719568
5.885731
4.824709
3.340546
1.372665
-1.004959
-3.607725
-6.19944
-8.573345
-10.65559
-12.49401
-14.18923
-15.87997
-17.6766
-19.62201
-21.66808
-23.5551
-24.87978
-25.13469
-23.94444
-21.14048
-16.9152
-11.82468
-6.537007
-1.703094
2.271685
5.220049
7.216944
8.417352
9.003214
9.09775
8.798818
8.192298
7.386677
6.518095
5.73177
5.166701
4.878799
4.889002
5.118646
5.480354
5.94013
6.427142
6.905469
7.253043
7.339396
6.991426
6.077093
4.575243
2.553176
0.2119284
-2.256115
-4.676333
-6.973926
-9.117748
-11.16555
-13.16206
-15.1039
-16.92617
-18.5485
-19.93027
-21.09624
-22.12831
-23.02692
-23.63448
-23.56419
-22.32969
-19.58491
-15.2785
-9.785072
-3.81138
1.890923
6.749256
10.52097
13.26988
15.20814
16.45325
17.02025
16.84958
15.92091
14.43472
12.7161
11.20645
10.22238
9.909739
10.09094
10.44302
10.60435
10.36224
9.731909
8.89303
8.10911
7.517357
7.105284
6.654053
5.877119
4.552633
2.662457
0.3895035
-1.979471
-4.186075
-6.092922
-7.774307
-9.419722
-11.23082
-13.37534
-15.88979
-18.6595
-21.5278
-24.20502
-26.29589
-27.33201
-26.81825
-24.37925
-20.04989
-14.25979
-7.802692
-1.604057
3.600323
7.438694
9.961185
11.5049
12.4789
13.15347
13.61765
13.78708
13.53824
12.84186
11.83009
10.72548
9.804813
9.249817
9.074711
9.158173
9.305927
9.373028
9.327763
9.219681
9.111244
9.025986
8.873085
8.532425
7.892063
6.912899
5.627426
4.141212
2.544228
0.9069176
-0.6829262
-2.239407
-3.771988
-5.369068
-7.152283
-9.297745
-11.96754
-15.2354
-19.01022
-22.95409
-26.50835
-28.94327
-29.57151
-27.965
-24.14548
-18.58924
-12.07737
-5.493595
0.4263153
5.247425
8.824432
11.23428
12.64138
13.23854
13.18826
12.63935
11.80179
10.93871
10.24283
9.902531
10.00297
10.4389
11.07835
11.71903
12.20314
12.51978
12.75307
12.92717
12.98189
12.78042
12.11623
10.89359
9.144623
7.004585
4.680122
2.377167
0.2195969
-1.702087
-3.31884
-4.578964
-5.490677
-6.19281
-6.989624
-8.163757
-9.942879
-12.41059
-15.46097
-18.88646
-22.37029
-25.46177
-27.62779
-28.31889
-27.07716
-23.75167
-18.59428
-12.22112
-5.524246
0.6453094
5.721573
9.508186
12.07166
13.64796
14.47019
14.69247
14.46894
13.91533
13.20035
12.52499
12.04796
11.86893
12.02399
12.49878
13.22221
14.16399
15.1774
16.09251
16.7021
16.79737
16.23842
15.01496
13.27303
11.24515
9.19294
7.286629
5.613342
4.120316
2.72348
1.349968
-0.01499939
-1.325119
-2.540627
-3.67392
-4.87027
-6.304825
-8.144653
-10.49812
-13.34921
-16.58213
-19.94543
-23.06017
-25.38725
-26.37795
-25.54377
-22.65238
-17.92152
-11.92085
-5.477997
0.5765533
5.651703
9.481438
12.11045
13.72002
14.51765
14.6379
14.24111
13.44559
12.47384
11.53873
10.83398
10.47689
10.42896
10.58036
10.72662
10.76819
10.61249
10.28855
9.83979
9.356804
8.891098
8.408073
7.859314
7.116081
6.100311
4.748375
3.020966
0.9462891
-1.377052
-3.796661
-6.187721
-8.444893
-10.49561
-12.31837
-13.88908
-15.26237
-16.54292
-17.90474
-19.46655
-21.26013
-23.04688
-24.34546
-24.53206
-23.09885
-19.91111
-15.27644
-9.888039
-4.506767
0.2429428
4.077644
7.002045
9.135689
10.5796
11.35147
11.42892
10.85181
9.802803
8.56356
7.48613
6.834396
6.668068
6.898132
7.319695
7.692123
7.852501
7.719498
7.373337
6.948822
6.555252
6.20755
5.796165
5.142258
4.038216
2.35067
0.08924103
-2.575424
-5.347412
-7.942963
-10.18715
-12.04781
-13.63046
-15.12538
-16.69969
-18.4555
-20.40498
-22.44759
-24.36263
-25.74216
-26.07626
-24.90871
-21.98492
-17.39915
-11.59492
-5.284225
0.8375626
6.180573
10.46799
13.60742
15.65735
16.74802
17.00024
16.61356
15.73885
14.62456
13.48906
12.55861
12.04435
12.0655
12.59634
13.43382
14.28545
14.83625
14.95506
14.68124
14.11567
13.38123
12.44077
11.12705
9.275864
6.830048
3.900818
0.7650909
-2.28215
-5.06855
-7.511986
-9.666878
-11.60834
-13.43589
-15.24377
-17.1916
-19.39491
-21.87109
-24.5063
-26.93645
-28.70382
-29.25335
-28.17129
-25.26053
-20.69038
-14.88577
-8.476715
-2.166214
3.429886
7.885574
11.02647
12.90846
13.797
14.04233
14.00522
13.91771
13.88263
13.91058
13.97299
14.0903
14.32681
14.69664
15.12611
15.44962
15.45656
15.02899
14.23378
13.2348
12.20108
11.2101
10.20818
9.095978
7.788605
6.332367
4.780167
3.24379
1.770584
0.2920532
-1.275375
-3.026428
-5.034195
-7.350708
-10.00429
-13.06476
-16.58469
-20.52928
-24.70988
-28.70363
-31.91602
-33.65559
-33.34674
-30.76204
-26.1256
-20.03354
-13.27702
-6.617661
-0.5185242
4.826553
9.43837
13.42697
16.79346
19.43999
21.19061
21.98303
21.84886
21.10674
20.11893
19.24387
18.68607
18.43562
18.3721
18.2977
18.15477
17.94914
17.78435
17.72736
17.74475
17.6965
17.38908
16.70935
15.61569
14.21315
12.55579
10.70474
8.596573
6.192886
3.485855
0.5292816
-2.518448
-5.499863
-8.286942
-10.85281
-13.21852
-15.43944
-17.61171
-19.83337
-22.1705
-24.549
-26.71387
-28.14227
-28.23648
-26.50772
-22.7793
-17.36864
-10.98891
-4.477158
1.447052
6.352325
10.15665
12.97403
14.97589
16.32317
17.04608
17.2052
16.87515
16.22455
15.48895
14.86314
14.55203
14.61699
15.04858
15.68755
16.41434
17.06351
17.55646
17.87132
17.95395
17.75717
17.14017
15.99055
14.20612
11.85304
9.116165
6.2547
3.564499
1.257996
-0.5928497
-2.072739
-3.343796
-4.575302
-5.860092
-7.206757
-8.613174
-10.06963
-11.72656
-13.77467
-16.44655
-19.79019
-23.53397
-27.12021
-29.73999
-30.62662
-29.28346
-25.6687
-20.20877
-13.68312
-6.960022
-0.766861
4.426132
8.489975
11.45317
13.40526
14.43731
14.58494
13.89417
12.51187
10.7151
8.845078
7.307571
6.38134
6.142036
6.537544
7.33783
8.236938
9.003357
9.507652
9.69175
9.636284
9.386917
8.960243
8.379982
7.564392
6.403412
4.836349
2.818726
0.4293137
-2.122765
-4.639694
-6.918747
-8.855965
-10.51029
-12.00746
-13.49069
-15.13349
-17.06427
-19.3456
-21.96784
-24.71861
-27.11073
-28.51772
-28.26555
-25.89706
-21.3887
-15.19821
-8.140198
-1.170822
4.886887
9.637741
13.03227
15.32471
16.82616
17.75004
18.1415
17.97336
17.22084
15.97144
14.48683
13.05788
11.9865
11.42377
11.33945
11.56534
11.85614
12.01595
11.94913
11.65761
11.20798
10.70668
10.19757
9.631203
8.882416
7.777222
6.236572
4.218506
1.809097
-0.8605576
-3.573227
-6.132957
-8.403679
-10.36852
-12.08878
-13.76647
-15.66796
-18.00903
-20.91206
-24.24763
-27.65637
-30.56953
-32.27845
-32.14738
-29.78915
-25.28092
-19.07687
-11.98495
-4.899597
1.439362
6.587868
10.43016
13.06725
14.71476
15.59192
15.95869
16.02345
15.95189
15.86934
15.81248
15.74943
15.6358
15.4703
15.32793
15.34193
15.57967
16.02196
16.52698
16.893
16.89413
16.3718
15.33551
13.86224
12.13798
10.29807
8.454758
6.631516
4.761902
2.71209
0.3341446
-2.427025
-5.531086
-8.813328
-12.05952
-15.00937
-17.51752
-19.60869
-21.44581
-23.33171
-25.47425
-27.81544
-29.97821
-31.3321
-31.10358
-28.7871
-24.32056
-18.1685
-11.18478
-4.287357
1.827286
6.848587
10.77072
13.74652
15.89815
17.21803
17.7207
17.48661
16.77262
15.89691
15.18306
14.77531
14.64019
14.65417
14.68525
14.75577
14.91266
15.17978
15.45494
15.55469
15.25507
14.46891
13.20138
11.5714
9.750097
7.859179
5.94912
4.046267
2.147556
0.2504635
-1.604298
-3.406454
-5.182064
-6.944244
-8.751429
-10.58351
-12.3708
-14.08147
-15.73686
-17.42006
-19.22741
-21.17897
-23.07516
-24.45309
-24.72392
-23.36779
-20.207
-15.51966
-9.877609
-4.013545
1.482791
6.246477
10.15298
13.15186
15.23119
16.36885
16.56903
15.97708
14.84534
13.49294
12.21109
11.17888
10.41154
9.839443
9.394034
9.033173
8.775566
8.637077
8.603863
8.621187
8.592548
8.430069
8.073193
7.52549
6.806778
5.951017
4.950592
3.797989
2.464899
0.9013004
-0.8882046
-2.920725
-5.16729
-7.581257
-10.08247
-12.56675
-14.91501
-17.02142
-18.85098
-20.41893
-21.84098
-23.20359
-24.52249
-25.60606
-26.082
-25.49284
-23.46992
-19.94724
-15.19994
-9.808346
-4.481689
0.1971397
3.860085
6.437988
8.019096
8.758438
8.76907
8.173275
7.07478
5.609135
4.064613
2.73069
1.898746
1.754913
2.257568
3.160957
4.142689
4.85812
5.085903
4.85918
4.312588
3.652584
3.049786
2.500294
1.898842
1.104465
0.0353241
-1.306366
-2.802322
-4.340706
-5.830376
-7.188156
-8.440742
-9.628784
-10.85484
-12.23802
-13.8943
-15.89912
-18.283
-20.89381
-23.37514
-25.25803
-25.98466
-25.1096
-22.45708
-18.18012
-12.76771
-6.957184
-1.433617
3.297356
6.963028
9.57888
11.32749
12.34657
12.7837
12.74184
12.29704
11.60259
10.87505
10.31565
10.06656
10.16542
10.46316
10.78156
10.89709
10.68309
10.07092
9.074257
7.752499
6.191639
4.545643
2.892544
1.367115
-0.001914978
-1.247013
-2.492153
-3.887894
-5.496696
-7.25333
-8.999241
-10.61589
-12.06628
-13.47239
-15.09041
-17.04938
-19.39064
-21.93778
-24.44779
-26.59813
-28.02881
-28.35157
-27.15733
-24.25083
-19.68279
-13.92617
-7.679234
-1.759647
3.285805
7.236916
10.18975
12.36642
13.85365
14.70489
14.86386
14.46513
13.77967
13.15756
12.83989
12.86082
13.09649
13.30098
13.3391
13.13831
12.73281
12.16783
11.47466
10.66917
9.772026
8.870449
7.97084
7.071964
6.091228
4.964291
3.621941
2.071926
0.347126
-1.491814
-3.366619
-5.233894
-7.049465
-8.829636
-10.62987
-12.56405
-14.77682
-17.33231
-20.20623
-23.17828
-25.86521
-27.7486
-28.27837
-27.01759
-23.80571
-18.85126
-12.77035
-6.377584
-0.465086
4.400242
8.032518
10.54861
12.2113
13.27062
13.90702
14.1995
14.2231
14.1166
14.05385
14.21118
14.675
15.37456
16.09834
16.60182
16.72162
16.36272
15.63476
14.69147
13.68412
12.69792
11.67206
10.54416
9.304248
8.016316
6.714778
5.520183
4.414984
3.337539
2.20126
0.8751364
-0.6927109
-2.476623
-4.422039
-6.464293
-8.504641
-10.53357
-12.60932
-14.82743
-17.34722
-20.18478
-23.13535
-25.69888
-27.18587
-26.90042
-24.46904
-19.99017
-13.98427
-7.322542
-0.8570924
4.764919
9.240081
12.52097
14.7339
16.00557
16.44074
16.21883
15.50111
14.53064
13.51981
12.63623
11.98168
11.57982
11.41495
11.45057
11.69098
12.09597
12.64857
13.2709
13.81185
14.13102
14.07348
13.54423
12.53078
11.13326
9.517924
7.807265
6.040523
4.16337
2.169472
0.07276505
-2.010458
-3.966724
-5.691324
-7.202311
-8.59421
-9.965668
-11.45675
-13.15203
-15.14125
-17.47102
-20.10115
-22.80759
-25.12436
-26.47827
-26.28857
-24.26483
-20.49294
-15.46501
-9.88338
-4.431673
0.3647534
4.265751
7.243814
9.38413
10.79803
11.53413
11.6195
11.11956
10.23517
9.229397
8.405873
7.965198
7.980287
8.353358
8.91679
9.48463
9.885316
10.03605
9.820322
9.161673
8.000944
6.371802
4.435109
2.430521
0.5879421
-0.969418
-2.224346
-3.292558
-4.293695
-5.327654
-6.375792
-7.387633
-8.317114
-9.194372
-10.12377
-11.25754
-12.72597
-14.58471
-16.77302
-19.09
-21.19394
-22.61105
-22.84278
-21.50828
-18.52265
-14.13162
-8.915142
-3.577267
1.254141
5.192787
8.179153
10.33955
11.87495
12.89459
13.41819
13.4538
13.04584
12.34818
11.5742
10.92703
10.5617
10.55325
10.89246
11.46869
12.17218
12.82599
13.29756
13.53063
13.52417
13.30142
12.87038
12.16409
11.07401
9.540247
7.530615
5.136513
2.556398
-0.002071381
-2.403236
-4.607994
-6.663137
-8.635294
-10.57495
-12.53308
-14.54858
-16.68147
-19.02147
-21.59751
-24.26506
-26.63092
-28.09618
-27.95674
-25.74771
-21.356
-15.21264
-8.17535
-1.225513
4.777122
9.289665
12.23871
13.8892
14.64059
14.88529
14.82784
14.50653
13.93521
13.19064
12.35273
11.55795
10.88506
10.34521
9.863663
9.39703
8.956661
8.671501
8.656681
8.941711
9.424252
9.91843
10.1908
10.06251
9.478024
8.441532
7.076786
5.503788
3.850418
2.186405
0.5355606
-1.125641
-2.831219
-4.601112
-6.450691
-8.378822
-10.37159
-12.47839
-14.76344
-17.27462
-19.91683
-22.36294
-24.0948
-24.55315
-23.36328
-20.43737
-16.09058
-10.8778
-5.480255
-0.425354
3.95594
7.579807
10.45386
12.61743
14.08046
14.84494
15.02063
14.76329
14.3111
13.90429
13.71189
13.78605
14.07776
14.46331
14.80833
15.02538
15.07798
14.91555
14.50073
13.74454
12.62362
11.1923
9.590923
7.994221
6.534126
5.260071
4.081638
2.875736
1.505665
-0.04656982
-1.748489
-3.398151
-4.832146
-5.942894
-6.751221
-7.418797
-8.183823
-9.390484
-11.2459
-13.826
-16.94689
-20.16532
-22.82413
-24.25098
-23.85536
-21.39781
-17.08349
-11.51051
-5.51746
0.0693779
4.678799
8.098923
10.40871
11.85008
12.66692
13.00359
12.92859
12.4921
11.74674
10.84169
9.96159
9.330734
9.069069
9.206631
9.63936
10.20568
10.74542
11.13919
11.35761
11.35393
11.08772
10.52293
9.567459
8.216713
6.531374
4.615688
2.60894
0.6536083
-1.20232
-2.925274
-4.524595
-6.044695
-7.489355
-8.939034
-10.46667
-12.16089
-14.06196
-16.20122
-18.49691
-20.77611
-22.77461
-24.03566
-24.13745
-22.72909
-19.70222
-15.28465
-10.08233
-4.86632
-0.316124
3.10824
5.402079
6.791597
7.629335
8.201132
8.61657
8.817938
8.688137
8.214901
7.466812
6.721268
6.192724
6.006598
6.141233
6.385326
6.518475
6.39624
6.069544
5.669247
5.423944
5.403908
5.503918
5.547569
5.264541
4.50767
3.302573
1.80972
0.1578865
-1.50631
-3.170723
-4.861599
-6.588926
-8.344157
-10.08318
-11.73953
-13.28367
-14.84248
-16.56151
-18.50055
-20.50318
-22.10822
-22.66248
-21.56972
-18.55378
-13.80403
-8.00129
-2.001827
3.412527
7.782553
11.0392
13.27362
14.66843
15.30993
15.21361
14.4502
13.19453
11.7179
10.35968
9.450119
9.111794
9.339832
9.974674
10.76412
11.45826
11.91924
12.06035
11.88027
11.45879
10.83814
10.0539
9.093136
7.911621
6.477837
4.800328
2.904562
0.8502932
-1.227184
-3.197545
-4.911108
-6.306401
-7.430988
-8.408902
-9.501019
-10.9887
-13.09386
-15.80207
-18.84132
-21.60103
-23.34139
-23.42062
-21.54284
-17.91305
-13.16943
-8.134775
-3.536399
0.1983833
3.010408
5.078708
6.642769
7.878027
8.84339
9.537232
9.942864
10.09746
10.09294
10.08803
10.28471
10.74101
11.43154
12.18948
12.75938
12.95357
12.72385
12.15043
11.39045
10.56934
9.659922
8.601404
7.32796
5.837713
4.196621
2.51402
0.8420205
-0.8221974
-2.472402
-4.091871
-5.608048
-6.941331
-8.107122
-9.20122
-10.3834
-11.84507
-13.68835
-15.88918
-18.23217
-20.25392
-21.3152
-20.81268
-18.42203
-14.20913
-8.756804
-2.84394
2.740144
7.458208
11.13742
13.86256
15.76466
16.93615
17.36519
17.04526
16.10872
14.82142
13.52103
12.49057
11.91083
11.76756
11.96105
12.31561
12.64628
12.834
12.87427
12.81107
12.73398
12.71457
12.71839
12.65886
12.33496
11.55941
10.18902
8.229477
5.793779
3.104801
0.4232941
-2.010359
-4.045616
-5.683874
-7.052313
-8.346193
-9.759289
-11.41756
-13.37922
-15.59466
-17.89152
-20.01181
-21.59955
-22.26731
-21.69673
-19.72611
-16.46715
-12.2711
-7.647209
-3.113079
0.9647141
4.401054
7.139618
9.199673
10.60333
11.3494
11.47054
11.07061
10.33112
9.495815
8.762558
8.21764
7.840122
7.557014
7.312588
7.071499
6.857716
6.628098
6.296131
5.719505
4.808556
3.534988
2.038895
0.5058594
-0.920414
-2.19799
-3.416531
-4.685844
-6.046139
-7.452469
-8.832516
-10.11752
-11.32478
-12.5408
-13.85821
-15.34978
-17.00439
-18.72382
-20.35228
-21.65581
-22.28834
-21.90619
-20.22723
-17.14597
-12.86653
-7.860298
-2.745781
1.838516
5.491112
8.063705
9.662102
10.48682
10.72524
10.50204
9.890831
8.975838
7.929512
6.9814
6.366013
6.212349
6.513588
7.082436
7.663002
7.999786
7.96167
7.568611
6.959915
6.295799
5.666756
5.06324
4.369209
3.461494
2.288567
0.9155655
-0.5264816
-1.908646
-3.178902
-4.383972
-5.639206
-7.086227
-8.821594
-10.93766
-13.43227
-16.21706
-19.07198
-21.59194
-23.24706
-23.52995
-22.1313
-19.05823
-14.70118
-9.653198
-4.571083
0.06582642
3.984901
7.163544
9.675499
11.61952
13.04485
13.94821
14.34295
14.26205
13.77708
13.00945
12.13275
11.22575
10.38504
9.622543
8.893288
8.16539
7.437126
6.722641
6.081902
5.590759
5.248741
5.022171
4.830544
4.530495
3.971268
3.068283
1.821976
0.2913208
-1.421013
-3.187935
-4.920341
-6.551552
-8.062126
-9.464928
-10.80064
-12.14783
-13.62414
-15.29517
-17.07823
-18.72068
-19.77233
-19.72704
-18.21201
-15.19065
-10.99587
-6.221436
-1.521652
2.615677
5.963997
8.54258
10.46111
11.8173
12.63863
12.94536
12.75941
12.19673
11.3903
10.46812
9.547867
8.742844
8.158585
7.915749
8.063629
8.532997
9.178093
9.744194
10.03062
9.965469
9.608589
9.038406
8.345078
7.509033
6.429504
5.073936
3.467918
1.701408
-0.05214691
-1.631599
-3.007774
-4.201218
-5.33139
-6.58136
-8.018539
-9.649399
-11.48741
-13.53009
-15.75146
-18.12779
-20.42986
-22.2496
-23.03731
-22.24573
-19.54395
-15.02165
-9.199829
-2.890198
3.072571
8.084869
11.87306
14.43629
15.923
16.4985
16.31912
15.56888
14.42451
13.10281
11.81982
10.71417
9.834518
9.190033
8.757339
8.502396
8.468262
8.606628
8.821808
8.999069
9.001923
8.717804
8.155502
7.364975
6.40564
5.342972
4.184265
2.912521
1.548065
0.1855316
-1.073502
-2.138672
-2.998398
-3.755051
-4.55545
-5.499207
-6.63945
-7.955566
-9.427078
-11.08374
-13.0139
-15.24336
-17.69014
-20.01067
-21.71771
-22.33698
-21.54813
-19.36183
-16.08205
-12.22981
-8.319962
-4.743652
-1.678009
0.8468933
2.828751
4.253342
5.079544
5.251022
4.791183
3.855011
2.674316
1.519012
0.6105804
0.05491638
-0.1436615
-0.03343201
0.2602386
0.6273193
0.9680634
1.21347
1.326828
1.345978
1.285583
1.131104
0.7754822
0.1067505
-0.9584656
-2.364853
-3.931458
-5.395798
-6.52272
-7.275482
-7.797318
-8.399277
-9.353714
-10.8015
-12.72571
-14.976
-17.28363
-19.33133
-20.72652
-21.0939
-20.12727
-17.69757
-13.94725
-9.295532
-4.319763
0.4065857
4.44693
7.587219
9.777573
11.03717
11.44019
11.1013
10.18303
8.900726
7.503174
6.190491
5.124786
4.379013
3.984711
3.936615
4.188126
4.682037
5.313797
5.960266
6.479813
6.789032
6.790176
6.446289
5.719864
4.549286
3.007202
1.156586
-0.8341827
-2.857391
-4.794037
-6.62323
-8.33989
-10.01443
-11.72624
-13.55104
-15.6004
-17.91232
-20.45567
-22.96078
-24.93513
-25.77504
-24.98814
-22.37717
-18.20009
-13.04597
-7.627747
-2.554001
1.794327
5.329453
8.089813
10.12665
11.48732
12.14047
12.16089
11.72362
11.07301
10.44547
10.00121
9.765121
9.694656
9.738327
9.794525
9.84523
9.863159
9.819321
9.690643
9.420319
8.952606
8.245743
7.227524
5.776993
3.875748
1.586258
-0.9423523
-3.461624
-5.748413
-7.701294
-9.294418
-10.60886
-11.8289
-13.12619
-14.6443
-16.55138
-18.83484
-21.26869
-23.43401
-24.73669
-24.61034
-22.78033
-19.28821
-14.55562
-9.226227
-3.90712
0.9368439
5.055237
8.346283
10.83008
12.47889
13.32277
13.37311
12.76548
11.74524
10.60706
9.63102
9.005653
8.788933
8.790169
8.871574
8.805077
8.547752
8.201645
7.899185
7.752403
7.775848
7.877991
7.826561
7.477501
6.694389
5.442841
3.773964
1.752563
-0.5054398
-2.837357
-5.04026
-6.96814
-8.491257
-9.616753
-10.55447
-11.55407
-12.87414
-14.63105
-16.61703
-18.34769
-19.20782
-18.65409
-16.43268
-12.71749
-8.017319
-3.054832
1.526512
5.267914
8.025688
9.85891
10.93221
11.36739
11.26233
10.67817
9.722336
8.567017
7.481407
6.701782
6.390923
6.597511
7.180557
7.949471
8.721268
9.390701
9.910206
10.27651
10.4638
10.35298
9.863804
8.91853
7.546104
5.852814
4.015476
2.163734
0.3773804
-1.247299
-2.671234
-3.856331
-4.808357
-5.649818
-6.644886
-8.091858
-10.26236
-13.25589
-16.8742
-20.60852
-23.78125
-25.7192
-25.86078
-24.00065
-20.30005
-15.22698
-9.530224
-3.957329
0.8756313
4.619013
7.21928
8.841875
9.768353
10.20373
10.25735
9.878197
9.070427
7.939714
6.763044
5.919195
5.612665
5.851967
6.359116
6.753316
6.697845
6.160061
5.380802
4.712782
4.422546
4.485492
4.589872
4.348091
3.509278
2.031657
0.1968813
-1.661397
-3.362934
-4.874894
-6.3318
-7.89292
-9.606375
-11.42639
-13.33797
-15.36499
-17.53195
-19.82479
-21.93554
-23.30785
-23.32435
-21.59512
-18.11482
-13.31584
-7.910563
-2.571138
2.169495
6.112492
9.227791
11.55946
13.18824
14.16196
14.54058
14.40229
13.87992
13.07765
12.17538
11.34449
10.7491
10.57206
10.88652
11.64827
12.64698
13.64856
14.33485
14.52241
14.13545
13.18341
11.81282
10.14269
8.292152
6.333992
4.351112
2.35968
0.410347
-1.476257
-3.268181
-4.88279
-6.307098
-7.543686
-8.687302
-9.889664
-11.40122
-13.43108
-16.06139
-19.10561
-22.05229
-24.25432
-25.01305
-23.90558
-20.90679
-16.41567
-11.10079
-5.70903
-0.8381424
3.209076
6.378632
8.832962
10.76582
12.27248
13.43102
14.23657
14.67458
14.75796
14.55981
14.17919
13.80598
13.59512
13.67013
14.0981
14.79742
15.58272
16.19856
16.42481
16.14751
15.43062
14.47162
13.4977
12.73251
12.18835
11.73801
11.18061
10.32507
9.128021
7.630173
5.952927
4.161942
2.281769
0.2626343
-1.923691
-4.231964
-6.657959
-9.203918
-11.9483
-14.95015
-18.13994
-21.18762
-23.49333
-24.34746
-23.20895
-19.94463
-14.93335
-8.977386
-3.026108
2.082962
5.880478
8.287048
9.571991
10.13898
10.38551
10.57562
10.81673
11.12883
11.48193
11.87579
12.32994
12.82997
13.34256
13.78374
14.12982
14.39963
14.69113
15.06158
15.51268
15.91481
16.04794
15.75865
14.97794
13.81291
12.46242
11.14015
9.943054
8.843185
7.726059
6.378723
4.69899
2.643494
0.2996368
-2.155075
-4.443558
-6.362579
-7.797745
-8.81871
-9.711105
-10.86938
-12.6875
-15.35373
-18.71518
-22.20654
-24.98041
-26.1196
-24.99438
-21.50954
-16.10176
-9.63559
-3.01976
3.035904
8.166412
12.34903
15.68317
18.22908
19.92665
20.65862
20.41452
19.39334
18.00165
16.69002
15.76874
15.3336
15.31172
15.51949
15.80841
16.11288
16.44418
16.82565
17.20319
17.4218
17.22897
16.45789
15.02396
13.00995
10.65099
8.241104
6.058975
4.244492
2.793701
1.506439
0.201828
-1.286377
-2.998901
-4.866852
-6.822769
-8.767181
-10.62611
-12.37151
-14.04993
-15.73811
-17.61775
-19.80154
-22.2399
-24.68896
-26.63298
-27.43007
-26.56181
-23.83302
-19.44127
-13.96104
-8.145256
-2.688766
1.883476
5.364868
7.779213
9.323189
10.20089
10.56302
10.49256
10.0844
9.47361
8.834656
8.388214
8.242439
8.37516
8.681
9.003036
9.267593
9.510612
9.81105
10.16635
10.47491
10.54369
10.18999
9.363487
8.14975
6.721184
5.248825
3.85704
2.519821
1.162445
-0.3097534
-1.960609
-3.779015
-5.705139
-7.590469
-9.275429
-10.63406
-11.64345
-12.4395
-13.30948
-14.61014
-16.57574
-19.14773
-21.85986
-23.9753
-24.66823
-23.36965
-19.91422
-14.63456
-8.263603
-1.68029
4.329178
9.220894
12.74064
14.89671
15.88196
15.94482
15.35555
14.31465
13.06015
11.78792
10.72388
10.07078
9.974777
10.44298
11.35458
12.47758
13.547
14.38881
14.86995
14.89716
14.45706
13.56264
12.2406
10.56931
8.676903
6.687805
4.71888
2.7957
0.8472366
-1.186409
-3.377464
-5.693893
-8.005161
-10.13193
-11.8903
-13.19435
-14.14991
-15.01008
-16.11046
-17.77329
-20.13205
-23.01796
-26.00951
-28.43674
-29.56557
-28.82838
-26.00655
-21.27913
-15.26018
-8.771793
-2.57177
2.793194
7.05896
10.2767
12.62761
14.25943
15.30539
15.83723
15.9232
15.71233
15.34536
14.92167
14.47287
14.0062
13.51421
13.05093
12.68743
12.47548
12.42277
12.43774
12.32539
11.88457
10.96517
9.557461
7.787916
5.885763
4.064495
2.488962
1.200489
0.1260319
-0.8312607
-1.765322
-2.706766
-3.631769
-4.534088
-5.470146
-6.498463
-7.723175
-9.257681
-11.17219
-13.51988
-16.28953
-19.30571
-22.2022
-24.39305
-25.24306
-24.27435
-21.37201
-16.84779
-11.32414
-5.556171
-0.1353116
4.547768
8.383921
11.37169
13.55101
14.94121
15.61212
15.66913
15.30305
14.72059
14.06952
13.41007
12.75109
12.13845
11.60551
11.23957
11.0267
10.88374
10.66086
10.20768
9.466587
8.490215
7.419926
6.384592
5.416456
4.440767
3.363811
2.115908
0.7537193
-0.6432705
-2.020185
-3.402636
-4.890213
-6.598406
-8.558784
-10.6903
-12.81577
-14.78862
-16.60748
-18.36828
-20.18017
-21.98196
-23.45272
-24.07523
-23.35386
-20.92214
-16.82806
-11.51078
-5.689877
-0.1519623
4.50676
7.965332
10.15596
11.1669
11.15834
10.35624
8.967709
7.251053
5.446716
3.834229
2.681042
2.153542
2.301395
3.007751
3.995262
4.933865
5.55629
5.678204
5.349319
4.721813
3.927391
2.986908
1.805344
0.213501
-1.853714
-4.282288
-6.867447
-9.302979
-11.32954
-12.80471
-13.70502
-14.18777
-14.4909
-14.8811
-15.61604
-16.87951
-18.67538
-20.77203
-22.7769
-24.10964
-24.30207
-23.03429
-20.29713
-16.37863
-11.78906
-7.093567
-2.747292
0.9732819
4.012154
6.342766
8.018051
8.995316
9.21994
8.689919
7.573387
6.205582
4.994553
4.329506
4.346344
5.004059
6.083031
7.298752
8.425446
9.31546
9.877846
10.00653
9.646126
8.731293
7.293251
5.41188
3.209778
0.8387299
-1.560326
-3.848335
-5.952263
-7.849365
-9.598335
-11.33607
-13.23268
-15.42363
-17.91724
-20.6733
-23.47764
-25.98981
-27.76257
-28.33806
-27.32081
-24.52174
-20.09798
-14.47323
-8.362015
-2.479191
2.660423
6.826363
10.04025
12.45306
14.20761
15.27967
15.63
15.21613
14.12327
12.64843
11.17361
10.07712
9.506702
9.425415
9.572979
9.715752
9.666176
9.388412
8.928806
8.342079
7.630562
6.691383
5.41106
3.65704
1.470444
-1.03318
-3.613132
-5.958675
-7.885437
-9.296566
-10.2473
-10.88737
-11.48254
-12.29528
-13.59138
-15.57307
-18.17113
-21.11435
-23.84162
-25.61145
-25.73145
-23.80156
-19.85818
-14.38503
-8.203751
-2.142754
3.088844
7.103781
9.848408
11.50619
12.31343
12.52819
12.36129
11.93164
11.41371
10.97043
10.75307
10.81401
11.06987
11.34021
11.47661
11.41298
11.16742
10.88135
10.67962
10.6654
10.84308
11.11457
11.34227
11.3475
10.95011
9.977498
8.368988
6.18195
3.627447
1.025745
-1.328771
-3.280759
-4.86094
-6.28284
-7.834753
-9.729639
-12.09001
-14.88155
-17.95742
-21.09355
-23.96412
-26.15205
-27.13694
-26.44387
-23.8114
-19.37938
-13.68211
-7.513687
-1.708199
3.098916
6.58214
8.710335
9.717985
9.912634
9.670177
9.344382
9.189479
9.314178
9.698408
10.18982
10.62594
10.91748
11.11103
11.33035
11.75127
12.46194
13.43496
14.52175
15.45727
15.98789
15.93293
15.28335
14.14551
12.7405
11.1901
9.570604
7.849232
5.913935
3.736835
1.376371
-1.01866
-3.238901
-5.142536
-6.732523
-8.11145
-9.476347
-11.07324
-13.07613
-15.57931
-18.52361
-21.66346
-24.55476
-26.65049
-27.37946
-26.27381
-23.18351
-18.31071
-12.23986
-5.755646
0.3389854
5.463722
9.340496
11.965
13.5169
14.22362
14.33029
13.98309
13.31857
12.44996
11.50288
10.62475
9.991997
9.706467
9.811718
10.28243
10.97438
11.71486
12.29864
12.54391
12.37436
11.79878
10.92029
9.894634
8.84869
7.862518
6.892948
5.825195
4.458504
2.677456
0.4732513
-2.026451
-4.596588
-7.024574
-9.148857
-10.89041
-12.29019
-13.50431
-14.72478
-16.1971
-18.09021
-20.39246
-22.84756
-24.95451
-26.09387
-25.73324
-23.59806
-19.77338
-14.70792
-9.076576
-3.513206
1.426285
5.4841
8.600731
10.86157
12.38652
13.2712
13.5033
13.07702
12.13284
10.88297
9.68824
8.901627
8.69278
9.024773
9.714828
10.46278
11.03098
11.32357
11.31631
11.04851
10.57242
9.876907
8.959518
7.845558
6.531334
5.045082
3.403374
1.622185
-0.2440186
-2.167252
-4.148499
-6.141685
-8.128426
-10.12658
-12.12576
-14.19167
-16.47445
-19.05253
-21.89986
-24.72713
-26.93528
-27.75609
-26.55425
-23.07582
-17.61884
-10.96765
-4.085182
2.214737
7.45578
11.53048
14.52228
16.55247
17.70568
18.04729
17.6602
16.79597
15.73009
14.72759
13.95273
13.44279
13.16726
13.11314
13.28091
13.65187
14.18429
14.69626
14.951
14.73444
13.92845
12.58699
10.89768
9.110535
7.376953
5.744164
4.105621
2.302238
0.2551727
-1.978416
-4.189674
-6.164444
-7.753372
-8.996666
-10.08099
-11.28385
-12.84347
-14.88396
-17.45099
-20.40137
-23.50439
-26.36217
-28.38419
-28.9145
-27.38935
-23.62421
-17.89606
-11.01077
-3.934105
2.407402
7.494324
11.19607
13.69456
15.29853
16.22932
16.58542
16.41531
15.86418
15.11787
14.46872
14.14301
14.19711
14.56909
15.10646
15.60452
15.95364
16.11322
16.10509
15.9362
15.65076
15.2063
14.58949
13.77969
12.79704
11.69983
10.51495
9.287292
7.969971
6.507507
4.730423
2.560974
-0.03497314
-2.896957
-5.731033
-8.30864
-10.47014
-12.32568
-14.12744
-16.25935
-18.93341
-22.16141
-25.61931
-28.72327
-30.85078
-31.39609
-29.99965
-26.58241
-21.39748
-14.94292
-7.926529
-1.06723
5.044418
10.00317
13.686
16.12305
17.48224
18.00455
17.92938
17.44011
16.6917
15.85233
15.01357
14.31169
13.78275
13.4915
13.46745
13.7137
14.15025
14.68375
15.18021
15.52901
15.65414
15.47365
14.93501
14.03607
12.79068
11.24182
9.463577
7.467163
5.281174
2.910248
0.3968506
-2.213638
-4.809235
-7.261429
-9.472351
-11.41785
-13.19357
-14.97782
-16.92142
-19.13073
-21.60225
-24.16251
-26.49405
-28.12555
-28.54717
-27.33514
-24.23617
-19.32418
-13.07625
-6.236092
0.2914886
5.792549
9.879303
12.61613
14.30303
15.30324
15.86938
16.0423
15.81089
15.15524
14.24204
13.34531
12.80244
12.8099
13.34026
14.15843
14.95345
15.47371
15.58926
15.31702
14.74974
13.93974
12.87695
11.52707
9.847984
7.927162
5.938377
4.061523
2.383041
0.889595
-0.591835
-2.218765
-4.087608
-6.157639
-8.332985
-10.48846
-12.56655
-14.6139
-16.71603
-18.98196
-21.40664
-23.8442
-25.98352
-27.4212
-27.71743
-26.53535
-23.80182
-19.71958
-14.7205
-9.370552
-4.18486
0.4514313
4.332413
7.399399
9.680893
11.20436
11.97179
11.96159
11.16217
9.624344
7.497398
5.143898
3.014343
1.600174
1.199142
1.850815
3.219597
4.793205
6.082191
6.81266
7.022346
6.894165
6.667953
6.378662
5.933891
5.107613
3.741867
1.862663
-0.3360901
-2.619209
-4.798248
-6.787048
-8.642654
-10.42386
-12.20885
-14.08447
-16.10706
-18.3741
-20.89067
-23.49025
-25.79737
-27.2354
-27.23066
-25.35341
-21.56111
-16.17649
-9.872551
-3.385658
2.632133
7.764305
11.89412
15.07065
17.44165
19.05888
19.94116
20.01022
19.28597
17.95525
16.35285
14.85236
13.78718
13.27538
13.19562
13.33562
13.36837
13.14185
12.63967
11.98318
11.27003
10.54551
9.707909
8.610298
7.133392
5.249573
3.096031
0.8414078
-1.319511
-3.328255
-5.232841
-7.154663
-9.128197
-11.08598
-12.91574
-14.48602
-15.81553
-17.0974
-18.5925
-20.53178
-22.96344
-25.60981
-27.86897
-29.04692
-28.50182
-25.92063
-21.42386
-15.56202
-9.133194
-2.936562
2.419052
6.71151
9.94912
12.30072
13.90284
14.86008
15.24137
15.18721
14.8944
14.55409
14.29322
14.10234
13.89728
13.6223
13.31652
13.14878
13.29249
13.78094
14.4866
15.11636
15.35033
15.01186
14.12018
12.79846
11.25339
9.638245
7.995766
6.311546
4.520027
2.55835
0.4101028
-1.858696
-4.147484
-6.323715
-8.295464
-10.05819
-11.73611
-13.52248
-15.61867
-18.14838
-21.02554
-23.98834
-26.59383
-28.28365
-28.53065
-26.90954
-23.31722
-17.98951
-11.50764
-4.629082
1.869576
7.362236
11.52514
14.22106
15.57436
15.79613
15.19539
14.09735
12.84438
11.70456
10.89628
10.57323
10.78513
11.50961
12.61813
13.93694
15.23427
16.34202
17.12263
17.52522
17.55699
17.16022
16.26669
14.84077
12.93716
10.72799
8.445427
6.29287
4.362358
2.619606
0.9362259
-0.8279648
-2.669716
-4.556602
-6.341476
-7.937607
-9.300247
-10.46571
-11.5186
-12.63258
-14.01304
-15.84178
-18.2627
-21.19632
-24.25703
-26.76249
-27.89584
-27.00305
-23.8884
-18.89207
-12.77185
-6.420403
-0.5467911
4.455353
8.477066
11.53126
13.65205
14.88873
15.29219
15.0499
14.43731
13.78353
13.31788
13.10458
13.04656
13.00164
12.91803
12.79882
12.73735
12.7988
12.98731
13.18578
13.24213
12.98475
12.32175
11.28923
10.023
8.677841
7.387901
6.183647
5.023422
3.813828
2.457191
0.8473282
-1.02462
-3.150833
-5.422783
-7.716927
-9.927803
-11.97887
-13.85471
-15.60997
-17.39824
-19.34773
-21.52868
-23.81138
-25.84798
-27.12973
-27.08769
-25.33953
-21.81107
-16.89211
-11.16726
-5.388321
-0.1615524
4.135548
7.367439
9.565563
10.87667
11.44148
11.37267
10.83022
9.910889
8.752693
7.52063
6.438213
5.761974
5.633625
6.097416
6.952297
7.9016
8.621422
8.907463
8.763359
8.300877
7.683388
7.003464
6.307159
5.527237
4.632339
3.600849
2.452137
1.289169
0.1498337
-0.9225159
-1.977032
-3.059799
-4.266766
-5.670174
-7.343845
-9.334908
-11.66728
-14.34629
-17.32502
-20.45125
-23.37973
-25.64498
-26.69974
-26.07484
-23.55969
-19.24316
-13.57341
-7.173481
-0.7557259
5.078148
9.878544
13.43864
15.73565
16.92106
17.29866
17.18599
16.85512
16.44781
15.99148
15.45216
14.8008
14.0695
13.3536
12.80598
12.54969
12.59738
12.84739
13.08506
13.11054
12.74453
11.86732
10.45226
8.593443
6.470936
4.332413
2.407019
0.7999516
-0.5369987
-1.74032
-3.007856
-4.454132
-6.083435
-7.820932
-9.520844
-11.05986
-12.43201
-13.67769
-14.899
-16.24762
-17.87427
-19.86471
-22.182
-24.50986
-26.33051
-27.05125
-26.16407
-23.43452
-19.09495
-13.69036
-7.956162
-2.610931
1.922564
5.491796
8.180078
10.14
11.5566
12.51503
13.07643
13.32395
13.30826
13.19055
13.09818
13.15123
13.36764
13.69721
13.98349
14.1499
14.19038
14.16074
14.21261
14.33899
14.35845
13.98391
12.96497
11.24349
9.077622
6.922262
5.179457
4.067684
3.450491
2.942585
2.117714
0.7301583
-1.245151
-3.570259
-5.880322
-7.874406
-9.424784
-10.60836
-11.69331
-13.08057
-15.06363
-17.7797
-21.0452
-24.32771
-26.913
-28.05849
-27.26469
-24.34466
-19.55941
-13.48061
-6.883697
-0.5138111
5.020594
9.347652
12.34097
14.03155
14.58156
14.2252
13.2814
12.0288
10.74494
9.632814
8.781466
8.212885
7.865402
7.704462
7.676531
7.825516
8.191891
8.773418
9.543928
10.33783
10.95813
11.19495
10.95305
10.22512
9.12479
7.827866
6.436184
5.023228
3.515965
1.838547
-0.05643463
-2.126923
-4.301159
-6.470455
-8.525139
-10.4453
-12.23525
-14.00614
-15.9032
-18.07277
-20.52229
-23.14515
-25.6064
-27.40416
-28.03691
-27.08556
-24.37189
-20.04998
-14.53441
-8.457951
-2.553158
2.53709
6.402893
8.912361
10.22545
10.70969
10.7358
10.59042
10.39234
10.11716
9.66066
8.963333
8.069412
7.128311
6.385849
6.053276
6.173923
6.660973
7.289356
7.811325
8.054985
7.950069
7.57188
7.000755
6.271156
5.306126
4.007946
2.303307
0.2637253
-1.935169
-4.085896
-5.984726
-7.547028
-8.799385
-9.892933
-10.96273
-12.17239
-13.64124
-15.42954
-17.59412
-20.02535
-22.43774
-24.35597
-25.22972
-24.56538
-22.14661
-18.11787
-12.90523
-7.155987
-1.520195
3.481075
7.553196
10.58566
12.63335
13.80242
14.22823
14.03005
13.36384
12.4307
11.47057
10.78107
10.5783
10.89668
11.51156
12.09024
12.26155
11.83512
10.901
9.665432
8.340874
7.099419
5.936737
4.728767
3.401157
1.892246
0.2272911
-1.508976
-3.29179
-5.061123
-6.73085
-8.277039
-9.699768
-11.07456
-12.50218
-14.07623
-15.81024
-17.77504
-19.98376
-22.44292
-25.0659
-27.53733
-29.31778
-29.8069
-28.5055
-25.22104
-20.24105
-14.14275
-7.697487
-1.631111
3.552105
7.606148
10.43236
12.08772
12.83139
12.87797
12.52952
11.99742
11.35161
10.6332
9.926529
9.353798
9.082035
9.297203
10.00279
11.0143
12.00625
12.63383
12.74553
12.37547
11.73943
11.06297
10.47179
9.930367
9.289932
8.40493
7.19714
5.690208
3.917927
1.962296
-0.1549377
-2.385296
-4.676819
-6.996178
-9.285984
-11.59226
-14.00192
-16.64838
-19.6158
-22.82968
-25.98032
-28.55861
-29.95382
-29.58185
-27.14909
-22.69992
-16.73492
-10.02052
-3.429358
2.299667
6.752672
9.811436
11.68638
12.73554
13.30865
13.69814
14.05224
14.40056
14.68298
14.86456
14.89124
14.82468
14.71068
14.59535
14.56262
14.63108
14.8013
14.97935
15.05829
14.872
14.28711
13.24035
11.76532
10.05221
8.304667
6.703691
5.286179
4.012533
2.736197
1.325161
-0.2564354
-2.024248
-3.897354
-5.813116
-7.742212
-9.723362
-11.79501
-14.07559
-16.68863
-19.6377
-22.84732
-26.01679
-28.65576
-30.1424
-29.91285
-27.61034
-23.31113
-17.47537
-10.80397
-4.103946
1.985628
7.066892
10.99554
13.83407
15.70851
16.78835
17.2076
17.13377
16.67908
15.99993
15.22079
14.43841
13.75773
13.23137
12.89661
12.70034
12.57315
12.39676
12.09832
11.65865
11.04717
10.25094
9.270029
8.106004
6.779744
5.354771
3.855993
2.306631
0.6287775
-1.240574
-3.358516
-5.646765
-7.934164
-10.05823
-11.85015
-13.30459
-14.52096
-15.73602
-17.19337
-19.03301
-21.20594
-23.48803
-25.45887
-26.60244
-26.42969
-24.63818
-21.21086
-16.50351
-11.15353
-5.885601
-1.317211
2.195213
4.646834
6.261351
7.298766
7.950697
8.243958
8.130281
7.629433
6.925969
6.330177
6.171063
6.641994
7.730694
9.28209
10.99238
12.49798
13.50277
13.83635
13.4425
12.42429
10.97701
9.330636
7.694511
6.165823
4.720563
3.317454
1.980025
0.7298365
-0.4019928
-1.465115
-2.646296
-4.095993
-5.93705
-8.154716
-10.63398
-13.26948
-16.01454
-18.83517
-21.62106
-24.09924
-25.794
-26.07384
-24.47463
-20.86188
-15.55908
-9.315027
-2.968552
2.732664
7.323105
10.69952
12.98907
14.35731
14.95292
14.83661
14.07926
12.88977
11.58057
10.4659
9.810814
9.659668
9.897282
10.32787
10.7541
11.06134
11.21923
11.23444
11.09968
10.80294
10.33339
9.690689
8.905697
8.019749
7.009033
5.855583
4.524979
3.001518
1.314793
-0.545639
-2.599518
-4.835075
-7.230156
-9.726566
-12.2137
-14.72282
-17.33612
-20.17027
-23.26063
-26.36692
-28.92197
-30.20996
-29.59393
-26.75631
-21.91151
-15.68895
-8.942451
-2.487717
3.085499
7.527374
10.84584
13.20139
14.86198
16.03064
16.85397
17.41471
17.77011
17.92577
17.88102
17.67789
17.39861
17.17501
17.09764
17.19626
17.38093
17.44155
17.17171
16.42568
15.23447
13.76157
12.32223
11.1092
10.19815
9.456619
8.594254
7.384445
5.681236
3.534531
1.099373
-1.378845
-3.726433
-5.866356
-7.827873
-9.734573
-11.68624
-13.79939
-16.12595
-18.72659
-21.51032
-24.21996
-26.41965
-27.45987
-26.72609
-23.83659
-18.87809
-12.43219
-5.450157
1.14286
6.718796
11.06418
14.35197
16.79594
18.52518
19.49538
19.63732
18.98026
17.77347
16.41936
15.27824
14.56719
14.26332
14.22016
14.28835
14.45508
14.7371
15.13169
15.5752
15.91121
15.97444
15.66795
14.97211
13.94125
12.66605
11.18544
9.48983
7.595383
5.511681
3.297035
1.007111
-1.309059
-3.610489
-5.817619
-7.870361
-9.735786
-11.44657
-13.19946
-15.25417
-17.82592
-20.94609
-24.2785
-27.17118
-28.79746
-28.47509
-25.92955
-21.44953
-15.69458
-9.481632
-3.541283
1.663822
5.90062
9.116196
11.29658
12.49506
12.81844
12.49373
11.8511
11.1455
10.55426
10.1467
9.911037
9.838211
9.925846
10.15674
10.5048
10.88471
11.17023
11.24311
10.98663
10.30507
9.151352
7.537384
5.567352
3.395531
1.169876
-1.006729
-3.102108
-5.118473
-7.039391
-8.775089
-10.25489
-11.45216
-12.45017
-13.40039
-14.4521
-15.70913
-17.17974
-18.85604
-20.62186
-22.2467
-23.34243
-23.38626
-21.91685
-18.68683
-13.86508
-8.059067
-2.082912
3.311897
7.636726
10.76607
12.89664
14.24024
14.99812
15.24974
14.99689
14.27022
13.21428
12.05881
11.06115
10.44157
10.23655
10.31017
10.41935
10.30435
9.845619
9.052563
8.056545
6.980427
5.911896
4.803997
3.576481
2.146107
0.537199
-1.142195
-2.743814
-4.170181
-5.394459
-6.451187
-7.499582
-8.658175
-10.09596
-11.96535
-14.3553
-17.28355
-20.6268
-23.99025
-26.74246
-28.1772
-27.68982
-25.0194
-20.45173
-14.6664
-8.583935
-2.993618
1.663229
5.351341
8.299526
10.78082
12.92757
14.69467
16.00758
16.79222
17.09246
16.99876
16.63696
16.1077
15.46725
14.76148
13.96842
13.13741
12.25739
11.34524
10.43643
9.596138
8.882019
8.256897
7.617071
6.755404
5.550205
3.940397
2.049088
0.06803322
-1.800306
-3.406849
-4.760571
-5.978966
-7.249743
-8.70294
-10.47718
-12.58561
-15.00326
-17.59946
-20.11585
-22.17659
-23.27703
-22.9476
-20.85396
