8.767319
8.520096
7.992996
7.284637
6.589966
6.02298
5.587204
5.232651
4.832123
4.273712
3.492188
2.441895
1.082397
-0.5656281
-2.416595
-4.324402
-6.031479
-7.35849
-8.184341
-8.501968
-8.473114
-8.261581
-8.0233
-7.88121
-7.931061
-8.119766
-8.403091
-8.541489
-8.220215
-7.129395
-5.078827
-2.076874
1.613815
5.517975
9.149902
12.03522
13.91379
14.68536
14.35666
13.05351
10.93492
8.212418
5.14679
2.123764
-0.5289001
-2.511124
-3.711533
-4.183685
-4.094513
-3.657135
-3.030304
-2.268173
-1.343216
-0.2608948
0.9461365
2.137543
3.103348
3.643372
3.599884
2.944183
1.773666
0.3032379
-1.232651
-2.642487
-3.836716
-4.860733
-5.835709
-6.894791
-8.08934
-9.377335
-10.65132
-11.76782
-12.62045
-13.1713
-13.51543
-13.81203
-14.28467
-15.1512
-16.52599
-18.32747
-20.26199
-21.84972
-22.565
-22.00385
-19.97366
-16.60002
-12.28488
-7.58139
-3.04361
0.8634338
3.852524
5.900681
7.174561
7.945862
8.480042
8.933685
9.311737
9.534576
9.485825
9.127075
8.516891
7.798706
7.123718
6.594482
6.188095
5.835571
5.458038
5.032639
4.608475
4.242096
3.957855
3.73172
3.489227
3.078873
2.406052
1.441422
0.2807922
-0.9415588
-2.073563
-3.015472
-3.719391
-4.196274
-4.492142
-4.592621
-4.479156
-4.163437
-3.792236
-3.605743
-3.92453
-4.958496
-6.699951
-8.875656
-10.95323
-12.37886
-12.67033
-11.59622
-9.212143
-5.865387
-2.094391
1.534332
4.523224
6.630508
7.771912
8.065109
7.735703
7.036453
6.173477
5.275406
4.41243
3.606674
2.875137
2.172699
1.497604
0.8962402
0.3956146
0.09817505
0.09657288
0.455246
1.133987
2.043259
2.930542
3.545486
3.689224
3.259109
2.357422
1.175323
-0.1038361
-1.397217
-2.709465
-4.137596
-5.694344
-7.330299
-8.975113
-10.52803
-11.95314
-13.30569
-14.61686
-15.87259
-17.04438
-18.1366
-19.25892
-20.58645
-22.13482
-23.65849
-24.64581
-24.42669
-22.55004
-18.99174
-14.19654
-8.876823
-3.824394
0.4759369
3.826889
6.24971
7.91391
8.929581
9.329514
9.198799
8.622002
7.724815
6.685783
5.670265
4.833855
4.306465
4.134277
4.259064
4.604355
5.033543
5.395069
5.628017
5.667572
5.550671
5.360294
5.207726
5.152061
5.282459
5.538834
5.793827
5.899734
5.677311
5.053932
4.037601
2.698271
1.060251
-0.8588562
-3.080486
-5.579437
-8.254059
-10.98225
-13.63796
-16.1507
-18.50381
-20.66091
-22.48766
-23.6892
-23.842
-22.55576
-19.68076
-15.34223
-9.972905
-4.197033
1.38775
6.231928
9.982142
12.51077
13.85572
14.16143
13.73411
12.90823
11.98181
11.22554
10.75937
10.66379
10.92976
11.51381
12.27735
13.10166
13.84739
14.44701
14.91724
15.31091
15.69818
16.0435
16.23801
16.06316
15.38111
14.10509
12.32146
10.25781
8.128174
6.102608
4.162804
2.172684
-0.04792023
-2.548149
-5.238365
-7.871468
-10.09557
-11.69547
-12.62962
-13.09338
-13.43079
-14.0256
-15.17137
-16.92254
-19.12014
-21.32603
-23.01111
-23.6296
-22.78069
-20.27984
-16.27554
-11.16313
-5.500961
0.08482361
5.088264
9.090698
11.89017
13.51341
14.16582
14.15251
13.7845
13.30316
12.85976
12.58409
12.56374
12.85243
13.43509
14.162
14.81238
15.18361
15.22198
15.02345
14.82166
14.81325
15.04361
15.38806
15.57794
15.36385
14.60269
13.27959
11.49263
9.401718
7.195541
5.035538
3.018036
1.147232
-0.5835724
-2.206085
-3.682709
-4.972595
-6.057953
-7.003342
-7.972687
-9.126541
-10.60832
-12.44406
-14.60939
-17.01666
-19.59889
-22.21794
-24.6223
-26.3701
-26.89098
-25.66859
-22.5018
-17.66269
-11.80815
-5.75946
-0.2458649
4.326279
7.837387
10.36507
12.00754
12.84073
12.90761
12.3187
11.33015
10.26907
9.466965
9.101685
9.23671
9.77713
10.55092
11.38766
12.13759
12.73822
13.23013
13.71977
14.29005
14.89178
15.31903
15.31206
14.64554
13.29684
11.46117
9.483124
7.649521
6.067001
4.621735
3.095886
1.292206
-0.8450623
-3.19577
-5.540741
-7.671875
-9.489594
-11.0668
-12.54163
-14.12897
-16.03033
-18.32874
-20.96069
-23.70145
-26.09509
-27.58072
-27.57196
-25.63803
-21.70172
-16.12991
-9.642853
-3.10318
2.737885
7.439728
10.92712
13.39804
15.09579
16.15857
16.59082
16.35754
15.52646
14.33731
13.14996
12.33945
12.16971
12.70276
13.7966
15.19601
16.6459
17.9332
18.97122
19.75281
20.28574
20.54681
20.48596
19.98236
18.93341
17.30411
15.12671
12.54507
9.804718
7.151093
4.766632
2.709564
0.8826599
-0.8621826
-2.651459
-4.554016
-6.516327
-8.400055
-10.09314
-11.51898
-12.73431
-13.86127
-15.03824
-16.44128
-18.21509
-20.44077
-23.07568
-25.91547
-28.50177
-30.19424
-30.3548
-28.48068
-24.44217
-18.53848
-11.37589
-3.720428
3.673492
10.25882
15.74301
19.95715
22.89957
24.57648
25.0712
24.59344
23.46036
22.05957
20.77521
19.88571
19.48767
19.52908
19.82507
20.18472
20.51373
20.78717
21.03641
21.27954
21.44592
21.36536
20.88065
19.88354
18.39911
16.65161
14.86551
13.23984
11.80255
10.44421
8.969574
7.202148
5.112549
2.736664
0.2132263
-2.36853
-4.927399
-7.42868
-9.821045
-12.06769
-14.17792
-16.19031
-18.26294
-20.60696
-23.37958
-26.49622
-29.57971
-31.98615
-32.91803
-31.75201
-28.23676
-22.63287
-15.63184
-8.189941
-1.172974
4.819702
9.528198
12.99152
15.32428
16.68686
17.18332
16.96091
16.20654
15.12183
13.94254
12.83023
11.90274
11.18762
10.73227
10.51382
10.54547
10.81494
11.27029
11.85541
12.50204
13.14612
13.65338
13.89182
13.68988
12.90042
11.5032
9.646332
7.551636
5.511993
3.714172
2.192993
0.8657532
-0.4336243
-1.849976
-3.371063
-4.912933
-6.352417
-7.612671
-8.750549
-9.927734
-11.30853
-13.02805
-15.16803
-17.64536
-20.311
-22.9119
-25.10175
-26.43634
-26.48276
-24.87885
-21.51224
-16.61957
-10.7005
-4.477478
1.337616
6.230408
9.96759
12.57849
14.24081
15.17493
15.50574
15.37698
14.88818
14.22476
13.6105
13.24637
13.26215
13.66174
14.31287
15.01999
15.62164
15.98627
16.09961
15.99429
15.75793
15.42166
14.96472
14.28299
13.24026
11.75345
9.858185
7.739594
5.675354
3.951202
2.71283
1.930084
1.421692
0.9290161
0.2350464
-0.7508545
-1.98938
-3.347809
-4.652374
-5.837708
-6.972626
-8.23938
-9.865082
-12.03293
-14.71454
-17.6662
-20.4278
-22.43442
-23.1633
-22.25958
-19.59207
-15.36365
-10.04074
-4.270538
1.240631
5.886139
9.290741
11.39618
12.38412
12.59006
12.3378
11.82907
11.20505
10.53098
9.920074
9.506195
9.447418
9.797516
10.51956
11.40814
12.20386
12.73297
12.94479
12.93448
12.84665
12.75909
12.60468
12.20813
11.36481
9.982971
8.162262
6.16626
4.318481
2.797058
1.568909
0.4042664
-0.9672852
-2.689575
-4.743195
-6.92395
-8.959747
-10.64572
-11.85739
-12.66321
-13.24356
-13.87689
-14.77316
-16.11499
-17.85831
-19.81989
-21.61697
-22.70346
-22.57211
-20.84619
-17.46954
-12.70081
-7.151489
-1.582367
3.248718
6.8797
9.196228
10.44476
11.03033
11.30099
11.46432
11.47601
11.24005
10.69751
9.930603
9.131317
8.525604
8.263763
8.34436
8.682709
9.152893
9.677917
10.164
10.52783
10.66504
10.44461
9.765564
8.54924
6.820435
4.721146
2.507034
0.4828796
-1.063248
-1.974991
-2.341385
-2.435638
-2.628021
-3.177231
-4.146103
-5.354538
-6.536407
-7.460373
-8.035797
-8.392212
-8.821777
-9.65509
-11.16342
-13.4416
-16.33472
-19.38757
-21.97838
-23.40689
-23.19087
-21.12006
-17.37999
-12.43698
-6.914566
-1.425613
3.536453
7.611282
10.6299
12.54088
13.43822
13.51694
12.99689
12.11438
11.11359
10.17076
9.416519
8.944092
8.713348
8.672882
8.729523
8.792343
8.858429
8.963852
9.128052
9.352554
9.580185
9.717957
9.650696
9.326035
8.715851
7.837006
6.763611
5.576294
4.350235
3.1483
1.962967
0.7104034
-0.6430511
-2.11525
-3.567352
-4.849182
-5.852188
-6.627609
-7.410248
-8.546402
-10.27794
-12.65604
-15.55983
-18.62665
-21.42546
-23.50346
-24.41919
-23.84785
-21.64195
-17.90193
-12.96997
-7.441711
-1.973267
2.880005
6.722046
9.398254
10.97409
11.63327
11.60916
11.16412
10.45975
9.621429
8.741745
7.873489
7.104294
6.494797
6.127228
6.00087
6.034775
6.139816
6.227104
6.278107
6.286301
6.310867
6.337715
6.291977
6.057701
5.536476
4.735229
3.768478
2.782272
1.888763
1.118965
0.3541489
-0.5472794
-1.698677
-3.080795
-4.591248
-6.063194
-7.414207
-8.667198
-9.915855
-11.34079
-13.0554
-15.08633
-17.28383
-19.31396
-20.76253
-21.20936
-20.34097
-18.04748
-14.54376
-10.28691
-5.880043
-1.894302
1.277428
3.483299
4.801399
5.480812
5.825569
6.066475
6.32608
6.622185
6.881645
6.99015
6.86364
6.423836
5.685791
4.749962
3.779491
2.978333
2.510811
2.414108
2.582691
2.841019
2.951958
2.76178
2.219543
1.381348
0.3688774
-0.7151909
-1.854332
-3.097256
-4.419315
-5.811672
-7.179615
-8.441101
-9.5214
-10.38455
-11.05688
-11.60841
-12.15391
-12.79317
-13.64655
-14.80127
-16.29377
-18.09883
-19.96047
-21.46374
-22.05698
-21.261
-18.86222
-15.03376
-10.30677
-5.395706
-0.9557915
2.646233
5.340874
7.285301
8.715557
9.701462
10.1949
10.12013
9.467354
8.365463
7.087791
5.898262
4.972157
4.353344
3.95314
3.65464
3.35918
3.07645
2.817291
2.63538
2.543381
2.54945
2.693785
2.982235
3.451706
4.054565
4.650097
5.074919
5.162291
4.820435
4.074425
3.057972
1.896593
0.6943417
-0.5086193
-1.752066
-3.064308
-4.512779
-6.154678
-8.013311
-10.02336
-12.04737
-13.77163
-14.83516
-14.85244
-13.58517
-11.03519
-7.468229
-3.333296
0.8619232
4.662413
7.809713
10.16433
11.73634
12.61951
12.89426
12.67512
12.10668
11.30146
10.39392
9.520811
8.799946
8.354623
8.262232
8.499673
8.931902
9.35077
9.50246
9.207267
8.423517
7.273028
5.951293
4.689743
3.593692
2.647876
1.730876
0.7052836
-0.4927297
-1.818381
-3.163471
-4.441618
-5.562661
-6.593194
-7.61506
-8.739739
-10.05984
-11.58798
-13.29291
-15.11527
-16.8631
-18.22131
-18.82967
-18.28306
-16.3468
-13.07501
-8.873148
-4.34285
-0.1772909
3.145515
5.437351
6.738902
7.230837
7.119665
6.545767
5.662361
4.7131
3.979815
3.755387
4.160954
5.06723
6.176431
7.158506
7.775028
8.042082
8.141979
8.24028
8.427097
8.611656
8.592443
8.233345
7.487099
6.380421
5.016682
3.464346
1.729588
-0.12714
-2.044294
-3.919706
-5.635019
-7.090054
-8.285543
-9.259344
-10.06568
-10.84422
-11.68171
-12.69221
-13.95737
-15.49529
-17.17972
-18.79012
-19.99082
-20.37473
-19.62903
-17.56537
-14.22412
-9.925331
-5.174541
-0.5598602
3.385147
6.342087
8.241119
9.181602
9.438499
9.268543
8.839611
8.272701
7.634739
7.011604
6.527699
6.314697
6.405769
6.779343
7.340801
7.934235
8.463387
8.920952
9.352894
9.834988
10.36528
10.81726
10.98407
10.70561
9.875725
8.542629
6.802124
4.749828
2.514854
0.1634102
-2.192677
-4.441036
-6.417805
-8.032234
-9.230511
-10.103
-10.80191
-11.42723
-12.10462
-12.90028
-13.91173
-15.23144
-16.86666
-18.62658
-20.12474
-20.85766
-20.30973
-18.20183
-14.60633
-9.934361
-4.863953
-0.06399918
3.953682
6.917484
8.774506
9.649841
9.757
9.362064
8.714611
8.02367
7.488155
7.246017
7.360928
7.805473
8.486973
9.252174
9.949303
10.48508
10.84462
11.06994
11.21712
11.30602
11.3119
11.1988
10.88931
10.30004
9.40657
8.208527
6.7859
5.265614
3.827244
2.618153
1.71072
1.076122
0.5908775
0.149601
-0.2915001
-0.7329102
-1.178722
-1.679924
-2.415955
-3.586807
-5.374413
-7.835815
-10.85985
-14.26511
-17.76821
-21.0254
-23.62542
-25.10854
-25.04955
-23.24232
-19.74496
-14.92627
-9.448868
-4.030693
0.7333145
4.438148
7.001701
8.536461
9.275642
9.473938
9.350716
9.02282
8.550568
8.034248
7.57196
7.300468
7.29911
7.599312
8.103996
8.655327
9.083321
9.32045
9.38414
9.287277
9.03965
8.578789
7.843933
6.844711
5.656914
4.453468
3.422348
2.681778
2.163467
1.742401
1.235939
0.4731979
-0.5848618
-1.963707
-3.631645
-5.509499
-7.468742
-9.385696
-11.04015
-12.25738
-13.01575
-13.46612
-13.86581
-14.47632
-15.40135
-16.43987
-17.12315
-16.88188
-15.27354
-12.24041
-8.111855
-3.520378
0.8263855
4.313774
6.627762
7.765533
7.933151
7.508369
6.812302
6.174797
5.748871
5.607307
5.715172
5.964485
6.281311
6.597473
6.939354
7.308174
7.778191
8.301521
8.781075
9.041649
8.949226
8.444267
7.554184
6.421715
5.149307
3.838852
2.575859
1.409355
0.4795837
-0.09278107
-0.2310791
-0.02015686
0.2998657
0.3705139
-0.06671906
-1.077103
-2.53714
-4.136086
-5.64035
-6.928711
-8.079865
-9.259186
-10.68725
-12.46456
-14.54809
-16.70938
-18.51401
-19.45792
-19.07059
-17.13
-13.73357
-9.360603
-4.655502
-0.2062454
3.571022
6.54763
8.745407
10.27234
11.2276
11.71255
11.87254
11.84765
11.77205
11.69395
11.58001
11.35361
10.97182
10.47654
9.998611
9.680679
9.596817
9.708755
9.886429
10.00446
9.947655
9.683456
9.173172
8.383156
7.346657
6.132309
4.904953
3.79985
2.861908
1.976669
0.9364777
-0.4318237
-2.140854
-3.952438
-5.528
-6.552063
-6.917557
-6.788712
-6.496033
-6.420395
-6.794891
-7.72821
-9.161713
-10.88379
-12.59621
-13.8239
-14.06285
-12.90477
-10.27275
-6.49527
-2.254639
1.631577
4.566498
6.285843
6.994446
7.077667
6.938354
6.755325
6.512604
6.136429
5.604431
5.065201
4.707001
4.680527
4.995621
5.522446
6.088287
6.600464
7.084793
7.587555
8.106033
8.473053
8.489838
7.968307
6.816879
5.188477
3.314148
1.481796
-0.146286
-1.529572
-2.752197
-3.941299
-5.199661
-6.590561
-8.047211
-9.473938
-10.7567
-11.83438
-12.71329
-13.45874
-14.22763
-15.14694
-16.33902
-17.74286
-19.17593
-20.29163
-20.64511
-19.83316
-17.6273
-14.08092
-9.591782
-4.767014
-0.193634
3.65036
6.543381
8.515274
9.7453
10.43944
10.74623
10.772
10.59247
10.34215
10.20914
10.36464
10.91666
11.80646
12.81607
13.63744
13.95421
13.56787
12.41438
10.60785
8.355637
5.928543
3.598755
1.591766
0.06373596
-0.9687347
-1.592178
-1.985947
-2.395264
-3.015579
-3.970795
-5.259399
-6.758392
-8.295135
-9.676605
-10.73488
-11.43494
-11.79921
-11.96826
-12.13817
-12.4917
-13.13943
-13.9866
-14.71986
-14.82765
-13.8226
-11.39693
-7.607819
-2.905594
2.022873
6.483124
10.00529
12.44202
13.95248
14.78447
15.16167
15.16582
14.81114
14.12119
13.19313
12.2205
11.39903
10.90762
10.73625
10.76614
10.81491
10.71733
10.39314
9.759979
8.765015
7.282562
5.212524
2.434906
-1.035767
-5.030304
-9.341568
-13.65186
-17.72987
-21.39915
-24.58194
-27.26988
-29.5421
-31.56209
-33.46005
-35.37018
-37.29961
-39.11621
-40.66
-41.85915
-42.81924
-43.78255
-45.00887
-46.49214
-47.94066
-48.71811
-48.03316
-45.28645
-40.31493
-33.50269
-25.68085
-17.8468
-10.85535
-5.214066
-1.000183
2.05867
4.328247
6.1306
7.623672
8.858536
9.849106
10.6768
11.44926
12.29387
13.31767
14.50832
15.78952
17.07646
18.27841
19.34657
20.22429
20.8364
21.11676
21.03239
20.59242
19.83804
18.85435
17.6917
16.34581
14.77338
12.9176
10.80611
8.492477
6.132339
3.857376
1.779144
-0.08921814
-1.832932
-3.549881
-5.337524
-7.215088
-9.228149
-11.35416
-13.52831
-15.53554
-16.97878
-17.38281
-16.24966
-13.37025
-8.927399
-3.581139
1.813515
6.457024
9.846176
11.90777
12.88159
13.17564
13.16553
13.03977
12.77853
12.26484
11.41825
10.24345
8.935547
7.775299
7.054054
6.929108
7.373344
8.161911
9.027908
9.75666
10.22986
10.45142
10.45666
10.24654
9.791542
9.075157
8.077438
6.878738
5.526901
4.039413
2.407211
0.5773697
-1.455803
-3.627281
-5.802902
-7.86937
-9.705528
-11.27648
-12.61655
-13.79924
-14.92565
-16.08554
-17.27123
-18.28298
-18.79736
-18.39283
-16.72428
-13.715
-9.612373
-4.918591
-0.2724495
3.81086
7.057728
9.385799
10.89835
11.7524
12.07333
12.00724
11.66911
11.20596
10.72303
10.35878
10.16793
10.19931
10.45903
10.88715
11.39151
11.83062
12.08085
12.03617
11.70745
11.10985
10.30187
9.324282
8.191433
6.911879
5.529877
4.111872
2.691208
1.31189
-0.05620384
-1.458603
-2.899634
-4.341286
-5.714782
-6.931271
-7.965741
-8.813663
-9.521929
-10.16513
-10.87084
-11.75008
-12.94029
-14.49909
-16.29616
-17.99788
-19.08399
-18.98735
-17.29906
-13.99568
-9.469646
-4.383575
0.509079
4.68365
7.935751
10.33774
12.11881
13.43314
14.28692
14.59356
14.32902
13.58533
12.67407
11.92219
11.54253
11.59304
11.93887
12.33263
12.58967
12.64705
12.50454
12.22162
11.82326
11.21546
10.27765
8.890503
7.060322
4.944462
2.835007
1.040104
-0.2189598
-0.8907089
-1.199371
-1.462009
-1.994183
-2.906948
-4.075607
-5.212711
-6.038788
-6.422428
-6.442795
-6.405174
-6.607834
-7.249512
-8.389881
-9.935966
-11.67221
-13.32013
-14.4956
-14.78219
-13.8651
-11.61449
-8.127911
-3.845303
0.628334
4.754673
8.124443
10.61491
12.27048
13.21672
13.54902
13.35442
12.66805
11.56625
10.24115
8.934853
7.957413
7.507217
7.631989
8.193085
8.967735
9.697128
10.27457
10.73785
11.14675
11.57497
11.97166
12.17404
12.03445
11.48836
10.54061
9.3293
8.00985
6.651382
5.25618
3.819107
2.300278
0.7635345
-0.6863022
-1.954681
-2.963074
-3.703163
-4.327103
-5.031723
-6.007133
-7.406738
-9.273415
-11.57315
-14.1808
-16.84668
-19.17426
-20.7029
-20.91569
-19.47113
-16.38232
-12.02167
-7.08757
-2.377808
1.526939
4.377708
6.249969
7.469849
8.363022
9.106743
9.708908
10.10598
10.21024
10.0563
9.762077
9.45192
9.279503
9.325645
9.62307
10.15783
10.90399
11.74576
12.56152
13.16108
13.34228
12.98141
12.02531
10.57058
8.803833
6.953033
5.205444
3.684845
2.440529
1.433929
0.5947952
-0.158165
-0.8988266
-1.685646
-2.569992
-3.615395
-4.845726
-6.233963
-7.677498
-9.053886
-10.31187
-11.51618
-12.81043
-14.28264
-15.78004
-16.92333
-17.13867
-15.93959
-13.16706
-9.110031
-4.394638
0.2766113
4.348198
7.545952
9.805099
11.2222
11.8604
11.81299
11.21856
10.30725
9.351395
8.610542
8.172134
7.975182
7.917099
7.876183
7.813919
7.784081
7.858032
8.020325
8.191406
8.261368
8.120781
7.806465
7.371078
6.878609
6.369026
5.791
5.056442
4.080338
2.87664
1.489388
0.03742218
-1.420517
-2.824318
-4.168991
-5.491943
-6.758553
-7.937325
-8.962936
-9.880539
-10.82045
-11.99043
-13.49796
-15.22599
-16.83477
-17.73354
-17.40257
-15.57125
-12.4373
-8.533871
-4.520603
-0.9613914
1.876076
3.952431
5.372566
6.209133
6.468468
6.146122
5.344574
4.328842
3.480755
3.114929
3.347168
4.094452
5.085167
6.064301
6.896164
7.581009
8.190323
8.755383
9.271767
9.613071
9.709126
9.534184
9.150024
8.688793
8.249382
7.8419
7.395786
6.771347
5.852772
4.560825
2.968452
1.226337
-0.5241508
-2.196938
-3.805222
-5.432102
-7.148838
-8.968796
-10.88588
-12.84868
-14.79951
-16.60495
-18.03698
-18.76749
-18.43353
-16.83401
-14.0055
-10.28937
-6.194393
-2.297642
1.021557
3.558758
5.347225
6.572838
7.382259
7.924919
8.223667
8.283798
8.107395
7.759007
7.380772
7.129635
7.134819
7.431015
7.923737
8.421303
8.773514
8.935181
8.93681
8.839792
8.639288
8.279478
7.65604
6.771225
5.690559
4.572454
3.573843
2.744616
1.981779
1.082851
-0.1025562
-1.648327
-3.395361
-5.101957
-6.502224
-7.407171
-7.852749
-8.041687
-8.323631
-8.972322
-10.16573
-11.78278
-13.51519
-14.94241
-15.62918
-15.30505
-13.86789
-11.43357
-8.246102
-4.695302
-1.160158
1.993594
4.470209
6.188419
7.19674
7.72565
8.048418
8.372246
8.708541
8.98276
9.009813
8.660872
7.945851
6.971092
5.918049
4.944375
4.109006
3.462225
3.070801
3.02034
3.351325
3.98456
4.694567
5.157324
5.084411
4.291469
2.837415
0.920876
-1.152651
-3.120157
-4.775122
-6.02372
-6.848291
-7.319347
-7.626556
-7.96335
-8.57895
-9.631226
-11.13075
-12.85011
-14.43625
-15.41963
-15.41387
-14.21841
-11.85817
-8.635519
-5.002973
-1.460382
1.602186
3.978016
5.665338
6.734303
7.35301
7.625782
7.633511
7.410463
7.006819
6.497299
6.056159
5.86875
6.028054
6.557742
7.305157
8.042673
8.466141
8.396149
7.74836
6.63599
5.282923
3.918774
2.690647
1.6838
0.9214096
0.4159813
0.1771507
0.1248894
0.1575737
0.1199741
-0.1694965
-0.8130951
-1.872555
-3.284752
-4.911188
-6.593037
-8.243078
-9.867428
-11.55928
-13.47291
-15.66142
-18.02795
-20.20038
-21.63036
-21.76899
-20.29189
-17.24942
-13.04066
-8.317984
-3.671326
0.4372444
3.793148
6.379162
8.299343
9.60416
10.35045
10.55684
10.26805
9.61376
8.787075
8.021648
7.509537
7.359028
7.534054
7.903175
8.313705
8.67308
8.982433
9.292618
9.665474
10.07582
10.38937
10.42611
10.02074
9.154633
7.934067
6.603638
5.364014
4.359646
3.60107
2.997864
2.372555
1.528812
0.34375
-1.219265
-3.030689
-4.91251
-6.609406
-7.976318
-8.957836
-9.665092
-10.32991
-11.21172
-12.49531
-14.21356
-16.23772
-18.20499
-19.66524
-20.13977
-19.25851
-16.91145
-13.3224
-8.964527
-4.458534
-0.4212723
2.756107
4.925823
6.144936
6.673786
6.812401
6.803177
6.802662
6.889111
7.079056
7.381577
7.793751
8.302948
8.878494
9.449581
9.933964
10.25492
10.36581
10.32661
10.21113
10.08537
9.96492
9.78463
9.41782
8.737743
7.680069
6.269722
4.65448
3.064133
1.66412
0.5085678
-0.4507294
-1.317459
-2.225807
-3.218735
-4.272446
-5.315201
-6.283615
-7.169724
-7.990982
-8.767738
-9.503731
-10.24377
-11.01853
-11.91737
-12.9811
-14.1209
-15.07042
-15.42658
-14.8259
-13.03651
-10.13721
-6.440353
-2.437943
1.380554
4.618317
7.081734
8.70929
9.520538
9.56205
8.955261
7.879616
6.576759
5.333023
4.391273
3.877419
3.760155
3.869614
4.013466
4.083649
4.146927
4.324928
4.798019
5.611801
6.602409
7.512451
8.079948
8.143196
7.730766
6.98378
6.029785
4.997078
3.894615
2.656311
1.251892
-0.3129807
-1.954391
-3.548965
-4.950806
-6.092781
-6.902504
-7.393265
-7.646744
-7.765953
-7.87484
-8.134369
-8.652718
-9.458809
-10.5014
-11.53658
-12.1887
-12.05603
-10.84295
-8.490524
-5.282982
-1.697464
1.681274
4.403152
6.263351
7.28849
7.643127
7.484978
6.901695
5.929703
4.694374
3.40403
2.333321
1.751358
1.750511
2.257919
3.089012
4.000435
4.795967
5.4263
5.854988
6.094467
6.178429
6.117722
5.957298
5.764191
5.560532
5.281662
4.86055
4.17746
3.196205
1.943039
0.4863586
-1.079788
-2.681206
-4.266228
-5.738914
-6.954445
-7.839928
-8.416168
-8.861069
-9.426071
-10.36884
-11.77831
-13.60513
-15.5947
-17.43779
-18.85152
-19.56859
-19.3623
-18.01692
-15.40842
-11.60592
-6.949013
-1.981392
2.633736
6.328751
8.811333
10.13344
10.58969
10.61502
10.54726
10.55038
10.59763
10.59213
10.43706
10.11217
9.707291
9.285538
8.897583
8.454987
7.866791
7.081955
6.221527
5.482819
5.072342
5.0914
5.439301
5.859924
6.026154
5.734085
4.918167
3.705093
2.330688
0.9839935
-0.2110138
-1.288467
-2.335083
-3.427261
-4.575272
-5.721024
-6.806793
-7.794724
-8.689468
-9.53891
-10.43025
-11.39734
-12.43146
-13.51486
-14.55922
-15.46313
-15.93333
-15.65074
-14.35056
-11.98096
-8.75119
-5.133636
-1.711166
1.045776
2.888428
3.892838
4.278259
4.277878
4.06929
3.728851
3.330017
2.933487
2.660446
2.603455
2.858276
3.402237
4.137878
4.941025
5.656784
6.165176
6.401382
6.351761
6.039642
5.539017
4.956467
4.384338
3.925735
3.555115
3.224426
2.878281
2.476639
2.014664
1.528763
1.062683
0.6047058
0.1086731
-0.5195465
-1.344238
-2.322083
-3.338638
-4.272339
-5.058701
-5.689819
-6.287537
-6.976151
-7.922928
-9.215912
-10.81584
-12.54027
-14.07805
-15.03197
-15.02238
-13.81471
-11.40134
-8.031433
-4.180847
-0.3840485
2.898987
5.405487
7.071899
7.981033
8.274521
8.059723
7.423523
6.45636
5.283279
4.040131
2.860504
1.840988
0.9769592
0.2454376
-0.3206635
-0.6296997
-0.5553436
0.07145691
1.262314
2.906204
4.789215
6.605164
8.08638
9.068909
9.518127
9.474869
9.079926
8.427353
7.59404
6.612091
5.481491
4.216156
2.851578
1.443466
0.03933716
-1.312439
-2.594986
-3.799301
-4.949066
-6.06694
-7.200302
-8.445694
-9.903931
-11.63599
-13.61662
-15.58752
-17.09052
-17.62454
-16.82986
-14.6322
-11.33885
-7.534546
-3.805588
-0.6009827
1.899582
3.771332
5.169922
6.195206
6.886032
7.24791
7.322861
7.206741
6.977875
6.675217
6.27652
5.756836
5.140701
4.558136
4.172531
4.153442
4.475967
4.970032
5.367554
5.38942
4.931519
4.086426
3.066788
2.076416
1.279968
0.6389618
0.03274536
-0.6964111
-1.645279
-2.797913
-4.032471
-5.198975
-6.2108
-7.018219
-7.692245
-8.313568
-9.016693
-9.943527
-11.17528
-12.76387
-14.62814
-16.58511
-18.26546
-19.25951
-19.14618
-17.66931
-14.85339
-10.97202
-6.571396
-2.210251
1.633209
4.734711
7.100555
8.881332
10.25807
11.32018
12.10321
12.53522
12.62889
12.44423
12.0966
11.7039
11.31528
10.9406
10.5253
10.05878
9.548401
9.036911
8.583664
8.170731
7.750076
7.225037
6.56279
5.750793
4.846924
3.893097
2.893402
1.821838
0.61026
-0.7343903
-2.177795
-3.5914
-4.864578
-5.940765
-6.838806
-7.708878
-8.684586
-9.907516
-11.36591
-12.96848
-14.47095
-15.58884
-16.02287
-15.53059
-14.08015
-11.75946
-8.805893
-5.511261
-2.187317
0.8912659
3.508575
5.507416
6.839813
7.466888
7.443192
6.918839
6.055115
5.03067
4.011673
3.132675
2.45462
2.031876
1.832626
1.786499
1.846634
1.968353
2.141922
2.356628
2.604019
2.858398
3.063797
3.157166
3.060135
2.772644
2.25502
1.559631
0.7664337
-0.04594421
-0.8063049
-1.48291
-2.09993
-2.782791
-3.614212
-4.745056
-6.261459
-8.181
-10.44719
-12.7887
-14.795
-15.9581
-15.90588
-14.46426
-11.83266
-8.457993
-4.891571
-1.608536
1.16613
3.416206
5.235756
6.696053
7.824356
8.536003
8.795258
8.653946
8.229797
7.724495
7.2855
6.977676
6.788696
6.691544
6.624031
6.567444
6.520355
6.436752
6.29361
6.032913
5.629929
5.063347
4.305061
3.341537
2.1129
0.6557388
-0.9377136
-2.478325
-3.7668
-4.695374
-5.330719
-5.948769
-6.876556
-8.399086
-10.63084
-13.47477
-16.53383
-19.24533
-20.96092
-21.14703
-19.5789
-16.41568
-12.17388
-7.541466
-3.212387
0.3673401
3.040924
4.921692
6.230309
7.170563
7.872124
8.370399
8.685989
8.84185
8.85482
8.736641
8.508171
8.183815
7.806229
7.443108
7.145058
6.970886
6.957802
7.052567
7.161819
7.169426
6.931183
6.360001
5.391266
3.981445
2.202744
0.1654739
-1.967522
-3.996735
-5.764305
-7.156143
-8.164162
-8.898796
-9.622528
-10.58019
-11.98294
-13.88156
-16.13362
-18.41901
-20.34286
-21.44147
-21.33488
-19.79765
-16.85022
-12.81807
-8.265236
-3.825516
-0.04221344
2.771248
4.636818
5.72184
6.259033
6.46637
6.467644
6.3909
6.358772
6.493713
6.87516
7.495529
8.313526
9.21788
10.14638
11.03571
11.80046
12.34673
12.54369
12.31868
11.6678
10.70449
9.584663
8.474842
7.444103
6.500515
5.573929
4.608997
3.629887
2.678345
1.823967
1.032932
0.2289543
-0.7591705
-2.04554
-3.683819
-5.656425
-7.898594
-10.38977
-13.0699
-15.8693
-18.52799
-20.60871
-21.57589
-20.92852
-18.45632
-14.40512
-9.408724
-4.326441
0.07209778
3.362551
5.568638
7.040865
8.211546
9.36408
10.51975
11.49658
12.11475
12.28758
12.1258
11.86141
11.69075
11.71711
11.90055
12.11032
12.24838
12.2754
12.18638
12.05663
11.90882
11.6961
11.36356
10.82528
10.06513
9.17062
8.272038
7.457256
6.754497
6.047127
5.143085
3.866518
2.13957
0.04285192
-2.220264
-4.412941
-6.400063
-8.126225
-9.631683
-11.01106
-12.38198
-13.83908
-15.42036
-17.03788
-18.48536
-19.39767
-19.32562
-17.90219
-15.02757
-10.90224
-6.074057
-1.183911
3.186408
6.70213
9.323792
11.20175
12.4897
13.27878
13.59239
13.42212
12.8487
12.03387
11.23102
10.62619
10.28992
10.11567
9.961972
9.724771
9.420174
9.170084
9.086488
9.217858
9.492787
9.736409
9.726914
9.348886
8.58263
7.490265
6.175524
4.682642
3.043734
1.257661
-0.6512146
-2.575884
-4.422054
-6.058753
-7.430634
-8.513166
-9.392066
-10.18233
-11.02594
-12.04577
-13.3005
-14.81115
-16.45023
-17.9709
-18.96993
-19.01645
-17.7734
-15.16851
-11.40412
-6.919295
-2.314981
1.882668
5.29197
7.759271
9.340713
10.21179
10.55917
10.57113
10.42335
10.21516
10.11134
10.16544
10.38678
10.69997
10.96467
11.04861
10.89935
10.56524
10.14646
9.730766
9.334654
8.956526
8.572027
8.183462
7.76614
7.279528
6.645144
5.839695
4.91502
3.997105
3.251547
2.704882
2.252851
1.65731
0.7630157
-0.4740963
-1.89703
-3.29147
-4.559881
-5.744855
-7.026375
-8.609336
-10.57319
-12.84006
-15.19965
-17.35173
-18.95709
-19.66662
-19.1884
-17.36092
-14.23619
-10.12476
-5.542507
-1.109807
2.641227
5.409596
7.173018
8.111077
8.550742
8.799422
9.050954
9.350909
9.643681
9.814338
9.810365
9.650037
9.398169
9.145229
8.934334
8.779782
8.641445
8.514441
8.424067
8.42683
8.573247
8.83543
9.136107
9.329982
9.288262
8.96003
8.346978
7.52467
6.534852
5.391919
4.033511
2.403657
0.4607124
-1.724
-3.944984
-5.984987
-7.680974
-9.016111
-10.08962
-11.14046
-12.34355
-13.80014
-15.41429
-16.86659
-17.77477
-17.72092
-16.47978
-14.03774
-10.69626
-6.922731
-3.238124
-0.001726866
2.654285
4.763612
6.470308
7.8494
8.898241
9.528173
9.722689
9.503346
8.984448
8.342951
7.673645
7.081045
6.615373
6.289039
6.093806
6.022717
6.006623
5.928074
5.698919
5.280342
4.758111
4.23562
3.807441
3.474391
3.128756
2.616137
1.800314
0.6555204
-0.7562199
-2.247356
-3.687071
-4.997375
-6.144442
-7.192385
-8.262791
-9.429739
-10.76199
-12.27285
-13.83386
-15.26633
-16.36189
-16.77945
-16.25984
-14.66224
-11.9781
-8.399427
-4.29402
-0.1202641
3.692928
6.803137
9.07324
10.53419
11.32472
11.62605
11.62716
11.41761
11.03405
10.49911
9.808496
9.041639
8.306776
7.698252
7.258684
6.882963
6.453226
5.880135
5.171158
4.445446
3.882235
3.581757
3.522881
3.635237
3.67989
3.550644
3.23167
2.800873
2.360256
1.938259
1.452755
0.7314606
-0.3156548
-1.682289
-3.23196
-4.717598
-5.964535
-6.963413
-7.888561
-9.017536
-10.60401
-12.61665
-14.78941
-16.61379
-17.54668
-17.21357
-15.5001
-12.66426
-9.16296
-5.556614
-2.302654
0.3009109
2.164036
3.330135
3.909695
4.064655
3.902542
3.562092
3.197323
2.965824
2.978687
3.326759
4.042046
5.036228
6.219933
7.477474
8.704475
9.838657
10.83341
11.59095
12.02769
12.08952
11.74792
11.03092
10.01659
8.808113
7.485943
6.070641
4.533897
2.851837
1.03854
-0.8115349
-2.563038
-4.15675
-5.56432
-6.829788
-8.034393
-9.213947
-10.42019
-11.72134
-13.15365
-14.69312
-16.25481
-17.55463
-18.1254
-17.5131
-15.46877
-12.104
-7.97065
-3.802956
-0.2380829
2.363968
3.972466
4.783607
5.085716
5.05645
4.806816
4.435745
4.060188
3.809296
3.776939
3.942017
4.151703
4.285164
4.26535
4.129684
3.970482
3.856949
3.775932
3.664833
3.483109
3.210564
2.90596
2.608795
2.314758
1.901199
1.211472
0.158165
-1.215652
-2.743385
-4.188278
-5.332756
-6.120117
-6.582359
-6.90818
-7.307167
-7.966217
-8.959648
-10.29187
-11.84773
-13.37478
-14.61678
-15.23344
-14.92414
-13.53049
-11.05269
-7.695656
-3.887398
-0.147438
3.082222
5.490013
6.955391
7.546509
7.445808
6.918114
6.228912
5.601807
5.212318
5.121765
5.322937
5.715019
6.201988
6.724686
7.292084
7.922798
8.546623
9.018929
9.148827
8.82196
8.095055
7.143463
6.151443
5.193581
4.175415
2.871971
1.108063
-1.077118
-3.444672
-5.55748
-7.076118
-7.929207
-8.330627
-8.658112
-9.281319
-10.35549
-11.76318
-13.20499
-14.23002
-14.4899
-13.76044
-12.05139
-9.52562
-6.491287
-3.298225
-0.2225189
2.473297
4.670303
6.287521
7.31459
7.752121
7.644669
7.106857
6.302887
5.473206
4.803719
4.45385
4.504028
4.930298
5.655304
6.500305
7.283432
7.840652
8.074028
7.94545
7.503693
6.819893
5.927132
4.851456
3.587311
2.175491
0.7335205
-0.5973587
-1.703972
-2.531693
-3.149925
-3.680267
-4.23967
-4.92054
-5.773933
-6.857185
-8.288094
-10.19349
-12.63568
-15.45763
-18.23122
-20.40572
-21.4073
-20.91024
-18.92262
-15.77211
-11.97597
-8.091774
-4.521927
-1.504051
0.8679504
2.616348
3.837128
4.602066
5.011429
5.16256
5.156418
5.105064
5.123734
5.271164
5.539093
5.875687
6.113861
6.126762
5.846291
5.293701
4.602646
3.944504
3.442909
3.196877
3.234177
3.489517
3.879807
4.223755
4.297379
3.983719
3.236
2.133896
0.869606
-0.3889236
-1.585152
-2.738113
-3.957245
-5.317352
-6.749069
-8.158546
-9.47995
-10.74606
-12.05025
-13.40508
-14.58329
-15.18088
-14.77557
-13.06072
-10.08498
-6.254967
-2.151054
1.620697
4.647385
6.792419
8.121132
8.778877
8.941269
8.731194
8.218239
7.501785
6.705254
5.952049
5.41291
5.19416
5.320808
5.715271
6.224113
6.719864
7.131813
7.453476
7.653793
7.696381
7.492546
6.980202
6.183136
5.201218
4.206512
3.316177
2.549553
1.831894
1.055267
0.1632233
-0.8113708
-1.717026
-2.406342
-2.808197
-2.986645
-3.145351
-3.57127
-4.483017
-5.975365
-7.995918
-10.29475
-12.57045
-14.47344
-15.66165
-15.87223
-14.88293
-12.66408
-9.360123
-5.347504
-1.10722
2.826237
6.046124
8.343956
9.704388
10.29445
10.34809
10.09037
9.674202
9.168747
8.596531
7.971462
7.353451
6.892063
6.755379
7.051697
7.716541
8.545418
9.209232
9.500008
9.373981
8.994255
8.583267
8.273762
7.986317
7.505959
6.650627
5.377842
3.883488
2.467201
1.31559
0.3789711
-0.5807152
-1.822506
-3.448212
-5.319157
-7.174557
-8.780201
-10.05413
-11.12048
-12.17308
-13.29994
-14.46445
-15.4484
-15.94849
-15.73536
-14.65506
-12.71168
-10.05007
-6.876022
-3.481201
-0.196106
2.653664
4.872967
6.355083
7.18581
7.538921
7.633133
7.662857
7.758434
7.904007
7.983589
7.963043
7.811077
7.610569
7.462509
7.405094
7.449543
7.554092
7.654465
7.742012
7.872971
8.048981
8.239071
8.302181
8.032761
7.307819
6.119408
4.596966
2.999752
1.571594
0.446579
-0.3731995
-1.007042
-1.625195
-2.318966
-3.084274
-3.880383
-4.621849
-5.300259
-6.008205
-6.872761
-7.986996
-9.387985
-10.99442
-12.64403
-14.12753
-15.22145
-15.72543
-15.4837
-14.38122
-12.37875
-9.546093
-6.087357
-2.319622
1.395805
4.716278
7.374344
9.203232
10.17036
10.37277
10.01928
9.368507
8.66304
8.071365
7.647499
7.365974
7.153809
6.956833
6.775528
6.658363
6.668297
6.861732
7.233803
7.676994
8.024017
8.136093
7.88102
7.258339
6.318634
5.203789
4.072525
3.071884
2.216599
1.438065
0.6034698
-0.4796906
-1.859688
-3.53186
-5.328476
-7.052849
-8.552162
-9.779991
-10.75849
-11.54565
-12.24246
-12.93026
-13.76601
-14.91161
-16.3987
-18.02454
-19.36747
-19.8437
-19.00439
-16.76341
-13.43906
-9.623611
-5.966904
-2.855415
-0.3867645
1.5485
3.09375
4.355263
5.30619
5.919014
6.216103
6.250572
6.154655
6.046326
6.006226
6.056694
6.173256
6.349068
6.574379
6.9319
7.475624
8.25618
9.154747
9.96032
10.41337
10.29141
9.57946
8.462463
7.228302
6.055382
5.052658
4.124352
3.199173
2.265015
1.384979
0.5833664
-0.1944275
-1.119858
-2.392288
-4.055122
-6.033813
-8.115295
-10.09544
-11.84737
-13.39294
-14.73281
-15.82746
-16.47595
-16.36121
-15.21463
-12.93576
-9.69545
-5.889618
-2.040329
1.365829
4.017693
5.825172
6.879913
7.352402
7.413513
7.174675
6.693626
6.064774
5.368858
4.745682
4.332047
4.208832
4.389534
4.803566
5.308662
5.729523
5.971764
5.985756
5.848446
5.656956
5.498676
5.3256
5.068237
4.581158
3.783226
2.662781
1.278469
-0.2531624
-1.845047
-3.426159
-4.951153
-6.377274
-7.610813
-8.598137
-9.327438
-9.867271
-10.3355
-10.84288
-11.41816
-11.90691
-12.03493
-11.46582
-10.01451
-7.675755
-4.697895
-1.509003
1.411915
3.711525
5.266109
6.135525
6.512314
6.554916
6.355522
5.927277
5.251755
4.369987
3.447857
2.709469
2.365124
2.48035
2.94854
3.566734
4.164822
4.602165
4.903912
5.137859
5.313408
5.404213
5.316467
5.01693
4.516724
3.916183
3.247597
2.503399
1.599739
0.4214249
-1.066345
-2.760967
-4.462536
-5.946159
-7.103977
-7.974068
-8.703484
-9.463329
-10.3955
-11.50174
-12.74776
-14.01642
-15.14705
-15.94469
-16.15804
-15.51611
-13.83385
-11.11863
-7.596031
-3.676792
0.1195946
3.403126
5.949921
7.737514
8.872711
9.506954
9.783142
9.822464
9.738621
9.58503
9.416462
9.216801
8.912079
8.394783
7.61311
6.624908
5.601048
4.789539
4.399971
4.53912
5.148293
6.052727
6.952984
7.607109
7.885998
7.809662
7.510601
7.082527
6.587772
5.965614
5.071308
3.812996
2.152721
0.2103424
-1.848125
-3.920582
-6.004421
-8.195057
-10.57403
-13.15599
-15.82918
-18.41191
-20.66315
-22.30176
-23.02594
-22.56628
-20.72744
-17.54404
-13.3311
-8.612284
-3.967672
0.1494904
3.492037
6.047869
7.842953
8.945585
9.419794
9.352369
8.943438
8.394779
7.91997
7.59325
7.440685
7.453939
7.622166
7.969227
8.519354
9.175995
9.783016
10.15673
10.15083
9.749235
9.002687
8.036308
6.903006
5.66781
4.360355
2.984261
1.566818
0.1124706
-1.326065
-2.722761
-4.009722
-5.122599
-6.007099
-6.652239
-7.103792
-7.468349
-7.845839
-8.306011
-8.932214
-9.809545
-10.98249
-12.44983
-14.05735
-15.44646
-16.16632
-15.76935
-14.00793
-10.98459
-7.144534
-3.112478
0.4873209
3.279835
5.155198
6.286492
6.912036
7.249165
7.389559
7.323721
7.074975
6.64973
6.189863
5.85043
5.772015
6.015002
6.553687
7.220559
7.837261
8.270123
8.438285
8.413027
8.297923
8.222331
8.195227
8.131154
7.878927
7.301933
6.376861
5.167182
3.832572
2.490251
1.203876
-0.04675245
-1.367949
-2.8505
-4.590559
-6.636746
-9.045609
-11.74821
-14.57825
-17.21625
-19.20197
-20.10301
-19.62184
-17.73306
-14.68655
-10.91887
-6.88008
-2.953354
0.5716867
3.559627
5.923761
7.668716
8.756168
9.207194
9.074108
8.473985
7.58427
6.595199
5.74884
5.202446
5.098213
5.379297
5.955355
6.662844
7.333076
7.864714
8.157625
8.206566
8.011377
7.584452
6.911541
5.961573
4.699297
3.15118
1.433943
-0.2657566
-1.741999
-2.921246
-3.819157
-4.558172
-5.322742
-6.281927
-7.558865
-9.210264
-11.20969
-13.4571
-15.79022
-17.86812
-19.24641
-19.49341
-18.3365
-15.78891
-12.17625
-8.04694
-3.947269
-0.2797508
2.744625
5.131325
6.930473
8.224964
9.073959
9.523335
9.632729
9.485592
9.156052
8.668121
8.012947
7.150574
6.12833
5.033524
4.008568
3.167671
2.544022
2.116253
1.814259
1.606636
1.502922
1.596409
1.935986
2.483627
3.085491
3.499249
3.511173
3.091278
2.360062
1.528465
0.6974754
-0.1534653
-1.146099
-2.389385
-3.871593
-5.443657
-6.906319
-8.125832
-9.177345
-10.34699
-11.90659
-14.0062
-16.47981
-18.82106
-20.35093
-20.44669
-18.7233
-15.22865
-10.44376
-5.10154
-0.02309418
4.181396
7.236153
9.216461
10.33684
10.88218
11.08123
11.03385
10.82249
10.53754
10.29044
10.19354
10.34235
10.73855
11.32243
11.99812
12.65943
13.27579
13.83007
14.35471
14.82378
15.17565
15.30001
15.08303
14.44988
13.38692
12.03045
10.53864
9.074852
7.755653
6.576591
5.443817
4.232994
2.804352
1.060799
-0.9549866
-3.111595
-5.231911
-7.116692
-8.641884
-9.848801
-10.87886
-11.94296
-13.25273
-14.90481
-16.79952
-18.69601
-20.19303
-20.86949
-20.38201
-18.53714
-15.35871
-11.12607
-6.327271
-1.572357
2.592728
5.805847
7.942268
9.152252
9.693275
9.844528
9.835571
9.793091
9.797173
9.889404
10.09978
10.41856
10.80398
11.18875
11.53739
11.79283
12.02293
12.25019
12.45062
12.52626
12.39303
11.99492
11.38478
10.66429
9.921135
9.20462
8.475708
7.666527
6.727165
5.633133
4.391159
3.008934
1.494377
-0.1227112
-1.804886
-3.471321
-5.033844
-6.431854
-7.591179
-8.53772
-9.338692
-10.14465
-11.16469
-12.53571
-14.22719
-15.99294
-17.37466
-17.8633
-17.09706
-14.97932
-11.72786
-7.796852
-3.730019
0.03229523
3.173325
5.592766
7.335571
8.52359
9.339157
9.912285
10.34654
10.68404
10.87708
10.87991
10.70518
10.43415
10.14754
9.95137
9.899155
9.964798
10.12316
10.30246
10.44482
10.49873
10.41764
10.08487
9.444656
8.46936
7.197037
5.750603
4.336182
3.052933
1.895844
0.7325134
-0.6748352
-2.447128
-4.599007
-6.95977
-9.259628
-11.20661
-12.75092
-14.00684
-15.27438
-16.85427
-18.92017
-21.50682
-24.44188
-27.31852
-29.53826
-30.39983
-29.23734
-25.70416
-19.95385
-12.63979
-4.758926
2.659096
8.877052
13.56229
16.75193
18.72683
19.79913
20.18637
20.05503
19.5118
18.65697
17.63758
16.56209
15.5187
14.55614
13.65592
12.77876
11.96103
11.19109
10.49667
9.909302
9.387596
8.851051
8.226456
7.428886
6.386642
5.150215
3.720139
2.142052
0.5213699
-1.031181
-2.392601
-3.40609
-4.038353
-4.331924
-4.424873
-4.513847
-4.757393
-5.231125
-5.97155
-7.001144
-8.317085
-10.01413
-12.15625
-14.67425
-17.36375
-19.75602
-21.32553
-21.643
-20.52074
-18.09161
-14.75303
-10.99007
-7.187733
-3.683357
-0.5657539
2.089588
4.216263
5.844826
7.035275
7.922215
8.638859
9.285564
9.827164
10.26465
10.51252
10.57579
10.52065
10.37267
10.15411
9.813225
9.342358
8.716034
8.040329
7.360279
6.762699
6.297516
5.930321
5.61248
5.319469
5.058235
4.851856
4.645756
4.312603
3.666336
2.543427
0.8468742
-1.296558
-3.650326
-5.958401
-8.035755
-9.897785
-11.67201
-13.52483
-15.56141
-17.80898
-20.06446
-22.13818
-23.72268
-24.44824
-23.96986
-21.9846
-18.45387
-13.62834
-8.11388
-2.597931
2.254017
6.04752
8.746643
10.53548
11.69745
12.44523
12.8467
12.84692
12.41542
11.56144
10.40797
9.162079
8.009453
7.059895
6.400406
6.057289
6.019924
6.242352
6.610073
6.969875
7.143879
7.043171
6.705456
6.274445
5.921543
5.722767
5.613766
5.397346
4.865894
3.882488
2.441277
0.6466751
-1.338039
-3.387566
-5.330101
-7.034306
-8.42181
-9.492329
-10.41002
-11.46162
-12.90881
-14.79732
-16.9119
-18.69046
-19.49344
-18.85971
-16.67258
-13.19757
-8.941587
-4.486519
-0.2835789
3.342632
6.187189
8.141684
9.17197
9.383501
8.962637
8.217674
7.431725
6.832546
6.503
6.443125
6.623474
7.041586
7.750227
8.758913
10.03761
11.41901
12.69463
13.59708
13.93547
13.62984
12.72348
11.37702
9.749365
7.990704
6.169548
4.306057
2.356707
0.3298206
-1.732676
-3.768038
-5.65863
-7.378298
-8.920086
-10.34925
-11.72693
-13.07755
-14.40817
-15.6972
-16.99591
-18.36316
-19.86263
-21.40857
-22.69591
-23.21639
-22.46189
-20.18401
-16.50513
-11.98162
-7.295683
-3.054945
0.4529896
3.225721
5.458583
7.326038
8.88251
10.09184
10.86682
11.22088
11.19017
10.90358
10.45264
9.888531
9.266757
8.604654
7.954716
7.365578
6.968791
6.849033
7.04905
7.537148
8.110435
8.497608
8.392258
7.646672
6.293803
4.619234
2.992681
1.710026
0.900651
0.4140263
-0.01185894
-0.6926403
-1.807931
-3.373236
-5.225013
-7.097773
-8.704439
-9.872047
-10.5911
-10.99371
-11.36389
-11.99607
-13.08454
-14.63416
-16.39235
-17.8912
-18.56669
-18.01821
-16.05978
-12.85292
-8.900219
-4.782794
-1.062931
1.935509
4.095258
5.558058
6.532395
7.210259
7.735614
8.157347
8.508896
8.782499
8.993431
9.149892
9.334492
9.607156
9.991475
10.4303
10.84362
11.17784
11.40745
11.57347
11.68582
11.75477
11.64972
11.18337
10.18718
8.636607
6.664144
4.547401
2.579856
0.9599676
-0.2338562
-1.112743
-1.846171
-2.576288
-3.443535
-4.527773
-5.808164
-7.230901
-8.728601
-10.20249
-11.63121
-13.0531
-14.53011
-16.12787
-17.79143
-19.25228
-20.12761
-20.00232
-18.59685
-15.90787
-12.1776
-7.867005
-3.518478
0.4010792
3.603031
5.915934
7.336693
7.949761
7.906199
7.434813
6.786828
6.177456
5.763357
5.644266
5.776713
6.108275
6.596434
7.162828
7.762313
8.342135
8.833244
9.206558
9.472805
9.599131
9.560928
9.31693
8.761773
7.868134
6.62585
5.096664
3.441422
1.823873
0.3992634
-0.6887112
-1.345242
-1.584285
-1.488322
-1.208239
-0.9146938
-0.7532282
-0.8423634
-1.311055
-2.235559
-3.686297
-5.680557
-8.120595
-10.75856
-13.24319
-15.11602
-15.98635
-15.56532
-13.79117
-10.86248
-7.207654
-3.313544
0.3669071
3.512537
6.040989
7.885749
9.072715
9.571473
9.363376
8.510551
7.242956
5.875496
4.718141
4.018766
3.813747
4.073824
4.667932
5.498329
6.451352
7.429503
8.304491
8.904928
9.103268
8.788655
7.933926
6.658129
5.148623
3.634603
2.295499
1.240966
0.433118
-0.2090437
-0.8470701
-1.578197
-2.454551
-3.463283
-4.548407
-5.657441
-6.73754
-7.829317
-8.963751
-10.21974
-11.64528
-13.28646
-15.06399
-16.80688
-18.22251
-18.95447
-18.75438
-17.4622
-15.1621
-12.13535
-8.755733
-5.406922
-2.349043
0.3235428
2.586652
4.412803
5.789758
6.678273
7.057373
7.071374
6.948556
6.970047
7.325258
8.055519
8.947735
9.753887
10.22166
10.24137
9.889349
9.344215
8.817994
8.415506
8.147429
7.907946
7.575956
7.005515
6.121115
4.909403
3.431717
1.806076
0.1935244
-1.250291
-2.434031
-3.310025
-3.986057
-4.595094
-5.263961
-6.087684
-7.065306
-8.160069
-9.359474
-10.6947
-12.21883
-13.94951
-15.77448
-17.35901
-18.27941
-18.11494
-16.66415
-14.00079
-10.47108
-6.624795
-2.964475
0.1390071
2.535539
4.244432
5.363957
6.013649
6.310455
6.384808
6.375772
6.471256
6.807421
7.420864
8.240095
9.109097
9.868546
10.376
10.57607
10.46482
10.13592
9.649763
9.071129
8.403015
7.617987
6.679169
5.572982
4.32961
3.038225
1.851146
0.8190241
-0.06123662
-0.8781173
-1.769698
-2.782514
-3.910692
-5.066242
-6.190341
-7.266891
-8.361948
-9.533842
-10.81878
-12.23227
-13.73814
-15.25725
-16.71601
-17.91448
-18.59283
-18.40682
-17.09709
-14.59835
-11.09484
-6.985939
-2.740317
1.150967
4.356244
6.701351
8.182929
8.920797
9.141046
9.084422
8.956528
8.847525
8.745461
8.615073
8.393325
8.128224
7.944255
7.937034
8.110613
8.387924
8.596052
8.574794
8.269108
7.707498
7.006126
6.314782
5.709176
5.164058
4.616431
3.980464
3.144383
2.112346
0.9259319
-0.3062677
-1.450943
-2.414696
-3.220964
-3.957108
-4.74288
-5.695246
-6.878054
-8.307194
-9.964407
-11.79932
-13.67629
-15.32866
-16.37963
-16.42919
-15.20027
-12.67068
-9.140718
-5.131788
-1.189913
2.228222
4.903948
6.852024
8.195829
9.063204
9.606989
9.89608
9.978413
9.936193
9.836479
9.780596
9.814741
9.970819
10.20828
10.50972
10.83471
11.11477
11.28134
11.27366
11.0151
10.48339
9.704353
8.696079
7.51458
6.186604
4.68432
3.013603
1.236895
-0.5787849
-2.274916
-3.742443
-4.878477
-5.683767
-6.24272
-6.733309
-7.328249
-8.172682
-9.38344
-10.96284
-12.84334
-14.88782
-16.89024
-18.52853
-19.45091
-19.31757
-17.9078
-15.27579
-11.7554
-7.911068
-4.331223
-1.453201
0.5699463
1.904543
2.86145
3.761572
4.759502
5.874247
6.989414
7.962566
8.737785
9.296406
9.664852
9.815491
9.752005
9.49663
9.210682
9.084803
9.30134
9.909033
10.73478
11.45002
11.66451
11.16179
9.959017
8.328777
6.630117
5.160799
4.015409
3.084543
2.184427
1.126734
-0.1446075
-1.570189
-3.065603
-4.493662
-5.765787
-6.845757
-7.697096
-8.325537
-8.823151
-9.374914
-10.18899
-11.48985
-13.33772
-15.61666
-17.97703
-19.89475
-20.79085
-20.22081
-18.04206
-14.41678
-9.890625
-5.103527
-0.6405525
3.118477
6.064346
8.230059
9.671553
10.43399
10.55737
10.08627
9.209455
8.241455
7.469343
7.162745
7.346556
7.894314
8.558899
9.137877
9.538431
9.7906
10.04354
10.33471
10.70538
11.019
11.1106
10.80194
9.976717
8.675428
7.043056
5.339857
3.721399
2.335796
1.15608
0.1174259
-0.8665352
-1.850729
-2.774443
-3.558144
-4.134308
-4.585606
-5.027224
-5.653625
-6.60947
-7.969584
-9.700375
-11.66004
-13.62589
-15.33757
-16.48173
-16.75257
-15.90306
-13.90274
-10.9172
-7.3594
-3.735544
-0.5232983
1.989321
3.752903
4.896994
5.668974
6.222231
6.635691
6.892893
6.997841
6.948133
6.807106
6.677948
6.639082
6.768276
7.06892
7.537144
8.110493
8.718094
9.287081
9.736355
9.980417
9.938068
9.60861
9.016138
8.275015
7.465923
6.632181
5.781868
4.831955
3.726347
2.420992
0.9333763
-0.676569
-2.313745
-3.856993
-5.18562
-6.190564
-6.834582
-7.169537
-7.425143
-7.87789
-8.844992
-10.4175
-12.49172
-14.72044
-16.6185
-17.72203
-17.69126
-16.36923
-13.827
-10.35592
-6.347054
-2.251274
1.499399
4.606982
6.908587
8.412408
9.245895
9.582497
9.627333
9.527865
9.309239
8.964375
8.469382
7.850296
7.228687
6.764664
6.613838
6.863352
7.501493
8.355917
9.249487
10.0502
10.6579
11.03699
11.15331
10.92272
10.28296
9.249836
7.880898
6.348941
4.832362
3.410102
2.11871
0.8604753
-0.4286966
-1.778287
-3.127616
-4.412435
-5.527919
-6.46387
-7.3503
-8.275743
-9.426557
-10.86524
-12.6111
-14.56004
-16.52339
-18.18873
-19.22458
-19.33748
-18.24624
-15.92286
-12.52887
-8.452498
-4.191711
-0.2428045
3.026518
5.429858
6.952806
7.746353
7.940548
7.661031
7.019181
6.104372
5.122452
4.300261
3.843843
3.903806
4.473495
5.376387
6.36209
7.244989
7.948008
8.548537
9.136826
9.751064
10.33295
10.72258
10.76324
10.36422
9.568359
8.44721
7.151604
5.776192
4.417089
3.123035
1.924404
0.8157272
-0.2506905
-1.358042
-2.566246
-3.879471
-5.242632
-6.624914
-8.044733
-9.606649
-11.44252
-13.65237
-16.20992
-18.93951
-21.50274
-23.52721
-24.64595
-24.56038
-23.10732
-20.30766
-16.39335
-11.79659
-7.069502
-2.691366
0.9819355
3.837587
5.974663
7.538462
8.622593
9.254066
9.387569
8.992815
8.218971
7.310577
6.603203
6.360439
6.636024
7.25235
7.901466
8.324535
8.411175
8.266582
8.143513
8.217388
8.435162
8.550575
8.233837
7.270412
5.723221
3.862614
2.094357
0.7580681
-0.05452347
-0.4714165
-0.7653389
-1.200653
-1.89687
-2.84457
-3.948887
-5.077423
-6.16457
-7.196041
-8.199757
-9.261932
-10.445
-11.86792
-13.59874
-15.64856
-17.90005
-20.01765
-21.57116
-22.06894
-21.16452
-18.73261
-15.02161
-10.50232
-5.800274
-1.488415
2.01149
4.478836
5.928101
6.502483
6.468372
6.118057
5.685177
5.316833
5.110321
5.073906
5.157944
5.313934
5.474628
5.664673
5.971519
6.545589
7.47583
8.7374
10.1909
11.55291
12.59333
13.14424
13.15884
12.65709
11.67673
10.24271
8.385044
6.274956
4.126118
2.180367
0.5614052
-0.8236961
-2.135559
-3.538025
-5.024313
-6.505898
-7.829063
-8.91333
-9.812202
-10.67794
-11.67747
-12.88327
-14.27101
-15.71409
-17.0317
-17.96994
-18.2194
-17.47986
-15.56727
-12.54723
-8.68162
-4.465488
-0.3754215
3.136271
5.820656
7.543968
8.31983
8.242519
7.474688
6.319454
5.09231
4.107027
3.561016
3.493629
3.823643
4.323715
4.820024
5.183483
5.401457
5.564016
5.782051
6.141058
6.624878
7.137644
7.472843
7.489487
7.112007
6.383171
5.460707
4.486242
3.521564
2.508623
1.373886
0.02247047
-1.485498
-3.076206
-4.614716
-6.063889
-7.455542
-8.915371
-10.59599
-12.53877
-14.77747
-17.19273
-19.63846
-21.86121
-23.52666
-24.20989
-23.54053
-21.30247
-17.56213
-12.73921
-7.45975
-2.396516
1.961558
5.412411
7.982758
9.818673
11.03741
11.69166
11.82497
11.51316
10.92632
10.26284
9.719848
9.436991
9.493979
9.869598
10.52055
11.30981
12.02246
12.44657
12.36108
11.74555
10.71999
9.492786
8.244979
7.119056
6.102976
5.146879
4.168517
3.074901
1.841697
0.4407649
-1.132665
-2.872467
-4.695661
-6.53572
-8.291567
-9.882715
-11.30971
-12.58273
-13.77622
-14.99347
-16.33059
-17.84948
-19.55598
-21.26768
-22.57976
-23.02311
-22.11071
-19.64718
-15.79309
-11.02134
-6.026493
-1.458961
2.244259
4.944822
6.674744
7.61684
7.921827
7.759911
7.283852
6.658979
6.07946
5.687744
5.586063
5.777184
6.256018
6.988358
7.926586
9.009062
10.12378
11.16222
12.00362
12.55309
12.73205
12.5211
11.87104
10.78387
9.317898
7.625271
5.87896
4.268341
2.859669
1.627876
0.4728622
-0.7400246
-2.082561
-3.565704
-5.122089
-6.711723
-8.309303
-9.915062
-11.5473
-13.22173
-14.94206
-16.71801
-18.5159
-20.24172
-21.65703
-22.38543
-21.97258
-20.0923
-16.69853
-12.10924
-6.920429
-1.832478
2.608559
6.137901
8.699738
10.46958
11.58967
12.2236
12.46512
12.43208
12.22408
11.97926
11.77393
11.6256
11.50924
11.34334
11.1414
10.90499
10.74315
10.72297
10.89917
11.18275
11.41812
11.368
10.8329
9.736824
8.219582
6.561424
5.052094
3.915894
3.148788
2.577026
1.973801
1.120171
-0.07887268
-1.539734
-3.181252
-4.84359
-6.436111
-7.905373
-9.215378
-10.37422
-11.4711
-12.65414
-14.09528
-15.87858
-17.84495
-19.61187
-20.66789
-20.53075
-18.92871
-15.95448
-11.97447
-7.487144
-3.004517
1.103477
4.63546
7.472778
9.623322
11.08021
11.88852
12.07428
11.70013
10.85738
9.751381
8.640137
7.801598
7.449173
7.626289
8.205093
8.955505
9.621887
10.04144
10.17067
10.0457
9.73999
9.292854
8.748703
8.132538
7.517921
6.918022
6.301697
5.602715
4.737038
3.612366
2.166145
0.3976517
-1.635132
-3.790878
-5.861923
-7.623245
-8.966919
-9.939133
-10.78165
-11.87463
-13.50137
-15.72456
-18.24036
-20.42105
-21.54796
-21.05804
-18.75331
-14.89253
-10.06451
-4.973953
-0.2582855
3.672516
6.650284
8.704971
9.966873
10.61407
10.83061
10.81891
10.76031
10.7834
10.94704
11.2269
11.5596
11.87114
12.14407
12.34671
12.4931
12.63145
12.80896
13.0452
13.33853
13.59123
13.68147
13.45317
12.83142
11.78789
10.43365
8.911285
7.332336
5.714294
4.022202
2.208725
0.2699127
-1.695343
-3.59346
-5.327393
-6.898621
-8.350998
-9.751709
-11.16742
-12.65753
-14.2812
-16.07417
-18.02194
-19.94107
-21.53065
-22.37434
-22.03093
-20.267
-17.1487
-13.04117
-8.491302
-4.100052
-0.2850647
2.756989
5.040314
6.742126
8.064056
9.146347
10.07372
10.85674
11.4558
11.86922
12.14389
12.3333
12.53471
12.79893
13.13284
13.51163
13.89359
14.23637
14.55482
14.81653
14.95805
14.86275
14.35187
13.34726
11.89076
10.15439
8.378571
6.830475
5.646027
4.838226
4.275406
3.680222
2.83252
1.590851
-0.04589844
-1.906235
-3.765839
-5.458435
-6.919708
-8.256165
-9.681183
-11.40178
-13.51967
-15.96585
-18.48409
-20.6951
-22.14848
-22.44009
-21.28317
-18.69997
-14.93622
-10.48038
-5.910355
-1.706696
1.779953
4.409439
6.231476
7.377777
7.995087
8.251816
8.287399
8.281723
8.393127
8.706451
9.252609
9.988678
10.79976
11.57828
12.22621
12.67863
12.96269
13.14305
13.29277
13.40848
13.45554
13.31366
12.87534
12.07356
10.92081
9.520767
8.004318
6.513199
5.102417
3.829483
2.709869
1.776489
1.026932
0.4346466
-0.07827759
-0.626709
-1.321625
-2.246552
-3.460556
-5.041473
-7.032654
-9.50412
-12.43341
-15.62798
-18.68477
-21.00336
-21.99753
-21.28854
-18.90688
-15.27853
-11.067
-6.962509
-3.325317
-0.2179718
2.572311
5.27063
7.905258
10.27487
12.04587
12.99806
13.11809
12.66946
12.01659
11.44489
11.03569
10.70389
10.28479
9.725098
9.093719
8.567902
8.332047
8.4319
8.762985
9.147263
9.411453
9.424881
9.192627
8.743942
8.107666
7.319717
6.353546
5.137161
3.632126
1.825119
-0.2151947
-2.395401
-4.573578
-6.596298
-8.342072
-9.74115
-10.82362
-11.76036
-12.76085
-14.01564
-15.54416
-17.14816
-18.41167
-18.82173
-18.01682
-15.855
-12.50549
-8.364578
-3.942131
0.3170624
4.062576
7.070587
9.26786
10.66
11.34576
11.50719
11.3307
10.95706
10.51111
10.076
9.713409
9.448425
9.337624
9.36274
9.48568
9.635292
9.74678
9.834129
9.934341
10.10277
10.27127
10.32143
10.07687
9.408257
8.306763
6.87468
5.340096
3.853302
2.485939
1.160309
-0.2016602
-1.648605
-3.163483
-4.667709
-6.108307
-7.416214
-8.627693
-9.731071
-10.7811
-11.86244
-13.08827
-14.61658
-16.43752
-18.38691
-20.04956
-20.89931
-20.45799
-18.55927
-15.43169
-11.55591
-7.546661
-3.854362
-0.7600327
1.651367
3.407539
4.599434
5.297295
5.593513
5.628826
5.53957
5.472317
5.486885
5.575764
5.695961
5.844276
5.995827
6.148338
6.33466
6.533974
6.722744
6.862415
6.909805
6.820145
6.535992
5.984364
5.124668
3.975819
2.682835
1.484386
0.6376762
0.2618599
0.2696724
0.3733788
0.2273674
-0.404129
-1.525635
-2.943443
-4.335266
-5.462948
-6.299004
-7.036766
-7.931057
-9.188725
-10.8578
-12.79765
-14.79009
-16.57112
-17.85472
-18.35316
-17.81842
-16.04857
-13.04461
-9.104631
-4.720793
-0.5286236
2.939337
5.432928
6.994015
7.871614
8.367722
8.691576
8.883272
8.964298
8.880011
8.63427
8.254974
7.770861
7.219257
6.635998
6.053164
5.513871
5.111971
4.8899
4.862178
4.990454
5.174384
5.313396
5.352127
5.251836
4.963782
4.472047
3.717383
2.649921
1.305025
-0.2870803
-2.011014
-3.714258
-5.240737
-6.500936
-7.458461
-8.168096
-8.734675
-9.243048
-9.821362
-10.5561
-11.48113
-12.53836
-13.61361
-14.51405
-14.99042
-14.76838
-13.61872
-11.5047
-8.586699
-5.23762
-1.896564
0.9890814
3.16611
4.554973
5.289273
5.57362
5.561722
5.389472
5.094373
4.744064
4.389462
4.107852
3.963952
3.963208
4.064913
4.267561
4.550051
4.933451
5.434187
6.02117
6.619627
7.162931
7.573792
7.823885
7.952057
7.93445
7.724379
7.251863
6.466585
5.36846
4.033556
2.547901
1.008698
-0.534132
-2.0854
-3.705929
-5.432613
-7.317953
-9.452883
-11.83678
-14.40087
-16.89366
-18.88955
-19.95708
-19.77678
-18.21455
-15.50508
-12.04967
-8.393326
-4.972801
-2.104225
0.1314354
1.696869
2.64069
3.093376
3.148174
3.000454
2.807652
2.701653
2.739944
2.949112
3.302757
3.781368
4.412086
5.198288
6.129105
7.124062
8.00959
8.55286
8.593773
8.055851
7.035946
5.787071
4.548355
3.535854
2.788193
2.202724
1.595917
0.8143654
-0.1860542
-1.407497
-2.72345
-4.110157
-5.528927
-6.978176
-8.472702
-10.00609
-11.58516
-13.20959
-14.89733
-16.59844
-18.19928
-19.38218
-19.77055
-19.01642
-16.99548
-13.88927
-10.15929
-6.401527
-3.089512
-0.4924164
1.469894
2.994656
4.330254
5.562901
6.701813
7.652283
8.299938
8.634613
8.659416
8.471634
8.17318
7.83226
7.515846
7.278183
7.1488
7.127983
7.179871
7.250195
7.273113
7.139061
6.783752
6.16481
5.271378
4.197811
3.035595
1.873566
0.7424355
-0.4141731
-1.683147
-3.067707
-4.480778
-5.79324
-6.853748
-7.667286
-8.389351
-9.299229
-10.67598
-12.6475
-15.08392
-17.61802
-19.73709
-20.90335
-20.73457
-19.09904
-16.14352
-12.23859
-7.8843
-3.59449
0.2300797
3.340778
5.681538
7.32719
8.423908
9.152241
9.619823
9.896496
9.98489
9.888039
9.677238
9.481911
9.371902
9.413486
9.534798
9.595547
9.474949
9.130615
8.595722
7.994236
7.432484
6.925556
6.427589
5.857128
5.164436
4.331707
3.402924
2.409611
1.36784
0.2564049
-0.9358826
-2.19202
-3.416431
-4.514671
-5.414532
-6.130943
-6.813114
-7.652546
-8.867149
-10.54797
-12.63846
-14.923
-17.04531
-18.56637
-19.07668
-18.26412
-16.03322
-12.55522
-8.233185
-3.596264
0.806633
4.616997
7.667797
9.957184
11.5967
12.62883
13.05824
12.85735
12.00969
10.58423
8.773205
6.881557
5.199299
4.002151
3.428787
3.524544
4.178883
5.163761
6.16663
6.875107
7.054695
6.616329
5.675236
4.476025
3.297665
2.305847
1.475391
0.6877899
-0.2269783
-1.325638
-2.551262
-3.747551
-4.808155
-5.737598
-6.66708
-7.828873
-9.366581
-11.29443
-13.50293
-15.75035
-17.777
-19.33634
-20.22348
-20.22525
-19.23587
-17.20152
-14.22406
-10.53368
-6.50552
-2.539753
1.019405
3.917965
6.073391
7.533253
8.398357
8.811207
8.899368
8.772446
8.497105
8.210239
8.025211
8.079105
8.466915
9.178715
10.10669
11.05242
11.83053
12.26307
12.30112
11.94785
11.2781
10.39677
9.36557
8.224989
6.935949
5.434803
3.699387
1.783369
-0.1699066
-1.925919
-3.292208
-4.223309
-4.815601
-5.308344
-5.956261
-6.887671
-8.097595
-9.527409
-11.10898
-12.83333
-14.77531
-16.87272
-18.90272
-20.45478
-21.05176
-20.31639
-18.17809
-14.90639
-10.98909
-7.037676
-3.52182
-0.6989307
1.441145
3.049917
4.350615
5.503096
6.551352
7.499451
8.302156
8.979201
9.582456
10.1948
10.857
11.55031
12.16833
12.60229
12.78871
12.70202
12.43876
12.11145
11.78044
11.4636
11.07278
10.45674
9.521981
8.240405
6.72641
5.209655
3.925723
3.025463
2.457546
2.045303
1.534523
0.7137799
-0.4868979
-2.005926
-3.702829
-5.448164
-7.189709
-8.969973
-10.82981
-12.79838
-14.82065
-16.7634
-18.36994
-19.35233
-19.44934
-18.47894
-16.43071
-13.42504
-9.761008
-5.818908
-1.99954
1.323398
3.90219
5.630209
6.567508
6.910928
6.972054
7.006599
7.179472
7.502764
7.882489
8.194291
8.428281
8.647934
8.950749
9.43458
10.05771
10.73079
11.31852
11.72684
11.92235
11.92134
11.77221
11.46329
10.97938
10.25378
9.308929
8.2365
7.15818
6.201092
5.413932
4.730832
3.953145
2.873509
1.330171
-0.6466463
-2.849725
-4.990335
-6.769152
-8.04756
-8.866364
-9.486073
-10.18417
-11.18536
-12.6049
-14.3522
-16.25335
-17.94806
-19.08434
-19.30078
-18.37658
-16.27197
-13.16483
-9.489038
-5.707532
-2.281695
0.5515356
2.742251
4.368985
5.596686
6.548845
7.310121
7.848062
8.149687
8.201774
8.036941
7.759828
7.500994
7.382255
7.494835
7.822624
8.28576
8.780306
9.208261
9.466432
9.568339
9.503765
9.314747
8.977356
8.45944
7.713025
6.707702
5.480723
4.106115
2.706903
1.326957
-0.0561285
-1.536681
-3.194556
-5.014006
-6.877693
-8.613122
-10.12099
-11.41286
-12.64591
-14.04308
-15.74662
-17.74476
-19.80931
-21.53747
-22.46625
-22.17276
-20.46866
-17.44144
-13.4872
-9.157962
-5.007628
-1.387424
1.577736
3.963719
5.949342
7.633186
8.968017
9.862317
10.21967
10.10199
9.759489
9.520711
9.622796
10.17254
11.01228
11.86987
12.4689
12.67321
12.52803
12.21582
11.88623
11.55294
11.13294
10.44654
9.443993
8.195648
6.893843
5.71751
4.755016
3.883034
2.911467
1.676844
0.1029129
-1.710594
-3.551535
-5.254854
-6.725824
-7.950874
-9.00629
-9.990248
-11.00308
-12.17732
-13.62851
-15.40117
-17.40605
-19.3269
-20.71235
-21.02829
-19.91652
-17.33755
-13.61531
-9.304045
-5.017361
-1.242661
1.739429
3.85673
5.200151
5.933645
6.279425
6.430496
6.616146
6.942541
7.444986
8.035532
8.609865
9.105139
9.51799
9.931797
10.42157
11.07121
11.85391
12.67858
13.39303
13.84142
13.87981
13.4189
12.441
10.95667
9.051739
6.845276
4.567646
2.422947
0.5990505
-0.8811703
-2.119989
-3.292347
-4.583261
-6.023849
-7.543308
-8.952284
-10.04816
-10.81812
-11.37651
-12.00686
-12.96739
-14.39156
-16.11961
-17.78469
-18.85076
-18.81704
-17.4429
-14.73924
-11.03094
-6.777248
-2.430157
1.675556
5.273026
8.187
10.31332
11.60665
12.13707
12.04168
11.56367
10.91986
10.30995
9.811073
9.44268
9.174301
8.949844
8.739929
8.563225
8.435127
8.377861
8.386208
8.380604
8.284668
8.029556
7.620174
7.143631
6.72139
6.410053
6.156204
5.768257
5.008541
3.731182
1.924763
-0.2338028
-2.504402
-4.641037
-6.513226
-8.089336
-9.420391
-10.59468
-11.71253
-12.93455
-14.40507
-16.19507
-18.22528
-20.19502
-21.62356
-21.98836
-20.95408
-18.44378
-14.74653
-10.36892
-5.887424
-1.819958
1.501377
3.94368
5.560349
6.539063
7.110706
7.486404
7.808857
8.128536
8.463394
8.768925
9.011097
9.216053
9.401287
9.599308
9.859329
10.17981
10.58055
11.00564
11.32603
11.31862
10.80953
9.68018
7.94976
5.767315
3.405842
1.165237
-0.7149925
-2.054916
-2.810162
-3.02565
-2.855247
-2.51503
-2.302052
-2.437157
-3.095329
-4.324921
-6.025364
-7.993362
-10.00062
-11.90579
-13.59191
-15.04776
-16.18961
-16.86416
-16.77727
-15.65447
-13.31768
-9.910347
-5.842194
-1.665524
2.087765
5.086281
7.226631
8.60836
9.40826
9.825405
9.971073
9.927738
9.761093
9.525848
9.277462
9.059589
8.920177
8.870045
8.889568
8.911274
8.873112
8.712219
8.44009
8.118492
7.838207
7.6101
7.374363
7.009552
6.408642
5.578411
4.608761
3.595703
2.614239
1.600842
0.4301414
-0.9934387
-2.689804
-4.549553
-6.406555
-8.14397
-9.698906
-11.11754
-12.51546
-13.98508
-15.58304
-17.29053
-18.95001
-20.3287
-21.06817
-20.82504
-19.38107
-16.74382
-13.1884
-9.195576
-5.304512
-1.939381
0.6894302
2.64711
4.164711
5.508625
6.822277
8.13464
9.309273
10.1572
10.6047
10.65719
10.45415
10.16038
9.913681
9.790977
9.829147
10.03481
10.43624
10.99698
11.61475
12.14878
12.38928
12.19353
11.54424
10.54293
9.340096
8.075005
6.813622
5.546638
4.245514
2.871796
1.403305
-0.1545715
-1.77832
-3.461121
-5.166153
-6.77964
-8.25943
-9.571297
-10.80361
-12.11273
-13.68596
-15.60263
-17.74041
-19.81705
-21.32098
-21.77181
-20.8335
-18.4222
-14.72934
-10.2212
-5.42926
-0.8306732
3.190498
6.469437
8.907089
10.52175
11.36255
11.51799
11.11686
10.32381
9.360237
8.434219
7.809036
7.619293
7.906303
8.601166
9.478996
10.27434
10.75317
10.85401
10.60378
10.21756
9.876869
9.648415
9.505722
9.252647
8.711334
7.770966
6.438225
4.80806
3.022392
1.177521
-0.7107925
-2.625862
-4.632301
-6.644577
-8.520058
-10.07351
-11.22292
-12.00672
-12.66615
-13.50806
-14.70254
-16.26671
-17.89791
-19.10915
-19.36958
-18.35107
-15.94617
-12.38088
-8.097015
-3.57019
0.7407761
4.503456
7.524033
9.73317
11.13148
11.75621
11.6904
11.03828
9.960022
8.682922
7.414963
6.344208
5.616867
5.327423
5.528816
6.211044
7.255219
8.450432
9.542854
10.27513
10.49249
10.19765
9.512383
8.613068
7.642601
6.620911
5.517258
4.242355
2.691048
0.8139267
-1.358185
-3.723137
-6.118752
-8.394287
-10.43075
-12.20491
-13.78815
-15.33739
-16.97389
-18.69691
-20.36565
-21.62341
-22.10069
-21.43953
-19.45937
-16.25117
-12.14011
-7.589539
-3.080376
1.012718
4.504616
7.310158
9.439064
10.93357
11.84539
12.22935
12.19286
11.84779
11.25638
10.50851
9.670998
8.848053
8.210358
7.95739
8.213516
8.98793
10.134
11.36308
12.39351
12.95861
12.92916
12.27888
11.06545
9.469521
7.672997
5.848251
4.102615
2.479652
0.9355316
-0.5820923
-2.110229
-3.631577
-5.056671
-6.332733
-7.482765
-8.639656
-9.928085
-11.47959
-13.32295
-15.34483
-17.30851
-18.92568
-19.9006
-19.97794
-19.00391
-16.87035
-13.65086
-9.625595
-5.208534
-0.9396973
2.716835
5.427277
7.120331
7.900185
8.078827
7.96637
7.892891
8.080704
8.580688
9.292969
10.03711
10.62733
10.95119
11.03381
11.00378
10.9782
11.00839
10.98485
10.76252
10.26463
9.519508
8.683792
7.902107
7.271599
6.692078
6.072144
5.211288
4.01445
2.529243
0.8566971
-0.8071365
-2.307594
-3.588547
-4.754234
-5.922905
-7.297493
-9.034264
-11.17081
-13.66132
-16.41139
-19.22826
-21.83443
-23.86685
-24.80943
-24.16534
-21.69759
-17.52008
-12.15587
-6.415413
-1.097343
3.289467
6.54657
8.772736
10.18733
10.88802
10.98225
10.48915
9.584335
8.543884
7.701591
7.291473
7.32933
7.643097
7.975754
8.164253
8.127518
7.966103
7.850632
7.851219
7.952087
8.049675
7.995979
7.692406
7.175667
6.458733
5.578575
4.584869
3.472977
2.288582
1.098145
-0.0473175
-1.123238
-2.130104
-3.160187
-4.314072
-5.65834
-7.245232
-9.052223
-11.05491
-13.17455
-15.30386
-17.21561
-18.58683
-19.0556
-18.30099
-16.24493
-13.01112
-9.003532
-4.754395
-0.7597122
2.617989
5.243523
7.234764
8.796341
10.13789
11.32436
12.24678
12.71785
12.6488
12.11361
11.3775
10.82587
10.6908
10.97955
11.4688
11.81835
11.74734
11.16637
10.14707
8.855827
7.472412
6.066826
4.672012
3.247574
1.797592
0.3493195
-0.9987259
-2.204475
-3.229584
-4.061798
-4.756775
-5.348045
-5.873886
-6.413223
-7.082947
-8.050453
-9.557098
-11.76667
-14.5891
-17.65442
-20.28788
-21.73652
-21.45332
-19.31906
-15.69994
-11.29462
-6.870293
-2.997749
0.07828522
2.400276
4.179535
5.605537
6.82235
7.884804
8.793694
9.54557
10.07224
10.33946
10.39233
10.32455
10.29616
10.44303
10.7899
11.26269
11.70084
11.91599
11.81113
11.37827
10.69762
9.836212
8.877106
7.797295
6.588326
5.24028
3.677933
1.879524
-0.156044
-2.35675
-4.530663
-6.473343
-8.043442
-9.199738
-10.02046
-10.67913
-11.3268
-12.09963
-13.09399
-14.31693
-15.69735
-17.01641
-17.88723
-17.8757
-16.63564
-14.01126
-10.26907
-5.916054
-1.592041
2.13884
4.97084
6.892136
8.082939
8.786491
9.27066
9.64991
9.958641
10.20481
10.36295
10.45039
10.53678
10.66045
10.80938
10.94549
10.93827
10.72206
10.3384
9.900803
9.551651
9.337494
9.190872
8.927307
8.405128
7.545837
6.407188
5.143196
3.865639
2.630775
1.393326
0.0869751
-1.352272
-2.872673
-4.438904
-5.950508
-7.294678
-8.446388
-9.422447
-10.36423
-11.47772
-12.94784
-14.77241
-16.7606
-18.47229
-19.42762
-19.25725
-17.79404
-15.15388
-11.65018
-7.708195
-3.727058
-0.07040405
3.050449
5.516888
7.318752
8.553501
9.356659
9.844284
10.08851
10.13208
10.00349
9.809025
9.701553
9.787041
10.15163
10.74657
11.4465
12.13182
12.7041
13.15474
13.50513
13.73122
13.70978
13.32864
12.45962
11.1484
9.569954
7.975735
6.58532
5.429897
4.36932
3.132629
1.559746
-0.4113274
-2.6357
-4.879158
-6.996639
-8.93008
-10.77214
-12.57911
-14.38787
-16.11871
-17.6699
-18.96759
-19.94576
-20.5198
-20.4943
-19.63486
-17.69335
-14.61034
-10.60304
-6.113941
-1.736179
2.05884
5.037209
7.198141
8.693865
9.678066
10.20861
10.23998
9.76655
8.802034
7.552507
6.29579
5.333744
4.85008
4.887224
5.33732
6.000889
6.758141
7.494223
8.179325
8.747255
9.148483
9.286432
9.105608
8.549822
7.587652
6.219885
4.472664
2.419403
0.1946573
-2.065474
-4.187897
-6.024287
-7.535058
-8.706007
-9.580112
-10.24722
-10.83471
-11.45686
-12.26876
-13.29527
-14.417
-15.36324
-15.73421
-15.14331
-13.41147
-10.61499
-7.085937
-3.337692
0.167177
3.065304
5.218964
6.660131
7.543932
7.959105
8.019524
7.787716
7.349434
6.873505
6.556471
6.566361
6.968688
7.727225
8.635195
9.557551
10.33274
10.89519
11.22108
11.31427
11.14789
10.67239
9.849116
8.652514
7.156662
5.47748
3.739605
2.062061
0.5413513
-0.7722473
-1.870888
-2.809669
-3.684933
-4.614388
-5.705164
-7.021658
-8.575832
-10.31752
-12.17231
-14.07065
-15.90815
-17.58882
-18.9299
-19.68576
-19.62642
-18.57397
-16.54253
-13.68934
-10.31229
-6.75526
-3.303968
-0.1719704
2.541603
4.765198
6.447876
7.507351
7.861382
7.514584
6.552631
5.226311
3.832363
2.710529
2.066334
1.992588
2.424644
3.237167
4.294445
5.457466
6.594311
7.533535
8.135544
8.255325
7.895222
7.115818
6.070576
4.952206
3.935223
3.101231
2.401897
1.766766
1.080826
0.2693138
-0.6828613
-1.773678
-2.970146
-4.23579
-5.578838
-7.029499
-8.609798
-10.30215
-12.07178
-13.88403
-15.67869
-17.33433
-18.60023
-19.10865
-18.50183
-16.58509
-13.4718
-9.612061
-5.611992
-2.006912
0.9096222
3.166122
4.951614
6.415218
7.546646
8.188633
8.224403
7.741596
7.000107
6.3214
5.947353
5.921516
6.131443
6.425396
6.728497
7.097462
7.608273
8.204315
8.719353
8.897305
8.561344
7.692673
6.481464
5.207272
4.123947
3.345158
2.763054
2.1912
1.461052
0.4887161
-0.7310638
-2.154282
-3.749031
-5.508087
-7.36499
-9.201736
-10.90601
-12.36959
-13.63934
-14.83281
-16.09995
-17.46363
-18.74364
-19.53815
-19.33109
-17.76811
-14.78551
-10.71264
-6.085197
-1.540115
2.394638
5.413696
7.48217
8.762474
9.439156
9.660309
9.493767
8.992172
8.216904
7.312729
6.504448
6.02356
5.995277
6.39769
7.067818
7.78054
8.386978
8.856941
9.241608
9.635681
9.995232
10.10831
9.722687
8.649956
6.880638
4.628281
2.253662
0.09449768
-1.63607
-2.949539
-4.004089
-4.989449
-6.008934
-7.066643
-8.147255
-9.278755
-10.59862
-12.26023
-14.32469
-16.56078
-18.51871
-19.61741
-19.39154
-17.7154
-14.81281
-11.20629
-7.469238
-4.033562
-1.116859
1.265343
3.147408
4.615891
5.686394
6.373726
6.679413
6.625969
6.323448
5.907257
5.549294
5.373329
5.479614
5.836983
6.415764
7.09494
7.722313
8.143051
8.222961
7.919586
7.321693
6.592949
5.887047
5.316139
4.848137
4.339775
3.601379
2.56588
1.264839
-0.1402359
-1.514465
-2.809982
-4.029625
-5.227844
-6.45871
-7.665329
-8.834343
-10.03805
-11.39004
-13.02099
-14.90099
-16.68185
-17.84966
-17.90525
-16.50534
-13.75012
-10.09185
-6.148071
-2.48111
0.56633
2.984222
4.911057
6.489243
7.834518
8.903831
9.606514
9.895172
9.794312
9.347542
8.702522
7.969322
7.274345
6.750381
6.418182
6.275757
6.31311
6.446419
6.62912
6.848976
7.061279
7.190659
7.163124
6.831299
6.120384
5.041489
3.621758
1.912254
-0.04428101
-2.207756
-4.522308
-6.831886
-8.959908
-10.77314
-12.1852
-13.32283
-14.36809
-15.47411
-16.67649
-17.87188
-18.86089
-19.4581
-19.53072
-18.92442
-17.54111
-15.2561
-12.06574
-8.155754
-3.888123
0.2513809
3.842979
6.635193
8.604836
9.847687
10.5724
10.89547
10.8854
10.62864
10.17409
9.595901
8.97036
8.372192
7.884293
7.618134
7.65728
7.988491
8.523926
9.071949
9.415085
9.357872
8.830616
7.871681
6.620419
5.233776
3.818161
2.480652
1.247204
0.1149178
-0.9309998
-1.898624
-2.761459
-3.501892
-4.147537
-4.818523
-5.595074
-6.641479
-7.996365
-9.633869
-11.45866
-13.28612
-14.95536
-16.23594
-16.89813
-16.63272
-15.25181
-12.69912
-9.210484
-5.257442
-1.388081
1.875938
4.304146
5.851143
6.711491
7.080723
7.137535
6.970379
6.583187
6.019936
5.356541
4.77087
4.447971
4.553329
5.104862
5.996197
7.022652
7.910454
8.466801
8.605839
8.347843
7.802147
7.059155
6.206264
5.303555
4.417175
3.574524
2.807014
2.084923
1.312424
0.3981552
-0.7389107
-2.108353
-3.679924
-5.387531
-7.222256
-9.211864
-11.37804
-13.74526
-16.19574
-18.4881
-20.2575
-21.12514
-20.78592
-19.11946
-16.19022
-12.24223
-7.692917
-3.024956
1.291859
4.896217
7.639172
9.533155
10.7448
11.45169
11.78539
11.78133
11.41869
10.73569
9.830788
8.924227
8.181532
7.713461
7.450706
7.317215
7.25606
7.27519
7.457954
7.802189
8.198431
8.444208
8.338003
7.711813
6.603022
5.126274
3.443314
1.673418
-0.09819412
-1.824419
-3.402433
-4.735514
-5.758766
-6.492239
-7.061361
-7.614773
-8.321217
-9.280651
-10.57229
-12.17457
-13.99393
-15.87344
-17.48168
-18.46016
-18.44373
-17.19286
-14.71625
-11.26077
-7.245524
-3.115923
0.6929722
3.978336
6.602923
8.5541
9.87574
10.57508
10.7292
10.44389
9.887752
9.244264
8.742031
8.482056
8.473943
8.658419
8.937941
9.254857
9.558494
9.863061
10.1529
10.46501
10.77166
11.02447
11.13809
11.01333
10.60104
9.868095
8.874181
7.69813
6.430682
5.084261
3.584623
1.799661
-0.3383138
-2.745235
-5.184302
-7.38237
-9.159255
-10.46498
-11.43623
-12.28805
-13.23827
-14.40583
-15.73891
-16.98686
-17.78391
-17.76557
-16.67255
-14.46766
-11.39601
-7.866949
-4.383599
-1.348167
1.029693
2.761114
3.937339
4.69486
5.150523
5.373072
5.485342
5.593314
5.783633
6.098295
6.56694
7.12648
7.730745
8.348647
8.967899
9.602683
10.21598
10.72131
10.9907
10.92496
10.49003
9.707049
8.695399
7.572804
6.469655
5.427368
4.431713
3.427866
2.349346
1.182634
-0.0256691
-1.203327
-2.281328
-3.208057
-4.043491
-4.8599
-5.779833
-6.89912
-8.322857
-10.10019
-12.19858
-14.4679
-16.55199
-18.01255
-18.41274
-17.50562
-15.31437
-12.13376
-8.448069
-4.717978
-1.3188
1.505322
3.680241
5.214878
6.20652
6.81575
7.204367
7.485743
7.710604
7.880968
8.025381
8.190325
8.470919
8.933872
9.499641
10.0235
10.32721
10.35195
10.12911
9.784388
9.390631
8.957678
8.3836
7.608009
6.674963
5.710789
4.892843
4.257072
3.708744
3.041145
2.078074
0.7628803
-0.8415089
-2.579245
-4.365007
-6.153229
-7.992302
-9.854607
-11.74538
-13.57468
-15.30623
-16.92569
-18.35664
-19.46087
-19.99512
-19.62289
-18.0633
-15.2329
-11.35568
-6.893055
-2.46069
1.449066
4.55051
6.803505
8.387817
9.540344
10.44687
11.14064
11.58262
11.65995
11.36288
10.78715
10.07875
9.459949
9.107212
9.097389
9.429108
10.01527
10.69974
11.38936
11.96911
12.35129
12.41721
12.09661
11.35577
10.2372
8.892368
7.466175
6.108509
4.894043
3.832661
2.864609
1.922897
0.9378929
-0.1537437
-1.365284
-2.705761
-4.140156
-5.629745
-7.180283
-8.861885
-10.78405
-13.05996
-15.6469
-18.31076
-20.62661
-22.05378
-22.16093
-20.77055
-18.00612
-14.24282
-9.98415
-5.717136
-1.785606
1.555458
4.231297
6.218204
7.554699
8.350121
8.762928
8.98027
9.122421
9.261135
9.294922
9.118416
8.669312
8.012302
7.320534
6.876194
6.888084
7.353264
8.125195
8.85075
9.193989
9.007385
8.360062
7.50243
6.730099
6.21487
5.941963
5.792377
5.533348
4.996082
4.067867
2.756527
1.116966
-0.7202873
-2.590508
-4.32037
-5.787811
-7.004684
-8.11581
-9.301769
-10.66942
-12.11908
-13.34188
-13.96384
-13.7028
-12.5039
-10.58792
-8.267937
-5.800436
-3.359224
-0.957262
1.439173
3.797291
5.95845
7.681189
8.758989
9.08227
8.782591
8.118778
7.409651
6.87529
6.634958
6.614
6.74597
6.985054
7.341921
7.829241
8.398291
8.91621
9.243824
9.314741
9.191132
9.032475
8.9492
8.9023
8.700998
8.122347
7.035835
5.506895
3.716806
1.836128
-0.06387901
-2.023764
-4.157907
-6.516529
-9.101503
-11.89159
-14.7987
-17.74094
-20.5547
-22.94507
-24.52871
-24.95811
-23.9501
-21.49837
-17.85499
-13.45792
-8.827242
-4.415415
-0.5562105
2.614208
5.094707
6.966736
8.367511
9.402589
10.17861
10.75441
11.17203
11.40968
11.46248
11.30162
10.92528
10.36845
9.714361
9.111196
8.575829
8.108088
7.630363
7.085728
6.470498
5.810163
5.163975
4.529356
3.865811
3.047292
1.996379
0.715847
-0.6993606
-2.083633
-3.342203
-4.414776
-5.365351
-6.284461
-7.245799
-8.315316
-9.527286
-10.91405
-12.49051
-14.20925
-15.87453
-17.20147
-17.80703
-17.34713
-15.67096
-12.89958
-9.439184
-5.812121
-2.526237
0.1380241
2.097997
3.487056
4.511383
5.338058
6.015597
6.53121
6.847098
6.972567
6.992553
7.021169
7.128991
7.371132
7.700012
8.019773
8.249372
8.363441
8.411427
8.457283
8.56131
8.634806
8.560935
8.162033
7.330959
6.134457
4.711346
3.276429
1.93397
0.7127819
-0.4649191
-1.625435
-2.776898
-3.846909
-4.770338
-5.548127
-6.250533
-7.022938
-7.987211
-9.259516
-10.87563
-12.81589
-14.86693
-16.66359
-17.73273
-17.63295
-16.08336
-13.12138
-9.094431
-4.554114
-0.1163578
3.762253
6.854279
9.091746
10.54958
11.32633
11.53341
11.21269
10.49174
9.541992
8.567436
7.852373
7.55682
7.74511
8.285143
8.96032
9.491196
9.690104
9.479509
8.854033
7.916651
6.742027
5.469233
4.1672
2.901327
1.690372
0.4993992
-0.7499523
-2.137678
-3.644356
-5.189714
-6.600985
-7.74511
-8.555784
-9.11282
-9.600338
-10.2049
-11.1447
-12.42944
-14.00726
-15.69004
-17.18728
-18.16784
-18.2935
-17.28075
-14.97581
-11.49987
-7.12339
-2.357433
2.262581
6.225235
9.153339
10.88555
11.47058
11.17031
10.28197
9.171593
8.081093
7.191265
6.57423
6.276138
6.362164
6.838234
7.689297
8.709538
9.662243
10.21382
10.15071
9.414921
8.12204
6.531368
4.917095
3.489094
2.324635
1.40712
0.5858421
-0.3198166
-1.443157
-2.850525
-4.47459
-6.211285
-7.897438
-9.463448
-10.88213
-12.20742
-13.53564
-14.89582
-16.31602
-17.7112
-18.91833
-19.65394
-19.59632
-18.47794
-16.16451
-12.86635
-9.028854
-5.272602
-2.04068
0.4497986
2.345978
3.923141
5.381332
6.747433
7.847736
8.483673
8.573597
8.275726
7.821938
7.505032
7.433598
7.574326
7.793003
7.980602
8.117207
8.265118
8.504345
8.833538
9.164017
9.357338
9.256214
8.757599
7.849155
6.558022
5.018845
3.347118
1.662178
0.06666183
-1.350883
-2.556095
-3.545586
-4.39394
-5.216522
-6.134262
-7.267689
-8.714825
-10.51527
-12.62351
-14.91406
-17.0985
-18.81267
-19.67136
-19.40622
-17.92452
-15.42087
-12.21683
-8.67815
-5.121532
-1.715382
1.449596
4.262951
6.566074
8.192772
9.008083
9.107738
8.713169
8.130177
7.63327
7.380329
7.362614
7.477299
7.6334
7.761639
7.928585
8.215652
8.63541
9.14703
9.609657
9.871151
9.833141
9.511963
8.950924
8.260193
7.494316
6.610264
5.543953
4.223251
2.623577
0.8426971
-0.9209862
-2.530407
-3.931633
-5.21748
-6.591721
-8.190979
-10.07109
-12.17879
-14.33179
-16.34669
-18.05457
-19.29224
-19.87927
-19.59198
-18.23901
-15.76289
-12.35624
-8.362343
-4.234192
-0.3725243
2.974518
5.706921
7.765732
9.141544
9.791904
9.721035
9.030682
7.905832
6.601557
5.389624
4.488863
4.018574
4.041712
4.529449
5.381823
6.466824
7.607395
8.604174
9.273222
9.481916
9.159943
8.36698
7.257166
6.024567
4.814281
3.661901
2.483953
1.218506
-0.1142635
-1.373419
-2.389872
-3.072166
-3.502838
-3.948578
-4.711437
-6.034874
-7.96991
-10.42062
-13.19616
-16.02933
-18.61752
-20.59947
-21.57193
-21.2392
-19.48002
-16.42412
-12.45267
-8.068687
-3.746908
0.1229725
3.284472
5.65937
7.274132
8.226446
8.680275
8.797241
8.708588
8.564693
8.464069
8.457958
8.566662
8.802454
9.098413
9.420481
9.750679
10.07679
10.40388
10.70051
10.91466
10.95097
10.71626
10.17299
9.341797
8.292732
7.127823
5.91489
4.672895
3.375988
1.985071
0.3671646
-1.52585
-3.745918
-6.247488
-8.884163
-11.4658
-13.80712
-15.85766
-17.63408
-19.30363
-20.97535
-22.62138
-23.95211
-24.4903
-23.7226
-21.35855
-17.54694
-12.78369
-7.787878
-3.25763
0.3665323
3.015972
4.874564
6.255558
7.416448
8.452993
9.322783
9.961725
10.35594
10.5838
10.77563
11.09292
11.58717
12.24625
13.01406
13.81754
14.58228
15.26236
15.81779
16.12672
16.06054
15.49216
14.39311
12.83612
11.00191
9.086878
7.247343
5.623837
4.269976
3.145362
2.189745
1.265094
0.2489057
-0.9432411
-2.269868
-3.591679
-4.740097
-5.613553
-6.286687
-6.984622
-7.993448
-9.518631
-11.58405
-13.97052
-16.35819
-18.37324
-19.66403
-19.98829
-19.17233
-17.18866
-14.13092
-10.30288
-6.143783
-2.155942
1.277388
3.915653
5.776104
7.030475
7.90818
8.57428
9.044724
9.251158
9.140658
8.762369
8.28126
7.899244
7.811485
8.077124
8.618009
9.283995
9.937456
10.52335
11.07512
11.60819
12.08515
12.41152
12.39354
11.93393
11.05395
9.89087
8.657768
7.517589
6.496382
5.520103
4.421379
3.044151
1.317801
-0.7107258
-2.893636
-5.045501
-6.985965
-8.627906
-9.956404
-11.06135
-12.07157
-13.10044
-14.23016
-15.51298
-16.91812
-18.34161
-19.59628
-20.36108
-20.2831
-19.04444
-16.51398
-12.85995
-8.506108
-3.957996
0.3052664
3.995749
7.060187
9.528002
11.46589
12.87428
13.68527
13.88133
13.54352
12.87319
12.08487
11.37473
10.7895
10.3195
9.890647
9.464111
9.046713
8.674347
8.389743
8.188759
8.007324
7.736862
7.306686
6.672671
5.883381
5.058655
4.318018
3.811041
3.561623
3.484303
3.323586
2.786488
1.671305
-0.01465416
-2.014085
-4.012505
-5.753185
-7.181484
-8.43001
-9.752865
-11.34588
-13.22056
-15.27874
-17.25466
-18.87948
-19.84073
-19.85839
-18.70591
-16.30626
-12.80405
-8.606537
-4.269215
-0.3498421
2.716202
4.788021
5.92309
6.316893
6.24493
5.965403
5.685984
5.536125
5.58358
5.815107
6.205482
6.709105
7.268679
7.825346
8.335524
8.746346
9.02215
9.224567
9.420761
9.640322
9.857361
9.90061
9.585257
8.87529
7.879959
6.817938
5.94422
5.357555
4.960245
4.484745
3.663822
2.302034
0.415966
-1.849991
-4.2479
-6.521662
-8.529608
-10.22693
-11.73494
-13.19799
-14.76532
-16.49261
-18.28757
-19.90646
-21.00205
-21.2956
-20.56984
-18.78933
-16.07769
-12.70794
-9.024273
-5.407883
-2.160221
0.5289307
2.572529
4.062153
5.139431
5.960518
6.598362
7.083805
7.381802
7.5229
7.589725
7.728462
8.110817
8.766602
9.596348
10.38875
10.92792
11.09347
10.91063
10.51417
10.08857
9.731735
9.363178
8.810516
7.918915
6.646828
5.103558
3.521561
2.110889
0.9549789
-0.02329636
-0.9999657
-2.144745
-3.511127
-5.013626
-6.530277
-7.919266
-9.152889
-10.32368
-11.58115
-13.08787
-14.85235
-16.74445
-18.49267
-19.70878
-20.00671
-19.09731
-16.9273
-13.66879
-9.753498
-5.667667
-1.869854
1.341091
3.948715
6.044189
7.772675
9.177811
10.21206
10.75415
10.73037
10.14431
9.130306
7.925747
6.743587
5.791908
5.179047
4.946602
5.041229
5.412361
5.955391
6.577232
7.235016
7.861229
8.4487
8.941772
9.202087
9.101757
8.550308
7.506466
6.068909
4.361759
2.539036
0.7083321
-1.067215
-2.791462
-4.460243
-6.050404
-7.534111
-8.876919
-10.08835
-11.24278
-12.40868
-13.58273
-14.62086
-15.18813
-14.88998
-13.44313
-10.79631
-7.240116
-3.367054
0.1975784
3.004436
4.960552
6.288677
7.278645
8.133423
8.785118
8.978664
8.440975
7.1329
5.306503
3.477413
2.107193
1.445671
1.429371
1.744045
2.072964
2.261852
2.372574
2.626286
3.194267
4.011734
4.830669
5.309399
5.172626
4.380791
3.098499
1.606949
0.1598206
-1.136116
-2.320076
-3.489944
-4.675938
-5.905991
-7.136288
-8.316845
-9.494389
-10.71382
-12.05283
-13.52392
-15.03578
-16.34371
-17.1591
-17.16317
-16.1199
-13.99229
-10.91028
-7.214207
-3.346985
0.2354355
3.122196
5.080414
6.101284
6.394547
6.266716
6.045162
5.933632
5.97287
6.10994
6.256737
6.434238
6.704479
7.178158
7.809155
8.508923
9.144722
9.637638
10.00316
10.24032
10.37385
10.35663
10.14663
9.64732
8.871037
7.852753
6.674831
5.394131
3.983002
2.417355
0.7413712
-0.9520912
-2.596573
-4.118313
-5.568279
-7.059879
-8.678097
-10.47903
-12.414
-14.30035
-15.95205
-17.15093
-17.67211
-17.34032
-16.02908
-13.69812
-10.52495
-6.867546
-3.217041
-0.05830002
2.35582
3.96452
4.925159
5.453281
5.760426
5.941986
6.02858
6.019882
5.940552
5.872612
5.885162
6.023609
6.261532
6.58186
6.971001
7.437828
8.013622
8.665127
9.333656
9.896431
10.21295
10.22226
9.914268
9.330559
8.530815
7.571629
6.426987
5.084579
3.528824
1.810421
0.06001663
-1.622257
-3.166382
-4.571537
-5.876431
-7.148617
-8.427673
-9.735962
-11.07534
-12.41953
-13.75756
-14.94698
-15.77593
-15.90064
-15.02075
-13.02019
-10.02359
-6.437332
-2.755562
0.523159
3.114033
4.93837
6.088142
6.71207
6.956841
6.923969
6.613285
6.105225
5.481171
4.875797
4.447002
4.325638
4.577393
5.165825
5.963814
6.783859
7.524231
8.115074
8.586864
8.93021
9.100174
8.982906
8.453434
7.440395
6.00069
4.327534
2.660328
1.176888
-0.09410858
-1.266933
-2.522419
-3.956448
-5.540279
-7.160175
-8.685684
-10.13536
-11.62196
-13.2826
-15.1226
-16.92889
-18.26779
-18.67891
-17.86388
-15.77794
-12.69748
-9.069164
-5.405914
-2.114857
0.5541382
2.563553
4.015717
5.07803
5.967468
6.828018
7.721817
8.59267
9.35746
9.954189
10.41074
10.84032
11.32545
11.90619
12.48097
12.86691
12.88661
12.44782
11.55552
10.27972
8.711792
6.923447
5.010654
3.098366
1.334373
-0.1458664
-1.286861
-2.146633
-2.843555
-3.502266
-4.204048
-4.942291
-5.71619
-6.541027
-7.440128
-8.508057
-9.798447
-11.34882
-13.13062
-15.07585
-16.98938
-18.63152
-19.6609
-19.66341
-18.34742
-15.65822
-11.84826
-7.48732
-3.22081
0.3905869
3.075523
4.903732
6.124905
7.064529
7.92815
8.820374
9.668301
10.38406
10.83862
10.98518
10.85472
10.54201
10.16785
9.921108
9.963989
10.32293
10.96381
11.73798
12.50861
13.18661
13.76448
14.12313
14.13377
13.55571
12.15983
9.915958
7.071255
4.027122
1.204441
-1.168064
-3.151302
-4.934525
-6.709202
-8.448711
-9.972698
-11.03138
-11.51038
-11.55959
-11.54986
-11.86382
-12.70844
-14.06131
-15.58313
-16.74921
-17.06796
-16.19101
-14.01905
-10.74714
-6.780136
-2.609825
1.287167
4.533508
6.972584
8.570442
9.394081
9.596527
9.327583
8.764339
8.093578
7.444111
6.895092
6.506325
6.283833
6.251377
6.417034
6.820347
7.426731
8.13858
8.805786
9.271877
9.466225
9.398247
9.130402
8.723343
8.19136
7.493263
6.567337
5.381813
4.00811
2.53421
1.066971
-0.3718872
-1.782928
-3.200172
-4.589279
-5.853424
-6.909164
-7.704018
-8.335251
-8.993492
-9.860718
-11.00882
-12.33655
-13.59489
-14.39964
-14.43703
-13.5077
-11.60358
-8.909447
-5.73085
-2.436943
0.6085892
3.112701
4.937927
6.098732
6.760529
7.150612
7.466805
7.810516
8.142464
8.376144
8.433495
8.322556
8.096008
7.893631
7.754745
7.639679
7.474495
7.186226
6.752174
6.233612
5.70034
5.114304
4.435997
3.568092
2.471436
1.255096
0.1027756
-0.8075256
-1.402527
-1.763268
-2.107224
-2.639709
-3.443901
-4.435188
-5.442574
-6.349602
-7.150909
-7.953232
-8.910904
-10.08989
-11.4482
-12.8503
-14.06376
-14.87344
-15.10289
-14.57468
-13.15721
-10.80991
-7.632889
-3.911171
-0.08044434
3.38459
6.147987
8.037872
9.094894
9.471161
9.311317
8.713593
7.798988
6.704185
5.644989
4.850021
4.48175
4.581116
5.030357
5.6297
6.18605
6.578941
6.787079
6.843536
6.796165
6.658592
6.445358
6.134041
5.720329
5.192131
4.586395
3.933235
3.274811
2.63224
1.958572
1.203087
0.2752686
-0.8806
-2.287804
-3.872009
-5.558014
-7.240517
-8.843338
-10.39709
-11.95241
-13.52383
-15.0307
-16.26874
-16.92737
-16.73459
-15.53672
-13.36541
-10.47983
-7.249359
-4.001724
-1.003204
1.616783
3.792191
5.486763
6.680046
7.404999
7.713326
7.720543
7.590073
7.420074
7.283661
7.156143
6.956482
6.636108
6.186508
5.662949
5.214325
4.974625
4.996872
5.211304
5.47966
5.660507
5.700912
5.637924
5.518265
5.379608
5.158203
4.715271
3.914139
2.731598
1.165863
-0.6106567
-2.449249
-4.153854
-5.571426
-6.595764
-7.184998
-7.387527
-7.341278
-7.318573
-7.546005
-8.198608
-9.274124
-10.57683
-11.7858
-12.52863
-12.54572
-11.73523
-10.18887
-8.081375
-5.642136
-3.086166
-0.5699158
1.72847
3.679581
5.164673
6.108597
6.538528
6.580734
6.396729
6.123978
5.860626
5.572327
5.237213
4.863724
4.467636
4.146713
3.965225
3.953125
4.062729
4.208069
4.279099
4.251953
4.184326
4.150574
4.164841
4.125031
3.887985
3.28067
2.270691
0.9402161
-0.5193176
-1.919281
-3.158386
-4.243408
-5.239059
-6.189224
-7.098877
-7.967468
-8.840424
-9.77095
-10.78754
-11.85489
-12.78218
-13.30225
-13.11935
-12.00536
-9.938309
-7.099792
-3.829391
-0.5643005
2.290451
4.477921
5.936035
6.764343
7.137863
7.196762
6.987579
6.471222
5.61026
4.438812
3.131561
1.936234
1.128784
0.901825
1.316696
2.250763
3.497986
4.779755
5.840683
6.535019
6.794754
6.636749
6.136551
5.36879
4.376633
3.184036
1.828629
0.3439026
-1.174591
-2.651047
-4.047104
-5.38324
-6.694229
-7.998077
-9.29837
-10.53642
-11.67102
-12.70903
-13.70035
-14.68497
-15.6992
-16.57982
-17.09834
-16.96239
-15.9294
-13.8963
-10.95677
-7.392609
-3.585602
0.01152039
3.050674
5.261337
6.568848
7.04155
6.902405
6.438522
5.907623
5.458511
5.12616
4.909286
4.751541
4.649979
4.665451
4.844055
5.244904
5.889603
6.744675
7.733765
8.757935
9.675293
10.30428
10.50438
10.14639
9.24826
7.949173
6.458267
4.970505
3.565796
2.195389
0.7812805
-0.7299652
-2.3741
-4.036713
-5.608521
-6.987411
-8.160461
-9.230484
-10.35698
-11.68082
-13.24071
-15.01448
-16.7637
-18.23058
-19.13242
-19.24173
-18.45619
-16.79924
-14.32469
-11.17284
-7.603439
-3.907578
-0.4892731
2.305573
4.241577
5.30162
5.59787
5.396332
4.949127
4.464844
4.130814
4.044907
4.26738
4.832413
5.679123
6.612534
7.482376
8.136017
8.547195
8.811371
8.993073
9.076172
8.97258
8.508194
7.56665
6.218201
4.643356
3.120972
1.887222
0.9483948
0.1617432
-0.6923065
-1.821228
-3.275772
-4.913315
-6.532608
-7.953079
-9.022537
-9.779221
-10.31775
-10.73994
-11.18246
-11.67076
-12.07697
-12.19614
-11.75423
-10.49747
-8.373688
-5.559586
-2.416809
0.5748291
2.99704
4.672974
5.609177
5.964127
5.92131
5.62326
5.143387
4.550278
3.892365
3.248825
2.751831
2.487274
2.545944
2.885818
3.434952
4.073883
4.65625
5.051437
5.198212
5.107513
4.817917
4.422607
3.917786
3.263916
2.368607
1.173615
-0.2199707
-1.70752
-3.073792
-4.224319
-5.15213
-5.955948
-6.844635
-7.95697
-9.404617
-11.12045
-13.06152
-15.06911
-17.00743
-18.62151
-19.57509
-19.54169
-18.25031
-15.67918
-12.03833
-7.856522
-3.699753
-0.09059143
2.695099
4.640411
5.891281
6.63002
7.009323
7.141281
7.114471
7.068741
7.149681
7.435875
7.990517
8.745178
9.589508
10.37569
10.97752
11.34029
11.40058
11.16401
10.59458
9.748329
8.671425
7.482071
6.255692
5.032761
3.808167
2.524261
1.088318
-0.5052261
-2.145988
-3.677872
-4.930183
-5.836967
-6.458481
-7.005455
-7.69986
-8.763199
-10.22157
-12.0471
-14.0961
-16.19951
-18.16454
-19.75385
-20.67445
-20.62292
-19.3813
-16.88309
-13.32719
-9.115463
-4.804787
-0.9133224
2.201515
4.431061
5.857277
6.64312
6.987
7.014091
6.821846
6.520233
6.279449
6.269905
6.650047
7.47303
8.654678
10.00214
11.29318
12.35209
13.04239
13.29355
13.08183
12.41293
11.35933
10.06987
8.711739
7.400856
6.211136
5.102795
3.964722
2.668209
1.127258
-0.6483765
-2.571976
-4.476498
-6.220642
-7.723076
-8.979523
-10.08829
-11.24201
-12.63476
-14.38025
-16.42272
-18.52322
-20.23765
-21.15281
-20.93003
-19.41711
-16.73113
-13.18223
-9.16283
-5.093929
-1.328537
1.918045
4.499096
6.381519
7.668861
8.508549
9.088758
9.549915
9.990938
10.41071
10.79952
11.10338
11.31693
11.4731
11.61796
11.79006
11.9984
12.16299
12.18673
11.99125
11.49493
10.7037
9.660011
8.417151
7.066244
5.710513
4.374136
3.044871
1.653183
0.1288979
-1.516456
-3.218556
-4.850073
-6.260863
-7.391498
-8.325626
-9.203481
-10.13555
-11.20136
-12.36978
-13.58735
-14.80174
-15.86673
-16.58901
-16.70145
-15.88862
-13.93079
-10.86017
-6.946152
-2.694492
1.320251
4.691906
7.231062
8.99736
10.22889
11.11569
11.73973
12.09019
12.09381
11.73246
11.12639
10.50365
10.08032
10.01353
10.24002
10.55495
10.70336
10.52049
9.97089
9.206146
8.422287
7.772808
7.374252
7.117741
6.821217
6.232285
5.189152
3.636066
1.683762
-0.4576797
-2.598644
-4.568634
-6.356667
-7.988712
-9.533779
-11.09354
-12.71098
-14.44258
-16.29348
-18.22258
-20.00443
-21.29686
-21.66414
-20.67906
-18.22154
-14.46642
-9.856606
-5.01384
-0.5237732
3.237541
6.082695
8.085052
9.456161
10.33966
10.84671
10.94586
10.60526
9.837143
8.825935
7.863235
7.267593
7.273529
7.88401
8.964684
10.24171
11.46272
12.47163
13.24939
13.81204
14.17629
14.32386
14.11968
13.48929
12.35741
10.71891
8.674072
6.376663
3.975731
1.617439
-0.5686722
-2.519371
-4.156433
-5.493378
-6.598969
-7.650955
-8.883186
-10.5392
-12.79987
-15.59853
-18.65644
-21.38554
-23.12157
-23.25757
-21.47956
-17.93732
-13.12423
-7.763428
-2.523621
2.105957
5.900192
8.791695
10.78963
11.95882
12.37776
12.21419
11.68494
11.0272
10.39944
9.908836
9.550972
9.361687
9.347412
9.56852
10.05917
10.75
11.53209
12.21194
12.67676
12.85416
12.75465
12.42776
11.86789
11.07222
9.988998
8.596085
6.898392
4.94017
2.831741
0.660141
-1.431519
-3.355591
-5.054413
-6.550446
-7.918701
-9.272598
-10.76016
-12.49554
-14.47998
-16.55878
-18.37436
-19.42126
-19.25476
-17.6187
-14.59294
-10.59634
-6.280838
-2.24469
1.113434
3.668228
5.557999
6.934738
7.888596
8.424591
8.505157
8.184631
7.634262
7.101486
6.789352
6.790359
7.074753
7.499023
7.951233
8.373428
8.809647
9.280289
9.778809
10.22717
10.49692
10.46896
10.05922
9.236282
7.996628
6.387161
4.4767
2.381592
0.2427979
-1.785172
-3.563309
-5.066406
-6.407257
-7.79715
-9.453888
-11.5065
-13.8922
-16.36111
-18.49725
-19.81544
-19.91463
-18.5985
-15.97903
-12.38637
-8.285767
-4.156952
-0.3825684
2.851059
5.522659
7.670547
9.365143
10.61974
11.4496
11.87152
11.95215
11.76627
11.43457
11.05312
10.70085
10.40675
10.2092
10.07549
9.971024
9.808212
9.479874
8.891373
7.961411
6.684509
5.092377
3.307205
1.478058
-0.2221069
-1.638992
-2.67363
-3.36087
-3.850876
-4.357239
-5.150223
-6.429703
-8.217651
-10.37567
-12.5392
-14.2541
-15.0831
-14.7587
-13.2202
-10.66866
-7.455856
-4.004379
-0.74646
2.039337
4.217087
5.799194
6.909424
7.729736
8.387756
9.016937
9.667831
10.28439
10.82523
11.18491
11.28818
11.14175
10.80405
10.34038
9.843826
9.358658
8.83223
8.254608
7.539139
6.619827
5.467697
4.079727
2.523087
0.8935699
-0.665329
-2.039688
-3.164612
-4.122543
-5.065125
-6.14801
-7.477585
-9.037918
-10.7448
-12.43668
-13.91153
-14.81908
-14.83798
-13.6846
-11.25606
-7.739105
-3.573227
0.6715088
4.495697
7.581284
9.906281
11.5211
12.48137
12.81068
12.42087
11.3322
9.687653
7.787079
5.975128
4.582153
3.803665
3.602676
3.843674
4.293076
4.764206
5.092697
5.216125
5.063187
4.569763
3.707932
2.484818
0.9946289
-0.611557
-2.151657
-3.508774
-4.665237
-5.719421
-6.852921
-8.237976
-9.957596
-11.99603
-14.21663
-16.34659
-17.95946
-18.60965
-17.88939
-15.61418
-11.91577
-7.209305
-2.120026
2.640945
6.485428
9.165421
10.69492
11.34631
11.47713
11.41023
11.29539
11.18669
11.04604
10.87378
10.76118
10.85263
11.21107
11.76517
12.32181
12.64345
12.58336
12.20198
11.7209
11.32954
11.08276
10.84717
10.30157
9.133728
7.202301
4.619141
1.687592
-1.186401
-3.726898
-5.855881
-7.652328
-9.349152
-11.14647
-13.18015
-15.41173
-17.71611
-19.86609
-21.55736
-22.47556
-22.30495
-20.88423
-18.2381
-14.60582
-10.38628
-6.028702
-1.938354
1.642609
4.604416
6.927872
8.616882
9.719742
10.27426
10.32808
10.01984
9.484665
8.88559
8.349869
7.947998
7.698273
7.633835
7.744415
8.039093
8.531738
9.157654
9.85379
10.51234
11.0092
11.25925
11.26619
10.9967
10.47154
9.696594
8.620468
7.206177
5.428253
3.348358
1.068237
-1.221619
-3.43396
-5.48465
-7.393539
-9.24913
-11.13745
-13.10947
-15.09059
-16.99422
-18.61133
-19.70708
-19.97562
-19.16905
-17.17676
-14.04663
-10.04916
-5.598221
-1.170959
2.844131
6.13353
8.538452
9.998077
10.53056
10.28481
9.48497
8.378296
7.303818
6.516235
6.189499
6.347717
6.919281
7.718872
8.57869
9.330917
9.838196
10.03317
9.886185
9.396286
8.600281
7.610352
6.54715
5.540833
4.657913
3.880966
3.12825
2.283966
1.207779
-0.1382446
-1.712021
-3.403564
-5.083817
-6.685257
-8.275406
-9.970657
-11.8826
-14.06155
-16.38815
-18.53319
-20.01485
-20.40331
-19.34366
-16.84828
-13.17346
-8.825439
-4.378044
-0.3180237
3.095947
5.778503
7.798561
9.294106
10.33862
10.97263
11.20189
11.09592
10.75282
10.31634
9.903969
9.595047
9.387779
9.224747
8.975586
8.556877
7.985909
7.35025
6.789909
6.422638
6.262993
6.190201
5.929878
5.210381
3.917549
2.114845
0.1257019
-1.657082
-2.930367
-3.612617
-3.871788
-4.052437
-4.499405
-5.414345
-6.873283
-8.84465
-11.21152
-13.75434
-16.16461
-18.00481
-18.84293
-18.37215
-16.51409
-13.42615
-9.558624
-5.365425
-1.292297
2.31987
5.270752
7.496902
8.961327
9.715576
9.87545
9.556038
8.853882
7.856369
6.643372
5.369583
4.265343
3.551208
3.361
3.68689
4.332703
5.026276
5.524193
5.72863
5.748863
5.722359
5.764954
5.840302
5.749268
5.237572
4.166573
2.567802
0.6108475
-1.375633
-3.168686
-4.6241
-5.777962
-6.732147
-7.644005
-8.62561
-9.739998
-11.09122
-12.69688
-14.52794
-16.4763
-18.31714
-19.64529
-20.07034
-19.27838
-17.14031
-13.84209
-9.759022
-5.412045
-1.275814
2.263561
5.040756
7.027962
8.292233
8.995083
9.273937
9.290901
9.093613
8.703953
8.141243
7.468132
6.782322
6.19096
5.800816
5.598152
5.554344
5.591816
5.642586
5.709614
5.785629
5.841675
5.810692
5.639076
5.233269
4.512272
3.434647
2.009251
0.3298607
-1.443699
-3.087818
-4.449772
-5.481506
-6.285656
-7.053513
-7.938641
-9.048637
-10.3505
-11.80734
-13.28934
-14.67411
-15.8291
-16.59065
-16.73726
-16.06695
-14.47691
-11.96044
-8.721188
-5.064495
-1.390594
1.903847
4.547588
6.45126
7.736877
8.613445
9.308666
9.936169
10.45576
10.72859
10.60982
10.03297
9.063866
7.843571
6.56971
5.368999
4.318607
3.439602
2.755974
2.299126
2.105476
2.192093
2.477131
2.823078
3.007034
2.810631
2.137299
1.050007
-0.2503929
-1.546898
-2.692627
-3.717621
-4.717079
-5.846523
-7.183464
-8.712542
-10.37938
-12.09969
-13.79719
-15.35283
-16.52627
-17.02864
-16.58146
-15.03252
-12.42392
-9.036358
-5.278944
-1.580572
1.700762
4.356628
6.275915
7.471321
8.023413
8.05785
7.693422
7.064146
6.28866
5.528524
4.889051
4.492905
4.407053
4.648031
5.197056
5.992403
6.920662
7.833496
8.550446
8.88002
8.651854
7.769073
6.266397
4.293184
2.072552
-0.1797237
-2.289696
-4.16646
-5.770617
-7.134029
-8.290041
-9.303514
-10.23825
-11.18417
-12.20693
-13.35959
-14.5979
-15.76483
-16.53872
-16.54537
-15.459
-13.13727
-9.810032
-5.92573
-2.093233
1.168392
3.555559
5.076889
5.931372
6.352619
6.496386
6.405769
6.063011
5.472336
4.74226
4.08353
3.741245
3.912645
4.612211
5.725361
7.012251
8.242975
9.220806
9.846424
10.08844
9.910179
9.304529
8.241785
6.782211
5.031361
3.163551
1.320387
-0.4154854
-2.052382
-3.617983
-5.097391
-6.437298
-7.539385
-8.380293
-9.08337
-9.868868
-11.03325
-12.7349
-14.93432
-17.33289
-19.47439
-20.89427
-21.23198
-20.33117
-18.23905
-15.20267
-11.53373
-7.629261
-3.842651
-0.4828224
2.258144
4.34005
5.855824
6.935184
7.704357
8.231411
8.518429
8.581264
8.476997
8.340271
8.300453
8.407574
8.623322
8.820408
8.926235
8.922672
8.867661
8.879181
9.0014
9.1814
9.245026
9.004311
8.363358
7.368649
6.153744
4.865883
3.608067
2.377556
1.11512
-0.2111015
-1.57502
-2.962967
-4.372536
-5.882473
-7.641037
-9.757423
-12.25529
-15.00228
-17.7025
-19.994
-21.54941
-22.07907
-21.40267
-19.48848
-16.46437
-12.6334
-8.427979
-4.276325
-0.5606079
2.473682
4.752827
6.349426
7.368153
7.932762
8.144547
8.115601
7.994099
7.933746
8.054279
8.405102
8.965961
9.586884
10.11396
10.42558
10.485
10.3422
10.12954
9.911705
9.677147
9.323738
8.735897
7.837269
6.712708
5.48394
4.298065
3.242989
2.25631
1.206863
-0.01426697
-1.397308
-2.829315
-4.145126
-5.262314
-6.185074
-7.005577
-7.833031
-8.734291
-9.699295
-10.70992
-11.75366
-12.77859
-13.69334
-14.29485
-14.2527
-13.30321
-11.32779
-8.46402
-5.113182
-1.744041
1.291481
3.793419
5.763878
7.363937
8.657661
9.652786
10.30232
10.56441
10.48016
10.17573
9.809235
9.531281
9.46077
9.631493
10.01278
10.53933
11.1301
11.69891
12.14137
12.3711
12.31986
11.99037
11.44752
10.73528
9.926826
8.99617
7.919884
6.651581
5.201393
3.597572
1.961075
0.3641205
-1.136139
-2.524162
-3.892303
-5.289925
-6.783493
-8.439598
-10.35912
-12.56918
-14.95406
-17.25896
-18.9987
-19.74617
-19.16245
-17.20905
-14.16199
-10.49929
-6.73645
-3.23011
-0.2491837
2.12191
3.840462
4.930077
5.468887
5.58757
5.523285
5.470222
5.622505
6.026756
6.686012
7.505569
8.37722
9.222984
9.978737
10.65316
11.24385
11.77695
12.18335
12.37362
12.21954
11.63019
10.60509
9.249397
7.728638
6.163269
4.646294
3.118515
1.495316
-0.3156509
-2.332916
-4.435028
-6.426338
-8.117073
-9.456215
-10.47222
-11.37016
-12.42271
-13.86586
-15.77831
-17.98428
-20.0769
-21.51157
-21.82598
-20.72244
-18.26739
-14.80186
-10.76235
-6.604561
-2.588158
1.138916
4.489639
7.35051
9.59359
11.07955
11.79469
11.89397
11.59109
11.15347
10.73431
10.40497
10.11496
9.846748
9.553421
9.305504
9.183197
9.226295
9.42691
9.730179
10.01111
10.11892
9.933296
9.340431
8.34153
6.985641
5.369392
3.608597
1.85659
0.1846771
-1.351624
-2.755699
-4.052689
-5.230957
-6.25663
-7.080643
-7.721985
-8.253708
-8.866989
-9.752052
-11.02877
-12.68875
-14.51721
-16.14811
-17.16464
-17.21301
-16.06491
-13.70618
-10.28998
-6.141159
-1.700844
2.5867
6.333855
9.280312
11.33816
12.5222
12.95763
12.80571
12.23751
11.44611
10.61823
9.936928
9.517342
9.442459
9.660561
10.08218
10.56665
11.01529
11.35763
11.53735
11.50235
11.20026
10.61327
9.803528
8.879326
7.942093
7.085396
6.265877
5.426876
4.474133
3.359161
2.085381
0.6932411
-0.7799034
-2.307465
-3.874928
-5.428375
-6.898285
-8.22776
-9.45034
-10.72234
-12.23469
-14.09888
-16.28954
-18.54484
-20.44015
-21.47548
-21.22348
-19.50374
-16.43316
-12.37809
-7.864113
-3.44994
0.4389763
3.52972
5.749527
7.215935
8.046379
8.382229
8.318165
7.949203
7.404163
6.857582
6.478748
6.367844
6.585686
7.052521
7.64856
8.28149
8.859333
9.388264
9.867039
10.26427
10.438
10.25154
9.588638
8.473476
7.060108
5.554626
4.15546
2.92379
1.79789
0.6245499
-0.7338104
-2.307228
-3.968624
-5.482956
-6.719524
-7.587685
-8.191154
-8.740993
-9.492579
-10.62877
-12.20458
-14.08361
-15.93913
-17.41113
-18.11545
-17.81448
-16.41587
-14.01721
-10.84148
-7.200651
-3.461422
0.1137047
3.306313
6.012085
8.177467
9.815046
10.97259
11.69077
12.02579
11.99784
11.65192
11.06051
10.36847
9.707142
9.164688
8.818184
8.634418
8.593489
8.646126
8.746202
8.862517
8.978143
9.046241
8.986322
8.745811
8.268362
7.536744
6.531053
5.264059
3.726812
1.8903
-0.2204771
-2.548684
-4.905878
-7.1154
-9.011483
-10.57072
-11.87794
-13.07296
-14.31861
-15.72291
-17.30143
-18.99942
-20.7477
-22.33213
-23.46873
-23.7604
-22.83047
-20.50755
-16.90777
-12.45364
-7.728506
-3.306718
0.4548659
3.448242
5.738936
7.450369
8.674395
9.464846
9.846395
9.88715
9.735541
9.534998
9.436618
9.482412
9.672715
9.955494
10.29194
10.66918
11.06141
11.42745
11.69891
11.77241
11.56945
11.07399
10.28585
9.261722
8.031868
6.625316
5.103243
3.517733
1.936792
0.3741236
-1.127152
-2.594832
-4.016653
-5.375365
-6.6343
-7.737198
-8.694527
-9.58091
-10.53326
-11.69356
-13.17524
-14.90196
-16.60938
-17.89089
-18.33004
-17.65773
-15.83208
-13.05938
-9.721878
-6.238897
-2.918631
0.04367828
2.56295
4.622616
6.18441
7.20759
7.6954
7.681263
7.269375
6.639219
5.972374
5.407
5.11602
5.208082
5.690914
6.549917
7.626108
8.699249
9.550579
10.01771
10.02595
9.666359
9.054417
8.297945
7.454659
6.485558
5.323818
3.920189
2.301189
0.5505409
-1.19442
-2.807529
-4.188095
-5.29958
-6.201591
-6.99036
-7.811165
-8.830925
-10.18637
-11.95828
-14.12421
-16.51041
-18.74153
-20.40021
-21.03687
-20.28109
-18.09465
-14.6703
-10.4968
-6.149822
-2.153614
1.160393
3.707603
5.579872
6.961643
7.972218
8.679077
9.068222
9.151352
8.970692
8.593918
8.118191
7.616573
7.135464
6.723133
6.466557
6.434582
6.675941
7.157825
7.743622
8.253555
8.512115
8.413746
7.984558
7.314922
6.505787
5.573601
4.526836
3.339382
1.991795
0.4781647
-1.189392
-2.942474
-4.713886
-6.366455
-7.74316
-8.704678
-9.215164
-9.380749
-9.477413
-9.87011
-10.79445
-12.31476
-14.15889
-15.83858
-16.83163
-16.72656
-15.39507
-12.9943
-9.887363
-6.470478
-3.147823
-0.1346207
2.422489
4.441082
5.881935
6.744896
7.139484
7.210629
7.210907
7.327518
7.694256
8.291264
8.984112
9.605942
10.01628
10.1812
10.15781
10.10174
10.06662
10.08835
10.07224
9.813171
9.136795
7.952606
6.328659
4.446209
2.549423
0.7852402
-0.7774353
-2.178856
-3.544693
-4.93663
-6.36245
-7.734264
-8.994835
-10.06882
-10.95308
-11.70586
-12.36947
-13.08001
-13.95831
-15.10508
-16.50541
-17.95144
-19.01411
-19.16784
-18.07533
-15.64509
-12.17873
-8.206459
-4.291393
-0.8820763
1.796452
3.778713
5.221455
6.231251
6.951763
7.444214
7.762772
7.944401
8.044662
8.100536
8.187004
8.36871
8.597885
8.884716
9.157352
9.393753
9.61837
9.82523
9.960678
9.928764
9.593456
8.836365
7.702335
6.312134
4.80864
3.353333
2.01857
0.7812233
-0.3870583
-1.515823
-2.608219
-3.560905
-4.351807
-5.027695
-5.633018
-6.310925
-7.222469
-8.486637
-10.17214
-12.26512
-14.54151
-16.68112
-18.29924
-18.95704
-18.42284
-16.62048
-13.70742
-10.03093
-6.077492
-2.280834
0.9993782
3.582584
5.506363
6.852787
7.790207
8.454075
8.896469
9.112663
9.083233
8.827686
8.382385
7.883907
7.443417
7.164841
7.079823
7.087971
7.069874
6.914871
6.625778
6.250065
5.943779
5.769703
5.710197
5.699589
5.564991
5.234501
4.654194
3.87936
2.900455
1.767624
0.4539909
-1.021183
-2.635658
-4.426243
-6.386101
-8.541012
-10.81039
-13.05
-14.94291
-16.13477
-16.28424
-15.19375
-12.92628
-9.70805
-5.96418
-2.178482
1.220158
3.972244
5.935333
7.168472
7.832119
8.057949
8.001289
7.731777
7.332817
6.917984
6.678669
6.718422
7.09568
7.763268
8.574429
9.396652
10.11105
10.67887
11.0797
11.30097
11.27624
10.90569
10.05704
8.702038
6.902195
4.828999
2.738575
0.9492188
-0.338623
-1.0373
-1.289894
-1.458977
-1.981861
-3.160385
-5.064507
-7.394939
-9.534786
-10.87038
-10.91549
-9.554672
-7.093277
-4.093048
-1.148758
1.227028
2.804901
3.573059
3.677658
3.315338
2.713341
2.044769
1.442123
0.9809647
0.6351395
0.4008713
0.192009
-0.0304184
-0.2851257
-0.5379181
-0.767189
-0.9703674
-1.179222
-1.477196
-1.850189
-2.289383
-2.74292
-3.138756
-3.453705
-3.746849
-4.113373
-4.658035
-5.493248
-6.634377
-8.120071
-9.906609
-11.89488
-13.86037
-15.50719
-16.48754
-16.4749
-15.29623
-12.93349
-9.630142
-5.747719
-1.759537
1.857048
4.75071
6.760429
7.941315
8.556786
8.888077
9.102936
9.164017
8.936584
8.268524
7.224129
6.056664
5.075027
4.461601
4.168839
3.959503
3.613472
3.08017
2.489098
2.079498
1.983238
2.174759
2.414276
2.395767
1.888794
0.8462677
-0.6157303
-2.260818
-3.837074
-5.189949
-6.334106
-7.389778
-8.583389
-10.0933
-11.98244
-14.18771
-16.50156
-18.62354
-20.21214
-20.98112
-20.62999
-19.04488
-16.25221
-12.50069
-8.22493
-3.947441
-0.1004486
3.048424
5.424721
7.190994
8.549026
9.657204
10.57061
11.21178
11.45433
11.22801
10.58928
9.726425
8.883129
8.259106
7.891117
7.725311
7.620613
7.489399
7.281914
7.008705
6.660591
6.200649
5.530769
4.524506
3.164921
1.478901
-0.3843155
-2.207298
-3.827103
-5.198486
-6.410908
-7.717255
-9.396263
-11.57653
-14.19781
-16.92286
-19.24043
-20.65926
-20.81857
-19.60999
-17.17733
-13.83208
-9.962845
-5.983044
-2.285545
0.8479538
3.195229
4.717754
5.489887
5.676796
5.475422
5.057369
4.523605
3.890888
3.20771
2.463173
1.778835
1.200367
0.7478333
0.4005165
0.08415985
-0.2622414
-0.6729774
-1.095726
-1.46423
-1.647108
-1.626358
-1.416874
-1.168108
-1.022957
-1.09444
-1.427076
-1.974796
-2.673248
-3.465103
-4.363527
-5.371128
-6.42399
-7.274754
-7.533695
-6.761574
-4.74308
-1.58765
2.272705
6.272742
9.879486
12.84307
15.1511
16.94081
18.30544
19.18837
19.44098
18.95578
17.8482
16.41608
15.05675
14.08566
13.5999
13.47775
13.50774
13.51491
13.45737
13.39656
13.42936
13.51446
13.53333
13.2839
12.57624
11.33041
9.571293
7.459279
5.171127
2.948318
0.9520202
-0.7046857
-2.023691
-3.124282
-4.150051
-5.291056
-6.647792
-8.239694
-9.950479
-11.60042
-12.8852
-13.48106
-13.05655
-11.38959
-8.507462
-4.678605
-0.3752813
3.860727
7.561754
10.47598
12.56438
13.89249
14.62969
14.84945
14.58307
13.91412
12.94478
11.88343
10.89545
10.09255
9.449665
8.921803
8.46294
8.09235
7.950336
8.138872
8.700012
9.510164
10.36156
11.00791
11.3151
11.28782
11.01065
10.58732
10.0261
9.240421
8.122612
6.612328
4.764347
2.766792
0.8562698
-0.7908134
-2.090958
-3.122326
-4.065983
-5.064041
-6.266457
-7.649933
-9.122444
-10.47947
-11.46974
-11.82424
-11.31603
-9.851006
-7.434914
-4.351959
-0.9567108
2.308342
5.097008
7.198647
8.617165
9.498894
10.00586
10.36839
10.65616
10.90033
11.03815
10.98924
10.71012
10.21817
9.640625
9.057579
8.593315
8.253975
7.950714
7.540443
6.854034
5.852272
4.582191
3.254272
2.04454
1.114449
0.4682236
-0.01638031
-0.546196
-1.333099
-2.44899
-3.923019
-5.602684
-7.354111
-9.019165
-10.46385
-11.62244
-12.48628
-13.18565
-13.87178
-14.74628
-15.85426
-17.08344
-18.13921
-18.61211
-18.18066
-16.65382
-14.09837
-10.8297
-7.279327
-3.858231
-0.8723907
1.515457
3.296783
4.532593
5.319824
5.769791
5.906769
5.759094
5.394165
4.910187
4.42514
4.107117
4.015594
4.140152
4.41922
4.721375
4.955795
5.084015
5.114761
5.025497
4.812592
4.393997
3.723694
2.733307
1.431015
-0.176178
-1.989777
-3.865005
-5.564789
-6.830399
-7.463165
-7.376984
-6.717377
-5.773087
-4.983353
-4.692764
-5.096771
-6.119385
-7.515991
-9.033539
-10.4008
-11.45837
-11.99886
-11.80229
-10.65222
-8.488129
-5.492584
-2.125534
0.9971924
3.382919
4.775162
5.290237
5.205139
4.802429
4.239441
3.516144
2.615875
1.60733
0.6532135
-0.07215881
-0.4469147
-0.4869385
-0.3035278
-0.008483887
0.3369446
0.7585449
1.295898
1.892822
2.391724
2.597076
2.363068
1.662262
0.6430664
-0.4915466
-1.517334
-2.340088
-2.969116
-3.522308
-4.063904
-4.604553
-5.1203
-5.596924
-6.097717
-6.747833
-7.6539
-8.787231
-10.01788
-10.98792
-11.33392
-10.78586
-9.271332
-6.979797
-4.29657
-1.671265
0.575531
2.270538
3.448334
4.252502
4.838654
5.314056
5.665771
5.83197
5.677887
5.146332
4.170105
2.7742
1.091431
-0.6815186
-2.284058
-3.503693
-4.179901
-4.310669
-3.978516
-3.374847
-2.689453
-2.105133
-1.753479
-1.63916
-1.814178
-2.244354
-2.92218
-3.784729
-4.731201
-5.625092
-6.350769
-6.900635
-7.334167
-7.830597
-8.469849
-9.217743
-9.826813
-9.947937
-9.24469
-7.635956
-5.315277
-2.682281
-0.2211914
1.713348
2.979736
3.634338
3.828949
3.689575
3.266663
2.517578
1.434906
0.07254028
-1.356995
-2.553741
-3.244659
-3.25412
-2.577484
-1.382751
0.06759644
1.507233
2.703644
3.527374
3.940277
3.986328
3.765808
3.358063
2.821503
2.144501
1.270325
0.09951782
-1.348328
-2.984955
-4.615448
-5.99292
-7.025513
-7.748138
-8.328766
-8.91687
-9.532898
-9.930603
-9.746979
-8.722076
-6.782257
-4.239807
-1.580261
0.6836243
2.235596
2.977539
3.072815
2.783691
2.30188
1.811615
1.351746
0.9674683
0.6852722
0.5565186
0.5861511
0.7649536
1.042419
1.316895
1.547699
1.642456
1.583374
1.37793
1.021271
0.5485229
-0.01708984
-0.631958
-1.292206
-1.971436
-2.688324
-3.398407
-3.990356
-4.338196
-4.320984
-3.936096
-3.364319
-2.916077
-2.896027
-3.531036
-4.824371
-6.5354
-8.320068
-9.69986
-10.3269
-9.986664
-8.677521
-6.564178
-3.988617
-1.287903
1.213898
3.300964
4.936127
6.112762
6.869904
7.220001
7.189178
6.806732
6.15271
5.351288
4.484497
3.644562
2.892578
2.279755
1.839508
1.642792
1.70639
2.032166
2.569763
3.195587
3.801483
4.21875
4.338806
4.10437
3.46286
2.452759
1.144958
-0.3502197
-1.940948
-3.494141
-4.992065
-6.371216
-7.622559
-8.776245
-9.825867
-10.77167
-11.61215
-12.36349
-12.996
-13.47882
-13.68948
-13.46436
-12.69553
-11.32486
-9.414795
-7.140106
-4.714508
-2.287537
-0.009613037
2.041199
3.790436
5.091705
5.887085
6.146729
5.965454
5.551636
5.073975
4.631866
4.216125
3.728088
3.090973
2.359192
1.639801
1.104645
0.8766479
0.8945923
1.024292
1.111725
1.083649
0.9837952
0.9750671
1.150146
1.539764
2.055603
2.437988
2.453979
1.939301
0.883728
-0.5367737
-2.019989
-3.34436
-4.369751
-5.150421
-5.856415
-6.647125
-7.61972
-8.796753
-10.08649
-11.36282
-12.55978
-13.50806
-14.04938
-13.93839
-12.92123
-10.88727
-7.991791
-4.605011
-1.313385
1.331024
3.009338
3.681519
3.574982
3.0672
2.461731
1.901337
1.377533
0.812439
0.1865234
-0.3943481
-0.7719421
-0.7834778
-0.4053345
0.2245789
0.8970947
1.402222
1.651459
1.697998
1.637238
1.539398
1.421906
1.256134
0.9854431
0.6700439
0.4155884
0.3318176
0.4015808
0.4512329
0.190094
-0.6011963
-1.978546
-3.787903
-5.669037
-7.237732
-8.213074
-8.546692
-8.426788
-8.211487
-8.286102
-8.898895
-10.09671
-11.64676
-13.16867
-14.17752
-14.2756
-13.28345
-11.24774
-8.489319
-5.437134
-2.551483
-0.1993408
1.392975
2.205475
2.408386
2.235596
1.974121
1.860535
1.976318
2.310883
2.725677
3.085022
3.307617
3.433685
3.573181
3.892395
4.466324
5.234146
6.048706
6.721527
7.142715
7.271286
7.165802
6.846054
6.32869
5.540054
4.420441
2.979187
1.271973
-0.5873413
-2.499832
-4.44397
-6.448563
-8.525116
-10.6378
-12.65421
-14.38431
-15.7343
-16.71185
-17.45483
-18.19183
-19.12015
-20.28738
-21.52443
-22.46689
-22.64473
-21.74268
-19.61113
-16.40785
-12.52493
-8.409348
-4.446136
-0.8504486
2.242935
4.81015
6.752258
8.018524
8.585419
8.514221
8.034454
7.425751
6.919159
6.646378
6.699661
7.062866
7.768539
8.832108
10.19722
11.76587
13.31566
14.58327
15.33844
15.51744
15.14519
14.34213
13.25233
11.95224
10.52226
8.959221
7.302719
5.557976
3.789101
2.039551
0.3182907
-1.341354
-2.991234
-4.61084
-6.151443
-7.494324
-8.53138
-9.241837
-9.747078
-10.34901
-11.35511
-13.00283
-15.22356
-17.63673
-19.60636
-20.48167
-19.79813
-17.44377
-13.66096
-8.908447
-3.764023
1.273033
5.820698
9.598415
12.42611
14.18131
14.87749
14.63966
13.77251
12.6002
11.45433
10.57627
10.10466
10.15004
10.74833
11.93419
13.63233
15.63096
17.60264
19.17305
20.10778
20.31616
19.90227
18.97782
17.64195
15.93707
13.98965
12.01423
10.34624
9.304339
8.970898
9.209798
9.661446
9.968268
9.946569
9.673449
9.404585
9.353559
9.630164
10.14221
10.72622
11.26132
11.72499
12.13001
12.494
12.8531
13.24157
13.8469
14.97417
16.94585
19.96437
23.8894
28.22315
32.1608
34.88356
35.78285
34.59476
31.44812
26.72053
20.89314
14.40251
7.613658
0.7727507
-5.857714
-12.04058
-17.52318
-22.08196
-25.63246
-28.1454
-29.71413
-30.39025
-30.21947
-29.24791
-27.56028
-25.30031
-22.66064
-19.89488
-17.20582
-14.77912
-12.74043
-11.11787
-9.887489
-8.910569
-7.970823
-6.795128
-5.240791
-3.296623
-1.099253
1.109855
3.144036
4.873796
6.289802
7.353468
8.035392
8.159008
7.590824
6.256838
4.164899
1.451178
-1.793054
-5.475472
-9.603268
-14.04459
-18.47336
-22.28761
-24.72484
-25.21627
-23.59923
-20.25485
-15.97046
-11.61483
-7.806046
-4.747326
-2.278258
-0.1353321
1.826652
3.6151
5.112247
6.256524
7.122629
7.908333
8.771736
9.788927
10.91595
12.09536
13.3185
14.61447
15.97688
17.27774
18.33745
18.90249
18.77491
17.90587
16.39809
14.43489
12.17846
9.771912
7.2924
4.772446
2.229099
-0.3987579
-3.191761
-6.24242
-9.581448
-13.17315
-16.80612
-20.1844
-23.02972
-25.15989
-26.59807
-27.53294
-28.30642
-29.21986
-30.5021
-32.16913
-34.01294
-35.63894
-36.49034
-36.0506
-33.90411
-29.96169
-24.45458
-17.97675
-11.26976
-5.106834
-0.0730896
3.611343
6.002022
7.41523
8.194702
8.62886
8.831253
8.746941
8.302048
7.477219
6.445686
5.433281
4.662582
4.266617
4.25634
4.604599
5.236557
6.159782
7.334167
8.700516
10.04993
11.08531
11.5114
11.13652
10.00286
8.352074
6.552116
4.956108
3.75383
2.876831
2.058167
0.9635468
-0.7082672
-2.961761
-5.60495
-8.249893
-10.55803
-12.31177
-13.47316
-14.18782
-14.7014
-15.3147
-16.22252
-17.47926
-18.90952
-20.10661
-20.50015
-19.50821
-16.7227
-12.1481
-6.212997
0.3868561
6.848709
12.52817
17.08727
20.48363
22.85327
24.4248
25.35788
25.74246
25.73569
25.48929
25.19812
25.00194
24.90874
24.76634
24.40279
23.72865
22.75117
21.67885
20.66969
19.8167
19.08725
18.29707
17.25867
15.86978
14.17055
12.27548
10.38544
8.637115
7.107513
5.79483
4.610046
3.42421
2.106644
0.5544434
-1.336563
-3.570328
-6.080521
-8.762466
-11.42389
-13.95885
-16.32275
-18.57881
-20.83736
-23.19328
-25.58499
-27.79031
-29.42657
-29.96024
-28.9906
-26.23538
-21.74881
-15.83978
-9.046295
-2.053589
4.511322
10.17584
14.72653
18.16061
20.67435
22.51056
23.84961
24.78745
25.24902
25.1741
24.46069
23.16367
21.44495
19.52713
17.77121
16.44897
15.76437
15.74536
16.2923
17.14435
17.95786
18.43604
18.31561
17.5191
16.07919
14.16721
11.95407
9.672638
7.478271
5.416046
3.501343
1.651672
-0.2037659
-2.177856
-4.310944
-6.628021
-9.035065
-11.33829
-13.40039
-15.16171
-16.81335
-18.70139
-21.18161
-24.39139
-28.0864
-31.61002
-34.07062
-34.64249
-32.85175
-28.77481
-22.96243
-16.24438
-9.518616
-3.43869
1.625244
5.596558
8.608459
10.85428
12.5282
13.73462
14.52728
14.88724
14.8468
14.48044
13.99573
13.60144
13.47629
13.70035
14.13602
14.61578
14.92325
14.98325
14.80991
14.53952
14.27695
14.00552
13.59628
12.86163
11.70926
10.16315
8.428711
6.64917
4.902893
3.12381
1.115662
-1.260986
-3.998169
-6.92334
-9.721771
-12.10526
-13.98163
-15.45752
-16.71454
-17.98584
-19.4639
-21.26126
-23.45834
-25.97308
-28.526
-30.56787
-31.39215
-30.24536
-26.78256
-21.1835
-14.22607
-7.037659
-0.617157
4.395325
7.839111
9.892212
10.9079
11.16693
10.89209
10.27621
9.495056
8.803741
8.421082
8.456177
8.858093
9.511047
10.20364
10.82385
11.37527
11.88907
12.46167
13.11127
13.77994
14.30338
14.47034
14.07269
13.03119
11.43155
9.463104
7.404175
5.480042
3.845215
2.509216
1.362396
0.2526245
-1.006866
-2.506927
-4.260132
-6.13858
-7.98056
-9.632996
-11.07312
-12.34937
-13.6088
-15.11633
-17.09293
-19.72781
-22.99158
-26.5889
-29.90948
-32.20038
-32.64886
-30.70834
-26.34778
-20.01691
-12.61841
-5.137482
1.581421
7.123444
11.41879
14.64685
17.05911
18.78262
19.86859
20.34277
20.27759
19.8656
19.35071
18.92804
18.69611
18.63495
18.65042
18.68921
18.73901
18.8385
19.01022
19.21069
19.30588
19.13892
18.55597
17.51553
16.02905
14.16403
12.09332
9.97821
7.97464
6.149811
4.474243
2.838562
1.097076
-0.8634338
-3.021729
-5.218964
-7.228149
-8.880981
-10.14951
-11.18222
-12.23486
-13.60077
-15.53644
-18.07922
-21.13342
-24.39383
-27.34067
-29.33047
-29.69849
-27.91629
-23.84714
-17.83112
-10.60065
-3.071838
3.89325
9.751923
14.30484
17.599
19.82239
21.09949
21.57758
21.37918
20.71875
19.83737
18.99966
18.40836
18.12378
18.10275
18.21194
18.3049
18.31598
18.26569
18.24258
18.35266
18.60645
18.88223
18.94281
18.53586
17.49405
15.85754
13.83514
11.76761
9.975342
8.606934
7.566498
6.58606
5.334381
3.565857
1.266144
-1.381958
-4.020874
-6.346527
-8.214478
-9.734283
-11.12479
-12.6376
-14.43613
-16.54755
-18.93256
-21.50974
-24.16785
-26.70114
-28.76596
-29.83798
-29.37372
-27.04202
-22.8277
-17.15048
-10.74173
-4.351501
1.397064
6.110413
9.701324
12.20575
13.69812
14.30069
14.12665
13.34937
12.22522
11.01678
9.932648
9.097443
8.539185
8.2164
8.089294
8.101288
8.263367
8.546631
8.882874
9.210419
9.416779
9.400085
9.097595
8.505219
7.675415
6.671814
5.574097
4.429169
3.282898
2.188324
1.147491
0.161499
-0.8005676
-1.777954
-2.813507
-3.9888
-5.374969
-7.029724
-8.979645
-11.23718
-13.76822
-16.56567
-19.57385
-22.63327
-25.44525
-27.51074
-28.21799
-27.02579
-23.70416
-18.41412
-11.82498
-4.85437
1.614075
6.973938
11.02158
13.85968
15.72446
16.82446
17.26901
17.09668
16.38269
15.32568
14.23782
13.48441
13.2699
13.63922
14.43582
15.38062
16.2261
16.80698
17.17386
17.37421
17.52835
17.61905
17.49789
17.01245
16.06277
14.67197
12.97824
11.22925
9.543549
7.984131
6.478058
4.864716
2.982941
0.7791138
-1.68573
-4.262482
-6.695129
-8.759003
-10.33511
-11.44617
-12.27307
-13.10846
-14.28845
-16.03036
-18.43695
-21.29849
-24.14966
-26.28989
-26.93188
-25.54181
-21.9426
-16.53729
-10.09708
-3.584961
2.203247
6.806305
10.13232
12.38184
13.79892
14.60941
14.92746
14.81757
14.34033
13.6333
12.85712
12.16736
11.70276
11.5072
11.55112
11.7821
12.11771
12.51358
12.93463
13.36069
13.71429
13.87778
13.7402
13.25562
12.51984
11.70947
11.01764
10.53476
10.19962
9.754639
8.857269
7.203552
4.622437
1.23819
-2.590851
-6.392609
-9.730896
-12.39316
-14.42297
-16.06409
-17.65732
-19.43393
-21.52094
-23.81424
-26.07837
-27.9379
-28.98303
-28.79269
-27.06693
-23.74326
-19.0416
-13.50098
-7.722229
-2.312347
2.349854
6.062531
8.803253
10.64819
11.69751
12.05017
11.83206
11.27011
10.57654
10.01929
9.721191
9.732941
10.01352
10.46063
11.03369
11.67755
12.37357
13.05414
13.58887
13.80481
13.54877
12.76279
11.45831
9.763306
7.819763
5.721191
3.5
1.197418
-1.155823
-3.494568
-5.756012
-7.889648
-9.875748
-11.67265
-13.22232
-14.44548
-15.29836
-15.83142
-16.26326
-16.86101
-17.88921
-19.43643
-21.28743
-22.96854
-23.85316
-23.38313
-21.25978
-17.58058
-12.73657
-7.334167
-2.015823
2.740448
6.62532
9.552872
11.58658
12.8315
13.38274
13.30922
12.66484
11.56581
10.21811
8.903412
7.936325
7.517914
7.666061
8.230881
8.941711
9.602524
10.11305
10.49187
10.75922
10.86607
10.67021
10.02158
8.880569
7.331039
5.600128
3.891724
2.317551
0.844223
-0.6801147
-2.380615
-4.298599
-6.353455
-8.383469
-10.22731
-11.83379
-13.2811
-14.70358
-16.3206
-18.3168
-20.75781
-23.57832
-26.51668
-29.06348
-30.59814
-30.51839
-28.36916
-24.11874
-18.20995
-11.42032
-4.681992
1.17543
5.663315
8.664627
10.34093
11.0182
11.01819
10.57227
9.918381
9.262939
8.768311
8.527908
8.505524
8.630676
8.816559
9.050888
9.322433
9.680161
10.06584
10.36925
10.45929
10.20726
9.539825
8.526688
7.250259
5.839981
4.426819
3.033386
1.639893
0.1985016
-1.387909
-3.234024
-5.302704
-7.488937
-9.597565
-11.44778
-12.97589
-14.2805
-15.52731
-16.90552
-18.58134
-20.50844
-22.5164
-24.23337
-25.17455
-24.8233
-22.81635
-19.00986
-13.70297
-7.539398
-1.315002
4.151245
8.365448
11.19771
12.84512
13.61902
13.83488
13.64499
13.0972
12.2599
11.21062
10.1615
9.321381
8.830597
8.651535
8.690964
8.820129
8.964203
9.136322
9.292023
9.385162
9.344482
9.059265
8.512085
7.755753
6.911743
6.069931
5.276871
4.417892
3.374359
2.08062
0.5037918
-1.250824
-3.081558
-4.881027
-6.598221
-8.208252
-9.749969
-11.27544
-12.87891
-14.73248
-16.87334
-19.24798
-21.53944
-23.24566
-23.76515
-22.6988
-19.95078
-15.8502
-11.00161
-6.067314
-1.62664
2.048004
4.936195
7.152725
8.878342
10.22055
11.21483
11.87482
12.23748
12.35078
12.30875
12.24502
12.20589
12.22588
12.29578
12.33436
12.27728
12.03935
11.60172
10.96608
10.20809
9.322433
8.327423
7.161842
5.731644
3.961716
1.904251
-0.299118
-2.423676
-4.273209
-5.76091
-6.89946
-7.839371
-8.779915
-9.883675
-11.31624
-13.16414
-15.44379
-18.04416
-20.6818
-22.84244
-23.92696
-23.4436
-21.10165
-17.06669
-11.84853
-6.174721
-0.7775955
3.755478
7.112267
9.28437
10.39629
10.78343
10.71738
10.39549
9.93576
9.390869
8.802185
8.217216
7.821342
7.782692
8.207634
9.033363
9.985497
10.69655
10.89712
10.49465
9.557732
8.323364
6.960815
5.552353
4.107269
2.560127
0.8579559
-1.038002
-3.07589
-5.224838
-7.351883
-9.330223
-11.0246
-12.40646
-13.60297
-14.87496
-16.55949
-18.83057
-21.62427
-24.561
-27.00425
-28.2504
-27.69669
-25.09264
-20.58403
-14.69193
-8.156883
-1.78392
3.77549
8.127808
11.14441
13.0042
13.96006
14.31897
14.27326
13.97895
13.46262
12.76383
11.95271
11.09615
10.36076
9.870377
9.728188
9.957603
10.53373
11.26406
11.96538
12.41033
12.38464
11.78475
10.62707
9.006935
7.085411
5.020878
2.827148
0.5
-1.939949
-4.461929
-6.925297
-9.168751
-11.09852
-12.72357
-14.16584
-15.6692
-17.42668
-19.51347
-21.90568
-24.34248
-26.44249
-27.71699
-27.66309
-25.94474
-22.50589
-17.60189
-11.76039
-5.66214
0.1030884
5.044071
8.886505
11.56187
13.1399
13.74817
13.57774
12.79613
11.51904
9.897404
8.09676
6.350193
4.928528
4.118507
4.094742
4.889904
6.331425
8.111271
9.935192
11.54905
12.76771
13.49011
13.65592
13.26289
12.29527
10.83723
8.9841
6.911861
4.75663
2.61388
0.5220222
-1.556667
-3.631908
-5.720695
-7.7677
-9.736717
-11.57921
-13.38648
-15.25741
-17.29513
-19.46029
-21.55291
-23.15292
-23.70494
-22.74168
-19.99833
-15.62365
-10.08936
-4.13406
1.491814
6.19746
9.717693
12.13832
13.62502
14.39457
14.59595
14.3356
13.73841
13.05109
12.51346
12.29876
12.42833
12.73458
13.00545
13.13564
13.12019
13.04526
12.95562
12.78688
12.34638
11.43068
9.922691
7.942989
5.731228
3.52137
1.487091
-0.3396492
-2.027542
-3.66412
-5.294956
-6.933552
-8.481651
-9.845291
-10.97872
-11.84422
-12.51041
-13.13115
-13.90696
-15.02221
-16.60895
-18.55564
-20.54591
-22.08286
-22.52891
-21.37682
-18.42142
-13.84716
-8.201351
-2.289864
3.18462
7.713135
11.13038
13.54837
15.14316
16.09315
16.45109
16.21861
15.37185
14.02412
12.33855
10.59244
9.038292
7.857906
7.142933
6.833225
6.756828
6.714336
6.551708
6.193745
5.732117
5.29393
5.008446
4.871521
4.757282
4.471043
3.774609
2.568764
0.8571014
-1.23851
-3.530067
-5.837219
-8.040859
-10.06756
-11.91897
-13.66684
-15.46227
-17.46232
-19.72643
-22.16811
-24.42873
-25.95967
-26.16009
-24.58677
-21.10768
-16.03327
-10.0018
-3.798229
1.833809
6.36311
9.561924
11.42751
12.14698
12.0202
11.37764
10.52859
9.688965
8.999821
8.501408
8.182892
8.032459
8.075481
8.376488
8.963367
9.814373
10.77581
11.61615
12.14439
12.26283
11.99096
11.45335
10.71712
9.724205
8.358654
6.480125
4.064579
1.29644
-1.482552
-3.912476
-5.800331
-7.181824
-8.336571
-9.573742
-11.14321
-13.11637
-15.44452
-17.98748
-20.59154
-23.03823
-25.00714
-26.01091
-25.52125
-23.15976
-18.9464
-13.29593
-6.990742
-0.9093971
4.273659
8.223564
10.98618
12.76274
13.77188
14.14927
14.00876
13.43389
12.58518
11.66987
10.8578
10.27131
9.93528
9.829292
9.904793
10.14365
10.49881
10.84297
11.02611
10.89144
10.34334
9.417118
8.237549
6.900902
5.438675
3.823723
2.003025
0.0007629395
-2.074871
-4.046787
-5.719727
-7.015495
-7.959003
-8.736832
-9.559776
-10.63853
-12.09958
-13.95127
-16.04484
-18.09246
-19.71463
-20.42734
-19.84624
-17.70754
-14.00477
-9.06337
-3.437632
2.15547
7.064425
10.85184
13.42841
14.94329
15.7152
16.01356
15.99608
15.67439
14.9823
13.88199
12.39995
10.68438
8.909836
7.220619
5.684958
4.292982
2.960388
1.633142
0.3671856
-0.7090931
-1.40802
-1.641912
-1.463182
-1.106472
-0.8742695
-1.009499
-1.598988
-2.500536
