1569658128.6452
1569658128.66082
1569658128.67645
1569658128.69207
1569658128.7077
1569658128.72333
1569658128.73895
1569658128.75458
1569658128.7702
1569658128.78583
1569658128.80145
1569658128.81708
1569658128.83271
1569658128.84833
1569658128.86396
1569658128.87958
1569658128.89521
1569658128.91083
1569658128.92646
1569658128.94209
1569658128.95771
1569658128.97334
1569658128.98896
1569658129.00459
1569658129.02022
1569658129.03584
1569658129.05147
1569658129.06709
1569658129.08272
1569658129.09834
1569658129.11397
1569658129.1296
1569658129.14522
1569658129.16085
1569658129.17647
1569658129.1921
1569658129.20772
1569658129.22335
1569658129.23898
1569658129.2546
1569658129.27023
1569658129.28585
1569658129.30148
1569658129.3171
1569658129.33273
1569658129.34836
1569658129.36398
1569658129.37961
1569658129.39523
1569658129.41086
1569658129.42648
1569658129.44211
1569658129.45774
1569658129.47336
1569658129.48899
1569658129.50461
1569658129.52024
1569658129.53586
1569658129.55149
1569658129.56712
1569658129.58274
1569658129.59837
1569658129.61399
1569658129.62962
1569658129.64524
1569658129.66087
1569658129.6765
1569658129.69212
1569658129.70775
1569658129.72337
1569658129.739
1569658129.75462
1569658129.77025
1569658129.78588
1569658129.8015
1569658129.81713
1569658129.83275
1569658129.84838
1569658129.864
1569658129.87963
1569658129.89526
1569658129.91088
1569658129.92651
1569658129.94213
1569658129.95776
1569658129.97338
1569658129.98901
1569658130.00464
1569658130.02026
1569658130.03589
1569658130.05151
1569658130.06714
1569658130.08276
1569658130.09839
1569658130.11402
1569658130.12964
1569658130.14527
1569658130.16089
1569658130.17652
1569658130.19214
1569658130.20777
1569658130.2234
1569658130.23902
1569658130.25465
1569658130.27027
1569658130.2859
1569658130.30152
1569658130.31715
1569658130.33278
1569658130.3484
1569658130.36403
1569658130.37965
1569658130.39528
1569658130.4109
1569658130.42653
1569658130.44216
1569658130.45778
1569658130.47341
1569658130.48903
1569658130.50466
1569658130.52028
1569658130.53591
1569658130.55154
1569658130.56716
1569658130.58279
1569658130.59841
1569658130.61404
1569658130.62966
1569658130.64529
1569658130.66092
1569658130.67654
1569658130.69217
1569658130.70779
1569658130.72342
1569658130.73904
1569658130.75467
1569658130.7703
1569658130.78592
1569658130.80155
1569658130.81717
1569658130.8328
1569658130.84842
1569658130.86405
1569658130.87968
1569658130.8953
1569658130.91093
1569658130.92655
1569658130.94218
1569658130.9578
1569658130.97343
1569658130.98906
1569658131.00468
1569658131.02031
1569658131.03593
1569658131.05156
1569658131.06718
1569658131.08281
1569658131.09844
1569658131.11406
1569658131.12969
1569658131.14531
1569658131.16094
1569658131.17656
1569658131.19219
1569658131.20782
1569658131.22344
1569658131.23907
1569658131.25469
1569658131.27032
1569658131.28594
1569658131.30157
1569658131.3172
1569658131.33282
1569658131.34845
1569658131.36407
1569658131.3797
1569658131.39532
1569658131.41095
1569658131.42658
1569658131.4422
1569658131.45783
1569658131.47345
1569658131.48908
1569658131.5047
1569658131.52033
1569658131.53596
1569658131.55158
1569658131.56721
1569658131.58283
1569658131.59846
1569658131.61409
1569658131.62971
1569658131.64534
1569658131.66096
1569658131.67659
1569658131.69221
1569658131.70784
1569658131.72347
1569658131.73909
1569658131.75472
1569658131.77034
1569658131.78597
1569658131.80159
1569658131.81722
1569658131.83285
1569658131.84847
1569658131.8641
1569658131.87972
1569658131.89535
1569658131.91097
1569658131.9266
1569658131.94223
1569658131.95785
1569658131.97348
1569658131.9891
1569658132.00473
1569658132.02035
1569658132.03598
1569658132.05161
1569658132.06723
1569658132.08286
1569658132.09848
1569658132.11411
1569658132.12973
1569658132.14536
1569658132.16099
1569658132.17661
1569658132.19224
1569658132.20786
1569658132.22349
1569658132.23911
1569658132.25474
1569658132.27037
1569658132.28599
1569658132.30162
1569658132.31724
1569658132.33287
1569658132.34849
1569658132.36412
1569658132.37975
1569658132.39537
1569658132.411
1569658132.42662
1569658132.44225
1569658132.45787
1569658132.4735
1569658132.48913
1569658132.50475
1569658132.52038
1569658132.536
1569658132.55163
1569658132.56725
1569658132.58288
1569658132.59851
1569658132.61413
1569658132.62976
1569658132.64538
1569658132.66101
1569658132.67663
1569658132.69226
1569658132.70789
1569658132.72351
1569658132.73914
1569658132.75476
1569658132.77039
1569658132.78601
1569658132.80164
1569658132.81727
1569658132.83289
1569658132.84852
1569658132.86414
1569658132.87977
1569658132.89539
1569658132.91102
1569658132.92665
1569658132.94227
1569658132.9579
1569658132.97352
1569658132.98915
1569658133.00477
1569658133.0204
1569658133.03603
1569658133.05165
1569658133.06728
1569658133.0829
1569658133.09853
1569658133.11415
1569658133.12978
1569658133.14541
1569658133.16103
1569658133.17666
1569658133.19228
1569658133.20791
1569658133.22353
1569658133.23916
1569658133.25479
1569658133.27041
1569658133.28604
1569658133.30166
1569658133.31729
1569658133.33291
1569658133.34854
1569658133.36417
1569658133.37979
1569658133.39542
1569658133.41104
1569658133.42667
1569658133.44229
1569658133.45792
1569658133.47355
1569658133.48917
1569658133.5048
1569658133.52042
1569658133.53605
1569658133.55167
1569658133.5673
1569658133.58293
1569658133.59855
1569658133.61418
1569658133.6298
1569658133.64543
1569658133.66105
1569658133.67668
1569658133.69231
1569658133.70793
1569658133.72356
1569658133.73918
1569658133.75481
1569658133.77043
1569658133.78606
1569658133.80169
1569658133.81731
1569658133.83294
1569658133.84856
1569658133.86419
1569658133.87982
1569658133.89544
1569658133.91107
1569658133.92669
1569658133.94232
1569658133.95794
1569658133.97357
1569658133.9892
1569658134.00482
1569658134.02045
1569658134.03607
1569658134.0517
1569658134.06732
1569658134.08295
1569658134.09858
1569658134.1142
1569658134.12983
1569658134.14545
1569658134.16108
1569658134.1767
1569658134.19233
1569658134.20796
1569658134.22358
1569658134.23921
1569658134.25483
1569658134.27046
1569658134.28608
1569658134.30171
1569658134.31734
1569658134.33296
1569658134.34859
1569658134.36421
1569658134.37984
1569658134.39546
1569658134.41109
1569658134.42672
1569658134.44234
1569658134.45797
1569658134.47359
1569658134.48922
1569658134.50484
1569658134.52047
1569658134.5361
1569658134.55172
1569658134.56735
1569658134.58297
1569658134.5986
1569658134.61422
1569658134.62985
1569658134.64548
1569658134.6611
1569658134.67673
1569658134.69235
1569658134.70798
1569658134.7236
1569658134.73923
1569658134.75486
1569658134.77048
1569658134.78611
1569658134.80173
1569658134.81736
1569658134.83298
1569658134.84861
1569658134.86424
1569658134.87986
1569658134.89549
1569658134.91111
1569658134.92674
1569658134.94236
1569658134.95799
1569658134.97362
1569658134.98924
1569658135.00487
1569658135.02049
1569658135.03612
1569658135.05174
1569658135.06737
1569658135.083
1569658135.09862
1569658135.11425
1569658135.12987
1569658135.1455
1569658135.16112
1569658135.17675
1569658135.19238
1569658135.208
1569658135.22363
1569658135.23925
1569658135.25488
1569658135.2705
1569658135.28613
1569658135.30176
1569658135.31738
1569658135.33301
1569658135.34863
1569658135.36426
1569658135.37988
1569658135.39551
1569658135.41114
1569658135.42676
1569658135.44239
1569658135.45801
1569658135.47364
1569658135.48926
1569658135.50489
1569658135.52052
1569658135.53614
1569658135.55177
1569658135.56739
1569658135.58302
1569658135.59864
1569658135.61427
1569658135.6299
1569658135.64552
1569658135.66115
1569658135.67677
1569658135.6924
1569658135.70802
1569658135.72365
1569658135.73928
1569658135.7549
1569658135.77053
1569658135.78615
1569658135.80178
1569658135.8174
1569658135.83303
1569658135.84866
1569658135.86428
1569658135.87991
1569658135.89553
1569658135.91116
1569658135.92678
1569658135.94241
1569658135.95804
1569658135.97366
1569658135.98929
1569658136.00491
1569658136.02054
1569658136.03616
1569658136.05179
1569658136.06742
1569658136.08304
1569658136.09867
1569658136.11429
1569658136.12992
1569658136.14555
1569658136.16117
1569658136.1768
1569658136.19242
1569658136.20805
1569658136.22367
1569658136.2393
1569658136.25493
1569658136.27055
1569658136.28618
1569658136.3018
1569658136.31743
1569658136.33305
1569658136.34868
1569658136.36431
1569658136.37993
1569658136.39556
1569658136.41118
1569658136.42681
1569658136.44243
1569658136.45806
1569658136.47369
1569658136.48931
1569658136.50494
1569658136.52056
1569658136.53619
1569658136.55181
1569658136.56744
1569658136.58307
1569658136.59869
1569658136.61432
1569658136.62994
1569658136.64557
1569658136.66119
1569658136.67682
1569658136.69245
1569658136.70807
1569658136.7237
1569658136.73932
1569658136.75495
1569658136.77057
1569658136.7862
1569658136.80183
1569658136.81745
1569658136.83308
1569658136.8487
1569658136.86433
1569658136.87995
1569658136.89558
1569658136.91121
1569658136.92683
1569658136.94246
1569658136.95808
1569658136.97371
1569658136.98933
1569658137.00496
1569658137.02059
1569658137.03621
1569658137.05184
1569658137.06746
1569658137.08309
1569658137.09871
1569658137.11434
1569658137.12997
1569658137.14559
1569658137.16122
1569658137.17684
1569658137.19247
1569658137.20809
1569658137.22372
1569658137.23935
1569658137.25497
1569658137.2706
1569658137.28622
1569658137.30185
1569658137.31747
1569658137.3331
1569658137.34873
1569658137.36435
1569658137.37998
1569658137.3956
1569658137.41123
1569658137.42685
1569658137.44248
1569658137.45811
1569658137.47373
1569658137.48936
1569658137.50498
1569658137.52061
1569658137.53623
1569658137.55186
1569658137.56749
1569658137.58311
1569658137.59874
1569658137.61436
1569658137.62999
1569658137.64561
1569658137.66124
1569658137.67687
1569658137.69249
1569658137.70812
1569658137.72374
1569658137.73937
1569658137.75499
1569658137.77062
1569658137.78625
1569658137.80187
1569658137.8175
1569658137.83312
1569658137.84875
1569658137.86437
1569658137.88
1569658137.89563
1569658137.91125
1569658137.92688
1569658137.9425
1569658137.95813
1569658137.97375
1569658137.98938
1569658138.00501
1569658138.02063
1569658138.03626
1569658138.05188
1569658138.06751
1569658138.08313
1569658138.09876
1569658138.11439
1569658138.13001
1569658138.14564
1569658138.16126
1569658138.17689
1569658138.19251
1569658138.20814
1569658138.22377
1569658138.23939
1569658138.25502
1569658138.27064
1569658138.28627
1569658138.30189
1569658138.31752
1569658138.33315
1569658138.34877
1569658138.3644
1569658138.38002
1569658138.39565
1569658138.41127
1569658138.4269
1569658138.44253
1569658138.45815
1569658138.47378
1569658138.4894
1569658138.50503
1569658138.52065
1569658138.53628
1569658138.55191
1569658138.56753
1569658138.58316
1569658138.59878
1569658138.61441
1569658138.63003
1569658138.64566
1569658138.66129
1569658138.67691
1569658138.69254
1569658138.70816
1569658138.72379
1569658138.73942
1569658138.75504
1569658138.77067
1569658138.78629
1569658138.80192
1569658138.81754
1569658138.83317
1569658138.8488
1569658138.86442
1569658138.88005
1569658138.89567
1569658138.9113
1569658138.92692
1569658138.94255
1569658138.95818
1569658138.9738
1569658138.98943
1569658139.00505
1569658139.02068
1569658139.0363
1569658139.05193
1569658139.06756
1569658139.08318
1569658139.09881
1569658139.11443
1569658139.13006
1569658139.14568
1569658139.16131
1569658139.17694
1569658139.19256
1569658139.20819
1569658139.22381
1569658139.23944
1569658139.25506
1569658139.27069
1569658139.28632
1569658139.30194
1569658139.31757
1569658139.33319
1569658139.34882
1569658139.36444
1569658139.38007
1569658139.3957
1569658139.41132
1569658139.42695
1569658139.44257
1569658139.4582
1569658139.47382
1569658139.48945
1569658139.50508
1569658139.5207
1569658139.53633
1569658139.55195
1569658139.56758
1569658139.5832
1569658139.59883
1569658139.61446
1569658139.63008
1569658139.64571
1569658139.66133
1569658139.67696
1569658139.69258
1569658139.70821
1569658139.72384
1569658139.73946
1569658139.75509
1569658139.77071
1569658139.78634
1569658139.80196
1569658139.81759
1569658139.83322
1569658139.84884
1569658139.86447
1569658139.88009
1569658139.89572
1569658139.91134
1569658139.92697
1569658139.9426
1569658139.95822
1569658139.97385
1569658139.98947
1569658140.0051
1569658140.02072
1569658140.03635
1569658140.05198
1569658140.0676
1569658140.08323
1569658140.09885
1569658140.11448
1569658140.1301
1569658140.14573
1569658140.16136
1569658140.17698
1569658140.19261
1569658140.20823
1569658140.22386
1569658140.23948
1569658140.25511
1569658140.27074
1569658140.28636
1569658140.30199
1569658140.31761
1569658140.33324
1569658140.34886
1569658140.36449
1569658140.38012
1569658140.39574
1569658140.41137
1569658140.42699
1569658140.44262
1569658140.45824
1569658140.47387
1569658140.4895
1569658140.50512
1569658140.52075
1569658140.53637
1569658140.552
1569658140.56762
1569658140.58325
1569658140.59888
1569658140.6145
1569658140.63013
1569658140.64575
1569658140.66138
1569658140.677
1569658140.69263
1569658140.70826
1569658140.72388
1569658140.73951
1569658140.75513
1569658140.77076
1569658140.78638
1569658140.80201
1569658140.81764
1569658140.83326
1569658140.84889
1569658140.86451
1569658140.88014
1569658140.89576
1569658140.91139
1569658140.92702
1569658140.94264
1569658140.95827
1569658140.97389
1569658140.98952
1569658141.00515
1569658141.02077
1569658141.0364
1569658141.05202
1569658141.06765
1569658141.08327
1569658141.0989
1569658141.11453
1569658141.13015
1569658141.14578
1569658141.1614
1569658141.17703
1569658141.19265
1569658141.20828
1569658141.22391
1569658141.23953
1569658141.25516
1569658141.27078
1569658141.28641
1569658141.30203
1569658141.31766
1569658141.33329
1569658141.34891
1569658141.36454
1569658141.38016
1569658141.39579
1569658141.41141
1569658141.42704
1569658141.44267
1569658141.45829
1569658141.47392
1569658141.48954
1569658141.50517
1569658141.52079
1569658141.53642
1569658141.55205
1569658141.56767
1569658141.5833
1569658141.59892
1569658141.61455
1569658141.63017
1569658141.6458
1569658141.66143
1569658141.67705
1569658141.69268
1569658141.7083
1569658141.72393
1569658141.73955
1569658141.75518
1569658141.77081
1569658141.78643
1569658141.80206
1569658141.81768
1569658141.83331
1569658141.84893
1569658141.86456
1569658141.88019
1569658141.89581
1569658141.91144
1569658141.92706
1569658141.94269
1569658141.95831
1569658141.97394
1569658141.98957
1569658142.00519
1569658142.02082
1569658142.03644
1569658142.05207
1569658142.06769
1569658142.08332
1569658142.09895
1569658142.11457
1569658142.1302
1569658142.14582
1569658142.16145
1569658142.17707
1569658142.1927
1569658142.20833
1569658142.22395
1569658142.23958
1569658142.2552
1569658142.27083
1569658142.28645
1569658142.30208
1569658142.31771
1569658142.33333
1569658142.34896
1569658142.36458
1569658142.38021
1569658142.39583
1569658142.41146
1569658142.42709
1569658142.44271
1569658142.45834
1569658142.47396
1569658142.48959
1569658142.50521
1569658142.52084
1569658142.53647
1569658142.55209
1569658142.56772
1569658142.58334
1569658142.59897
1569658142.61459
1569658142.63022
1569658142.64585
1569658142.66147
1569658142.6771
1569658142.69272
1569658142.70835
1569658142.72397
1569658142.7396
1569658142.75523
1569658142.77085
1569658142.78648
1569658142.8021
1569658142.81773
1569658142.83335
1569658142.84898
1569658142.86461
1569658142.88023
1569658142.89586
1569658142.91148
1569658142.92711
1569658142.94273
1569658142.95836
1569658142.97399
1569658142.98961
1569658143.00524
1569658143.02086
1569658143.03649
1569658143.05211
1569658143.06774
1569658143.08337
1569658143.09899
1569658143.11462
1569658143.13024
1569658143.14587
1569658143.16149
1569658143.17712
1569658143.19275
1569658143.20837
1569658143.224
1569658143.23962
1569658143.25525
1569658143.27087
1569658143.2865
1569658143.30213
1569658143.31775
1569658143.33338
1569658143.349
1569658143.36463
1569658143.38025
1569658143.39588
1569658143.41151
1569658143.42713
1569658143.44276
1569658143.45838
1569658143.47401
1569658143.48963
1569658143.50526
1569658143.52089
1569658143.53651
1569658143.55214
1569658143.56776
1569658143.58339
1569658143.59902
1569658143.61464
1569658143.63027
1569658143.64589
1569658143.66152
1569658143.67714
1569658143.69277
1569658143.7084
1569658143.72402
1569658143.73965
1569658143.75527
1569658143.7709
1569658143.78652
1569658143.80215
1569658143.81778
1569658143.8334
1569658143.84903
1569658143.86465
1569658143.88028
1569658143.8959
1569658143.91153
1569658143.92716
1569658143.94278
1569658143.95841
1569658143.97403
1569658143.98966
1569658144.00528
1569658144.02091
1569658144.03654
1569658144.05216
1569658144.06779
1569658144.08341
1569658144.09904
1569658144.11466
1569658144.13029
1569658144.14592
1569658144.16154
1569658144.17717
1569658144.19279
1569658144.20842
1569658144.22404
1569658144.23967
1569658144.2553
1569658144.27092
1569658144.28655
1569658144.30217
1569658144.3178
1569658144.33342
1569658144.34905
1569658144.36468
1569658144.3803
1569658144.39593
1569658144.41155
1569658144.42718
1569658144.4428
1569658144.45843
1569658144.47406
1569658144.48968
1569658144.50531
1569658144.52093
1569658144.53656
1569658144.55218
1569658144.56781
1569658144.58344
1569658144.59906
1569658144.61469
1569658144.63031
1569658144.64594
1569658144.66156
1569658144.67719
1569658144.69282
1569658144.70844
1569658144.72407
1569658144.73969
1569658144.75532
1569658144.77094
1569658144.78657
1569658144.8022
1569658144.81782
1569658144.83345
1569658144.84907
1569658144.8647
1569658144.88032
1569658144.89595
1569658144.91158
1569658144.9272
1569658144.94283
1569658144.95845
1569658144.97408
1569658144.9897
1569658145.00533
1569658145.02096
1569658145.03658
1569658145.05221
1569658145.06783
1569658145.08346
1569658145.09908
1569658145.11471
1569658145.13034
1569658145.14596
1569658145.16159
1569658145.17721
1569658145.19284
1569658145.20846
1569658145.22409
1569658145.23972
1569658145.25534
1569658145.27097
1569658145.28659
1569658145.30222
1569658145.31784
1569658145.33347
1569658145.3491
1569658145.36472
1569658145.38035
1569658145.39597
1569658145.4116
1569658145.42722
1569658145.44285
1569658145.45848
1569658145.4741
1569658145.48973
1569658145.50535
1569658145.52098
1569658145.5366
1569658145.55223
1569658145.56786
1569658145.58348
1569658145.59911
1569658145.61473
1569658145.63036
1569658145.64598
1569658145.66161
1569658145.67724
1569658145.69286
1569658145.70849
1569658145.72411
1569658145.73974
1569658145.75536
1569658145.77099
1569658145.78662
1569658145.80224
1569658145.81787
1569658145.83349
1569658145.84912
1569658145.86475
1569658145.88037
1569658145.896
1569658145.91162
1569658145.92725
1569658145.94287
1569658145.9585
1569658145.97413
1569658145.98975
1569658146.00538
1569658146.021
1569658146.03663
1569658146.05225
1569658146.06788
1569658146.08351
1569658146.09913
1569658146.11476
1569658146.13038
1569658146.14601
1569658146.16163
1569658146.17726
1569658146.19289
1569658146.20851
1569658146.22414
1569658146.23976
1569658146.25539
1569658146.27101
1569658146.28664
1569658146.30227
1569658146.31789
1569658146.33352
1569658146.34914
1569658146.36477
1569658146.38039
1569658146.39602
1569658146.41165
1569658146.42727
1569658146.4429
1569658146.45852
1569658146.47415
1569658146.48977
1569658146.5054
1569658146.52103
1569658146.53665
1569658146.55228
1569658146.5679
1569658146.58353
1569658146.59915
1569658146.61478
1569658146.63041
1569658146.64603
1569658146.66166
1569658146.67728
1569658146.69291
1569658146.70853
1569658146.72416
1569658146.73979
1569658146.75541
1569658146.77104
1569658146.78666
1569658146.80229
1569658146.81791
1569658146.83354
1569658146.84917
1569658146.86479
1569658146.88042
1569658146.89604
1569658146.91167
1569658146.92729
1569658146.94292
1569658146.95855
1569658146.97417
1569658146.9898
1569658147.00542
1569658147.02105
1569658147.03667
1569658147.0523
1569658147.06793
1569658147.08355
1569658147.09918
1569658147.1148
1569658147.13043
1569658147.14605
1569658147.16168
1569658147.17731
1569658147.19293
1569658147.20856
1569658147.22418
1569658147.23981
1569658147.25543
1569658147.27106
1569658147.28669
1569658147.30231
1569658147.31794
1569658147.33356
1569658147.34919
1569658147.36481
1569658147.38044
1569658147.39607
1569658147.41169
1569658147.42732
1569658147.44294
1569658147.45857
1569658147.47419
1569658147.48982
1569658147.50545
1569658147.52107
1569658147.5367
1569658147.55232
1569658147.56795
1569658147.58357
1569658147.5992
1569658147.61483
1569658147.63045
1569658147.64608
1569658147.6617
1569658147.67733
1569658147.69295
1569658147.70858
1569658147.72421
1569658147.73983
1569658147.75546
1569658147.77108
1569658147.78671
1569658147.80233
1569658147.81796
1569658147.83359
1569658147.84921
1569658147.86484
1569658147.88046
1569658147.89609
1569658147.91171
1569658147.92734
1569658147.94297
1569658147.95859
1569658147.97422
1569658147.98984
1569658148.00547
1569658148.0211
1569658148.03672
1569658148.05235
1569658148.06797
1569658148.0836
1569658148.09922
1569658148.11485
1569658148.13048
1569658148.1461
1569658148.16173
1569658148.17735
1569658148.19298
1569658148.2086
1569658148.22423
1569658148.23986
1569658148.25548
1569658148.27111
1569658148.28673
1569658148.30236
1569658148.31798
1569658148.33361
1569658148.34924
1569658148.36486
1569658148.38049
1569658148.39611
1569658148.41174
1569658148.42736
1569658148.44299
1569658148.45862
1569658148.47424
1569658148.48987
1569658148.50549
1569658148.52112
1569658148.53674
1569658148.55237
1569658148.568
1569658148.58362
1569658148.59925
1569658148.61487
1569658148.6305
1569658148.64612
1569658148.66175
1569658148.67738
1569658148.693
1569658148.70863
1569658148.72425
1569658148.73988
1569658148.7555
1569658148.77113
1569658148.78676
1569658148.80238
1569658148.81801
1569658148.83363
1569658148.84926
1569658148.86488
1569658148.88051
1569658148.89614
1569658148.91176
1569658148.92739
1569658148.94301
1569658148.95864
1569658148.97426
1569658148.98989
1569658149.00552
1569658149.02114
1569658149.03677
1569658149.05239
1569658149.06802
1569658149.08364
1569658149.09927
1569658149.1149
1569658149.13052
1569658149.14615
1569658149.16177
1569658149.1774
1569658149.19302
1569658149.20865
1569658149.22428
1569658149.2399
1569658149.25553
1569658149.27115
1569658149.28678
1569658149.3024
1569658149.31803
1569658149.33366
1569658149.34928
1569658149.36491
1569658149.38053
1569658149.39616
1569658149.41178
1569658149.42741
1569658149.44304
1569658149.45866
1569658149.47429
1569658149.48991
1569658149.50554
1569658149.52116
1569658149.53679
1569658149.55242
1569658149.56804
1569658149.58367
1569658149.59929
1569658149.61492
1569658149.63054
1569658149.64617
1569658149.6618
1569658149.67742
1569658149.69305
1569658149.70867
1569658149.7243
1569658149.73992
1569658149.75555
1569658149.77118
1569658149.7868
1569658149.80243
1569658149.81805
1569658149.83368
1569658149.8493
1569658149.86493
1569658149.88056
1569658149.89618
1569658149.91181
1569658149.92743
1569658149.94306
1569658149.95868
1569658149.97431
1569658149.98994
1569658150.00556
1569658150.02119
1569658150.03681
1569658150.05244
1569658150.06806
1569658150.08369
1569658150.09932
1569658150.11494
1569658150.13057
1569658150.14619
1569658150.16182
1569658150.17744
1569658150.19307
1569658150.2087
1569658150.22432
1569658150.23995
1569658150.25557
1569658150.2712
1569658150.28682
1569658150.30245
1569658150.31808
1569658150.3337
1569658150.34933
1569658150.36495
1569658150.38058
1569658150.3962
1569658150.41183
1569658150.42746
1569658150.44308
1569658150.45871
1569658150.47433
1569658150.48996
1569658150.50558
1569658150.52121
1569658150.53684
1569658150.55246
1569658150.56809
1569658150.58371
1569658150.59934
1569658150.61496
1569658150.63059
1569658150.64622
1569658150.66184
1569658150.67747
1569658150.69309
1569658150.70872
1569658150.72435
1569658150.73997
1569658150.7556
1569658150.77122
1569658150.78685
1569658150.80247
1569658150.8181
1569658150.83373
1569658150.84935
1569658150.86498
1569658150.8806
1569658150.89623
1569658150.91185
1569658150.92748
1569658150.94311
1569658150.95873
1569658150.97436
1569658150.98998
1569658151.00561
1569658151.02123
1569658151.03686
1569658151.05249
1569658151.06811
1569658151.08374
1569658151.09936
1569658151.11499
1569658151.13061
1569658151.14624
1569658151.16187
1569658151.17749
1569658151.19312
1569658151.20874
1569658151.22437
1569658151.23999
1569658151.25562
1569658151.27125
1569658151.28687
1569658151.3025
1569658151.31812
1569658151.33375
1569658151.34937
1569658151.365
1569658151.38063
1569658151.39625
1569658151.41188
1569658151.4275
1569658151.44313
1569658151.45875
1569658151.47438
1569658151.49001
1569658151.50563
1569658151.52126
1569658151.53688
1569658151.55251
1569658151.56813
1569658151.58376
1569658151.59939
1569658151.61501
1569658151.63064
1569658151.64626
1569658151.66189
1569658151.67751
1569658151.69314
1569658151.70877
1569658151.72439
1569658151.74002
1569658151.75564
1569658151.77127
1569658151.78689
1569658151.80252
1569658151.81815
1569658151.83377
1569658151.8494
1569658151.86502
1569658151.88065
1569658151.89627
1569658151.9119
1569658151.92753
1569658151.94315
1569658151.95878
1569658151.9744
1569658151.99003
1569658152.00565
1569658152.02128
1569658152.03691
1569658152.05253
1569658152.06816
1569658152.08378
1569658152.09941
1569658152.11503
1569658152.13066
1569658152.14629
1569658152.16191
1569658152.17754
1569658152.19316
1569658152.20879
1569658152.22441
1569658152.24004
1569658152.25567
1569658152.27129
1569658152.28692
1569658152.30254
1569658152.31817
1569658152.33379
1569658152.34942
1569658152.36505
1569658152.38067
1569658152.3963
1569658152.41192
1569658152.42755
1569658152.44317
1569658152.4588
1569658152.47443
1569658152.49005
1569658152.50568
1569658152.5213
1569658152.53693
1569658152.55255
1569658152.56818
1569658152.58381
1569658152.59943
1569658152.61506
1569658152.63068
1569658152.64631
1569658152.66193
1569658152.67756
1569658152.69319
1569658152.70881
1569658152.72444
1569658152.74006
1569658152.75569
1569658152.77131
1569658152.78694
1569658152.80257
1569658152.81819
1569658152.83382
1569658152.84944
1569658152.86507
1569658152.8807
1569658152.89632
1569658152.91195
1569658152.92757
1569658152.9432
1569658152.95882
1569658152.97445
1569658152.99008
1569658153.0057
1569658153.02133
1569658153.03695
1569658153.05258
1569658153.0682
1569658153.08383
1569658153.09946
1569658153.11508
1569658153.13071
1569658153.14633
1569658153.16196
1569658153.17758
1569658153.19321
1569658153.20884
1569658153.22446
1569658153.24009
1569658153.25571
1569658153.27134
1569658153.28696
1569658153.30259
1569658153.31822
1569658153.33384
1569658153.34947
1569658153.36509
1569658153.38072
1569658153.39634
1569658153.41197
1569658153.4276
1569658153.44322
1569658153.45885
1569658153.47447
1569658153.4901
1569658153.50572
1569658153.52135
1569658153.53698
1569658153.5526
1569658153.56823
1569658153.58385
1569658153.59948
1569658153.6151
1569658153.63073
1569658153.64636
1569658153.66198
1569658153.67761
1569658153.69323
1569658153.70886
1569658153.72448
1569658153.74011
1569658153.75574
1569658153.77136
1569658153.78699
1569658153.80261
1569658153.81824
1569658153.83386
1569658153.84949
1569658153.86512
1569658153.88074
1569658153.89637
1569658153.91199
1569658153.92762
1569658153.94324
1569658153.95887
1569658153.9745
1569658153.99012
1569658154.00575
1569658154.02137
1569658154.037
1569658154.05262
1569658154.06825
1569658154.08388
1569658154.0995
1569658154.11513
1569658154.13075
1569658154.14638
1569658154.162
1569658154.17763
1569658154.19326
1569658154.20888
1569658154.22451
1569658154.24013
1569658154.25576
1569658154.27138
1569658154.28701
1569658154.30264
1569658154.31826
1569658154.33389
1569658154.34951
1569658154.36514
1569658154.38076
1569658154.39639
1569658154.41202
1569658154.42764
1569658154.44327
1569658154.45889
1569658154.47452
1569658154.49014
1569658154.50577
1569658154.5214
1569658154.53702
1569658154.55265
1569658154.56827
1569658154.5839
1569658154.59952
1569658154.61515
1569658154.63078
1569658154.6464
1569658154.66203
1569658154.67765
1569658154.69328
1569658154.7089
1569658154.72453
1569658154.74016
1569658154.75578
1569658154.77141
1569658154.78703
1569658154.80266
1569658154.81828
1569658154.83391
1569658154.84954
1569658154.86516
1569658154.88079
1569658154.89641
1569658154.91204
1569658154.92766
1569658154.94329
1569658154.95892
1569658154.97454
1569658154.99017
1569658155.00579
1569658155.02142
1569658155.03704
1569658155.05267
1569658155.0683
1569658155.08392
1569658155.09955
1569658155.11517
1569658155.1308
1569658155.14643
1569658155.16205
1569658155.17768
1569658155.1933
1569658155.20893
1569658155.22455
1569658155.24018
1569658155.25581
1569658155.27143
1569658155.28706
1569658155.30268
1569658155.31831
1569658155.33393
1569658155.34956
1569658155.36519
1569658155.38081
1569658155.39644
1569658155.41206
1569658155.42769
1569658155.44331
1569658155.45894
1569658155.47457
1569658155.49019
1569658155.50582
1569658155.52144
1569658155.53707
1569658155.55269
1569658155.56832
1569658155.58395
1569658155.59957
1569658155.6152
1569658155.63082
1569658155.64645
1569658155.66207
1569658155.6777
1569658155.69333
1569658155.70895
1569658155.72458
1569658155.7402
1569658155.75583
1569658155.77145
1569658155.78708
1569658155.80271
1569658155.81833
1569658155.83396
1569658155.84958
1569658155.86521
1569658155.88083
1569658155.89646
1569658155.91209
1569658155.92771
1569658155.94334
1569658155.95896
1569658155.97459
1569658155.99021
1569658156.00584
1569658156.02147
1569658156.03709
1569658156.05272
1569658156.06834
1569658156.08397
1569658156.09959
1569658156.11522
1569658156.13085
1569658156.14647
1569658156.1621
1569658156.17772
1569658156.19335
1569658156.20897
1569658156.2246
1569658156.24023
1569658156.25585
1569658156.27148
1569658156.2871
1569658156.30273
1569658156.31835
1569658156.33398
1569658156.34961
1569658156.36523
1569658156.38086
1569658156.39648
1569658156.41211
1569658156.42773
1569658156.44336
1569658156.45899
1569658156.47461
1569658156.49024
1569658156.50586
1569658156.52149
1569658156.53711
1569658156.55274
1569658156.56837
1569658156.58399
1569658156.59962
1569658156.61524
1569658156.63087
1569658156.64649
1569658156.66212
1569658156.67775
1569658156.69337
1569658156.709
1569658156.72462
1569658156.74025
1569658156.75587
1569658156.7715
1569658156.78713
1569658156.80275
1569658156.81838
1569658156.834
1569658156.84963
1569658156.86525
1569658156.88088
1569658156.89651
1569658156.91213
1569658156.92776
1569658156.94338
1569658156.95901
1569658156.97463
1569658156.99026
1569658157.00589
1569658157.02151
1569658157.03714
1569658157.05276
1569658157.06839
1569658157.08401
1569658157.09964
1569658157.11527
1569658157.13089
1569658157.14652
1569658157.16214
1569658157.17777
1569658157.19339
1569658157.20902
1569658157.22465
1569658157.24027
1569658157.2559
1569658157.27152
1569658157.28715
1569658157.30277
1569658157.3184
1569658157.33403
1569658157.34965
1569658157.36528
1569658157.3809
1569658157.39653
1569658157.41215
1569658157.42778
1569658157.44341
1569658157.45903
1569658157.47466
1569658157.49028
1569658157.50591
1569658157.52153
1569658157.53716
1569658157.55279
1569658157.56841
1569658157.58404
1569658157.59966
1569658157.61529
1569658157.63091
1569658157.64654
1569658157.66217
1569658157.67779
1569658157.69342
1569658157.70904
1569658157.72467
1569658157.7403
1569658157.75592
1569658157.77155
1569658157.78717
1569658157.8028
1569658157.81842
1569658157.83405
1569658157.84968
1569658157.8653
1569658157.88093
1569658157.89655
1569658157.91218
1569658157.9278
1569658157.94343
1569658157.95906
1569658157.97468
1569658157.99031
1569658158.00593
1569658158.02156
1569658158.03718
1569658158.05281
1569658158.06844
1569658158.08406
1569658158.09969
1569658158.11531
1569658158.13094
1569658158.14656
1569658158.16219
1569658158.17782
1569658158.19344
1569658158.20907
1569658158.22469
1569658158.24032
1569658158.25594
1569658158.27157
1569658158.2872
1569658158.30282
1569658158.31845
1569658158.33407
1569658158.3497
1569658158.36532
1569658158.38095
1569658158.39658
1569658158.4122
1569658158.42783
1569658158.44345
1569658158.45908
1569658158.4747
1569658158.49033
1569658158.50596
1569658158.52158
1569658158.53721
1569658158.55283
1569658158.56846
1569658158.58408
1569658158.59971
1569658158.61534
1569658158.63096
1569658158.64659
1569658158.66221
1569658158.67784
1569658158.69346
1569658158.70909
1569658158.72472
1569658158.74034
1569658158.75597
1569658158.77159
1569658158.78722
1569658158.80284
1569658158.81847
1569658158.8341
1569658158.84972
1569658158.86535
1569658158.88097
1569658158.8966
1569658158.91222
1569658158.92785
1569658158.94348
1569658158.9591
1569658158.97473
1569658158.99035
1569658159.00598
1569658159.0216
1569658159.03723
1569658159.05286
1569658159.06848
1569658159.08411
1569658159.09973
1569658159.11536
1569658159.13098
1569658159.14661
1569658159.16224
1569658159.17786
1569658159.19349
1569658159.20911
1569658159.22474
1569658159.24036
1569658159.25599
1569658159.27162
1569658159.28724
1569658159.30287
1569658159.31849
1569658159.33412
1569658159.34974
1569658159.36537
1569658159.381
1569658159.39662
1569658159.41225
1569658159.42787
1569658159.4435
1569658159.45912
1569658159.47475
1569658159.49038
1569658159.506
1569658159.52163
1569658159.53725
1569658159.55288
1569658159.5685
1569658159.58413
1569658159.59976
1569658159.61538
1569658159.63101
1569658159.64663
1569658159.66226
1569658159.67788
1569658159.69351
1569658159.70914
1569658159.72476
1569658159.74039
1569658159.75601
1569658159.77164
1569658159.78726
1569658159.80289
1569658159.81852
1569658159.83414
1569658159.84977
1569658159.86539
1569658159.88102
1569658159.89664
1569658159.91227
1569658159.9279
1569658159.94352
1569658159.95915
1569658159.97477
1569658159.9904
1569658160.00603
1569658160.02165
1569658160.03728
1569658160.0529
1569658160.06853
1569658160.08415
1569658160.09978
1569658160.11541
1569658160.13103
1569658160.14666
1569658160.16228
1569658160.17791
1569658160.19353
1569658160.20916
1569658160.22479
1569658160.24041
1569658160.25604
1569658160.27166
1569658160.28729
1569658160.30291
1569658160.31854
1569658160.33417
1569658160.34979
1569658160.36542
1569658160.38104
1569658160.39667
1569658160.41229
1569658160.42792
1569658160.44355
1569658160.45917
1569658160.4748
1569658160.49042
1569658160.50605
1569658160.52167
1569658160.5373
1569658160.55293
1569658160.56855
1569658160.58418
1569658160.5998
1569658160.61543
1569658160.63105
1569658160.64668
1569658160.66231
1569658160.67793
1569658160.69356
1569658160.70918
1569658160.72481
1569658160.74043
1569658160.75606
1569658160.77169
1569658160.78731
1569658160.80294
1569658160.81856
1569658160.83419
1569658160.84981
1569658160.86544
1569658160.88107
1569658160.89669
1569658160.91232
1569658160.92794
1569658160.94357
1569658160.95919
1569658160.97482
1569658160.99045
1569658161.00607
1569658161.0217
1569658161.03732
1569658161.05295
1569658161.06857
1569658161.0842
1569658161.09983
1569658161.11545
1569658161.13108
1569658161.1467
1569658161.16233
1569658161.17795
1569658161.19358
1569658161.20921
1569658161.22483
1569658161.24046
1569658161.25608
1569658161.27171
1569658161.28733
1569658161.30296
1569658161.31859
1569658161.33421
1569658161.34984
1569658161.36546
1569658161.38109
1569658161.39671
1569658161.41234
1569658161.42797
1569658161.44359
1569658161.45922
1569658161.47484
1569658161.49047
1569658161.50609
1569658161.52172
1569658161.53735
1569658161.55297
1569658161.5686
1569658161.58422
1569658161.59985
1569658161.61547
1569658161.6311
1569658161.64673
1569658161.66235
1569658161.67798
1569658161.6936
1569658161.70923
1569658161.72485
1569658161.74048
1569658161.75611
1569658161.77173
1569658161.78736
1569658161.80298
1569658161.81861
1569658161.83423
1569658161.84986
1569658161.86549
1569658161.88111
1569658161.89674
1569658161.91236
1569658161.92799
1569658161.94361
1569658161.95924
1569658161.97487
1569658161.99049
1569658162.00612
1569658162.02174
1569658162.03737
1569658162.05299
1569658162.06862
1569658162.08425
1569658162.09987
1569658162.1155
1569658162.13112
1569658162.14675
1569658162.16237
1569658162.178
1569658162.19363
1569658162.20925
1569658162.22488
1569658162.2405
1569658162.25613
1569658162.27175
1569658162.28738
1569658162.30301
1569658162.31863
1569658162.33426
1569658162.34988
1569658162.36551
1569658162.38113
1569658162.39676
1569658162.41239
1569658162.42801
1569658162.44364
1569658162.45926
1569658162.47489
1569658162.49051
1569658162.50614
1569658162.52177
1569658162.53739
1569658162.55302
1569658162.56864
1569658162.58427
1569658162.5999
1569658162.61552
1569658162.63115
1569658162.64677
1569658162.6624
1569658162.67802
1569658162.69365
1569658162.70928
1569658162.7249
1569658162.74053
1569658162.75615
1569658162.77178
1569658162.7874
1569658162.80303
1569658162.81866
1569658162.83428
1569658162.84991
1569658162.86553
1569658162.88116
1569658162.89678
1569658162.91241
1569658162.92804
1569658162.94366
1569658162.95929
1569658162.97491
1569658162.99054
1569658163.00616
1569658163.02179
1569658163.03742
1569658163.05304
1569658163.06867
1569658163.08429
1569658163.09992
1569658163.11554
1569658163.13117
1569658163.1468
1569658163.16242
1569658163.17805
1569658163.19367
1569658163.2093
1569658163.22492
1569658163.24055
1569658163.25618
1569658163.2718
1569658163.28743
1569658163.30305
1569658163.31868
1569658163.3343
1569658163.34993
1569658163.36556
1569658163.38118
1569658163.39681
1569658163.41243
1569658163.42806
1569658163.44368
1569658163.45931
1569658163.47494
1569658163.49056
1569658163.50619
1569658163.52181
1569658163.53744
1569658163.55306
1569658163.56869
1569658163.58432
1569658163.59994
1569658163.61557
1569658163.63119
1569658163.64682
1569658163.66244
1569658163.67807
1569658163.6937
1569658163.70932
1569658163.72495
1569658163.74057
1569658163.7562
1569658163.77182
1569658163.78745
1569658163.80308
1569658163.8187
1569658163.83433
1569658163.84995
1569658163.86558
1569658163.8812
1569658163.89683
1569658163.91246
1569658163.92808
1569658163.94371
1569658163.95933
1569658163.97496
1569658163.99058
1569658164.00621
1569658164.02184
1569658164.03746
1569658164.05309
1569658164.06871
1569658164.08434
1569658164.09996
1569658164.11559
1569658164.13122
1569658164.14684
1569658164.16247
1569658164.17809
1569658164.19372
1569658164.20934
1569658164.22497
1569658164.2406
1569658164.25622
1569658164.27185
1569658164.28747
1569658164.3031
1569658164.31872
1569658164.33435
1569658164.34998
1569658164.3656
1569658164.38123
1569658164.39685
1569658164.41248
1569658164.4281
1569658164.44373
1569658164.45936
1569658164.47498
1569658164.49061
1569658164.50623
1569658164.52186
1569658164.53748
1569658164.55311
1569658164.56874
1569658164.58436
1569658164.59999
1569658164.61561
1569658164.63124
1569658164.64686
1569658164.66249
1569658164.67812
1569658164.69374
1569658164.70937
1569658164.72499
1569658164.74062
1569658164.75624
1569658164.77187
1569658164.7875
1569658164.80312
1569658164.81875
1569658164.83437
1569658164.85
1569658164.86563
1569658164.88125
1569658164.89688
1569658164.9125
1569658164.92813
1569658164.94375
1569658164.95938
1569658164.97501
1569658164.99063
1569658165.00626
1569658165.02188
1569658165.03751
1569658165.05313
1569658165.06876
1569658165.08439
1569658165.10001
1569658165.11564
1569658165.13126
1569658165.14689
1569658165.16251
1569658165.17814
1569658165.19377
1569658165.20939
1569658165.22502
1569658165.24064
1569658165.25627
1569658165.27189
1569658165.28752
1569658165.30315
1569658165.31877
1569658165.3344
1569658165.35002
1569658165.36565
1569658165.38127
1569658165.3969
1569658165.41253
1569658165.42815
1569658165.44378
1569658165.4594
1569658165.47503
1569658165.49065
1569658165.50628
1569658165.52191
1569658165.53753
1569658165.55316
1569658165.56878
1569658165.58441
1569658165.60003
1569658165.61566
1569658165.63129
1569658165.64691
1569658165.66254
1569658165.67816
1569658165.69379
1569658165.70941
1569658165.72504
1569658165.74067
1569658165.75629
1569658165.77192
1569658165.78754
1569658165.80317
1569658165.81879
1569658165.83442
1569658165.85005
1569658165.86567
1569658165.8813
1569658165.89692
1569658165.91255
1569658165.92817
1569658165.9438
1569658165.95943
1569658165.97505
1569658165.99068
1569658166.0063
1569658166.02193
1569658166.03755
1569658166.05318
1569658166.06881
1569658166.08443
1569658166.10006
1569658166.11568
1569658166.13131
1569658166.14693
1569658166.16256
1569658166.17819
1569658166.19381
1569658166.20944
1569658166.22506
1569658166.24069
1569658166.25631
1569658166.27194
1569658166.28757
1569658166.30319
1569658166.31882
1569658166.33444
1569658166.35007
1569658166.36569
1569658166.38132
1569658166.39695
1569658166.41257
1569658166.4282
1569658166.44382
1569658166.45945
1569658166.47507
1569658166.4907
1569658166.50633
1569658166.52195
1569658166.53758
1569658166.5532
1569658166.56883
1569658166.58445
1569658166.60008
1569658166.61571
1569658166.63133
1569658166.64696
1569658166.66258
1569658166.67821
1569658166.69383
1569658166.70946
1569658166.72509
1569658166.74071
1569658166.75634
1569658166.77196
1569658166.78759
1569658166.80321
1569658166.81884
1569658166.83447
1569658166.85009
1569658166.86572
1569658166.88134
1569658166.89697
1569658166.91259
1569658166.92822
1569658166.94385
1569658166.95947
1569658166.9751
1569658166.99072
1569658167.00635
1569658167.02197
1569658167.0376
1569658167.05323
1569658167.06885
1569658167.08448
1569658167.1001
1569658167.11573
1569658167.13136
1569658167.14698
1569658167.16261
1569658167.17823
1569658167.19386
1569658167.20948
1569658167.22511
1569658167.24074
1569658167.25636
1569658167.27199
1569658167.28761
1569658167.30324
1569658167.31886
1569658167.33449
1569658167.35012
1569658167.36574
1569658167.38137
1569658167.39699
1569658167.41262
1569658167.42824
1569658167.44387
1569658167.4595
1569658167.47512
1569658167.49075
1569658167.50637
1569658167.522
1569658167.53762
1569658167.55325
1569658167.56888
1569658167.5845
1569658167.60013
1569658167.61575
1569658167.63138
1569658167.647
1569658167.66263
1569658167.67826
1569658167.69388
1569658167.70951
1569658167.72513
1569658167.74076
1569658167.75638
1569658167.77201
1569658167.78764
1569658167.80326
1569658167.81889
1569658167.83451
1569658167.85014
1569658167.86576
1569658167.88139
1569658167.89702
1569658167.91264
1569658167.92827
1569658167.94389
1569658167.95952
1569658167.97514
1569658167.99077
1569658168.0064
1569658168.02202
1569658168.03765
1569658168.05327
1569658168.0689
1569658168.08452
1569658168.10015
1569658168.11578
1569658168.1314
1569658168.14703
1569658168.16265
1569658168.17828
1569658168.1939
1569658168.20953
1569658168.22516
1569658168.24078
1569658168.25641
1569658168.27203
1569658168.28766
1569658168.30328
1569658168.31891
1569658168.33454
1569658168.35016
1569658168.36579
1569658168.38141
1569658168.39704
1569658168.41266
1569658168.42829
1569658168.44392
1569658168.45954
1569658168.47517
1569658168.49079
1569658168.50642
1569658168.52204
1569658168.53767
1569658168.5533
1569658168.56892
1569658168.58455
1569658168.60017
1569658168.6158
1569658168.63142
1569658168.64705
1569658168.66268
1569658168.6783
1569658168.69393
1569658168.70955
1569658168.72518
1569658168.7408
1569658168.75643
1569658168.77206
1569658168.78768
1569658168.80331
1569658168.81893
1569658168.83456
1569658168.85018
1569658168.86581
1569658168.88144
1569658168.89706
1569658168.91269
1569658168.92831
1569658168.94394
1569658168.95956
1569658168.97519
1569658168.99082
1569658169.00644
1569658169.02207
1569658169.03769
1569658169.05332
1569658169.06894
1569658169.08457
1569658169.1002
1569658169.11582
1569658169.13145
1569658169.14707
1569658169.1627
1569658169.17832
1569658169.19395
1569658169.20958
1569658169.2252
1569658169.24083
1569658169.25645
1569658169.27208
1569658169.2877
1569658169.30333
1569658169.31896
1569658169.33458
1569658169.35021
1569658169.36583
1569658169.38146
1569658169.39708
1569658169.41271
1569658169.42834
1569658169.44396
1569658169.45959
1569658169.47521
1569658169.49084
1569658169.50646
1569658169.52209
1569658169.53772
1569658169.55334
1569658169.56897
1569658169.58459
1569658169.60022
1569658169.61584
1569658169.63147
1569658169.6471
1569658169.66272
1569658169.67835
1569658169.69397
1569658169.7096
1569658169.72523
1569658169.74085
1569658169.75648
1569658169.7721
1569658169.78773
1569658169.80335
1569658169.81898
1569658169.83461
1569658169.85023
1569658169.86586
1569658169.88148
1569658169.89711
1569658169.91273
1569658169.92836
1569658169.94399
1569658169.95961
1569658169.97524
1569658169.99086
1569658170.00649
1569658170.02211
1569658170.03774
1569658170.05337
1569658170.06899
1569658170.08462
1569658170.10024
1569658170.11587
1569658170.13149
1569658170.14712
1569658170.16275
1569658170.17837
1569658170.194
1569658170.20962
1569658170.22525
1569658170.24087
1569658170.2565
1569658170.27213
1569658170.28775
1569658170.30338
1569658170.319
1569658170.33463
1569658170.35025
1569658170.36588
1569658170.38151
1569658170.39713
1569658170.41276
1569658170.42838
1569658170.44401
1569658170.45963
1569658170.47526
1569658170.49089
1569658170.50651
1569658170.52214
1569658170.53776
1569658170.55339
1569658170.56901
1569658170.58464
1569658170.60027
1569658170.61589
1569658170.63152
1569658170.64714
1569658170.66277
1569658170.67839
1569658170.69402
1569658170.70965
1569658170.72527
1569658170.7409
1569658170.75652
1569658170.77215
1569658170.78777
1569658170.8034
1569658170.81903
1569658170.83465
1569658170.85028
1569658170.8659
1569658170.88153
1569658170.89715
1569658170.91278
1569658170.92841
1569658170.94403
1569658170.95966
1569658170.97528
1569658170.99091
1569658171.00653
1569658171.02216
1569658171.03779
1569658171.05341
1569658171.06904
1569658171.08466
1569658171.10029
1569658171.11591
1569658171.13154
1569658171.14717
1569658171.16279
1569658171.17842
1569658171.19404
1569658171.20967
1569658171.22529
1569658171.24092
1569658171.25655
1569658171.27217
1569658171.2878
1569658171.30342
1569658171.31905
1569658171.33467
1569658171.3503
1569658171.36593
1569658171.38155
1569658171.39718
1569658171.4128
1569658171.42843
1569658171.44405
1569658171.45968
1569658171.47531
1569658171.49093
1569658171.50656
1569658171.52218
1569658171.53781
1569658171.55343
1569658171.56906
1569658171.58469
1569658171.60031
1569658171.61594
1569658171.63156
1569658171.64719
1569658171.66281
1569658171.67844
1569658171.69407
1569658171.70969
1569658171.72532
1569658171.74094
1569658171.75657
1569658171.77219
1569658171.78782
1569658171.80345
1569658171.81907
1569658171.8347
1569658171.85032
1569658171.86595
1569658171.88157
1569658171.8972
1569658171.91283
1569658171.92845
1569658171.94408
1569658171.9597
1569658171.97533
1569658171.99096
1569658172.00658
1569658172.02221
1569658172.03783
1569658172.05346
1569658172.06908
1569658172.08471
1569658172.10034
1569658172.11596
1569658172.13159
1569658172.14721
1569658172.16284
1569658172.17846
1569658172.19409
1569658172.20972
1569658172.22534
1569658172.24097
1569658172.25659
1569658172.27222
1569658172.28784
1569658172.30347
1569658172.3191
1569658172.33472
1569658172.35035
1569658172.36597
1569658172.3816
1569658172.39722
1569658172.41285
1569658172.42848
1569658172.4441
1569658172.45973
1569658172.47535
1569658172.49098
1569658172.5066
1569658172.52223
1569658172.53786
1569658172.55348
1569658172.56911
1569658172.58473
1569658172.60036
1569658172.61598
1569658172.63161
1569658172.64724
1569658172.66286
1569658172.67849
1569658172.69411
1569658172.70974
1569658172.72536
1569658172.74099
1569658172.75662
1569658172.77224
1569658172.78787
1569658172.80349
1569658172.81912
1569658172.83474
1569658172.85037
1569658172.866
1569658172.88162
1569658172.89725
1569658172.91287
1569658172.9285
1569658172.94412
1569658172.95975
1569658172.97538
1569658172.991
1569658173.00663
1569658173.02225
1569658173.03788
1569658173.0535
1569658173.06913
1569658173.08476
1569658173.10038
1569658173.11601
1569658173.13163
1569658173.14726
1569658173.16288
1569658173.17851
1569658173.19414
1569658173.20976
1569658173.22539
1569658173.24101
1569658173.25664
1569658173.27226
1569658173.28789
1569658173.30352
1569658173.31914
1569658173.33477
1569658173.35039
1569658173.36602
1569658173.38164
1569658173.39727
1569658173.4129
1569658173.42852
1569658173.44415
1569658173.45977
1569658173.4754
1569658173.49102
1569658173.50665
1569658173.52228
1569658173.5379
1569658173.55353
1569658173.56915
1569658173.58478
1569658173.6004
1569658173.61603
1569658173.63166
1569658173.64728
1569658173.66291
1569658173.67853
1569658173.69416
1569658173.70978
1569658173.72541
1569658173.74104
1569658173.75666
1569658173.77229
1569658173.78791
1569658173.80354
1569658173.81916
1569658173.83479
1569658173.85042
1569658173.86604
1569658173.88167
1569658173.89729
1569658173.91292
1569658173.92854
1569658173.94417
1569658173.9598
1569658173.97542
1569658173.99105
1569658174.00667
1569658174.0223
1569658174.03792
1569658174.05355
1569658174.06918
1569658174.0848
1569658174.10043
1569658174.11605
1569658174.13168
1569658174.14731
1569658174.16293
1569658174.17856
1569658174.19418
1569658174.20981
1569658174.22543
1569658174.24106
1569658174.25669
1569658174.27231
1569658174.28794
1569658174.30356
1569658174.31919
1569658174.33481
1569658174.35044
1569658174.36607
1569658174.38169
1569658174.39732
1569658174.41294
1569658174.42857
1569658174.44419
1569658174.45982
1569658174.47545
1569658174.49107
1569658174.5067
1569658174.52232
1569658174.53795
1569658174.55357
1569658174.5692
1569658174.58483
1569658174.60045
1569658174.61608
1569658174.6317
1569658174.64733
1569658174.66295
1569658174.67858
1569658174.69421
1569658174.70983
1569658174.72546
1569658174.74108
1569658174.75671
1569658174.77233
1569658174.78796
1569658174.80359
1569658174.81921
1569658174.83484
1569658174.85046
1569658174.86609
1569658174.88171
1569658174.89734
1569658174.91297
1569658174.92859
1569658174.94422
1569658174.95984
1569658174.97547
1569658174.99109
1569658175.00672
1569658175.02235
1569658175.03797
1569658175.0536
1569658175.06922
1569658175.08485
1569658175.10047
1569658175.1161
1569658175.13173
1569658175.14735
1569658175.16298
1569658175.1786
1569658175.19423
1569658175.20985
1569658175.22548
1569658175.24111
1569658175.25673
1569658175.27236
1569658175.28798
1569658175.30361
1569658175.31923
1569658175.33486
1569658175.35049
1569658175.36611
1569658175.38174
1569658175.39736
1569658175.41299
1569658175.42861
1569658175.44424
1569658175.45987
1569658175.47549
1569658175.49112
1569658175.50674
1569658175.52237
1569658175.53799
1569658175.55362
1569658175.56925
1569658175.58487
1569658175.6005
1569658175.61612
1569658175.63175
1569658175.64737
1569658175.663
1569658175.67863
1569658175.69425
1569658175.70988
1569658175.7255
1569658175.74113
1569658175.75675
1569658175.77238
1569658175.78801
1569658175.80363
1569658175.81926
1569658175.83488
1569658175.85051
1569658175.86613
1569658175.88176
1569658175.89739
1569658175.91301
1569658175.92864
1569658175.94426
1569658175.95989
1569658175.97551
1569658175.99114
1569658176.00677
1569658176.02239
1569658176.03802
1569658176.05364
1569658176.06927
1569658176.08489
1569658176.10052
1569658176.11615
1569658176.13177
1569658176.1474
1569658176.16302
1569658176.17865
1569658176.19427
1569658176.2099
1569658176.22553
1569658176.24115
1569658176.25678
1569658176.2724
1569658176.28803
1569658176.30365
1569658176.31928
1569658176.33491
1569658176.35053
1569658176.36616
1569658176.38178
1569658176.39741
1569658176.41303
1569658176.42866
1569658176.44429
1569658176.45991
1569658176.47554
1569658176.49116
1569658176.50679
1569658176.52241
1569658176.53804
1569658176.55367
1569658176.56929
1569658176.58492
1569658176.60054
1569658176.61617
1569658176.63179
1569658176.64742
1569658176.66305
1569658176.67867
1569658176.6943
1569658176.70992
1569658176.72555
1569658176.74117
1569658176.7568
1569658176.77243
1569658176.78805
1569658176.80368
1569658176.8193
1569658176.83493
1569658176.85056
1569658176.86618
1569658176.88181
1569658176.89743
1569658176.91306
1569658176.92868
1569658176.94431
1569658176.95994
1569658176.97556
1569658176.99119
1569658177.00681
1569658177.02244
1569658177.03806
1569658177.05369
1569658177.06932
1569658177.08494
1569658177.10057
1569658177.11619
1569658177.13182
1569658177.14744
1569658177.16307
1569658177.1787
1569658177.19432
1569658177.20995
1569658177.22557
1569658177.2412
1569658177.25682
1569658177.27245
1569658177.28808
1569658177.3037
1569658177.31933
1569658177.33495
1569658177.35058
1569658177.3662
1569658177.38183
1569658177.39746
1569658177.41308
1569658177.42871
1569658177.44433
1569658177.45996
1569658177.47558
1569658177.49121
1569658177.50684
1569658177.52246
1569658177.53809
1569658177.55371
1569658177.56934
1569658177.58496
1569658177.60059
1569658177.61622
1569658177.63184
1569658177.64747
1569658177.66309
1569658177.67872
1569658177.69434
1569658177.70997
1569658177.7256
1569658177.74122
1569658177.75685
1569658177.77247
1569658177.7881
1569658177.80372
1569658177.81935
1569658177.83498
1569658177.8506
1569658177.86623
1569658177.88185
1569658177.89748
1569658177.9131
1569658177.92873
1569658177.94436
1569658177.95998
1569658177.97561
1569658177.99123
1569658178.00686
1569658178.02248
1569658178.03811
1569658178.05374
1569658178.06936
1569658178.08499
1569658178.10061
1569658178.11624
1569658178.13186
1569658178.14749
1569658178.16312
1569658178.17874
1569658178.19437
1569658178.20999
1569658178.22562
1569658178.24124
1569658178.25687
1569658178.2725
1569658178.28812
1569658178.30375
1569658178.31937
1569658178.335
1569658178.35062
1569658178.36625
1569658178.38188
1569658178.3975
1569658178.41313
1569658178.42875
1569658178.44438
1569658178.46
1569658178.47563
1569658178.49126
1569658178.50688
1569658178.52251
1569658178.53813
1569658178.55376
1569658178.56938
1569658178.58501
1569658178.60064
1569658178.61626
1569658178.63189
1569658178.64751
1569658178.66314
1569658178.67876
1569658178.69439
1569658178.71002
1569658178.72564
1569658178.74127
1569658178.75689
1569658178.77252
1569658178.78814
1569658178.80377
1569658178.8194
1569658178.83502
1569658178.85065
1569658178.86627
1569658178.8819
1569658178.89752
1569658178.91315
1569658178.92878
1569658178.9444
1569658178.96003
1569658178.97565
1569658178.99128
1569658179.00691
1569658179.02253
1569658179.03816
1569658179.05378
1569658179.06941
1569658179.08503
1569658179.10066
1569658179.11629
1569658179.13191
1569658179.14754
1569658179.16316
1569658179.17879
1569658179.19441
1569658179.21004
1569658179.22567
1569658179.24129
1569658179.25692
1569658179.27254
1569658179.28817
1569658179.30379
1569658179.31942
1569658179.33505
1569658179.35067
1569658179.3663
1569658179.38192
1569658179.39755
1569658179.41317
1569658179.4288
1569658179.44443
1569658179.46005
1569658179.47568
1569658179.4913
1569658179.50693
1569658179.52255
1569658179.53818
1569658179.55381
1569658179.56943
1569658179.58506
1569658179.60068
1569658179.61631
1569658179.63193
1569658179.64756
1569658179.66319
1569658179.67881
1569658179.69444
1569658179.71006
1569658179.72569
1569658179.74131
1569658179.75694
1569658179.77257
1569658179.78819
1569658179.80382
1569658179.81944
1569658179.83507
1569658179.85069
1569658179.86632
1569658179.88195
1569658179.89757
1569658179.9132
1569658179.92882
1569658179.94445
1569658179.96007
1569658179.9757
1569658179.99133
1569658180.00695
1569658180.02258
1569658180.0382
1569658180.05383
1569658180.06945
1569658180.08508
1569658180.10071
1569658180.11633
1569658180.13196
1569658180.14758
1569658180.16321
1569658180.17883
1569658180.19446
1569658180.21009
1569658180.22571
1569658180.24134
1569658180.25696
1569658180.27259
1569658180.28821
1569658180.30384
1569658180.31947
1569658180.33509
1569658180.35072
1569658180.36634
1569658180.38197
1569658180.39759
1569658180.41322
1569658180.42885
1569658180.44447
1569658180.4601
1569658180.47572
1569658180.49135
1569658180.50697
1569658180.5226
1569658180.53823
1569658180.55385
1569658180.56948
1569658180.5851
1569658180.60073
1569658180.61635
1569658180.63198
1569658180.64761
1569658180.66323
1569658180.67886
1569658180.69448
1569658180.71011
1569658180.72573
1569658180.74136
1569658180.75699
1569658180.77261
1569658180.78824
1569658180.80386
1569658180.81949
1569658180.83511
1569658180.85074
1569658180.86637
1569658180.88199
1569658180.89762
1569658180.91324
1569658180.92887
1569658180.94449
1569658180.96012
1569658180.97575
1569658180.99137
1569658181.007
1569658181.02262
1569658181.03825
1569658181.05387
1569658181.0695
1569658181.08513
1569658181.10075
1569658181.11638
1569658181.132
1569658181.14763
1569658181.16325
1569658181.17888
1569658181.19451
1569658181.21013
1569658181.22576
1569658181.24138
1569658181.25701
1569658181.27263
1569658181.28826
1569658181.30389
1569658181.31951
1569658181.33514
1569658181.35076
1569658181.36639
1569658181.38201
1569658181.39764
1569658181.41327
1569658181.42889
1569658181.44452
1569658181.46014
1569658181.47577
1569658181.4914
1569658181.50702
1569658181.52265
1569658181.53827
1569658181.5539
1569658181.56952
1569658181.58515
1569658181.60078
1569658181.6164
1569658181.63203
1569658181.64765
1569658181.66328
1569658181.6789
1569658181.69453
1569658181.71016
1569658181.72578
1569658181.74141
1569658181.75703
1569658181.77266
1569658181.78828
1569658181.80391
1569658181.81954
1569658181.83516
1569658181.85079
1569658181.86641
1569658181.88204
1569658181.89766
1569658181.91329
1569658181.92892
1569658181.94454
1569658181.96017
1569658181.97579
1569658181.99142
1569658182.00704
1569658182.02267
1569658182.0383
1569658182.05392
1569658182.06955
1569658182.08517
1569658182.1008
1569658182.11642
1569658182.13205
1569658182.14768
1569658182.1633
1569658182.17893
1569658182.19455
1569658182.21018
1569658182.2258
1569658182.24143
1569658182.25706
1569658182.27268
1569658182.28831
1569658182.30393
1569658182.31956
1569658182.33518
1569658182.35081
1569658182.36644
1569658182.38206
1569658182.39769
1569658182.41331
1569658182.42894
1569658182.44456
1569658182.46019
1569658182.47582
1569658182.49144
1569658182.50707
1569658182.52269
1569658182.53832
1569658182.55394
1569658182.56957
1569658182.5852
1569658182.60082
1569658182.61645
1569658182.63207
1569658182.6477
1569658182.66332
1569658182.67895
1569658182.69458
1569658182.7102
1569658182.72583
1569658182.74145
1569658182.75708
1569658182.7727
1569658182.78833
1569658182.80396
1569658182.81958
1569658182.83521
1569658182.85083
1569658182.86646
1569658182.88208
1569658182.89771
1569658182.91334
1569658182.92896
1569658182.94459
1569658182.96021
1569658182.97584
1569658182.99146
1569658183.00709
1569658183.02272
1569658183.03834
1569658183.05397
1569658183.06959
1569658183.08522
1569658183.10084
1569658183.11647
1569658183.1321
1569658183.14772
1569658183.16335
1569658183.17897
1569658183.1946
1569658183.21022
1569658183.22585
1569658183.24148
1569658183.2571
1569658183.27273
1569658183.28835
1569658183.30398
1569658183.3196
1569658183.33523
1569658183.35086
1569658183.36648
1569658183.38211
1569658183.39773
1569658183.41336
1569658183.42898
1569658183.44461
1569658183.46024
1569658183.47586
1569658183.49149
1569658183.50711
1569658183.52274
1569658183.53836
1569658183.55399
1569658183.56962
1569658183.58524
1569658183.60087
1569658183.61649
1569658183.63212
1569658183.64774
1569658183.66337
1569658183.679
1569658183.69462
1569658183.71025
1569658183.72587
1569658183.7415
1569658183.75712
1569658183.77275
1569658183.78838
1569658183.804
1569658183.81963
1569658183.83525
1569658183.85088
1569658183.86651
1569658183.88213
1569658183.89776
1569658183.91338
1569658183.92901
1569658183.94463
1569658183.96026
1569658183.97589
1569658183.99151
1569658184.00714
1569658184.02276
1569658184.03839
1569658184.05401
1569658184.06964
1569658184.08527
1569658184.10089
1569658184.11652
1569658184.13214
1569658184.14777
1569658184.16339
1569658184.17902
1569658184.19465
1569658184.21027
1569658184.2259
1569658184.24152
1569658184.25715
1569658184.27277
1569658184.2884
1569658184.30403
1569658184.31965
1569658184.33528
1569658184.3509
1569658184.36653
1569658184.38215
1569658184.39778
1569658184.41341
1569658184.42903
1569658184.44466
1569658184.46028
1569658184.47591
1569658184.49153
1569658184.50716
1569658184.52279
1569658184.53841
1569658184.55404
1569658184.56966
1569658184.58529
1569658184.60091
1569658184.61654
1569658184.63217
1569658184.64779
1569658184.66342
1569658184.67904
1569658184.69467
1569658184.71029
1569658184.72592
1569658184.74155
1569658184.75717
1569658184.7728
1569658184.78842
1569658184.80405
1569658184.81967
1569658184.8353
1569658184.85093
1569658184.86655
1569658184.88218
1569658184.8978
1569658184.91343
1569658184.92905
1569658184.94468
1569658184.96031
1569658184.97593
1569658184.99156
1569658185.00718
1569658185.02281
1569658185.03843
1569658185.05406
1569658185.06969
1569658185.08531
1569658185.10094
1569658185.11656
1569658185.13219
1569658185.14781
1569658185.16344
1569658185.17907
1569658185.19469
1569658185.21032
1569658185.22594
1569658185.24157
1569658185.25719
1569658185.27282
1569658185.28845
1569658185.30407
1569658185.3197
1569658185.33532
1569658185.35095
1569658185.36657
1569658185.3822
1569658185.39783
1569658185.41345
1569658185.42908
1569658185.4447
1569658185.46033
1569658185.47595
1569658185.49158
1569658185.50721
1569658185.52283
1569658185.53846
1569658185.55408
1569658185.56971
1569658185.58533
1569658185.60096
1569658185.61659
1569658185.63221
1569658185.64784
1569658185.66346
1569658185.67909
1569658185.69471
1569658185.71034
1569658185.72597
1569658185.74159
1569658185.75722
1569658185.77284
1569658185.78847
1569658185.80409
1569658185.81972
1569658185.83535
1569658185.85097
1569658185.8666
1569658185.88222
1569658185.89785
1569658185.91347
1569658185.9291
1569658185.94473
1569658185.96035
1569658185.97598
1569658185.9916
1569658186.00723
1569658186.02285
1569658186.03848
1569658186.05411
1569658186.06973
1569658186.08536
1569658186.10098
1569658186.11661
1569658186.13224
1569658186.14786
1569658186.16349
1569658186.17911
1569658186.19474
1569658186.21036
1569658186.22599
1569658186.24162
1569658186.25724
1569658186.27287
1569658186.28849
1569658186.30412
1569658186.31974
1569658186.33537
1569658186.351
1569658186.36662
1569658186.38225
1569658186.39787
1569658186.4135
1569658186.42912
1569658186.44475
1569658186.46038
1569658186.476
1569658186.49163
1569658186.50725
1569658186.52288
1569658186.5385
1569658186.55413
1569658186.56976
1569658186.58538
1569658186.60101
1569658186.61663
1569658186.63226
1569658186.64788
1569658186.66351
1569658186.67914
1569658186.69476
1569658186.71039
1569658186.72601
1569658186.74164
1569658186.75726
1569658186.77289
1569658186.78852
1569658186.80414
1569658186.81977
1569658186.83539
1569658186.85102
1569658186.86664
1569658186.88227
1569658186.8979
1569658186.91352
1569658186.92915
1569658186.94477
1569658186.9604
1569658186.97602
1569658186.99165
1569658187.00728
1569658187.0229
1569658187.03853
1569658187.05415
1569658187.06978
1569658187.0854
1569658187.10103
1569658187.11666
1569658187.13228
1569658187.14791
1569658187.16353
1569658187.17916
1569658187.19478
1569658187.21041
1569658187.22604
1569658187.24166
1569658187.25729
1569658187.27291
1569658187.28854
1569658187.30416
1569658187.31979
1569658187.33542
1569658187.35104
1569658187.36667
1569658187.38229
1569658187.39792
1569658187.41354
1569658187.42917
1569658187.4448
1569658187.46042
1569658187.47605
1569658187.49167
1569658187.5073
1569658187.52292
1569658187.53855
1569658187.55418
1569658187.5698
1569658187.58543
1569658187.60105
1569658187.61668
1569658187.6323
1569658187.64793
1569658187.66356
1569658187.67918
1569658187.69481
1569658187.71043
1569658187.72606
1569658187.74168
1569658187.75731
1569658187.77294
1569658187.78856
1569658187.80419
1569658187.81981
1569658187.83544
1569658187.85106
1569658187.86669
1569658187.88232
1569658187.89794
1569658187.91357
1569658187.92919
1569658187.94482
1569658187.96044
1569658187.97607
1569658187.9917
1569658188.00732
1569658188.02295
1569658188.03857
1569658188.0542
1569658188.06982
1569658188.08545
1569658188.10108
1569658188.1167
1569658188.13233
1569658188.14795
1569658188.16358
1569658188.1792
1569658188.19483
1569658188.21046
1569658188.22608
1569658188.24171
1569658188.25733
1569658188.27296
1569658188.28858
1569658188.30421
1569658188.31984
1569658188.33546
1569658188.35109
1569658188.36671
1569658188.38234
1569658188.39796
1569658188.41359
1569658188.42922
1569658188.44484
1569658188.46047
1569658188.47609
1569658188.49172
1569658188.50734
1569658188.52297
1569658188.5386
1569658188.55422
1569658188.56985
1569658188.58547
1569658188.6011
1569658188.61672
1569658188.63235
1569658188.64798
1569658188.6636
1569658188.67923
1569658188.69485
1569658188.71048
1569658188.72611
1569658188.74173
1569658188.75736
1569658188.77298
1569658188.78861
1569658188.80423
1569658188.81986
1569658188.83549
1569658188.85111
1569658188.86674
1569658188.88236
1569658188.89799
1569658188.91361
1569658188.92924
1569658188.94487
1569658188.96049
1569658188.97612
1569658188.99174
1569658189.00737
1569658189.02299
1569658189.03862
1569658189.05425
1569658189.06987
1569658189.0855
1569658189.10112
1569658189.11675
1569658189.13237
1569658189.148
1569658189.16363
1569658189.17925
1569658189.19488
1569658189.2105
1569658189.22613
1569658189.24175
1569658189.25738
1569658189.27301
1569658189.28863
1569658189.30426
1569658189.31988
1569658189.33551
1569658189.35113
1569658189.36676
1569658189.38239
1569658189.39801
1569658189.41364
1569658189.42926
1569658189.44489
1569658189.46051
1569658189.47614
1569658189.49177
1569658189.50739
1569658189.52302
1569658189.53864
1569658189.55427
1569658189.56989
1569658189.58552
1569658189.60115
1569658189.61677
1569658189.6324
1569658189.64802
1569658189.66365
1569658189.67927
1569658189.6949
1569658189.71053
1569658189.72615
1569658189.74178
1569658189.7574
1569658189.77303
1569658189.78865
1569658189.80428
1569658189.81991
1569658189.83553
1569658189.85116
1569658189.86678
1569658189.88241
1569658189.89803
1569658189.91366
1569658189.92929
1569658189.94491
1569658189.96054
1569658189.97616
1569658189.99179
1569658190.00741
1569658190.02304
1569658190.03867
1569658190.05429
1569658190.06992
1569658190.08554
1569658190.10117
1569658190.11679
1569658190.13242
1569658190.14805
1569658190.16367
1569658190.1793
1569658190.19492
1569658190.21055
1569658190.22617
1569658190.2418
1569658190.25743
1569658190.27305
1569658190.28868
1569658190.3043
1569658190.31993
1569658190.33555
1569658190.35118
1569658190.36681
1569658190.38243
1569658190.39806
1569658190.41368
1569658190.42931
1569658190.44493
1569658190.46056
1569658190.47619
1569658190.49181
1569658190.50744
1569658190.52306
1569658190.53869
1569658190.55431
1569658190.56994
1569658190.58557
1569658190.60119
1569658190.61682
1569658190.63244
1569658190.64807
1569658190.66369
1569658190.67932
1569658190.69495
1569658190.71057
1569658190.7262
1569658190.74182
1569658190.75745
1569658190.77307
1569658190.7887
1569658190.80433
1569658190.81995
1569658190.83558
1569658190.8512
1569658190.86683
1569658190.88245
1569658190.89808
1569658190.91371
1569658190.92933
1569658190.94496
1569658190.96058
1569658190.97621
1569658190.99184
1569658191.00746
1569658191.02309
1569658191.03871
1569658191.05434
1569658191.06996
1569658191.08559
1569658191.10122
1569658191.11684
1569658191.13247
1569658191.14809
1569658191.16372
1569658191.17934
1569658191.19497
1569658191.2106
1569658191.22622
1569658191.24185
1569658191.25747
1569658191.2731
1569658191.28872
1569658191.30435
1569658191.31998
1569658191.3356
1569658191.35123
1569658191.36685
1569658191.38248
1569658191.3981
1569658191.41373
1569658191.42936
1569658191.44498
1569658191.46061
1569658191.47623
1569658191.49186
1569658191.50748
1569658191.52311
1569658191.53874
1569658191.55436
1569658191.56999
1569658191.58561
1569658191.60124
1569658191.61686
1569658191.63249
1569658191.64812
1569658191.66374
1569658191.67937
1569658191.69499
1569658191.71062
1569658191.72624
1569658191.74187
1569658191.7575
1569658191.77312
1569658191.78875
1569658191.80437
1569658191.82
1569658191.83562
1569658191.85125
1569658191.86688
1569658191.8825
1569658191.89813
1569658191.91375
1569658191.92938
1569658191.945
1569658191.96063
1569658191.97626
1569658191.99188
1569658192.00751
1569658192.02313
1569658192.03876
1569658192.05438
1569658192.07001
1569658192.08564
1569658192.10126
1569658192.11689
1569658192.13251
1569658192.14814
1569658192.16376
1569658192.17939
1569658192.19502
1569658192.21064
1569658192.22627
1569658192.24189
1569658192.25752
1569658192.27314
1569658192.28877
1569658192.3044
1569658192.32002
1569658192.33565
1569658192.35127
1569658192.3669
1569658192.38252
1569658192.39815
1569658192.41378
1569658192.4294
1569658192.44503
1569658192.46065
1569658192.47628
1569658192.4919
1569658192.50753
1569658192.52316
1569658192.53878
1569658192.55441
1569658192.57003
1569658192.58566
1569658192.60128
1569658192.61691
1569658192.63254
1569658192.64816
1569658192.66379
1569658192.67941
1569658192.69504
1569658192.71066
1569658192.72629
1569658192.74192
1569658192.75754
1569658192.77317
1569658192.78879
1569658192.80442
1569658192.82004
1569658192.83567
1569658192.8513
1569658192.86692
1569658192.88255
1569658192.89817
1569658192.9138
1569658192.92942
1569658192.94505
1569658192.96068
1569658192.9763
1569658192.99193
1569658193.00755
1569658193.02318
1569658193.0388
1569658193.05443
1569658193.07006
1569658193.08568
1569658193.10131
1569658193.11693
1569658193.13256
1569658193.14819
1569658193.16381
1569658193.17944
1569658193.19506
1569658193.21069
1569658193.22631
1569658193.24194
1569658193.25757
1569658193.27319
1569658193.28882
1569658193.30444
1569658193.32007
1569658193.33569
1569658193.35132
1569658193.36695
1569658193.38257
1569658193.3982
1569658193.41382
1569658193.42945
1569658193.44507
1569658193.4607
1569658193.47633
1569658193.49195
1569658193.50758
1569658193.5232
1569658193.53883
1569658193.55445
1569658193.57008
1569658193.58571
1569658193.60133
1569658193.61696
1569658193.63258
1569658193.64821
1569658193.66383
1569658193.67946
1569658193.69509
1569658193.71071
1569658193.72634
1569658193.74196
1569658193.75759
1569658193.77321
1569658193.78884
1569658193.80447
1569658193.82009
1569658193.83572
1569658193.85134
1569658193.86697
1569658193.88259
1569658193.89822
1569658193.91385
1569658193.92947
1569658193.9451
1569658193.96072
1569658193.97635
1569658193.99197
1569658194.0076
1569658194.02323
1569658194.03885
1569658194.05448
1569658194.0701
1569658194.08573
1569658194.10135
1569658194.11698
1569658194.13261
1569658194.14823
1569658194.16386
1569658194.17948
1569658194.19511
1569658194.21073
1569658194.22636
1569658194.24199
1569658194.25761
1569658194.27324
1569658194.28886
1569658194.30449
1569658194.32011
1569658194.33574
1569658194.35137
1569658194.36699
1569658194.38262
1569658194.39824
1569658194.41387
1569658194.42949
1569658194.44512
1569658194.46075
1569658194.47637
1569658194.492
1569658194.50762
1569658194.52325
1569658194.53887
1569658194.5545
1569658194.57013
1569658194.58575
1569658194.60138
1569658194.617
1569658194.63263
1569658194.64825
1569658194.66388
1569658194.67951
1569658194.69513
1569658194.71076
1569658194.72638
1569658194.74201
1569658194.75763
1569658194.77326
1569658194.78889
1569658194.80451
1569658194.82014
1569658194.83576
1569658194.85139
1569658194.86701
1569658194.88264
1569658194.89827
1569658194.91389
1569658194.92952
1569658194.94514
1569658194.96077
1569658194.97639
1569658194.99202
1569658195.00765
1569658195.02327
1569658195.0389
1569658195.05452
1569658195.07015
1569658195.08577
1569658195.1014
1569658195.11703
1569658195.13265
1569658195.14828
1569658195.1639
1569658195.17953
1569658195.19515
1569658195.21078
1569658195.22641
1569658195.24203
1569658195.25766
1569658195.27328
1569658195.28891
1569658195.30453
1569658195.32016
1569658195.33579
1569658195.35141
1569658195.36704
1569658195.38266
1569658195.39829
1569658195.41391
1569658195.42954
1569658195.44517
1569658195.46079
1569658195.47642
1569658195.49204
1569658195.50767
1569658195.52329
1569658195.53892
1569658195.55455
1569658195.57017
1569658195.5858
1569658195.60142
1569658195.61705
1569658195.63267
1569658195.6483
1569658195.66393
1569658195.67955
1569658195.69518
1569658195.7108
1569658195.72643
1569658195.74205
1569658195.75768
1569658195.77331
1569658195.78893
1569658195.80456
1569658195.82018
1569658195.83581
1569658195.85144
1569658195.86706
1569658195.88269
1569658195.89831
1569658195.91394
1569658195.92956
1569658195.94519
1569658195.96082
1569658195.97644
1569658195.99207
1569658196.00769
1569658196.02332
1569658196.03894
1569658196.05457
1569658196.0702
1569658196.08582
1569658196.10145
1569658196.11707
1569658196.1327
1569658196.14832
1569658196.16395
1569658196.17958
1569658196.1952
1569658196.21083
1569658196.22645
1569658196.24208
1569658196.2577
1569658196.27333
1569658196.28896
1569658196.30458
1569658196.32021
1569658196.33583
1569658196.35146
1569658196.36708
1569658196.38271
1569658196.39834
1569658196.41396
1569658196.42959
1569658196.44521
1569658196.46084
1569658196.47646
1569658196.49209
1569658196.50772
1569658196.52334
1569658196.53897
1569658196.55459
1569658196.57022
1569658196.58584
1569658196.60147
1569658196.6171
1569658196.63272
1569658196.64835
1569658196.66397
1569658196.6796
1569658196.69522
1569658196.71085
1569658196.72648
1569658196.7421
1569658196.75773
1569658196.77335
1569658196.78898
1569658196.8046
1569658196.82023
1569658196.83586
1569658196.85148
1569658196.86711
1569658196.88273
1569658196.89836
1569658196.91398
1569658196.92961
1569658196.94524
1569658196.96086
1569658196.97649
1569658196.99211
1569658197.00774
1569658197.02336
1569658197.03899
1569658197.05462
1569658197.07024
1569658197.08587
1569658197.10149
1569658197.11712
1569658197.13274
1569658197.14837
1569658197.164
1569658197.17962
1569658197.19525
1569658197.21087
1569658197.2265
1569658197.24212
1569658197.25775
1569658197.27338
1569658197.289
1569658197.30463
1569658197.32025
1569658197.33588
1569658197.3515
1569658197.36713
1569658197.38276
1569658197.39838
1569658197.41401
1569658197.42963
1569658197.44526
1569658197.46088
1569658197.47651
1569658197.49214
1569658197.50776
1569658197.52339
1569658197.53901
1569658197.55464
1569658197.57026
1569658197.58589
1569658197.60152
1569658197.61714
1569658197.63277
1569658197.64839
1569658197.66402
1569658197.67964
1569658197.69527
1569658197.7109
1569658197.72652
1569658197.74215
1569658197.75777
1569658197.7734
1569658197.78902
1569658197.80465
1569658197.82028
1569658197.8359
1569658197.85153
1569658197.86715
1569658197.88278
1569658197.8984
1569658197.91403
1569658197.92966
1569658197.94528
1569658197.96091
1569658197.97653
1569658197.99216
1569658198.00778
1569658198.02341
1569658198.03904
1569658198.05466
1569658198.07029
1569658198.08591
1569658198.10154
1569658198.11717
1569658198.13279
1569658198.14842
1569658198.16404
1569658198.17967
1569658198.19529
1569658198.21092
1569658198.22655
1569658198.24217
1569658198.2578
1569658198.27342
1569658198.28905
1569658198.30467
1569658198.3203
1569658198.33593
1569658198.35155
1569658198.36718
1569658198.3828
1569658198.39843
1569658198.41405
1569658198.42968
1569658198.44531
1569658198.46093
1569658198.47656
1569658198.49218
1569658198.50781
1569658198.52343
1569658198.53906
1569658198.55469
1569658198.57031
1569658198.58594
1569658198.60156
1569658198.61719
1569658198.63281
1569658198.64844
1569658198.66407
1569658198.67969
1569658198.69532
1569658198.71094
1569658198.72657
1569658198.74219
1569658198.75782
1569658198.77345
1569658198.78907
1569658198.8047
1569658198.82032
1569658198.83595
1569658198.85157
1569658198.8672
1569658198.88283
1569658198.89845
1569658198.91408
1569658198.9297
1569658198.94533
1569658198.96095
1569658198.97658
1569658198.99221
1569658199.00783
1569658199.02346
1569658199.03908
1569658199.05471
1569658199.07033
1569658199.08596
1569658199.10159
1569658199.11721
1569658199.13284
1569658199.14846
1569658199.16409
1569658199.17971
1569658199.19534
1569658199.21097
1569658199.22659
1569658199.24222
1569658199.25784
1569658199.27347
1569658199.28909
1569658199.30472
1569658199.32035
1569658199.33597
1569658199.3516
1569658199.36722
1569658199.38285
1569658199.39847
1569658199.4141
1569658199.42973
1569658199.44535
1569658199.46098
1569658199.4766
1569658199.49223
1569658199.50785
1569658199.52348
1569658199.53911
1569658199.55473
1569658199.57036
1569658199.58598
1569658199.60161
1569658199.61723
1569658199.63286
1569658199.64849
1569658199.66411
1569658199.67974
1569658199.69536
1569658199.71099
1569658199.72661
1569658199.74224
1569658199.75787
1569658199.77349
1569658199.78912
1569658199.80474
1569658199.82037
1569658199.83599
1569658199.85162
1569658199.86725
1569658199.88287
1569658199.8985
1569658199.91412
1569658199.92975
1569658199.94537
1569658199.961
1569658199.97663
1569658199.99225
1569658200.00788
1569658200.0235
1569658200.03913
1569658200.05475
1569658200.07038
1569658200.08601
1569658200.10163
1569658200.11726
1569658200.13288
1569658200.14851
1569658200.16413
1569658200.17976
1569658200.19539
1569658200.21101
1569658200.22664
1569658200.24226
1569658200.25789
1569658200.27351
1569658200.28914
1569658200.30477
1569658200.32039
1569658200.33602
1569658200.35164
1569658200.36727
1569658200.38289
1569658200.39852
1569658200.41415
1569658200.42977
1569658200.4454
1569658200.46102
1569658200.47665
1569658200.49228
1569658200.5079
1569658200.52353
1569658200.53915
1569658200.55478
1569658200.5704
1569658200.58603
1569658200.60166
1569658200.61728
1569658200.63291
1569658200.64853
1569658200.66416
1569658200.67978
1569658200.69541
1569658200.71104
1569658200.72666
1569658200.74229
1569658200.75791
1569658200.77354
1569658200.78916
1569658200.80479
1569658200.82042
1569658200.83604
1569658200.85167
1569658200.86729
1569658200.88292
1569658200.89854
1569658200.91417
1569658200.9298
1569658200.94542
1569658200.96105
1569658200.97667
1569658200.9923
1569658201.00792
1569658201.02355
1569658201.03918
1569658201.0548
1569658201.07043
1569658201.08605
1569658201.10168
1569658201.1173
1569658201.13293
1569658201.14856
1569658201.16418
1569658201.17981
1569658201.19543
1569658201.21106
1569658201.22668
1569658201.24231
1569658201.25794
1569658201.27356
1569658201.28919
1569658201.30481
1569658201.32044
1569658201.33606
1569658201.35169
1569658201.36732
1569658201.38294
1569658201.39857
1569658201.41419
1569658201.42982
1569658201.44544
1569658201.46107
1569658201.4767
1569658201.49232
1569658201.50795
1569658201.52357
1569658201.5392
1569658201.55482
1569658201.57045
1569658201.58608
1569658201.6017
1569658201.61733
1569658201.63295
1569658201.64858
1569658201.6642
1569658201.67983
1569658201.69546
1569658201.71108
1569658201.72671
1569658201.74233
1569658201.75796
1569658201.77358
1569658201.78921
1569658201.80484
1569658201.82046
1569658201.83609
1569658201.85171
1569658201.86734
1569658201.88296
1569658201.89859
1569658201.91422
1569658201.92984
1569658201.94547
1569658201.96109
1569658201.97672
1569658201.99234
1569658202.00797
1569658202.0236
1569658202.03922
1569658202.05485
1569658202.07047
1569658202.0861
1569658202.10172
1569658202.11735
1569658202.13298
1569658202.1486
1569658202.16423
1569658202.17985
1569658202.19548
1569658202.2111
1569658202.22673
1569658202.24236
1569658202.25798
1569658202.27361
1569658202.28923
1569658202.30486
1569658202.32048
1569658202.33611
1569658202.35174
1569658202.36736
1569658202.38299
1569658202.39861
1569658202.41424
1569658202.42986
1569658202.44549
1569658202.46112
1569658202.47674
1569658202.49237
1569658202.50799
1569658202.52362
1569658202.53924
1569658202.55487
1569658202.5705
1569658202.58612
1569658202.60175
1569658202.61737
1569658202.633
1569658202.64862
1569658202.66425
1569658202.67988
1569658202.6955
1569658202.71113
1569658202.72675
1569658202.74238
1569658202.758
1569658202.77363
1569658202.78926
1569658202.80488
1569658202.82051
1569658202.83613
1569658202.85176
1569658202.86738
1569658202.88301
1569658202.89864
1569658202.91426
1569658202.92989
1569658202.94551
1569658202.96114
1569658202.97677
1569658202.99239
1569658203.00802
1569658203.02364
1569658203.03927
1569658203.05489
1569658203.07052
1569658203.08615
1569658203.10177
1569658203.1174
1569658203.13302
1569658203.14865
1569658203.16427
1569658203.1799
1569658203.19553
1569658203.21115
1569658203.22678
1569658203.2424
1569658203.25803
1569658203.27365
1569658203.28928
1569658203.30491
1569658203.32053
1569658203.33616
1569658203.35178
1569658203.36741
1569658203.38303
1569658203.39866
1569658203.41429
1569658203.42991
1569658203.44554
1569658203.46116
1569658203.47679
1569658203.49241
1569658203.50804
1569658203.52367
1569658203.53929
1569658203.55492
1569658203.57054
1569658203.58617
1569658203.60179
1569658203.61742
1569658203.63305
1569658203.64867
1569658203.6643
1569658203.67992
1569658203.69555
1569658203.71117
1569658203.7268
1569658203.74243
1569658203.75805
1569658203.77368
1569658203.7893
1569658203.80493
1569658203.82055
1569658203.83618
1569658203.85181
1569658203.86743
1569658203.88306
1569658203.89868
1569658203.91431
1569658203.92993
1569658203.94556
1569658203.96119
1569658203.97681
1569658203.99244
1569658204.00806
1569658204.02369
1569658204.03931
1569658204.05494
1569658204.07057
1569658204.08619
1569658204.10182
1569658204.11744
1569658204.13307
1569658204.14869
1569658204.16432
1569658204.17995
1569658204.19557
1569658204.2112
1569658204.22682
1569658204.24245
1569658204.25807
1569658204.2737
1569658204.28933
1569658204.30495
1569658204.32058
1569658204.3362
1569658204.35183
1569658204.36745
1569658204.38308
1569658204.39871
1569658204.41433
1569658204.42996
1569658204.44558
1569658204.46121
1569658204.47683
1569658204.49246
1569658204.50809
1569658204.52371
1569658204.53934
1569658204.55496
1569658204.57059
1569658204.58621
1569658204.60184
1569658204.61747
1569658204.63309
1569658204.64872
1569658204.66434
1569658204.67997
1569658204.69559
1569658204.71122
1569658204.72685
1569658204.74247
1569658204.7581
1569658204.77372
1569658204.78935
1569658204.80497
1569658204.8206
1569658204.83623
1569658204.85185
1569658204.86748
1569658204.8831
1569658204.89873
1569658204.91435
1569658204.92998
1569658204.94561
1569658204.96123
1569658204.97686
1569658204.99248
1569658205.00811
1569658205.02373
1569658205.03936
1569658205.05499
1569658205.07061
1569658205.08624
1569658205.10186
1569658205.11749
1569658205.13312
1569658205.14874
1569658205.16437
1569658205.17999
1569658205.19562
1569658205.21124
1569658205.22687
1569658205.2425
1569658205.25812
1569658205.27375
1569658205.28937
1569658205.305
1569658205.32062
1569658205.33625
1569658205.35188
1569658205.3675
1569658205.38313
1569658205.39875
1569658205.41438
1569658205.43
1569658205.44563
1569658205.46126
1569658205.47688
1569658205.49251
1569658205.50813
1569658205.52376
1569658205.53938
1569658205.55501
1569658205.57064
1569658205.58626
1569658205.60189
1569658205.61751
1569658205.63314
1569658205.64876
1569658205.66439
1569658205.68002
1569658205.69564
1569658205.71127
1569658205.72689
1569658205.74252
1569658205.75814
1569658205.77377
1569658205.7894
1569658205.80502
1569658205.82065
1569658205.83627
1569658205.8519
1569658205.86752
1569658205.88315
1569658205.89878
1569658205.9144
1569658205.93003
1569658205.94565
1569658205.96128
1569658205.9769
1569658205.99253
1569658206.00816
1569658206.02378
1569658206.03941
1569658206.05503
1569658206.07066
1569658206.08628
1569658206.10191
1569658206.11754
1569658206.13316
1569658206.14879
1569658206.16441
1569658206.18004
1569658206.19566
1569658206.21129
1569658206.22692
1569658206.24254
1569658206.25817
1569658206.27379
1569658206.28942
1569658206.30504
1569658206.32067
1569658206.3363
1569658206.35192
1569658206.36755
1569658206.38317
1569658206.3988
1569658206.41442
1569658206.43005
1569658206.44568
1569658206.4613
1569658206.47693
1569658206.49255
1569658206.50818
1569658206.5238
1569658206.53943
1569658206.55506
1569658206.57068
1569658206.58631
1569658206.60193
1569658206.61756
1569658206.63318
1569658206.64881
1569658206.66444
1569658206.68006
1569658206.69569
1569658206.71131
1569658206.72694
1569658206.74256
1569658206.75819
1569658206.77382
1569658206.78944
1569658206.80507
1569658206.82069
1569658206.83632
1569658206.85194
1569658206.86757
1569658206.8832
1569658206.89882
1569658206.91445
1569658206.93007
1569658206.9457
1569658206.96132
1569658206.97695
1569658206.99258
1569658207.0082
1569658207.02383
1569658207.03945
1569658207.05508
1569658207.0707
1569658207.08633
1569658207.10196
1569658207.11758
1569658207.13321
1569658207.14883
1569658207.16446
1569658207.18008
1569658207.19571
1569658207.21134
1569658207.22696
1569658207.24259
1569658207.25821
1569658207.27384
1569658207.28946
1569658207.30509
1569658207.32072
1569658207.33634
1569658207.35197
1569658207.36759
1569658207.38322
1569658207.39884
1569658207.41447
1569658207.4301
1569658207.44572
1569658207.46135
1569658207.47697
1569658207.4926
1569658207.50822
1569658207.52385
1569658207.53948
1569658207.5551
1569658207.57073
1569658207.58635
1569658207.60198
1569658207.6176
1569658207.63323
1569658207.64886
1569658207.66448
1569658207.68011
1569658207.69573
1569658207.71136
1569658207.72698
1569658207.74261
1569658207.75824
1569658207.77386
1569658207.78949
1569658207.80511
1569658207.82074
1569658207.83637
1569658207.85199
1569658207.86762
1569658207.88324
1569658207.89887
1569658207.91449
1569658207.93012
1569658207.94575
1569658207.96137
1569658207.977
1569658207.99262
1569658208.00825
1569658208.02387
1569658208.0395
1569658208.05513
1569658208.07075
1569658208.08638
1569658208.102
1569658208.11763
1569658208.13325
1569658208.14888
1569658208.16451
1569658208.18013
1569658208.19576
1569658208.21138
1569658208.22701
1569658208.24263
1569658208.25826
1569658208.27389
1569658208.28951
1569658208.30514
1569658208.32076
1569658208.33639
1569658208.35201
1569658208.36764
1569658208.38327
1569658208.39889
1569658208.41452
1569658208.43014
1569658208.44577
1569658208.46139
1569658208.47702
1569658208.49265
1569658208.50827
1569658208.5239
1569658208.53952
1569658208.55515
1569658208.57077
1569658208.5864
1569658208.60203
1569658208.61765
1569658208.63328
1569658208.6489
1569658208.66453
1569658208.68015
1569658208.69578
1569658208.71141
1569658208.72703
1569658208.74266
1569658208.75828
1569658208.77391
1569658208.78953
1569658208.80516
1569658208.82079
1569658208.83641
1569658208.85204
1569658208.86766
1569658208.88329
1569658208.89891
1569658208.91454
1569658208.93017
1569658208.94579
1569658208.96142
1569658208.97704
1569658208.99267
1569658209.00829
1569658209.02392
1569658209.03955
1569658209.05517
1569658209.0708
1569658209.08642
1569658209.10205
1569658209.11767
1569658209.1333
1569658209.14893
1569658209.16455
1569658209.18018
1569658209.1958
1569658209.21143
1569658209.22705
1569658209.24268
1569658209.25831
1569658209.27393
1569658209.28956
1569658209.30518
1569658209.32081
1569658209.33643
1569658209.35206
1569658209.36769
1569658209.38331
1569658209.39894
1569658209.41456
1569658209.43019
1569658209.44581
1569658209.46144
1569658209.47707
1569658209.49269
1569658209.50832
1569658209.52394
1569658209.53957
1569658209.55519
1569658209.57082
1569658209.58645
1569658209.60207
1569658209.6177
1569658209.63332
1569658209.64895
1569658209.66457
1569658209.6802
1569658209.69583
1569658209.71145
1569658209.72708
1569658209.7427
1569658209.75833
1569658209.77395
1569658209.78958
1569658209.80521
1569658209.82083
1569658209.83646
1569658209.85208
1569658209.86771
1569658209.88333
1569658209.89896
1569658209.91459
1569658209.93021
1569658209.94584
1569658209.96146
1569658209.97709
1569658209.99272
1569658210.00834
1569658210.02397
1569658210.03959
1569658210.05522
1569658210.07084
1569658210.08647
1569658210.1021
1569658210.11772
1569658210.13335
1569658210.14897
1569658210.1646
1569658210.18022
1569658210.19585
1569658210.21148
1569658210.2271
1569658210.24273
1569658210.25835
1569658210.27398
1569658210.2896
1569658210.30523
1569658210.32086
1569658210.33648
1569658210.35211
1569658210.36773
1569658210.38336
1569658210.39898
1569658210.41461
1569658210.43024
1569658210.44586
1569658210.46149
1569658210.47711
1569658210.49274
1569658210.50836
1569658210.52399
1569658210.53962
1569658210.55524
1569658210.57087
1569658210.58649
1569658210.60212
1569658210.61774
1569658210.63337
1569658210.649
1569658210.66462
1569658210.68025
1569658210.69587
1569658210.7115
1569658210.72712
1569658210.74275
1569658210.75838
1569658210.774
1569658210.78963
1569658210.80525
1569658210.82088
1569658210.8365
1569658210.85213
1569658210.86776
1569658210.88338
1569658210.89901
1569658210.91463
1569658210.93026
1569658210.94588
1569658210.96151
1569658210.97714
1569658210.99276
1569658211.00839
1569658211.02401
1569658211.03964
1569658211.05526
1569658211.07089
1569658211.08652
1569658211.10214
1569658211.11777
1569658211.13339
1569658211.14902
1569658211.16464
1569658211.18027
1569658211.1959
1569658211.21152
1569658211.22715
1569658211.24277
1569658211.2584
1569658211.27402
1569658211.28965
1569658211.30528
1569658211.3209
1569658211.33653
1569658211.35215
1569658211.36778
1569658211.3834
1569658211.39903
1569658211.41466
1569658211.43028
1569658211.44591
1569658211.46153
1569658211.47716
1569658211.49278
1569658211.50841
1569658211.52404
1569658211.53966
1569658211.55529
1569658211.57091
1569658211.58654
1569658211.60216
1569658211.61779
1569658211.63342
1569658211.64904
1569658211.66467
1569658211.68029
1569658211.69592
1569658211.71154
1569658211.72717
1569658211.7428
1569658211.75842
1569658211.77405
1569658211.78967
1569658211.8053
1569658211.82092
1569658211.83655
1569658211.85218
1569658211.8678
1569658211.88343
1569658211.89905
1569658211.91468
1569658211.9303
1569658211.94593
1569658211.96156
1569658211.97718
1569658211.99281
1569658212.00843
1569658212.02406
1569658212.03968
1569658212.05531
1569658212.07094
1569658212.08656
1569658212.10219
1569658212.11781
1569658212.13344
1569658212.14906
1569658212.16469
1569658212.18032
1569658212.19594
1569658212.21157
1569658212.22719
1569658212.24282
1569658212.25845
1569658212.27407
1569658212.2897
1569658212.30532
1569658212.32095
1569658212.33657
1569658212.3522
1569658212.36783
1569658212.38345
1569658212.39908
1569658212.4147
1569658212.43033
1569658212.44595
1569658212.46158
1569658212.47721
1569658212.49283
1569658212.50846
1569658212.52408
1569658212.53971
1569658212.55533
1569658212.57096
1569658212.58659
1569658212.60221
1569658212.61784
1569658212.63346
1569658212.64909
1569658212.66471
1569658212.68034
1569658212.69597
1569658212.71159
1569658212.72722
1569658212.74284
1569658212.75847
1569658212.77409
1569658212.78972
1569658212.80535
1569658212.82097
1569658212.8366
1569658212.85222
1569658212.86785
1569658212.88347
1569658212.8991
1569658212.91473
1569658212.93035
1569658212.94598
1569658212.9616
1569658212.97723
1569658212.99285
1569658213.00848
1569658213.02411
1569658213.03973
1569658213.05536
1569658213.07098
1569658213.08661
1569658213.10223
1569658213.11786
1569658213.13349
1569658213.14911
1569658213.16474
1569658213.18036
1569658213.19599
1569658213.21161
1569658213.22724
1569658213.24287
1569658213.25849
1569658213.27412
1569658213.28974
1569658213.30537
1569658213.32099
1569658213.33662
1569658213.35225
1569658213.36787
1569658213.3835
1569658213.39912
1569658213.41475
1569658213.43037
1569658213.446
1569658213.46163
1569658213.47725
1569658213.49288
1569658213.5085
1569658213.52413
1569658213.53975
1569658213.55538
1569658213.57101
1569658213.58663
1569658213.60226
1569658213.61788
1569658213.63351
1569658213.64913
1569658213.66476
1569658213.68039
1569658213.69601
1569658213.71164
1569658213.72726
1569658213.74289
1569658213.75851
1569658213.77414
1569658213.78977
1569658213.80539
1569658213.82102
1569658213.83664
1569658213.85227
1569658213.86789
1569658213.88352
1569658213.89915
1569658213.91477
1569658213.9304
1569658213.94602
1569658213.96165
1569658213.97727
1569658213.9929
1569658214.00853
1569658214.02415
1569658214.03978
1569658214.0554
1569658214.07103
1569658214.08665
1569658214.10228
1569658214.11791
1569658214.13353
1569658214.14916
1569658214.16478
1569658214.18041
1569658214.19603
1569658214.21166
1569658214.22729
1569658214.24291
1569658214.25854
1569658214.27416
1569658214.28979
1569658214.30541
1569658214.32104
1569658214.33667
1569658214.35229
1569658214.36792
1569658214.38354
1569658214.39917
1569658214.41479
1569658214.43042
1569658214.44605
1569658214.46167
1569658214.4773
1569658214.49292
1569658214.50855
1569658214.52417
1569658214.5398
1569658214.55543
1569658214.57105
1569658214.58668
1569658214.6023
1569658214.61793
1569658214.63355
1569658214.64918
1569658214.66481
1569658214.68043
1569658214.69606
1569658214.71168
1569658214.72731
1569658214.74293
1569658214.75856
1569658214.77419
1569658214.78981
1569658214.80544
1569658214.82106
1569658214.83669
1569658214.85232
1569658214.86794
1569658214.88357
1569658214.89919
1569658214.91482
1569658214.93044
1569658214.94607
1569658214.9617
1569658214.97732
1569658214.99295
1569658215.00857
1569658215.0242
1569658215.03982
1569658215.05545
1569658215.07108
1569658215.0867
1569658215.10233
1569658215.11795
1569658215.13358
1569658215.1492
1569658215.16483
1569658215.18046
1569658215.19608
1569658215.21171
1569658215.22733
1569658215.24296
1569658215.25858
1569658215.27421
1569658215.28984
1569658215.30546
1569658215.32109
1569658215.33671
1569658215.35234
1569658215.36796
1569658215.38359
1569658215.39922
1569658215.41484
1569658215.43047
1569658215.44609
1569658215.46172
1569658215.47734
1569658215.49297
1569658215.5086
1569658215.52422
1569658215.53985
1569658215.55547
1569658215.5711
1569658215.58672
1569658215.60235
1569658215.61798
1569658215.6336
1569658215.64923
1569658215.66485
1569658215.68048
1569658215.6961
1569658215.71173
1569658215.72736
1569658215.74298
1569658215.75861
1569658215.77423
1569658215.78986
1569658215.80548
1569658215.82111
1569658215.83674
1569658215.85236
1569658215.86799
1569658215.88361
1569658215.89924
1569658215.91486
1569658215.93049
1569658215.94612
1569658215.96174
1569658215.97737
1569658215.99299
1569658216.00862
1569658216.02424
1569658216.03987
1569658216.0555
1569658216.07112
1569658216.08675
1569658216.10237
1569658216.118
1569658216.13362
1569658216.14925
1569658216.16488
1569658216.1805
1569658216.19613
1569658216.21175
1569658216.22738
1569658216.243
1569658216.25863
1569658216.27426
1569658216.28988
1569658216.30551
1569658216.32113
1569658216.33676
1569658216.35238
1569658216.36801
1569658216.38364
1569658216.39926
1569658216.41489
1569658216.43051
1569658216.44614
1569658216.46176
1569658216.47739
1569658216.49302
1569658216.50864
1569658216.52427
1569658216.53989
1569658216.55552
1569658216.57114
1569658216.58677
1569658216.6024
1569658216.61802
1569658216.63365
1569658216.64927
1569658216.6649
1569658216.68052
1569658216.69615
1569658216.71178
1569658216.7274
1569658216.74303
1569658216.75865
1569658216.77428
1569658216.7899
1569658216.80553
1569658216.82116
1569658216.83678
1569658216.85241
1569658216.86803
1569658216.88366
1569658216.89928
1569658216.91491
1569658216.93054
1569658216.94616
1569658216.96179
1569658216.97741
1569658216.99304
1569658217.00866
1569658217.02429
1569658217.03992
1569658217.05554
1569658217.07117
1569658217.08679
1569658217.10242
1569658217.11805
1569658217.13367
1569658217.1493
1569658217.16492
1569658217.18055
1569658217.19617
1569658217.2118
1569658217.22743
1569658217.24305
1569658217.25868
1569658217.2743
1569658217.28993
1569658217.30555
1569658217.32118
1569658217.33681
1569658217.35243
1569658217.36806
1569658217.38368
1569658217.39931
1569658217.41493
1569658217.43056
1569658217.44619
1569658217.46181
1569658217.47744
1569658217.49306
1569658217.50869
1569658217.52431
1569658217.53994
1569658217.55557
1569658217.57119
1569658217.58682
1569658217.60244
1569658217.61807
1569658217.63369
1569658217.64932
1569658217.66495
1569658217.68057
1569658217.6962
1569658217.71182
1569658217.72745
1569658217.74307
1569658217.7587
1569658217.77433
1569658217.78995
1569658217.80558
1569658217.8212
1569658217.83683
1569658217.85245
1569658217.86808
1569658217.88371
1569658217.89933
1569658217.91496
1569658217.93058
1569658217.94621
1569658217.96183
1569658217.97746
1569658217.99309
1569658218.00871
1569658218.02434
1569658218.03996
1569658218.05559
1569658218.07121
1569658218.08684
1569658218.10247
1569658218.11809
1569658218.13372
1569658218.14934
1569658218.16497
1569658218.18059
1569658218.19622
1569658218.21185
1569658218.22747
1569658218.2431
1569658218.25872
1569658218.27435
1569658218.28997
1569658218.3056
1569658218.32123
1569658218.33685
1569658218.35248
1569658218.3681
1569658218.38373
1569658218.39935
1569658218.41498
1569658218.43061
1569658218.44623
1569658218.46186
1569658218.47748
1569658218.49311
1569658218.50873
1569658218.52436
1569658218.53999
1569658218.55561
1569658218.57124
1569658218.58686
1569658218.60249
1569658218.61811
1569658218.63374
1569658218.64937
1569658218.66499
1569658218.68062
1569658218.69624
1569658218.71187
1569658218.72749
1569658218.74312
1569658218.75875
1569658218.77437
1569658218.79
1569658218.80562
1569658218.82125
1569658218.83687
1569658218.8525
1569658218.86813
1569658218.88375
1569658218.89938
1569658218.915
1569658218.93063
1569658218.94625
1569658218.96188
1569658218.97751
1569658218.99313
1569658219.00876
1569658219.02438
1569658219.04001
1569658219.05563
1569658219.07126
1569658219.08689
1569658219.10251
1569658219.11814
1569658219.13376
1569658219.14939
1569658219.16501
1569658219.18064
1569658219.19627
1569658219.21189
1569658219.22752
1569658219.24314
1569658219.25877
1569658219.27439
1569658219.29002
1569658219.30565
1569658219.32127
1569658219.3369
1569658219.35252
1569658219.36815
1569658219.38378
1569658219.3994
1569658219.41503
1569658219.43065
1569658219.44628
1569658219.4619
1569658219.47753
1569658219.49316
1569658219.50878
1569658219.52441
1569658219.54003
1569658219.55566
1569658219.57128
1569658219.58691
1569658219.60254
1569658219.61816
1569658219.63379
1569658219.64941
1569658219.66504
1569658219.68066
1569658219.69629
1569658219.71192
1569658219.72754
1569658219.74317
1569658219.75879
1569658219.77442
1569658219.79004
1569658219.80567
1569658219.8213
1569658219.83692
1569658219.85255
1569658219.86817
1569658219.8838
1569658219.89942
1569658219.91505
1569658219.93068
1569658219.9463
1569658219.96193
1569658219.97755
1569658219.99318
1569658220.0088
1569658220.02443
1569658220.04006
1569658220.05568
1569658220.07131
1569658220.08693
1569658220.10256
1569658220.11818
1569658220.13381
1569658220.14944
1569658220.16506
1569658220.18069
1569658220.19631
1569658220.21194
1569658220.22756
1569658220.24319
1569658220.25882
1569658220.27444
1569658220.29007
1569658220.30569
1569658220.32132
1569658220.33694
1569658220.35257
1569658220.3682
1569658220.38382
1569658220.39945
1569658220.41507
1569658220.4307
1569658220.44632
1569658220.46195
1569658220.47758
1569658220.4932
1569658220.50883
1569658220.52445
1569658220.54008
1569658220.5557
1569658220.57133
1569658220.58696
1569658220.60258
1569658220.61821
1569658220.63383
1569658220.64946
1569658220.66508
1569658220.68071
1569658220.69634
1569658220.71196
1569658220.72759
1569658220.74321
1569658220.75884
1569658220.77446
1569658220.79009
1569658220.80572
1569658220.82134
1569658220.83697
1569658220.85259
1569658220.86822
1569658220.88384
1569658220.89947
1569658220.9151
1569658220.93072
1569658220.94635
1569658220.96197
1569658220.9776
1569658220.99322
1569658221.00885
1569658221.02448
1569658221.0401
1569658221.05573
1569658221.07135
1569658221.08698
1569658221.1026
1569658221.11823
1569658221.13386
1569658221.14948
1569658221.16511
1569658221.18073
1569658221.19636
1569658221.21198
1569658221.22761
1569658221.24324
1569658221.25886
1569658221.27449
1569658221.29011
1569658221.30574
1569658221.32136
1569658221.33699
1569658221.35262
1569658221.36824
1569658221.38387
1569658221.39949
1569658221.41512
1569658221.43074
1569658221.44637
1569658221.462
1569658221.47762
1569658221.49325
1569658221.50887
1569658221.5245
1569658221.54012
1569658221.55575
1569658221.57138
1569658221.587
1569658221.60263
1569658221.61825
1569658221.63388
1569658221.6495
1569658221.66513
1569658221.68076
1569658221.69638
1569658221.71201
1569658221.72763
1569658221.74326
1569658221.75888
1569658221.77451
1569658221.79014
1569658221.80576
1569658221.82139
1569658221.83701
1569658221.85264
1569658221.86826
1569658221.88389
1569658221.89952
1569658221.91514
1569658221.93077
1569658221.94639
1569658221.96202
1569658221.97765
1569658221.99327
1569658222.0089
1569658222.02452
1569658222.04015
1569658222.05577
1569658222.0714
1569658222.08703
1569658222.10265
1569658222.11828
1569658222.1339
1569658222.14953
1569658222.16515
1569658222.18078
1569658222.19641
1569658222.21203
1569658222.22766
1569658222.24328
1569658222.25891
1569658222.27453
1569658222.29016
1569658222.30579
1569658222.32141
1569658222.33704
1569658222.35266
1569658222.36829
1569658222.38391
1569658222.39954
1569658222.41517
1569658222.43079
1569658222.44642
1569658222.46204
1569658222.47767
1569658222.49329
1569658222.50892
1569658222.52455
1569658222.54017
1569658222.5558
1569658222.57142
1569658222.58705
1569658222.60267
1569658222.6183
1569658222.63393
1569658222.64955
1569658222.66518
1569658222.6808
1569658222.69643
1569658222.71205
1569658222.72768
1569658222.74331
1569658222.75893
1569658222.77456
1569658222.79018
1569658222.80581
1569658222.82143
1569658222.83706
1569658222.85269
1569658222.86831
1569658222.88394
1569658222.89956
1569658222.91519
1569658222.93081
1569658222.94644
1569658222.96207
1569658222.97769
1569658222.99332
1569658223.00894
1569658223.02457
1569658223.04019
1569658223.05582
1569658223.07145
1569658223.08707
1569658223.1027
1569658223.11832
1569658223.13395
1569658223.14957
1569658223.1652
1569658223.18083
1569658223.19645
1569658223.21208
1569658223.2277
1569658223.24333
1569658223.25895
1569658223.27458
1569658223.29021
1569658223.30583
1569658223.32146
1569658223.33708
1569658223.35271
1569658223.36833
1569658223.38396
1569658223.39959
1569658223.41521
1569658223.43084
1569658223.44646
1569658223.46209
1569658223.47771
1569658223.49334
1569658223.50897
1569658223.52459
1569658223.54022
1569658223.55584
1569658223.57147
1569658223.58709
1569658223.60272
1569658223.61835
1569658223.63397
1569658223.6496
1569658223.66522
1569658223.68085
1569658223.69647
1569658223.7121
1569658223.72773
1569658223.74335
1569658223.75898
1569658223.7746
1569658223.79023
1569658223.80585
1569658223.82148
1569658223.83711
1569658223.85273
1569658223.86836
1569658223.88398
1569658223.89961
1569658223.91523
1569658223.93086
1569658223.94649
1569658223.96211
1569658223.97774
1569658223.99336
1569658224.00899
1569658224.02461
1569658224.04024
1569658224.05587
1569658224.07149
1569658224.08712
1569658224.10274
1569658224.11837
1569658224.13399
1569658224.14962
1569658224.16525
1569658224.18087
1569658224.1965
1569658224.21212
1569658224.22775
1569658224.24338
1569658224.259
1569658224.27463
1569658224.29025
1569658224.30588
1569658224.3215
1569658224.33713
1569658224.35276
1569658224.36838
1569658224.38401
1569658224.39963
1569658224.41526
1569658224.43088
1569658224.44651
1569658224.46214
1569658224.47776
1569658224.49339
1569658224.50901
1569658224.52464
1569658224.54026
1569658224.55589
1569658224.57152
1569658224.58714
1569658224.60277
1569658224.61839
1569658224.63402
1569658224.64964
1569658224.66527
1569658224.6809
1569658224.69652
1569658224.71215
1569658224.72777
1569658224.7434
1569658224.75902
1569658224.77465
1569658224.79028
1569658224.8059
1569658224.82153
1569658224.83715
1569658224.85278
1569658224.8684
1569658224.88403
1569658224.89966
1569658224.91528
1569658224.93091
1569658224.94653
1569658224.96216
1569658224.97778
1569658224.99341
1569658225.00904
1569658225.02466
1569658225.04029
1569658225.05591
1569658225.07154
1569658225.08716
1569658225.10279
1569658225.11842
1569658225.13404
1569658225.14967
1569658225.16529
1569658225.18092
1569658225.19654
1569658225.21217
1569658225.2278
1569658225.24342
1569658225.25905
1569658225.27467
1569658225.2903
1569658225.30592
1569658225.32155
1569658225.33718
1569658225.3528
1569658225.36843
1569658225.38405
1569658225.39968
1569658225.4153
1569658225.43093
1569658225.44656
1569658225.46218
1569658225.47781
1569658225.49343
1569658225.50906
1569658225.52468
1569658225.54031
1569658225.55594
1569658225.57156
1569658225.58719
1569658225.60281
1569658225.61844
1569658225.63406
1569658225.64969
1569658225.66532
1569658225.68094
1569658225.69657
1569658225.71219
1569658225.72782
1569658225.74344
1569658225.75907
1569658225.7747
1569658225.79032
1569658225.80595
1569658225.82157
1569658225.8372
1569658225.85282
1569658225.86845
1569658225.88408
1569658225.8997
1569658225.91533
1569658225.93095
1569658225.94658
1569658225.9622
1569658225.97783
1569658225.99346
1569658226.00908
1569658226.02471
1569658226.04033
1569658226.05596
1569658226.07158
1569658226.08721
1569658226.10284
1569658226.11846
1569658226.13409
1569658226.14971
1569658226.16534
1569658226.18096
1569658226.19659
1569658226.21222
1569658226.22784
1569658226.24347
1569658226.25909
1569658226.27472
1569658226.29034
1569658226.30597
1569658226.3216
1569658226.33722
1569658226.35285
1569658226.36847
1569658226.3841
1569658226.39972
1569658226.41535
1569658226.43098
1569658226.4466
1569658226.46223
1569658226.47785
1569658226.49348
1569658226.5091
1569658226.52473
1569658226.54036
1569658226.55598
1569658226.57161
1569658226.58723
1569658226.60286
1569658226.61848
1569658226.63411
1569658226.64974
1569658226.66536
1569658226.68099
1569658226.69661
1569658226.71224
1569658226.72786
1569658226.74349
1569658226.75912
1569658226.77474
1569658226.79037
1569658226.80599
1569658226.82162
1569658226.83725
1569658226.85287
1569658226.8685
1569658226.88412
1569658226.89975
1569658226.91537
1569658226.931
1569658226.94663
1569658226.96225
1569658226.97788
1569658226.9935
1569658227.00913
1569658227.02475
1569658227.04038
1569658227.05601
1569658227.07163
1569658227.08726
1569658227.10288
1569658227.11851
1569658227.13413
1569658227.14976
1569658227.16539
1569658227.18101
1569658227.19664
1569658227.21226
1569658227.22789
1569658227.24351
1569658227.25914
1569658227.27477
1569658227.29039
1569658227.30602
1569658227.32164
1569658227.33727
1569658227.35289
1569658227.36852
1569658227.38415
1569658227.39977
1569658227.4154
1569658227.43102
1569658227.44665
1569658227.46227
1569658227.4779
1569658227.49353
1569658227.50915
1569658227.52478
1569658227.5404
1569658227.55603
1569658227.57165
1569658227.58728
1569658227.60291
1569658227.61853
1569658227.63416
1569658227.64978
1569658227.66541
1569658227.68103
1569658227.69666
1569658227.71229
1569658227.72791
1569658227.74354
1569658227.75916
1569658227.77479
1569658227.79041
1569658227.80604
1569658227.82167
1569658227.83729
1569658227.85292
1569658227.86854
1569658227.88417
1569658227.89979
1569658227.91542
1569658227.93105
1569658227.94667
1569658227.9623
1569658227.97792
1569658227.99355
1569658228.00917
1569658228.0248
1569658228.04043
1569658228.05605
1569658228.07168
1569658228.0873
1569658228.10293
1569658228.11855
1569658228.13418
1569658228.14981
1569658228.16543
1569658228.18106
1569658228.19668
1569658228.21231
1569658228.22793
1569658228.24356
1569658228.25919
1569658228.27481
1569658228.29044
1569658228.30606
1569658228.32169
1569658228.33731
1569658228.35294
1569658228.36857
1569658228.38419
1569658228.39982
1569658228.41544
1569658228.43107
1569658228.44669
1569658228.46232
1569658228.47795
1569658228.49357
1569658228.5092
1569658228.52482
1569658228.54045
1569658228.55607
1569658228.5717
1569658228.58733
1569658228.60295
1569658228.61858
1569658228.6342
1569658228.64983
1569658228.66545
1569658228.68108
1569658228.69671
1569658228.71233
1569658228.72796
1569658228.74358
1569658228.75921
1569658228.77483
1569658228.79046
1569658228.80609
1569658228.82171
1569658228.83734
1569658228.85296
1569658228.86859
1569658228.88421
1569658228.89984
1569658228.91547
1569658228.93109
1569658228.94672
1569658228.96234
1569658228.97797
1569658228.99359
1569658229.00922
1569658229.02485
1569658229.04047
1569658229.0561
1569658229.07172
1569658229.08735
1569658229.10298
1569658229.1186
1569658229.13423
1569658229.14985
1569658229.16548
1569658229.1811
1569658229.19673
1569658229.21236
1569658229.22798
1569658229.24361
1569658229.25923
1569658229.27486
1569658229.29048
1569658229.30611
1569658229.32174
1569658229.33736
1569658229.35299
1569658229.36861
1569658229.38424
1569658229.39986
1569658229.41549
1569658229.43112
1569658229.44674
1569658229.46237
1569658229.47799
1569658229.49362
1569658229.50924
1569658229.52487
1569658229.5405
1569658229.55612
1569658229.57175
1569658229.58737
1569658229.603
1569658229.61862
1569658229.63425
1569658229.64988
1569658229.6655
1569658229.68113
1569658229.69675
1569658229.71238
1569658229.728
1569658229.74363
1569658229.75926
1569658229.77488
1569658229.79051
1569658229.80613
1569658229.82176
1569658229.83738
1569658229.85301
1569658229.86864
1569658229.88426
1569658229.89989
1569658229.91551
1569658229.93114
1569658229.94676
1569658229.96239
1569658229.97802
1569658229.99364
1569658230.00927
1569658230.02489
1569658230.04052
1569658230.05614
1569658230.07177
1569658230.0874
1569658230.10302
1569658230.11865
1569658230.13427
1569658230.1499
1569658230.16552
1569658230.18115
1569658230.19678
1569658230.2124
1569658230.22803
1569658230.24365
1569658230.25928
1569658230.2749
1569658230.29053
1569658230.30616
1569658230.32178
1569658230.33741
1569658230.35303
1569658230.36866
1569658230.38428
1569658230.39991
1569658230.41554
1569658230.43116
1569658230.44679
1569658230.46241
1569658230.47804
1569658230.49366
1569658230.50929
1569658230.52492
1569658230.54054
1569658230.55617
1569658230.57179
1569658230.58742
1569658230.60304
1569658230.61867
1569658230.6343
1569658230.64992
1569658230.66555
1569658230.68117
1569658230.6968
1569658230.71242
1569658230.72805
1569658230.74368
1569658230.7593
1569658230.77493
1569658230.79055
1569658230.80618
1569658230.8218
1569658230.83743
1569658230.85306
1569658230.86868
1569658230.88431
1569658230.89993
1569658230.91556
1569658230.93118
1569658230.94681
1569658230.96244
1569658230.97806
1569658230.99369
1569658231.00931
1569658231.02494
1569658231.04056
1569658231.05619
1569658231.07182
1569658231.08744
1569658231.10307
1569658231.11869
1569658231.13432
1569658231.14994
1569658231.16557
1569658231.1812
1569658231.19682
1569658231.21245
1569658231.22807
1569658231.2437
1569658231.25933
1569658231.27495
1569658231.29058
1569658231.3062
1569658231.32183
1569658231.33745
1569658231.35308
1569658231.36871
1569658231.38433
1569658231.39996
1569658231.41558
1569658231.43121
1569658231.44683
1569658231.46246
1569658231.47809
1569658231.49371
1569658231.50934
1569658231.52496
1569658231.54059
1569658231.55621
1569658231.57184
1569658231.58747
1569658231.60309
1569658231.61872
1569658231.63434
1569658231.64997
1569658231.66559
1569658231.68122
1569658231.69685
1569658231.71247
1569658231.7281
1569658231.74372
1569658231.75935
1569658231.77497
1569658231.7906
1569658231.80623
1569658231.82185
1569658231.83748
1569658231.8531
1569658231.86873
1569658231.88435
1569658231.89998
1569658231.91561
1569658231.93123
1569658231.94686
1569658231.96248
1569658231.97811
1569658231.99373
1569658232.00936
1569658232.02499
1569658232.04061
1569658232.05624
1569658232.07186
1569658232.08749
1569658232.10311
1569658232.11874
1569658232.13437
1569658232.14999
1569658232.16562
1569658232.18124
1569658232.19687
1569658232.21249
1569658232.22812
1569658232.24375
1569658232.25937
1569658232.275
1569658232.29062
1569658232.30625
1569658232.32187
1569658232.3375
1569658232.35313
1569658232.36875
1569658232.38438
1569658232.4
1569658232.41563
1569658232.43125
1569658232.44688
1569658232.46251
1569658232.47813
1569658232.49376
1569658232.50938
1569658232.52501
1569658232.54063
1569658232.55626
1569658232.57189
1569658232.58751
1569658232.60314
1569658232.61876
1569658232.63439
1569658232.65001
1569658232.66564
1569658232.68127
1569658232.69689
1569658232.71252
1569658232.72814
1569658232.74377
1569658232.75939
1569658232.77502
1569658232.79065
1569658232.80627
1569658232.8219
1569658232.83752
1569658232.85315
1569658232.86877
1569658232.8844
1569658232.90003
1569658232.91565
1569658232.93128
1569658232.9469
1569658232.96253
1569658232.97815
1569658232.99378
1569658233.00941
1569658233.02503
1569658233.04066
1569658233.05628
1569658233.07191
1569658233.08753
1569658233.10316
1569658233.11879
1569658233.13441
1569658233.15004
1569658233.16566
1569658233.18129
1569658233.19691
1569658233.21254
1569658233.22817
1569658233.24379
1569658233.25942
1569658233.27504
1569658233.29067
1569658233.30629
1569658233.32192
1569658233.33755
1569658233.35317
1569658233.3688
1569658233.38442
1569658233.40005
1569658233.41567
1569658233.4313
1569658233.44693
1569658233.46255
1569658233.47818
1569658233.4938
1569658233.50943
1569658233.52505
1569658233.54068
1569658233.55631
1569658233.57193
1569658233.58756
1569658233.60318
1569658233.61881
1569658233.63443
1569658233.65006
1569658233.66569
1569658233.68131
1569658233.69694
1569658233.71256
1569658233.72819
1569658233.74381
1569658233.75944
1569658233.77507
1569658233.79069
1569658233.80632
1569658233.82194
1569658233.83757
1569658233.85319
1569658233.86882
1569658233.88445
1569658233.90007
1569658233.9157
1569658233.93132
1569658233.94695
1569658233.96258
1569658233.9782
1569658233.99383
1569658234.00945
1569658234.02508
1569658234.0407
1569658234.05633
1569658234.07196
1569658234.08758
1569658234.10321
1569658234.11883
1569658234.13446
1569658234.15008
1569658234.16571
1569658234.18134
1569658234.19696
1569658234.21259
1569658234.22821
1569658234.24384
1569658234.25946
1569658234.27509
1569658234.29072
1569658234.30634
1569658234.32197
1569658234.33759
1569658234.35322
1569658234.36884
1569658234.38447
1569658234.4001
1569658234.41572
1569658234.43135
1569658234.44697
1569658234.4626
1569658234.47822
1569658234.49385
1569658234.50948
1569658234.5251
1569658234.54073
1569658234.55635
1569658234.57198
1569658234.5876
1569658234.60323
1569658234.61886
1569658234.63448
1569658234.65011
1569658234.66573
1569658234.68136
1569658234.69698
1569658234.71261
1569658234.72824
1569658234.74386
1569658234.75949
1569658234.77511
1569658234.79074
1569658234.80636
1569658234.82199
1569658234.83762
1569658234.85324
1569658234.86887
1569658234.88449
1569658234.90012
1569658234.91574
1569658234.93137
1569658234.947
1569658234.96262
1569658234.97825
1569658234.99387
1569658235.0095
1569658235.02512
1569658235.04075
1569658235.05638
1569658235.072
1569658235.08763
1569658235.10325
1569658235.11888
1569658235.1345
1569658235.15013
1569658235.16576
1569658235.18138
1569658235.19701
1569658235.21263
1569658235.22826
1569658235.24388
1569658235.25951
1569658235.27514
1569658235.29076
1569658235.30639
1569658235.32201
1569658235.33764
1569658235.35326
1569658235.36889
1569658235.38452
1569658235.40014
1569658235.41577
1569658235.43139
1569658235.44702
1569658235.46264
1569658235.47827
1569658235.4939
1569658235.50952
1569658235.52515
1569658235.54077
1569658235.5564
1569658235.57202
1569658235.58765
1569658235.60328
1569658235.6189
1569658235.63453
1569658235.65015
1569658235.66578
1569658235.6814
1569658235.69703
1569658235.71266
1569658235.72828
1569658235.74391
1569658235.75953
1569658235.77516
1569658235.79078
1569658235.80641
1569658235.82204
1569658235.83766
1569658235.85329
1569658235.86891
1569658235.88454
1569658235.90016
1569658235.91579
1569658235.93142
1569658235.94704
1569658235.96267
1569658235.97829
1569658235.99392
1569658236.00954
1569658236.02517
1569658236.0408
1569658236.05642
1569658236.07205
1569658236.08767
1569658236.1033
1569658236.11893
1569658236.13455
1569658236.15018
1569658236.1658
1569658236.18143
1569658236.19705
1569658236.21268
1569658236.22831
1569658236.24393
1569658236.25956
1569658236.27518
1569658236.29081
1569658236.30643
1569658236.32206
1569658236.33769
1569658236.35331
1569658236.36894
1569658236.38456
1569658236.40019
1569658236.41581
1569658236.43144
1569658236.44707
1569658236.46269
1569658236.47832
1569658236.49394
1569658236.50957
1569658236.52519
1569658236.54082
1569658236.55645
1569658236.57207
1569658236.5877
1569658236.60332
1569658236.61895
1569658236.63457
1569658236.6502
1569658236.66583
1569658236.68145
1569658236.69708
1569658236.7127
1569658236.72833
1569658236.74395
1569658236.75958
1569658236.77521
1569658236.79083
1569658236.80646
1569658236.82208
1569658236.83771
1569658236.85333
1569658236.86896
1569658236.88459
1569658236.90021
1569658236.91584
1569658236.93146
1569658236.94709
1569658236.96271
1569658236.97834
1569658236.99397
1569658237.00959
1569658237.02522
1569658237.04084
1569658237.05647
1569658237.07209
1569658237.08772
1569658237.10335
1569658237.11897
1569658237.1346
1569658237.15022
1569658237.16585
1569658237.18147
1569658237.1971
1569658237.21273
1569658237.22835
1569658237.24398
1569658237.2596
1569658237.27523
1569658237.29085
1569658237.30648
1569658237.32211
1569658237.33773
1569658237.35336
1569658237.36898
1569658237.38461
1569658237.40023
1569658237.41586
1569658237.43149
1569658237.44711
1569658237.46274
1569658237.47836
1569658237.49399
1569658237.50961
1569658237.52524
1569658237.54087
1569658237.55649
1569658237.57212
1569658237.58774
1569658237.60337
1569658237.61899
1569658237.63462
1569658237.65025
1569658237.66587
1569658237.6815
1569658237.69712
1569658237.71275
1569658237.72837
1569658237.744
1569658237.75963
1569658237.77525
1569658237.79088
1569658237.8065
1569658237.82213
1569658237.83775
1569658237.85338
1569658237.86901
1569658237.88463
1569658237.90026
1569658237.91588
1569658237.93151
1569658237.94713
1569658237.96276
1569658237.97839
1569658237.99401
1569658238.00964
1569658238.02526
1569658238.04089
1569658238.05651
1569658238.07214
1569658238.08777
1569658238.10339
1569658238.11902
1569658238.13464
1569658238.15027
1569658238.16589
1569658238.18152
1569658238.19715
1569658238.21277
1569658238.2284
1569658238.24402
1569658238.25965
1569658238.27527
1569658238.2909
1569658238.30653
1569658238.32215
1569658238.33778
1569658238.3534
1569658238.36903
1569658238.38466
1569658238.40028
1569658238.41591
1569658238.43153
1569658238.44716
1569658238.46278
1569658238.47841
1569658238.49404
1569658238.50966
1569658238.52529
1569658238.54091
1569658238.55654
1569658238.57216
1569658238.58779
1569658238.60342
1569658238.61904
1569658238.63467
1569658238.65029
1569658238.66592
1569658238.68154
1569658238.69717
1569658238.7128
1569658238.72842
1569658238.74405
1569658238.75967
1569658238.7753
1569658238.79092
1569658238.80655
1569658238.82218
1569658238.8378
1569658238.85343
1569658238.86905
1569658238.88468
1569658238.9003
1569658238.91593
1569658238.93156
1569658238.94718
1569658238.96281
1569658238.97843
1569658238.99406
1569658239.00968
1569658239.02531
1569658239.04094
1569658239.05656
1569658239.07219
1569658239.08781
1569658239.10344
1569658239.11906
1569658239.13469
1569658239.15032
1569658239.16594
1569658239.18157
1569658239.19719
1569658239.21282
1569658239.22844
1569658239.24407
1569658239.2597
1569658239.27532
1569658239.29095
1569658239.30657
1569658239.3222
1569658239.33782
1569658239.35345
1569658239.36908
1569658239.3847
1569658239.40033
1569658239.41595
1569658239.43158
1569658239.4472
1569658239.46283
1569658239.47846
1569658239.49408
1569658239.50971
1569658239.52533
1569658239.54096
1569658239.55658
1569658239.57221
1569658239.58784
1569658239.60346
1569658239.61909
1569658239.63471
1569658239.65034
