8.107178
9.025894
9.377335
9.183151
8.516006
7.551529
6.616623
6.032501
6.004776
6.521011
7.392258
8.30394
8.97995
9.284363
9.177521
8.699295
7.856873
6.627274
4.966339
2.945053
0.7484436
-1.340881
-3.024155
-4.209763
-4.952606
-5.467773
-5.987152
-6.682358
-7.577606
-8.613907
-9.746216
-10.9529
-12.23483
-13.48495
-14.41734
-14.59709
-13.65334
-11.45302
-8.20401
-4.456589
-0.8253937
2.158218
4.270004
5.582352
6.365524
6.855225
7.197159
7.377762
7.28183
6.908936
6.325027
5.710022
5.267853
5.084869
5.123322
5.231903
5.231934
4.98056
4.477814
3.801544
3.093811
2.463104
1.978607
1.589294
1.232269
0.7998352
0.1828003
-0.6434326
-1.642792
-2.706421
-3.713776
-4.626984
-5.480591
-6.374847
-7.463257
-8.854401
-10.53812
-12.40109
-14.15103
-15.43491
-15.90363
-15.24323
-13.33047
-10.32416
-6.589905
-2.640717
0.9509277
3.741028
5.510254
6.251862
6.136108
5.442535
4.426971
3.332336
2.387726
1.728424
1.411865
1.452667
1.789185
2.3349
3.003937
3.753601
4.507813
5.181458
5.59433
5.571564
5.007263
3.927856
2.520874
1.016388
-0.3251038
-1.347626
-2.028351
-2.441956
-2.682617
-2.869476
-3.121094
-3.582123
-4.401123
-5.662476
-7.330963
-9.129425
-10.61688
-11.24493
-10.62689
-8.703827
-5.7901
-2.479706
0.5539856
2.776398
3.999542
4.322754
4.016724
3.314819
2.322083
1.043518
-0.5209656
-2.284973
-4.045563
-5.52655
-6.521454
-6.915192
-6.732452
-6.107544
-5.183319
-4.165833
-3.236755
-2.542206
-2.160309
-2.076538
-2.242279
-2.578491
-3.075897
-3.754852
-4.691986
-5.872101
-7.206787
-8.542587
-9.789551
-10.98285
-12.22255
-13.61282
-15.1008
-16.39093
-16.96561
-16.27618
-13.96642
-10.10732
-5.169052
0.07891846
4.893585
8.744385
11.42255
13.03618
13.7607
13.73611
13.00563
11.67921
9.954758
8.239929
6.936081
6.317719
6.407135
6.98613
7.732254
8.369827
8.815506
9.0672
9.191986
9.170975
8.891876
8.228989
7.115204
5.571686
3.699905
1.612976
-0.6172028
-2.854263
-5.005737
-6.976669
-8.72699
-10.32811
-11.93468
-13.75211
-15.91649
-18.40599
-20.88611
-22.80989
-23.57166
-22.68619
-20.06291
-15.99933
-11.14371
-6.198898
-1.732834
1.991455
4.979523
7.292221
9.007217
10.08731
10.56349
10.53749
10.24994
9.952728
9.795715
9.761597
9.70401
9.469757
8.956085
8.238586
7.432587
6.709518
6.162247
5.813812
5.627762
5.539017
5.460739
5.275009
4.860382
4.080292
2.856842
1.179749
-0.8495941
-3.04155
-5.188095
-7.090851
-8.702545
-10.10539
-11.50325
-13.10114
-15.01573
-17.20457
-19.33073
-20.9257
-21.45708
-20.53979
-18.11247
-14.46982
-10.1561
-5.754822
-1.796829
1.481918
3.97998
5.752869
6.860504
7.370026
7.349274
6.944839
6.369934
5.878204
5.746338
6.108566
6.921143
7.985626
9.009491
9.675232
9.793472
9.371674
8.563965
7.672211
6.92955
6.410858
6.006577
5.477631
4.635208
3.421066
1.904678
0.2368622
-1.415802
-2.978043
-4.42971
-5.778526
-7.060493
-8.285194
-9.489014
-10.74288
-12.14215
-13.71506
-15.41299
-17.07322
-18.39667
-19.0552
-18.71925
-17.15619
-14.36332
-10.58891
-6.312515
-2.124023
1.452438
4.126854
5.870949
6.854652
7.351784
7.582176
7.646492
7.565247
7.379135
7.218948
7.271698
7.726997
8.628334
9.849548
11.10458
12.07166
12.5821
12.61192
12.31248
11.89209
11.47133
11.045
10.50257
9.672043
8.421036
6.772762
4.812477
2.667244
0.4809761
-1.613369
-3.561768
-5.256741
-6.649475
-7.750553
-8.653648
-9.593369
-10.86006
-12.70416
-15.13052
-17.92059
-20.48589
-22.11293
-22.17759
-20.37241
-16.81826
-11.9886
-6.572206
-1.242207
3.424564
7.135122
9.750738
11.30465
11.95452
11.92449
11.45414
10.81508
10.20616
9.748637
9.526391
9.538016
9.726716
10.02852
10.34442
10.62845
10.88675
11.16834
11.53706
12.00602
12.51481
12.89387
12.98929
12.63198
11.74528
10.31729
8.394647
6.082903
3.488336
0.7673559
-1.988584
-4.645456
-7.13978
-9.380472
-11.34295
-13.03641
-14.50407
-15.8631
-17.27049
-18.93179
-20.93659
-23.22941
-25.45193
-27.02551
-27.28009
-25.74092
-22.32784
-17.39682
-11.61826
-5.768539
-0.4724388
3.917305
7.331615
9.889343
11.76196
13.07527
13.93372
14.41612
14.62967
14.69196
14.75541
14.9441
15.35775
16.01469
16.81193
17.57261
18.105
18.25701
18.02366
17.45313
16.65837
15.73877
14.72168
13.61022
12.34705
10.93293
9.408012
7.904236
6.496468
5.239265
4.115395
3.032288
1.881233
0.551178
-0.9995117
-2.726395
-4.503662
-6.21209
-7.735664
-9.067032
-10.31373
-11.69583
-13.4027
-15.52969
-17.88214
-20.03556
-21.41654
-21.51903
-20.03921
-17.0251
-12.84691
-8.022072
-3.108643
1.502426
5.523407
8.813324
11.27258
12.91151
13.81226
14.1282
14.02275
13.6396
13.08668
12.42017
11.74963
11.21922
11.00898
11.27306
12.03505
13.1776
14.47468
15.67916
16.59994
17.12529
17.22229
16.81339
15.88318
14.45755
12.70076
10.81804
8.996292
7.337341
5.769852
4.151138
2.307831
0.1947174
-2.101334
-4.311356
-6.195297
-7.642349
-8.666245
-9.458237
-10.24622
-11.22047
-12.48148
-14.02411
-15.65829
-17.11427
-18.01636
-17.96997
-16.68961
-14.1039
-10.40166
-5.998413
-1.439682
2.785202
6.303879
8.936661
10.64714
11.50679
11.70078
11.48219
11.1037
10.75319
10.53523
10.43073
10.3956
10.43092
10.59102
10.96919
11.61104
12.42517
13.26486
13.95645
14.39467
14.56876
14.52603
14.28949
13.8578
13.17474
12.21375
11.01398
9.645584
8.211533
6.796356
5.45607
4.178726
2.98468
1.814545
0.655838
-0.4947357
-1.631317
-2.724777
-3.77536
-4.817337
-5.981369
-7.351974
-8.942535
-10.51784
-11.67542
-11.91339
-10.87436
-8.534973
-5.238068
-1.616714
1.715561
4.289169
5.976669
6.867249
7.183868
7.097626
6.717621
6.083725
5.212463
4.194069
3.128395
2.189774
1.514931
1.199425
1.261032
1.643288
2.234451
2.867722
3.391747
3.699905
3.779015
3.62014
3.251511
2.722466
2.064034
1.300591
0.4089584
-0.6289291
-1.859383
-3.295357
-4.887932
-6.555054
-8.19413
-9.75515
-11.28002
-12.86196
-14.56953
-16.39964
-18.28419
-20.09576
-21.72615
-23.09431
-24.04631
-24.30212
-23.50347
-21.27354
-17.49573
-12.48811
-6.921616
-1.686989
2.462067
5.181595
6.61338
7.237411
7.576996
7.977592
8.488419
9.012573
9.392639
9.574348
9.660622
9.797874
10.07616
10.47101
10.90102
11.27079
11.56046
11.7351
11.72724
11.47385
10.88316
9.919907
8.677338
7.24102
5.666687
3.950066
2.011902
-0.1812363
-2.491585
-4.663391
-6.429085
-7.633087
-8.351982
-8.919395
-9.63945
-10.76014
-12.30699
-14.13175
-16.00841
-17.7189
-19.09402
-19.917
-20.01583
-19.15075
-17.17793
-14.13612
-10.2842
-6.051727
-1.949318
1.593758
4.330894
6.213943
7.367531
7.975548
8.206177
8.199905
8.0616
7.869797
7.704201
7.641083
7.736389
8.002426
8.384331
8.778908
9.13002
9.387459
9.580841
9.754936
9.939377
10.05072
9.943695
9.480553
8.527977
7.080742
5.20787
3.090508
0.9298935
-1.093346
-2.867599
-4.371643
-5.615265
-6.674721
-7.614639
-8.54184
-9.534363
-10.6934
-12.14796
-14.00798
-16.25188
-18.69236
-20.87379
-22.18565
-22.05798
-20.15448
-16.54861
-11.69762
-6.300606
-1.05555
3.497482
7.118599
9.774445
11.5794
12.65209
13.09689
13.03221
12.59376
12.01379
11.50104
11.22266
11.23395
11.45445
11.7448
11.9502
12.01564
11.96717
11.89044
11.838
11.79901
11.70706
11.45988
11.05721
10.53112
9.968704
9.356842
8.623428
7.625061
6.214233
4.401405
2.298096
0.1392517
-1.83606
-3.493736
-4.832504
-5.965698
-7.059044
-8.307091
-9.857643
-11.85886
-14.30263
-17.02758
-19.61919
-21.50477
-22.09325
-20.98891
-18.1983
-14.09335
-9.359589
-4.64444
-0.4477386
2.984703
5.581535
7.353973
8.369499
8.733376
8.67733
8.481941
8.445641
8.732071
9.349777
10.15768
10.96443
11.60197
12.01373
12.19701
12.1582
11.87782
11.31918
10.46181
9.347717
8.075104
6.732704
5.409393
4.154816
2.94696
1.723824
0.4308853
-0.9773788
-2.498764
-4.027313
-5.455467
-6.718185
-7.770012
-8.695091
-9.662979
-10.85977
-12.48383
-14.60381
-17.11897
-19.67068
-21.76996
-22.78893
-22.2499
-19.9679
-16.15796
-11.38445
-6.339394
-1.628204
2.374931
5.555267
7.95089
9.656219
10.71943
11.1492
10.99027
10.3856
9.51606
8.590622
7.782181
7.218948
6.967232
7.07254
7.546318
8.333
9.332237
10.39087
11.36896
12.14347
12.57085
12.54702
11.99476
10.91582
9.41552
7.702492
6.012306
4.50502
3.14502
1.749214
0.1081238
-1.822815
-3.925064
-5.942589
-7.665253
-9.033852
-10.17712
-11.35033
-12.79709
-14.65247
-16.89793
-19.4028
-21.92215
-24.13287
-25.6316
-25.95865
-24.73852
-21.81451
-17.36903
-11.97315
-6.358849
-1.251175
2.863022
5.819908
7.768585
8.969803
9.725685
10.20129
10.41925
10.3679
10.02503
9.477875
8.912323
8.577972
8.640259
9.161552
10.03062
11.057
12.03443
12.83316
13.44016
13.89381
14.18675
14.22838
13.90926
13.17291
12.06639
10.70257
9.228523
7.704475
6.114067
4.379784
2.43541
0.325943
-1.821564
-3.865822
-5.659752
-7.145897
-8.328926
-9.262444
-9.979919
-10.54699
-11.05608
-11.71174
-12.80141
-14.49203
-16.73611
-19.18933
-21.23493
-22.14439
-21.39848
-18.90422
-15.02575
-10.47097
-5.961594
-2.027435
1.128036
3.589928
5.56337
7.210693
8.620247
9.757027
10.56518
11.04368
11.26363
11.36023
11.51999
11.82403
12.27389
12.79205
13.29604
13.724
14.0693
14.34541
14.49
14.47189
14.17294
13.51531
12.47784
11.12227
9.541283
7.830368
6.122215
4.509346
3.101242
1.968941
1.130974
0.4662247
-0.2320557
-1.113571
-2.297554
-3.721809
-5.228088
-6.658737
-7.940216
-9.115829
-10.30711
-11.69025
-13.32816
-15.24211
-17.34214
-19.44533
-21.25282
-22.35562
-22.33421
-20.86875
-17.89515
-13.65356
-8.738152
-3.792217
0.5953789
4.153664
6.891285
8.979031
10.59426
11.80359
12.54852
12.71434
12.33167
11.55541
10.62314
9.78344
9.124664
8.639137
8.221783
7.820377
7.465816
7.296314
7.441612
7.908619
8.565289
9.137779
9.358707
9.026497
8.152294
6.890812
5.516701
4.240601
3.135502
2.111691
1.001827
-0.2773972
-1.736198
-3.235855
-4.649143
-5.880207
-6.943192
-7.910477
-8.840904
-9.734993
-10.52701
-11.25999
-12.01886
-12.9826
-14.22023
-15.61161
-16.73642
-17.09925
-16.27381
-14.09253
-10.75146
-6.724337
-2.595713
1.118889
4.111431
6.301167
7.74745
8.555777
8.815125
8.568916
7.866442
6.822763
5.651068
4.641054
4.097063
4.195461
4.895578
5.944458
6.984207
7.694324
7.955393
7.869362
7.6485
7.476036
7.339844
7.061266
6.421087
5.323829
3.877757
2.332048
0.9383621
-0.168622
-1.045561
-1.884645
-2.865743
-4.024877
-5.287537
-6.469883
-7.463162
-8.301601
-9.139984
-10.20447
-11.68126
-13.60674
-15.86441
-18.24845
-20.45899
-22.16787
-23.05803
-22.78081
-21.08779
-17.95671
-13.63016
-8.620697
-3.603432
0.8393455
4.358941
6.896666
8.628881
9.798973
10.53235
10.88896
10.82428
10.35135
9.619315
8.873686
8.382548
8.364518
8.86325
9.694773
10.59492
11.2596
11.51465
11.38789
11.02704
10.61295
10.22758
9.816719
9.176619
8.159194
6.747327
5.077224
3.410253
1.912218
0.6449504
-0.513473
-1.716724
-3.102564
-4.627213
-6.149333
-7.516158
-8.62941
-9.565624
-10.44483
-11.45108
-12.6834
-14.25839
-16.19798
-18.48717
-20.97119
-23.28205
-24.844
-25.04963
-23.45778
-20.04953
-15.30128
-9.994778
-4.924935
-0.6630335
2.57653
4.90435
6.542773
7.747336
8.635649
9.28007
9.699664
9.952007
10.07143
10.0849
10.00358
9.834627
9.65402
9.536295
9.533081
9.64608
9.815223
9.946372
9.951841
9.783275
9.374623
8.704304
7.803242
6.699859
5.513229
4.297946
3.066325
1.708113
0.1469793
-1.696588
-3.736203
-5.764297
-7.628737
-9.232354
-10.61823
-11.88635
-13.13963
-14.42774
-15.80408
-17.31093
-18.94778
-20.63599
-22.06153
-22.75003
-22.21093
-20.13734
-16.60205
-12.08176
-7.225372
-2.660759
1.199034
4.24183
6.55813
8.271362
9.497975
10.27299
10.57725
10.42406
9.92635
9.231406
8.565836
8.162844
8.146549
8.565479
9.361918
10.32825
11.23431
11.85118
12.0009
11.60141
10.68468
9.374832
7.85163
6.247265
4.596202
2.8583
0.9444456
-1.177101
-3.416873
-5.611287
-7.488649
-8.845199
-9.652518
-10.07948
-10.39798
-10.90438
-11.84016
-13.27143
-15.18537
-17.37998
-19.47651
-21.00256
-21.47778
-20.53127
-18.06107
-14.26203
-9.610531
-4.742332
-0.2237158
3.582275
6.496826
8.523161
9.74402
10.23425
10.08334
9.396038
8.35967
7.199183
6.20482
5.614431
5.56645
6.040308
6.877921
7.892219
8.901175
9.811487
10.5323
11.02916
11.21411
11.0524
10.50814
9.579214
8.32662
6.827958
5.198845
3.526087
1.839952
0.1160259
-1.71512
-3.737677
-6.0583
-8.688255
-11.61223
-14.72747
-17.88414
-20.97267
-23.90416
-26.59218
-28.83681
-30.42396
-31.0056
-30.27618
-28.06394
-24.39742
-19.63687
-14.3516
-9.22073
-4.753128
-1.266006
1.29023
3.140835
4.575451
5.806477
6.931271
7.976456
8.952766
9.923042
10.95075
12.07124
13.22355
14.26826
15.04749
15.45855
15.52804
15.35992
15.08971
14.79302
14.48325
14.13458
13.6687
13.05794
12.30217
11.42785
10.47507
9.437359
8.259785
6.842293
5.152878
3.153244
0.9509926
-1.307961
-3.453285
-5.388817
-7.17601
-8.941818
-10.93523
-13.34453
-16.24016
-19.44432
-22.56193
-25.04514
-26.36998
-26.11288
-24.0816
-20.39925
-15.44437
-9.834373
-4.18663
0.9224091
5.100403
8.186562
10.21757
11.3454
11.82034
11.80705
11.43447
10.80318
10.00806
9.202713
8.617271
8.402336
8.630836
9.255371
10.12276
11.09324
12.05717
12.9985
13.8766
14.63165
15.08205
15.03386
14.40997
13.29614
11.92346
10.53223
9.270966
8.111397
6.930084
5.561302
3.94294
2.145218
0.2808151
-1.510292
-3.163589
-4.703003
-6.177757
-7.643143
-9.183937
-10.90696
-12.93372
-15.39449
-18.21431
-21.1377
-23.67159
-25.23783
-25.33128
-23.68744
-20.34666
-15.66396
-10.21572
-4.627174
0.470108
4.658958
7.739929
9.735405
10.84712
11.3221
11.3858
11.20927
10.90278
10.5619
10.3507
10.39841
10.7855
11.49555
12.35099
13.18272
13.78281
14.08678
14.05214
13.69656
13.00696
11.96815
10.61526
9.06723
7.530533
6.223175
5.300674
4.723389
4.277466
3.717896
2.86525
1.738052
0.4685211
-0.7964935
-2.004227
-3.300247
-4.899414
-6.998886
-9.623306
-12.64296
-15.79816
-18.79857
-21.34486
-23.11006
-23.77864
-23.00607
-20.61295
-16.65868
-11.60736
-6.143906
-1.026337
3.180038
6.264648
8.299042
9.513535
10.14267
10.3299
10.09004
9.480682
8.637207
7.809509
7.299042
7.32901
7.982513
9.170853
10.66568
12.20813
13.54947
14.51999
15.0123
14.99547
14.49628
13.52992
12.18227
10.5309
8.688309
6.786926
4.967346
3.321869
1.884415
0.5859375
-0.7046051
-2.075226
-3.555237
-5.104584
-6.656052
-8.180161
-9.703308
-11.3398
-13.19241
-15.35284
-17.82315
-20.5004
-23.17091
-25.46815
-26.91811
-26.99117
-25.33379
-21.8427
-16.86546
-11.09105
-5.342499
-0.3296509
3.607788
6.519516
8.686768
10.39043
11.78825
12.86391
13.51785
13.74242
13.62976
13.37392
13.15379
13.08063
13.19635
13.52246
14.05347
14.76285
15.57036
16.32146
16.81944
16.86676
16.33968
15.2428
13.65486
11.6951
9.550613
7.421768
5.507172
3.907303
2.616394
1.481873
0.3172913
-1.054932
-2.740128
-4.660965
-6.645905
-8.493896
-10.07423
-11.38753
-12.56895
-13.80431
-15.30278
-17.19124
-19.39662
-21.65437
-23.52245
-24.4608
-23.99782
-21.94182
-18.39073
-13.76556
-8.674362
-3.720169
0.6238708
4.155441
6.878189
8.945602
10.5206
11.73125
12.64601
13.27866
13.67706
13.84657
13.8528
13.72441
13.47392
13.11322
12.71913
12.37135
12.1917
12.25198
12.4888
12.76518
12.87141
12.62614
11.95163
10.95322
9.783966
8.539642
7.266739
5.871674
4.265015
2.406387
0.3426208
-1.83699
-4.02655
-6.162766
-8.218506
-10.19891
-12.08064
-13.80438
-15.33586
-16.714
-18.0498
-19.44754
-20.92303
-22.32137
-23.28795
-23.37271
-22.14462
-19.38905
-15.17216
-9.897781
-4.145462
1.428604
6.328995
10.22749
13.00385
14.66806
15.32387
15.12921
14.30003
13.06912
11.67184
10.31677
9.093918
8.047256
7.183228
6.514954
6.15506
6.209793
6.712418
7.580765
8.64476
9.650452
10.39507
10.78635
10.78281
10.41425
9.672989
8.522034
6.910233
4.852463
2.480728
0.03718567
-2.230408
-4.143463
-5.655014
-6.827454
-7.816101
-8.779343
-9.896805
-11.28276
-13.02338
-15.08701
-17.30692
-19.32132
-20.63264
-20.7746
-19.42558
-16.59077
-12.57025
-7.893204
-3.154724
1.116577
4.611938
7.206299
8.961029
10.03886
10.6283
10.87779
10.83926
10.56802
10.11375
9.604034
9.224243
9.175613
9.588272
10.45253
11.56619
12.66109
13.50673
13.95757
13.95374
13.51227
12.66594
11.46664
10.01112
8.430222
6.848434
5.349854
3.864532
2.203766
0.1596832
-2.367645
-5.261917
-8.230515
-10.89314
-13.01224
-14.5257
-15.62543
-16.61877
-17.7876
-19.28349
-21.075
-23.0188
-24.83569
-26.17859
-26.5863
-25.61398
-22.94011
-18.5639
-12.89011
-6.654221
-0.7169189
4.211273
7.77832
10.03206
11.23889
11.7534
11.85213
11.6833
11.32755
10.88705
10.50099
10.34509
10.53401
11.06842
11.81346
12.61092
13.28337
13.74196
14.00363
14.11751
14.12164
13.94464
13.43401
12.39026
10.76643
8.645737
6.283951
4.033447
2.115814
0.6082306
-0.6327972
-1.783371
-2.958359
-4.134811
-5.208801
-6.113892
-6.854004
-7.599609
-8.540146
-9.848541
-11.57286
-13.66051
-15.96701
-18.27228
-20.27223
-21.52342
-21.60774
-20.13846
-17.04124
-12.54111
-7.198669
-1.703674
3.278839
7.248032
10.03659
11.68521
12.46732
12.7556
12.86844
12.97664
13.13416
13.27432
13.259
13.02043
12.51526
11.81592
11.05281
10.36063
9.843445
9.586548
9.616058
9.859253
10.20584
10.43489
10.35767
9.899994
9.022995
7.828056
6.447357
5.006538
3.611763
2.347534
1.26783
0.3826218
-0.3164749
-0.9659424
-1.716309
-2.716087
-4.051064
-5.691307
-7.543396
-9.544159
-11.69827
-14.0202
-16.4969
-18.90874
-20.897
-21.96371
-21.68523
-19.85945
-16.64157
-12.45122
-7.853943
-3.363747
0.6965027
4.187134
7.115746
9.547714
11.5145
12.93326
13.69943
13.70419
12.9401
11.57362
9.881721
8.220894
6.880539
6.044121
5.737991
5.878281
6.348228
7.045364
7.883743
8.710518
9.371208
9.664024
9.465729
8.800705
7.783119
6.622795
5.50396
4.541779
3.715675
2.897545
1.926819
0.6444397
-0.9997787
-3.004669
-5.263481
-7.59082
-9.778229
-11.71187
-13.40575
-14.94341
-16.47543
-17.98901
-19.29958
-20.02195
-19.71828
-18.08081
-15.05383
-10.94531
-6.303154
-1.713753
2.379547
5.723579
8.255653
9.968048
10.83365
10.89391
10.23351
9.050491
7.698608
6.508247
5.71373
5.341469
5.263863
5.287899
5.353474
5.540829
5.965279
6.724609
7.723103
8.712524
9.390678
9.546669
9.136971
8.30957
7.282742
6.183743
5.021873
3.666679
2.019394
0.1364174
-1.831402
-3.642864
-5.139343
-6.293381
-7.2108
-8.022327
-8.923759
-10.04003
-11.41502
-13.09976
-15.02675
-17.0066
-18.70012
-19.66219
-19.40206
-17.70657
-14.67756
-10.70658
-6.438354
-2.439779
0.9222088
3.544178
5.512226
7.021643
8.171047
8.956469
9.351463
9.304968
8.882914
8.241081
7.585804
7.080784
6.875805
6.9611
7.293846
7.797876
8.360628
8.926886
9.430773
9.774179
9.867243
9.637815
9.006116
8.020061
6.760065
5.303798
3.768375
2.216815
0.6520557
-0.9008098
-2.377123
-3.7471
-4.929581
-5.915055
-6.760236
-7.519693
-8.288114
-9.165211
-10.24963
-11.64226
-13.41125
-15.41998
-17.3576
-18.74581
-19.03622
-17.88905
-15.30022
-11.63869
-7.490085
-3.45606
0.08632851
2.977712
5.199835
6.788638
7.724322
8.003487
7.71135
7.01305
6.14415
5.341402
4.704838
4.222929
3.873318
3.625635
3.524294
3.675377
4.158514
4.965944
6.029638
7.150723
8.126432
8.760448
8.895296
8.493097
7.63069
6.471447
5.142466
3.772785
2.374199
0.9339294
-0.5533752
-2.064884
-3.538933
-4.890171
-6.099182
-7.222061
-8.271469
-9.304703
-10.30937
-11.31684
-12.37292
-13.53982
-14.84505
-16.19607
-17.33467
-17.88949
-17.50769
-16.00981
-13.46248
-10.23309
-6.740864
-3.414314
-0.4979706
1.935631
3.89011
5.355976
6.293835
6.711082
6.611538
6.180489
5.652
5.251434
5.12365
5.283524
5.665897
6.19788
6.846233
7.539436
8.20945
8.678513
8.769291
8.33382
7.359581
6.02071
4.56263
3.255497
2.228336
1.494125
0.9208527
0.3871918
-0.1933975
-0.8575287
-1.579243
-2.378147
-3.31485
-4.456955
-5.831703
-7.464851
-9.2827
-11.17128
-13.04163
-14.78919
-16.29348
-17.38895
-17.82094
-17.26277
-15.48343
-12.43179
-8.363998
-3.830696
0.5348129
4.116211
6.612633
8.020905
8.616714
8.759773
8.707123
8.56665
8.296509
7.885063
7.327309
6.715927
6.168869
5.785637
5.628288
5.754349
6.14109
6.746605
7.480621
8.216713
8.771233
8.962433
8.674454
7.856628
6.601791
5.038605
3.34584
1.628906
-0.05107117
-1.641075
-3.141602
-4.516876
-5.764809
-6.858002
-7.806709
-8.622215
-9.36599
-10.09594
-10.87341
-11.82696
-13.08715
-14.76374
-16.84328
-19.13378
-21.20284
-22.48612
-22.45801
-20.83641
-17.71305
-13.5039
-8.844505
-4.355431
-0.4781113
2.592842
4.886108
6.54303
7.695999
8.436455
8.840118
8.976601
8.885582
8.636353
8.237961
7.748154
7.252754
6.894363
6.805702
7.103058
7.75322
8.614777
9.461838
10.04245
10.21372
9.934319
9.326035
8.513458
7.61972
6.679245
5.687119
4.593727
3.350952
1.9729
0.4914932
-1.059212
-2.713936
-4.464684
-6.299088
-8.059471
-9.572746
-10.70159
-11.4596
-12.06861
-12.84255
-14.05223
-15.69874
-17.45988
-18.72059
-18.89281
-17.57876
-14.79607
-10.97068
-6.714828
-2.647079
0.7960281
3.418777
5.247398
6.38694
6.989586
7.15834
7.005058
6.722183
6.526497
6.633369
7.126816
7.971268
8.988976
9.985191
10.76785
11.24261
11.4265
11.37446
11.18926
10.92659
10.64809
10.33163
9.921097
9.303391
8.348122
7.053726
5.510162
3.918747
2.502182
1.358879
0.3951111
-0.6057739
-1.823761
-3.319366
-4.890167
-6.256516
-7.160439
-7.54892
-7.595192
-7.621727
-7.942123
-8.743484
-10.0567
-11.74376
-13.60719
-15.30943
-16.4702
-16.71313
-15.7393
-13.48669
-10.17647
-6.25621
-2.284317
1.220901
3.943176
5.83371
6.971031
7.578247
7.863129
7.962845
7.981247
7.988174
7.98941
8.007217
8.054977
8.087059
8.018364
7.762665
7.263016
6.610962
6.019081
5.641365
5.575905
5.756393
5.988525
6.105362
6.024857
5.785233
5.529221
5.393547
5.37365
5.342918
5.139648
4.560417
3.513046
2.023033
0.1582794
-1.925735
-4.075775
-6.200104
-8.260712
-10.27921
-12.34406
-14.49014
-16.6591
-18.64894
-20.13424
-20.69985
-19.97707
-17.79059
-14.23661
-9.717361
-4.789665
-0.04718018
4.01371
7.09864
9.164177
10.3471
10.86509
10.95901
10.74394
10.33883
9.802902
9.159065
8.493095
7.86866
7.331299
6.916458
6.580467
6.245811
5.861641
5.441292
4.985504
4.574623
4.200882
3.844803
3.417557
2.831779
2.068565
1.191368
0.338089
-0.4178314
-0.9755936
-1.397537
-1.751198
-2.154099
-2.717049
-3.514923
-4.574905
-5.892311
-7.401611
-8.943459
-10.40458
-11.69099
-12.79456
-13.84756
-15.05296
-16.5583
-18.32082
-20.09083
-21.37892
-21.71691
-20.78194
-18.51231
-15.15299
-11.14997
-7.047318
-3.265144
-0.09626007
2.376564
4.189484
5.484009
6.403091
7.057907
7.555519
7.927727
8.223457
8.468147
8.704689
8.923073
9.129684
9.3134
9.454422
9.557091
9.635284
9.696495
9.765709
9.841362
9.901749
9.868332
9.641853
9.075043
8.117188
6.789352
5.252335
3.735947
2.452637
1.470406
0.7488937
0.137085
-0.5457382
-1.379784
-2.360466
-3.384377
-4.344414
-5.182289
-5.905853
-6.59375
-7.324387
-8.228134
-9.363098
-10.75825
-12.36797
-13.98293
-15.28111
-15.85023
-15.34721
-13.56
-10.59821
-6.842506
-2.87838
0.673027
3.382057
5.091415
5.893204
6.033112
5.756622
5.239647
4.584862
3.861534
3.16787
2.665428
2.543297
2.90519
3.746498
4.891953
6.069138
7.025475
7.660065
8.019669
8.266571
8.562408
8.928741
9.226204
9.214027
8.649605
7.461517
5.758713
3.773834
1.783295
0.02952576
-1.382591
-2.426125
-3.159538
-3.687508
-4.114487
-4.559143
-5.19294
-6.164841
-7.575989
-9.444176
-11.62625
-13.87449
-15.82694
-17.08293
-17.33846
-16.42578
-14.36844
-11.39695
-7.866402
-4.187263
-0.7356796
2.181206
4.443314
6.049438
7.06324
7.634346
7.866089
7.846222
7.632057
7.291412
6.872704
6.49292
6.241486
6.210838
6.458359
6.922607
7.503822
8.042267
8.397614
8.480423
8.276161
7.782532
7.030075
6.052414
4.884186
3.580574
2.191338
0.7820053
-0.6119232
-2.017967
-3.485374
-5.037636
-6.635483
-8.221962
-9.69017
-10.98804
-12.12976
-13.16797
-14.21336
-15.32346
-16.47603
-17.59094
-18.51269
-18.94186
-18.56944
-17.09064
-14.37528
-10.6044
-6.214813
-1.794319
2.065132
4.98568
6.937988
8.08448
8.688499
8.975449
9.055222
8.930038
8.582069
7.999512
7.238708
6.44294
5.745285
5.23156
4.995216
5.033989
5.336403
5.864975
6.532204
7.245476
7.866966
8.200882
8.086174
7.461052
6.345428
4.922295
3.374886
1.878159
0.545929
-0.6168976
-1.719391
-2.88855
-4.198418
-5.734711
-7.438408
-9.18119
-10.81655
-12.18795
-13.23651
-14.02984
-14.68692
-15.27763
-15.79945
-16.03083
-15.65051
-14.37681
-12.06357
-8.866249
-5.190109
-1.543976
1.612267
4.061352
5.843479
7.158787
8.154652
8.889893
9.267475
9.224106
8.796234
8.122753
7.425396
6.896996
6.616669
6.506744
6.473686
6.40033
6.312244
6.289688
6.420132
6.716217
7.108421
7.436775
7.528828
7.305969
6.772865
6.058544
5.286213
4.464371
3.515739
2.309349
0.8041
-0.8822556
-2.496609
-3.803288
-4.75108
-5.494053
-6.332561
-7.503578
-9.054974
-10.82764
-12.48952
-13.76621
-14.47737
-14.55045
-13.95788
-12.67031
-10.66743
-8.063835
-5.072208
-1.998169
0.8330231
3.182262
4.943916
6.119736
6.792007
7.074276
7.046022
6.788755
6.403776
6.007193
5.748188
5.777218
6.165785
6.907419
7.908255
8.988825
9.951105
10.6425
10.96109
10.92086
10.5702
9.95871
9.115343
8.025623
6.681185
5.12438
3.411341
1.641233
-0.03970432
-1.557715
-2.882056
-4.058546
-5.153904
-6.26702
-7.446629
-8.75463
-10.24214
-11.90802
-13.72716
-15.56281
-17.16809
-18.16185
-18.1495
-16.85665
-14.25939
-10.59875
-6.359895
-2.117298
1.633683
4.629215
6.78951
8.227262
9.056757
9.387499
9.302488
8.902294
8.346301
7.846692
7.598544
7.675783
8.089584
8.72094
9.457575
10.18253
10.82815
11.3306
11.62676
11.66442
11.34469
10.66656
9.703723
8.600962
7.479254
6.40207
5.367866
4.311728
3.193979
1.94854
0.5737972
-0.9164085
-2.509681
-4.145594
-5.764572
-7.267896
-8.597953
-9.752415
-10.82206
-12.02337
-13.56055
-15.53032
-17.79424
-19.93123
-21.37378
-21.58257
-20.26513
-17.45073
-13.5311
-9.067324
-4.622641
-0.5895863
2.81657
5.564404
7.679232
9.186354
10.19708
10.8435
11.31254
11.75681
12.26855
12.79798
13.22198
13.39446
13.20477
12.72409
12.13518
11.66437
11.46717
11.55634
11.81882
12.10045
12.27416
12.26589
12.08112
11.71717
11.14348
10.30941
9.157587
7.703527
6.058048
4.357904
2.68359
1.070135
-0.5002899
-1.990004
-3.31855
-4.405228
-5.26063
-6.037886
-6.971081
-8.307598
-10.12979
-12.3664
-14.81194
-17.16308
-19.09278
-20.28488
-20.4528
-19.37119
-16.9878
-13.46674
-9.236805
-4.845345
-0.8604832
2.337324
4.654045
6.223772
7.315138
8.178516
8.982998
9.718126
10.32292
10.71549
10.82915
10.70976
10.44793
10.19761
10.03966
10.06625
10.26828
10.61237
11.05895
11.52769
11.95611
12.26278
12.38586
12.18927
11.61226
10.62012
9.313551
7.8722
6.521341
5.451338
4.694096
4.167206
3.634056
2.846806
1.624357
-0.03761673
-1.967022
-3.904865
-5.592609
-6.953583
-8.035692
-9.018099
-10.11322
-11.46398
-13.13146
-15.04981
-17.05163
-18.79876
-19.89337
-19.90421
-18.50889
-15.68148
-11.72868
-7.239536
-2.895678
0.7573013
3.49954
5.345772
6.503901
7.209173
7.596966
7.738043
7.642643
7.378672
7.093029
6.99017
7.211794
7.847968
8.845091
10.00785
11.10304
11.90167
12.25559
12.15922
11.73355
11.12754
10.48007
9.80514
9.033185
8.091648
6.975586
5.753824
4.570765
3.520508
2.586622
1.711461
0.7521076
-0.3753767
-1.645912
-2.93376
-4.139899
-5.18739
-6.117949
-7.064243
-8.117825
-9.386423
-10.91698
-12.67419
-14.54561
-16.31813
-17.64821
-18.16222
-17.56589
-15.70232
-12.71096
-8.958653
-4.960892
-1.248348
1.821796
4.12858
5.792093
7.006844
7.968126
8.749489
9.298284
9.547367
9.432691
8.995262
8.353181
7.695319
7.163463
6.885137
6.898407
7.178697
7.695425
8.364599
9.078826
9.661559
9.985182
9.884377
9.360598
8.46487
7.301331
6.033298
4.774836
3.552832
2.305534
0.9742661
-0.5302086
-2.20455
-3.957272
-5.692028
-7.264666
-8.554419
-9.552679
-10.3222
-10.97474
-11.69366
-12.64015
-13.93629
-15.6207
-17.56647
-19.49174
-21.02217
-21.69929
-21.14066
-19.16921
-15.86399
-11.52864
-6.707886
-1.977682
2.146774
5.328541
7.482502
8.722549
9.264359
9.349606
9.24509
9.084763
8.973389
8.939442
8.958237
9.019794
9.102764
9.175564
9.187603
9.136826
8.98465
8.724556
8.389442
8.018452
7.63892
7.233696
6.718914
5.983784
4.95892
3.615059
2.034103
0.3993568
-1.127651
-2.420712
-3.492577
-4.446892
-5.398674
-6.413517
-7.469582
-8.462337
-9.277237
-9.902988
-10.43131
-11.01887
-11.78119
-12.76631
-13.92426
-15.21405
-16.54356
-17.76675
-18.72018
-19.05824
-18.45861
-16.66776
-13.68629
-9.799175
-5.502083
-1.339516
2.232941
4.901768
6.597229
7.397423
7.48698
7.10762
6.466091
5.780182
5.177895
4.698021
4.347599
4.135559
4.111534
4.290958
4.714996
5.359581
6.206314
7.211605
8.290955
9.280384
9.994263
10.22219
9.84243
8.934742
7.678158
6.379974
5.180801
4.084473
2.887405
1.385262
-0.4873161
-2.604927
-4.630936
-6.244427
-7.221107
-7.658298
-7.828133
-8.125854
-8.867542
-10.16598
-11.95929
-13.95004
-15.77905
-17.0456
-17.41342
-16.69426
-14.84132
-11.98164
-8.39455
-4.50729
-0.7148018
2.592766
5.199478
7.030746
8.118382
8.539032
8.359337
7.735004
6.785786
5.711685
4.683144
3.865173
3.351154
3.203999
3.419228
3.882702
4.511742
5.128056
5.619362
5.880688
5.861935
5.601143
5.166721
4.657913
4.089363
3.45451
2.710842
1.828175
0.8287048
-0.2623444
-1.384617
-2.500896
-3.630268
-4.814819
-6.124195
-7.554996
-9.067844
-10.59034
-12.13894
-13.74917
-15.51582
-17.41895
-19.22343
-20.50682
-20.77705
-19.68948
-17.18688
-13.57128
-9.365362
-5.199583
-1.53907
1.346027
3.399794
4.686432
5.351624
5.593645
5.614843
5.624285
5.743467
6.013519
6.441929
6.981714
7.566969
8.142859
8.630308
8.959587
9.125427
9.150677
9.104637
9.032539
8.884212
8.538277
7.849045
6.769012
5.436614
4.11317
3.014618
2.179903
1.43081
0.4721088
-0.8967905
-2.636664
-4.498799
-6.187446
-7.4932
-8.469215
-9.3713
-10.46959
-11.94723
-13.81517
-15.93678
-18.12513
-20.14183
-21.6579
-22.27674
-21.59105
-19.32803
-15.52117
-10.65126
-5.42296
-0.6075392
3.216948
5.821984
7.279164
7.825536
7.774182
7.363014
6.827424
6.37464
6.162519
6.297432
6.832901
7.685585
8.721554
9.831402
10.86007
11.75072
12.48333
13.0625
13.45527
13.63347
13.47102
12.83091
11.63155
9.89402
7.807522
5.668095
3.721968
2.085678
0.7614117
-0.3942528
-1.501133
-2.600067
-3.687988
-4.729862
-5.711281
-6.74765
-7.97113
-9.494144
-11.36451
-13.55216
-15.9578
-18.49739
-20.98611
-23.1513
-24.64566
-25.06132
-24.05733
-21.5804
-17.86642
-13.41482
-8.81588
-4.54224
-0.8236732
2.318424
4.995911
7.316471
9.288692
10.86945
11.97593
12.59762
12.74714
12.52907
12.08119
11.57832
11.18729
11.00258
11.0657
11.28427
11.52782
11.67924
11.70448
11.59021
11.37395
11.07519
10.65395
10.1281
9.493202
8.771408
7.9506
6.970078
5.710098
4.094368
2.141602
-0.003662109
-2.104622
-3.953606
-5.466293
-6.716034
-7.874573
-9.154549
-10.72775
-12.68828
-15.02741
-17.57331
-19.9636
-21.73465
-22.40432
-21.59316
-19.19741
-15.38221
-10.59525
-5.412209
-0.4084091
3.96286
7.437683
9.934181
11.54786
12.44627
12.83168
12.86766
12.66264
12.22899
11.58997
10.79935
9.99173
9.380005
9.1483
9.359535
9.95768
10.75459
11.54202
12.15202
12.51617
12.60885
12.44565
11.98339
11.1743
9.997131
8.468185
6.676743
4.731369
2.761093
0.7978668
-1.12265
-2.986572
-4.778992
-6.473221
-8.123169
-9.7603
-11.48549
-13.40097
-15.65062
-18.28279
-21.21236
-24.13414
-26.47047
-27.6035
-26.97026
-24.36865
-20.02773
-14.59599
-8.868195
-3.564728
0.8959808
4.432037
7.156158
9.232285
10.72939
11.66931
12.08263
12.07629
11.82156
11.47775
11.19019
11.0089
10.95259
11.04594
11.33102
11.84779
12.58241
13.41504
14.14502
14.58658
14.56964
14.06587
13.15903
12.00281
10.76439
9.524292
8.321915
7.058548
5.652603
4.030289
2.193695
0.1817169
-1.909134
-3.996964
-6.025253
-7.947418
-9.788574
-11.6107
-13.52098
-15.67569
-18.19595
-21.0928
-24.18048
-27.0235
-29.03072
-29.62939
-28.42891
-25.38686
-20.80869
-15.27747
-9.414001
-3.806244
1.167145
5.290054
8.496902
10.79848
12.24113
12.92316
13.0378
12.87061
12.72003
12.8459
13.34074
14.15169
15.10353
16.01822
16.7683
17.33144
17.7482
18.041
18.17656
18.0777
17.64111
16.78775
15.56349
14.07225
12.46277
10.93248
9.57991
8.449677
7.485901
6.522583
5.399658
4.003204
2.302795
0.2836456
-1.973129
-4.413132
-6.947205
-9.452896
-11.83232
-14.02107
-16.05241
-18.05545
-20.25142
-22.7697
-25.52319
-28.11647
-29.9131
-30.25296
-28.62935
-24.99103
-19.75421
-13.67575
-7.546921
-2.019821
2.640762
6.444992
9.526672
11.99207
13.76855
14.71715
14.78679
14.16977
13.24597
12.45618
12.09599
12.21814
12.65881
13.19136
13.70428
14.25117
14.9416
15.8416
16.84047
17.66898
18.06696
17.83267
16.9973
15.72766
14.27119
12.78822
11.3485
9.959549
8.507858
6.9328
5.1548
3.173248
1.020142
-1.23053
-3.473969
-5.588409
-7.436646
-8.9897
-10.29387
-11.53078
-12.90607
-14.63005
-16.84851
-19.45863
-22.17119
-24.45415
-25.66736
-25.26286
-22.95692
-18.83791
-13.36897
-7.30307
-1.399658
3.718842
7.735413
10.59457
12.4364
13.44366
13.75833
13.53943
12.89307
11.98654
10.9769
10.05109
9.347229
8.970673
8.92627
9.160583
9.646301
10.33856
11.25296
12.31601
13.41306
14.34814
14.86166
14.77774
14.04886
12.79047
11.263
9.708771
8.235962
6.816864
5.30899
3.567017
1.50589
-0.790741
-3.193817
-5.527435
-7.67926
-9.647522
-11.50122
-13.34265
-15.28317
-17.39575
-19.67123
-21.9921
-24.11575
-25.6142
-26.01852
-24.95193
-22.24185
-18.02191
-12.7254
-6.965698
-1.421173
3.363556
7.09436
9.668304
11.22537
11.99139
12.25546
12.2731
12.24594
12.24829
12.28906
12.37607
12.42661
12.47324
12.50247
12.55719
12.69351
12.91464
13.18445
13.4274
13.5575
13.43622
13.01117
12.27228
11.22586
9.90387
8.321838
6.48407
4.406586
2.194763
-0.007385254
-2.031631
-3.771561
-5.258652
-6.612274
-7.968597
-9.383301
-10.83961
-12.2733
-13.70033
-15.27887
-17.31052
-20.05006
-23.49551
-27.24455
-30.4491
-32.13835
-31.55083
-28.42908
-23.19536
-16.69737
-9.930038
-3.639847
1.80632
6.373138
10.134
13.08473
15.11552
16.12088
16.17146
15.56033
14.70992
14.01189
13.68277
13.68791
13.88495
14.11362
14.29173
14.44742
14.62344
14.7778
14.85677
14.74521
14.36066
13.74817
12.96814
12.09932
11.15312
10.10054
8.856674
7.406906
5.805527
4.138245
2.498383
0.8757629
-0.8186951
-2.669952
-4.63269
-6.591019
-8.352264
-9.784363
-10.95876
-12.05943
-13.33199
-14.98541
-17.04588
-19.39565
-21.79689
-23.92937
-25.40479
-25.85852
-24.94823
-22.51787
-18.65799
-13.73355
-8.315079
-2.991806
1.78891
5.781219
8.894119
11.16647
12.67543
13.51715
13.82414
13.79919
13.62389
13.51302
13.5545
13.72525
13.94669
14.14792
14.2852
14.38416
14.52055
14.72916
15.02829
15.38518
15.66649
15.69099
15.31105
14.39326
12.93295
11.07573
9.0065
6.954422
5.068024
3.383804
1.85614
0.4035645
-1.036713
-2.519836
-4.057983
-5.706741
-7.492188
-9.421829
-11.46231
-13.56383
-15.7261
-17.98369
-20.41629
-22.93111
-25.24138
-26.83696
-27.11174
-25.64313
-22.34003
-17.55037
-11.90436
-6.116821
-0.7529755
3.814728
7.422791
10.04529
11.7195
12.53638
12.62305
12.16481
11.35089
10.4101
9.522903
8.834961
8.485062
8.490311
8.820755
9.398193
10.11555
10.88567
11.62813
12.23357
12.56837
12.51639
11.99225
10.99339
9.656326
8.161316
6.712524
5.428833
4.368576
3.42926
2.483688
1.41658
0.159668
-1.28006
-2.896622
-4.679626
-6.609909
-8.686829
-10.93044
-13.31409
-15.84851
-18.52605
-21.35245
-24.21347
-26.78912
-28.58533
-29.04189
-27.75484
-24.6613
-20.08475
-14.67513
-9.137207
-4.026093
0.3432617
3.925186
6.798431
9.082443
10.84758
12.10994
12.87381
13.19731
13.22285
13.09933
12.97917
12.91212
12.89215
12.87479
12.8354
12.77669
12.73991
12.75685
12.78415
12.7001
12.33949
11.54187
10.29916
8.692307
6.908951
5.122101
3.442734
1.826111
0.1990509
-1.534409
-3.40506
-5.35434
-7.260651
-8.985931
-10.4328
-11.57153
-12.46724
-13.21892
-13.92633
-14.72252
-15.71774
-17.00119
-18.5043
-20.01195
-21.09695
-21.26685
-20.09814
-17.42743
-13.45049
-8.663162
-3.738373
0.7398834
4.417175
7.149918
9.009171
10.09229
10.50226
10.34076
9.791641
9.088745
8.51445
8.303375
8.562469
9.25325
10.15036
10.96002
11.44119
11.54384
11.3598
11.09308
10.93358
10.92351
10.96944
10.86655
10.40309
9.484833
8.241745
6.853088
5.508987
4.28804
3.097137
1.824417
0.4093323
-1.128143
-2.704987
-4.23024
-5.681076
-7.098801
-8.559875
-10.16057
-11.98074
-14.06131
-16.4688
-19.20973
-22.20714
-25.13992
-27.47572
-28.57986
-27.93431
-25.33823
-20.9848
-15.50365
-9.623428
-4.065384
0.7341309
4.62796
7.62413
9.758011
11.03685
11.4769
11.10388
10.12057
8.833374
7.609406
6.759293
6.423782
6.573914
7.014679
7.537766
7.984665
8.327652
8.62706
8.94487
9.271561
9.477402
9.390015
8.847549
7.840118
6.505264
5.067841
3.675369
2.305649
0.8414612
-0.8864136
-2.886948
-5.038651
-7.111954
-8.890961
-10.33662
-11.58366
-12.88786
-14.45261
-16.31009
-18.31018
-20.13461
-21.40678
-21.73497
-20.8407
-18.58653
-15.07365
-10.62369
-5.73877
-0.9975128
3.104965
6.269226
8.444138
9.766632
10.44064
10.63271
10.4545
9.980072
9.30777
8.569016
7.936783
7.551468
7.494965
7.7966
8.431702
9.327789
10.40247
11.53708
12.55388
13.29454
13.62323
13.46614
12.83783
11.81071
10.49022
8.928909
7.171341
5.262054
3.257813
1.224701
-0.7996979
-2.801285
-4.814529
-6.836685
-8.903427
-11.0143
-13.20753
-15.52945
-18.05367
-20.80348
-23.68306
-26.42531
-28.57133
-29.59996
-29.06273
-26.75548
-22.86006
-17.87122
-12.45923
-7.25972
-2.709335
1.018326
3.939011
6.165176
7.783188
8.804443
9.295822
9.40535
9.406799
9.575851
10.11447
11.04785
12.20068
13.33018
14.23228
14.87807
15.38342
15.8745
16.37335
16.72357
16.65872
16.00043
14.73372
13.06749
11.31122
9.713211
8.314484
7.011581
5.634857
4.030319
2.257965
0.4459991
-1.253235
-2.818848
-4.325607
-5.971725
-7.833023
-9.872177
-12.00244
-14.1091
-16.17212
-18.21513
-20.27486
-22.25932
-23.9487
-24.93706
-24.77832
-23.18176
-20.08217
-15.73909
-10.66927
-5.485764
-0.7564545
3.144592
6.120285
8.276245
9.813782
10.9418
11.77888
12.34702
12.66827
12.77925
12.75443
12.68362
12.6709
12.76595
13.02994
13.47253
14.05734
14.76047
15.49879
16.18045
16.67886
16.91443
16.81647
16.36812
15.5242
14.27986
12.68292
10.81966
8.828491
6.816071
4.843307
2.866318
0.7936554
-1.463333
-3.881821
-6.30043
-8.5354
-10.44046
-12.01985
-13.44466
-14.9774
-16.76859
-18.82297
-20.92998
-22.69958
-23.71858
-23.61098
-22.08795
-19.11775
-14.85675
-9.723846
-4.289764
0.8247986
5.111687
8.272858
10.32559
11.46223
11.96029
12.04205
11.84508
11.41698
10.77226
9.980011
9.146591
8.472755
8.118629
8.179832
8.631264
9.2948
9.927002
10.34782
10.48598
10.35198
10.04613
9.598755
8.970863
8.101326
6.931229
5.533302
4.075554
2.739655
1.602928
0.6035767
-0.4223633
-1.608658
-2.956856
-4.416725
-5.865005
-7.301277
-8.8853
-10.85503
-13.38551
-16.45272
-19.69209
-22.52866
-24.30869
-24.49645
-22.88116
-19.61594
-15.13084
-10.01739
-4.880997
-0.1979675
3.769493
6.95491
9.424957
11.27241
12.56191
13.27757
13.42156
13.02617
12.22566
11.28673
10.49238
10.03689
9.970528
10.19877
10.57217
10.98545
11.37717
11.76842
12.1205
12.35626
12.32162
11.89404
11.04502
9.826447
8.354927
6.722015
5.010391
3.226105
1.348244
-0.630249
-2.702248
-4.800217
-6.837944
-8.712029
-10.37569
-11.79728
-13.01962
-14.17802
-15.44489
-16.97842
-18.83255
-20.89765
-22.8339
-24.16348
-24.35989
-23.04694
-20.12205
-15.78296
-10.60516
-5.281048
-0.4399414
3.50037
6.431469
8.481873
9.917591
10.91688
11.60645
11.94581
11.88779
11.45041
10.77246
10.0675
9.518032
9.228943
9.167656
9.290096
9.544605
9.94416
10.52224
11.23841
11.93767
12.40522
12.39893
11.83899
10.81005
9.561932
8.374207
7.385273
6.568424
5.761559
4.804611
3.558167
2.075367
0.4375305
-1.245735
-2.951397
-4.694073
-6.54229
-8.468832
-10.36298
-12.12717
-13.71134
-15.21185
-16.77655
-18.49114
-20.21383
-21.54272
-21.93157
-20.88658
-18.25382
-14.28708
-9.595919
-4.925642
-0.8759842
2.221245
4.37326
5.784221
6.705026
7.308607
7.649341
7.746218
7.630406
7.443794
7.345846
7.486488
7.92378
8.55584
9.194177
9.617224
9.734701
9.586403
9.388361
9.354719
9.577389
9.938004
10.16831
9.986444
9.28232
8.108685
6.693779
5.270511
3.986942
2.866631
1.796215
0.674674
-0.5298576
-1.774149
-3.015286
-4.209605
-5.403658
-6.675896
-8.074675
-9.654476
-11.41145
-13.29431
-15.22719
-17.07359
-18.63264
-19.66434
-19.94036
-19.26114
-17.58938
-14.99444
-11.70208
-8.082258
-4.476755
-1.158886
1.712002
4.059067
5.931149
7.354519
8.332138
8.880116
8.998707
8.772606
8.328552
7.820881
7.394356
7.196232
7.285637
7.669247
8.304703
9.02927
9.63279
9.882751
9.670197
9.046543
8.230225
7.413776
6.735355
6.143665
5.417133
4.343475
2.798054
0.8498764
-1.276871
-3.35577
-5.246799
-6.85548
-8.171062
-9.207207
-9.952934
-10.44909
-10.83273
-11.35134
-12.3002
-13.87776
-16.05042
-18.45956
-20.49704
-21.47275
-20.89326
-18.60256
-14.88896
-10.27589
-5.414993
-0.9054184
2.863663
5.665794
7.465782
8.306717
8.345421
7.80455
6.980904
6.134445
5.438622
4.959625
4.700272
4.666771
4.848831
5.26445
5.888878
6.623688
7.291573
7.679131
7.658829
7.222145
6.461487
5.525887
4.558647
3.598061
2.57592
1.404297
-0.01907349
-1.678047
-3.52636
-5.420311
-7.224045
-8.841629
-10.24937
-11.50182
-12.66667
-13.81264
-14.9792
-16.24477
-17.68625
-19.36279
-21.17052
-22.81734
-23.82704
-23.67238
-21.99635
-18.77269
-14.40462
-9.544029
-4.887596
-0.9532089
2.059395
4.245972
5.826073
6.974617
7.785744
8.250732
8.37487
8.206512
7.866394
7.521225
7.316551
7.345779
7.606316
8.048439
8.552963
9.020584
9.418694
9.751129
10.03625
10.22595
10.21152
9.858749
9.091545
7.929268
6.535278
5.111984
3.774826
2.497078
1.104561
-0.5553284
-2.528969
-4.657562
-6.677223
-8.299461
-9.3909
-10.08743
-10.66959
-11.50346
-12.87321
-14.87634
-17.35923
-19.96558
-22.19805
-23.5421
-23.60657
-22.16303
-19.2155
-15.05041
-10.18073
-5.237419
-0.8005295
2.725731
5.223213
6.810226
7.788292
8.448845
8.971031
9.405563
9.72644
9.906868
10.0086
10.13218
10.32101
10.56911
10.79755
10.96756
11.10748
11.2888
11.55002
11.84129
11.96691
11.67704
10.82848
9.453751
7.777359
6.085815
4.578796
3.25869
1.963539
0.5292587
-1.159485
-3.018829
-4.876228
-6.566216
-7.998154
-9.208519
-10.33023
-11.52309
-12.85397
-14.33375
-15.90153
-17.53508
-19.14323
-20.57095
-21.52486
-21.60635
-20.45456
-17.88123
-14.00503
-9.273026
-4.37941
0.03540802
3.517815
5.91169
7.348587
8.097305
8.468674
8.64727
8.716797
8.705681
8.624603
8.561729
8.62326
8.951035
9.588272
10.47963
11.41868
12.17393
12.55192
12.49236
12.02534
11.24748
10.30551
9.308678
8.32386
7.373611
6.398849
5.279953
3.89138
2.1604
0.1134644
-2.073212
-4.149315
-5.910469
-7.258705
-8.265686
-9.104866
-9.987297
-11.07857
-12.47807
-14.21438
-16.21355
-18.30169
-20.15166
-21.38837
-21.60121
-20.50253
-18.02913
-14.3433
-9.816711
-4.960609
-0.318573
3.661774
6.665123
8.615509
9.658684
10.05655
10.09495
9.968285
9.720364
9.328159
8.808914
8.281719
7.940788
7.98069
8.468494
9.287106
10.21792
10.98738
11.4191
11.42201
11.02123
10.29714
9.331013
8.227634
7.082958
6.022751
5.112301
4.385548
3.738873
2.985245
1.897732
0.3265991
-1.733578
-4.106083
-6.514198
-8.741753
-10.70713
-12.53246
-14.42733
-16.60728
-19.16082
-21.92025
-24.49405
-26.35402
-26.937
-25.85117
-23.0324
-18.78988
-13.72309
-8.518471
-3.727943
0.3421364
3.620377
6.18726
8.100788
9.428101
10.21643
10.60692
10.76296
10.8684
11.02559
11.21632
11.38952
11.5051
11.60717
11.78318
12.1358
12.70313
13.42606
14.14246
14.62186
14.66
14.08945
12.84074
11.02115
8.834564
6.512308
4.239532
2.082968
0.01506424
-2.000851
-3.954853
-5.769293
-7.34988
-8.659246
-9.763453
-10.80213
-11.90324
-13.13955
-14.53473
-16.10727
-17.81921
-19.62425
-21.27277
-22.37842
-22.47225
-21.18491
-18.39283
-14.31113
-9.409612
-4.251801
0.6472559
4.970184
8.556159
11.33519
13.32153
14.52318
15.03206
14.98772
14.54509
13.87259
13.1205
12.37943
11.7702
11.42871
11.40775
11.73266
12.32446
13.02031
13.61761
13.94608
13.91589
13.46946
12.68556
11.61482
10.34369
8.960727
7.545904
6.173011
4.957179
3.914943
3.043513
2.221517
1.253836
-0.03323975
-1.709775
-3.676745
-5.684245
-7.458124
-8.829844
-9.834956
-10.77278
-12.04403
-13.95415
-16.55785
-19.50393
-22.11997
-23.61992
-23.36063
-21.10325
-17.10986
-12.06791
-6.837292
-2.181578
1.494925
4.186267
6.1515
7.739806
9.171262
10.4847
11.57143
12.31015
12.67249
12.76441
12.72339
12.67296
12.65648
12.67879
12.72747
12.82318
12.98646
13.2498
13.60076
13.90553
13.9901
13.70955
13.00554
11.92373
10.63867
9.283143
7.958565
6.647356
5.252647
3.641977
1.770398
-0.3250542
-2.529881
-4.70129
-6.798614
-8.807619
-10.7828
-12.78565
-14.88699
-17.114
-19.40334
-21.56105
-23.22559
-23.94502
-23.25069
-20.84056
-16.78838
-11.45816
-5.571825
0.06826782
4.828427
8.337904
10.58381
11.8319
12.43886
12.69979
12.82255
12.85573
12.75482
12.49235
12.09433
11.63525
11.25566
11.07936
11.14721
11.46939
11.92287
12.3061
12.41948
12.13947
11.42853
10.39269
9.164821
7.858994
6.535581
5.196727
3.849857
2.583875
1.466721
0.5598689
-0.170022
-0.9137332
-1.903357
-3.352236
-5.357405
-7.83532
-10.55254
-13.27207
-15.85742
-18.30881
-20.77198
-23.32886
-25.84066
-27.88641
-28.84141
-28.09566
-25.39442
-20.91507
-15.24541
-9.184614
-3.38794
1.708527
5.931793
9.249962
11.62767
12.99205
13.29912
12.72688
11.62644
10.55694
9.965955
10.05571
10.7003
11.54509
12.1808
12.38532
12.18292
11.75648
11.33647
11.08365
11.01764
11.08732
11.20644
11.26804
11.18074
10.82503
10.08716
8.900323
7.303936
5.445139
3.537204
1.766745
0.2179155
-1.102806
-2.314671
-3.566961
-4.945045
-6.469707
-8.145782
-9.916906
-11.76193
-13.7098
-15.79193
-18.00951
-20.28826
-22.32851
-23.6904
-23.89691
-22.58266
-19.6583
-15.40774
-10.42658
-5.390257
-0.9278355
2.621153
5.215797
7.033213
8.350824
9.388134
10.24695
10.89155
11.27059
11.33153
11.10795
10.68532
10.17386
9.707346
9.331558
9.086136
8.950834
8.909515
8.935053
8.993658
9.02191
8.928379
8.681026
8.302635
7.851534
7.385828
6.907417
6.322292
5.513365
4.386938
2.932175
1.216354
-0.6004448
-2.420609
-4.165348
-5.826
-7.37912
-8.822018
-10.1489
-11.38514
-12.67127
-14.12461
-15.81096
-17.59723
-19.17962
-20.08472
-19.87188
-18.25439
-15.22744
-11.07293
-6.291058
-1.469284
2.861523
6.3004
8.661377
9.965748
10.3884
10.21058
9.662403
8.894012
8.037182
7.161633
6.43335
6.016312
6.060799
6.567326
7.40575
8.312252
9.021618
9.413025
9.391407
9.015442
8.351307
7.461437
6.396641
5.232185
4.048019
2.884937
1.7575
0.5787849
-0.6835594
-2.041935
-3.499069
-4.996487
-6.510849
-8.054905
-9.661331
-11.36443
-13.17028
-15.0104
-16.81489
-18.52749
-20.0075
-21.05103
-21.37344
-20.65739
-18.67661
-15.4395
-11.17822
-6.352039
-1.546917
2.763226
6.221592
8.672264
10.10609
10.65223
10.46878
9.783016
8.86343
7.957794
7.329067
7.055496
7.138245
7.472858
7.936779
8.445038
8.975166
9.526833
10.12517
10.74192
11.26442
11.54699
11.39806
10.69844
9.432362
7.744148
5.821796
3.899551
2.131805
0.558075
-0.8799896
-2.302803
-3.803402
-5.412579
-7.059536
-8.65094
-10.14645
-11.61458
-13.20846
-15.09395
-17.35222
-19.86659
-22.30676
-24.15144
-24.86128
-24.02885
-21.56676
-17.73345
-13.0506
-8.15657
-3.61586
0.2556992
3.356529
5.789795
7.714462
9.188416
10.19353
10.66841
10.57145
9.979889
9.091576
8.166512
7.497948
7.309845
7.67762
8.505943
9.509239
10.32766
10.69897
10.53847
10.01037
9.414185
9.002869
8.833229
8.756577
8.489044
7.795174
6.620903
5.086143
3.391869
1.661751
-0.06404114
-1.802925
-3.528778
-5.149292
-6.538544
-7.654915
-8.553596
-9.361191
-10.26627
-11.41438
-12.92991
-14.78294
-16.84608
-18.79542
-20.18716
-20.51899
-19.43254
-16.88332
-13.1465
-8.783699
-4.399048
-0.4492722
2.848549
5.436813
7.375008
8.69799
9.44812
9.703163
9.568916
9.192093
8.711395
8.249535
7.843956
7.574715
7.513916
7.716888
8.288467
9.224739
10.41148
11.67155
12.75823
13.46801
13.69063
13.42368
12.72034
11.74123
10.58051
9.275352
7.798965
6.063896
4.046806
1.79512
-0.5665131
-2.923386
-5.111603
-7.077049
-8.817551
-10.33121
-11.64073
-12.79854
-13.90964
-15.12109
-16.59923
-18.34957
-20.21561
-21.80627
-22.54503
-21.90508
-19.63096
-15.85971
-11.08183
-5.987297
-1.207367
2.839874
5.99881
8.34066
9.937073
10.81818
10.96214
10.33586
9.041046
7.276413
5.37706
3.674469
2.467422
1.85965
1.868034
2.402802
3.321068
4.480453
5.745323
7.011314
8.134499
9.01606
9.57235
9.747215
9.568161
9.086578
8.324318
7.28434
5.965378
4.339073
2.471367
0.4608078
-1.562889
-3.479904
-5.223953
-6.805443
-8.304382
-9.789711
-11.38314
-13.15721
-15.15817
-17.36636
-19.62682
-21.66036
-23.03299
-23.28673
-22.05487
-19.22541
-14.97734
-9.798088
-4.333244
0.7931137
5.086075
8.295219
10.44962
11.71167
12.29829
12.40041
12.14397
11.60075
10.88132
10.11676
9.466919
9.087509
9.105934
9.513489
10.20561
10.95762
11.52186
11.72889
11.48142
10.85588
9.979797
9.018272
8.124504
7.345047
6.651932
5.949249
5.084389
3.9291
2.444542
0.6347656
-1.406044
-3.485352
-5.394104
-6.978638
-8.16848
-9.014709
-9.670715
-10.30518
-11.06454
-12.07224
-13.43547
-15.19801
-17.32368
-19.65425
-21.83559
-23.38992
-23.806
-22.73924
-20.11919
-16.23558
-11.65178
-6.926201
-2.568588
1.140694
4.117905
6.399384
8.046928
9.166634
9.850929
10.16614
10.26281
10.28283
10.35809
10.57273
10.93167
11.36557
11.79888
12.13989
12.32306
12.34532
12.24536
12.08798
11.91171
11.68078
11.29825
10.62489
9.553642
8.097534
6.388054
4.620365
3.018234
1.718414
0.6905823
-0.2068863
-1.141861
-2.232418
-3.441589
-4.632553
-5.673424
-6.508312
-7.216469
-8.002827
-9.076817
-10.53863
-12.41162
-14.62464
-17.05087
-19.50093
-21.67183
-23.18171
-23.55644
-22.45937
-19.83035
-15.96587
-11.44063
-6.879784
-2.770576
0.72855
3.649906
6.151863
8.307556
10.05534
11.27948
11.92236
12.02553
11.78154
11.42612
11.11801
10.98097
10.99608
11.12107
11.31413
11.60067
12.00335
12.51138
13.04355
13.41304
13.44744
12.98582
12.00212
10.63245
9.045425
7.471722
6.050919
4.808231
3.637016
2.400787
0.9894753
-0.6593742
-2.461735
-4.338097
-6.150112
-7.788288
-9.200829
-10.46164
-11.67646
-13.00671
-14.60288
-16.45121
-18.39658
-20.07899
-21.03022
-20.81528
-19.17432
-16.08543
-11.84255
-6.950451
-2.028999
2.348129
5.812428
8.243973
9.752861
10.62079
11.09653
11.326
11.33847
11.11713
10.65338
10.04318
9.443935
9.003735
8.862301
9.033703
9.463009
10.02011
10.59756
11.08016
11.33901
11.28334
10.82532
9.987846
8.825394
7.483303
6.06572
4.635578
3.178028
1.650097
0.05928421
-1.540825
-3.070873
-4.517609
-5.962994
-7.520058
-9.26606
-11.15228
-12.97908
-14.58281
-15.93349
-17.18571
-18.61827
-20.36734
-22.25861
-23.77165
-24.19411
-22.94555
-19.86508
-15.28865
-9.938141
-4.583664
0.1639977
3.997013
6.878162
8.923485
10.21462
10.82766
10.8463
10.4012
9.758018
9.170967
8.808056
8.729244
8.855865
9.090595
9.376907
9.723038
10.18976
10.79712
11.49458
12.10455
12.44209
12.36855
11.86403
10.98727
9.82634
8.48045
7.008965
5.475384
3.949383
2.520847
1.198635
-0.02909851
-1.215809
-2.470604
-3.866676
-5.399479
-7.051247
-8.750092
-10.42108
-12.06818
-13.70812
-15.3852
-17.15889
-19.06349
-20.9977
-22.74096
-23.84336
-23.78667
-22.1848
-18.93553
-14.36235
-9.163883
-4.180069
-0.02434921
3.037853
5.175453
6.790974
8.222801
9.578442
10.69574
11.3096
11.2701
10.7444
10.11072
9.81097
10.12992
11.03321
12.23744
13.3359
14.02363
14.23856
14.1171
13.86243
13.5619
13.16798
12.49406
11.40562
9.888763
8.066738
6.144516
4.318977
2.725296
1.403751
0.3369713
-0.5682487
-1.419758
-2.330082
-3.411526
-4.688667
-6.156971
-7.708103
-9.255547
-10.75959
-12.2708
-13.91084
-15.77787
-17.9016
-20.07609
-21.92788
-22.90535
-22.50206
-20.45387
-16.87778
-12.27486
-7.306885
-2.644382
1.308491
4.379696
6.615551
8.106533
8.901546
9.050026
8.694946
8.097782
7.561268
7.325695
7.4436
7.82185
8.306057
8.776756
9.269924
9.879459
10.62304
11.38429
11.94222
12.01174
11.51914
10.50721
9.203794
7.894936
6.786606
5.91852
5.168503
4.401752
3.484863
2.423943
1.296717
0.1856136
-0.868166
-1.938524
-3.163057
-4.706518
-6.592131
-8.781401
-11.14428
-13.56127
-15.98229
-18.346
-20.54832
-22.28425
-23.10581
-22.54353
-20.34983
-16.64968
-11.92271
-6.900629
-2.267271
1.496958
4.293364
6.257402
7.673525
8.764986
9.62775
10.28363
10.66705
10.7562
10.57935
10.27938
9.997663
9.868196
9.909801
10.03791
10.16
10.17583
10.08425
9.922955
9.735451
9.48926
9.105545
8.478735
7.549934
6.367212
4.970224
3.429272
1.761688
-0.06101799
-2.002178
-3.989639
-5.860956
-7.481443
-8.807735
-9.95277
-11.11311
-12.49778
-14.28365
-16.46049
-18.94537
-21.4736
-23.72895
-25.30684
-25.80947
-24.93233
-22.5432
-18.77401
-14.01162
-8.840033
-3.843666
0.5200443
3.994165
6.524887
8.177654
9.075947
9.342201
9.14841
8.684304
8.182413
7.841958
7.788146
8.067945
8.651076
9.472499
10.42673
11.4006
12.19161
12.63481
12.616
12.16193
11.48951
10.84055
10.38036
10.04882
9.616452
8.806579
7.450607
5.595418
3.482274
1.397947
-0.4911861
-2.168046
-3.749056
-5.350513
-7.019013
-8.751749
-10.51766
-12.37631
-14.44165
-16.8335
-19.53902
-22.36638
-24.90256
-26.58072
-26.85966
-25.36528
-22.09332
-17.44984
-12.07749
-6.682375
-1.805126
2.257591
5.433184
7.74094
9.27913
10.09666
10.28554
10.00466
9.528486
9.157347
9.075859
9.366912
9.941698
10.67415
11.46143
12.24361
12.99966
13.74318
14.42209
14.96765
15.28032
15.26802
14.86272
14.02578
12.77756
11.2055
9.477251
7.779121
6.281235
5.001829
3.89517
2.819717
1.640162
0.2826538
-1.225885
-2.870878
-4.625261
-6.495766
-8.500872
-10.63663
-12.87814
-15.20368
-17.618
-20.08291
-22.44161
-24.34911
-25.30155
-24.81285
-22.61659
-18.79777
-13.82308
-8.346577
-3.04369
1.615307
5.387703
8.256641
10.31678
11.67343
12.4351
12.66178
12.49086
12.05466
11.51429
11.01328
10.6388
10.40803
10.31504
10.34892
10.51113
10.87802
11.47547
12.21952
12.94913
13.422
13.43452
12.90952
11.91805
10.61738
9.265892
8.014565
6.917686
5.936092
4.917706
3.734715
2.28838
0.5858421
-1.319965
-3.291336
-5.189354
-6.905895
-8.311115
-9.389603
-10.19864
-10.86902
-11.59085
-12.53698
-13.73593
-15.00465
-15.94567
-16.02352
-14.78621
-12.06171
-8.094112
-3.470573
1.044525
4.83926
7.606773
9.405418
10.54911
11.3639
12.04273
12.55439
12.74408
12.44531
11.64132
10.46486
9.153179
7.987507
7.127335
6.610096
6.397896
6.427727
6.650055
7.053783
7.597603
8.169498
8.602287
8.680576
8.256344
7.362427
6.158691
4.82515
3.505096
2.234383
0.9193916
-0.5477829
-2.25687
-4.216312
-6.306572
-8.391006
-10.34188
-12.08731
-13.58589
-14.89849
-16.11928
-17.40177
-18.92978
-20.79708
-22.95716
-25.10178
-26.68733
-27.0859
-25.81336
-22.7347
-18.16707
-12.80891
-7.438519
-2.725143
1.057495
3.941963
6.144127
7.853157
9.17807
10.14621
10.76324
11.13729
11.40091
11.7205
12.17947
12.73729
13.26562
13.65122
13.85117
13.94904
14.14089
14.59067
15.3246
16.18443
16.86531
16.98942
16.31822
14.80543
12.63839
10.20169
7.909035
5.995266
4.532841
3.411312
2.416569
1.359612
0.1537399
-1.241337
-2.742977
-4.295593
-5.842949
-7.358643
-8.813934
-10.21995
-11.63858
-13.19661
-15.06078
-17.3255
-19.94112
-22.54198
-24.55822
-25.31532
-24.30449
-21.36448
-16.81224
-11.32671
-5.712559
-0.6466637
3.524475
6.758827
9.210537
11.00812
12.22357
12.83249
12.85298
12.40076
11.72543
11.07622
10.64691
10.52745
10.64238
10.92806
11.2999
11.74112
12.24593
12.81328
13.36967
13.82154
14.05262
13.92517
13.35881
12.33852
10.8884
9.145855
7.337276
5.680552
4.317114
3.262753
2.391228
1.535521
0.5915527
-0.4777641
-1.585884
-2.609068
-3.523582
-4.43857
-5.536245
-7.020718
-9.002142
-11.41373
-14.1245
-16.91484
-19.59872
-21.95109
-23.69403
-24.45758
-23.86038
-21.66496
-17.89038
-12.92798
-7.405548
-2.050915
2.525599
5.951817
8.168112
9.287493
9.559988
9.265284
8.665333
7.950258
7.30155
6.808355
6.515249
6.452258
6.612868
7.0343
7.753018
8.811299
10.15892
11.68723
13.19715
14.44837
15.25484
15.48431
15.11766
14.1868
12.8018
11.0748
9.147615
7.166843
5.250128
3.482509
1.84697
0.2245526
-1.531519
-3.510103
-5.691831
-7.901166
-9.924932
-11.63257
-12.96694
-14.14391
-15.44238
-17.06612
-19.01324
-20.97292
-22.39864
-22.68497
-21.42562
-18.47241
-14.10011
-8.814774
-3.221602
2.113549
6.750354
10.39727
12.915
14.2523
14.49004
13.85212
12.6586
11.23855
9.885428
8.750348
7.890263
7.275221
6.831625
6.507005
6.294683
6.244941
6.34866
6.562078
6.792456
6.922375
6.871731
6.599922
6.110321
5.413651
4.548025
3.525873
2.378519
1.159445
-0.07068062
-1.288834
-2.528502
-3.842182
-5.300669
-6.935181
-8.751356
-10.69691
-12.74958
-14.89336
-17.08939
-19.30194
-21.4166
-23.30435
-24.77739
-25.56409
-25.3226
-23.72447
-20.58552
-16.01442
-10.45091
-4.598648
0.7764244
5.080936
8.066208
9.862019
10.78592
11.20961
11.36639
11.33833
11.10941
10.66793
10.05292
9.414833
8.926048
8.686466
8.709415
8.885422
9.089916
9.26429
9.385662
9.462498
9.473206
9.31905
8.85503
8.000164
6.7388
5.180923
3.526054
1.917305
0.4673271
-0.8294716
-2.006889
-3.108162
-4.187023
-5.2915
-6.48521
-7.810741
-9.274609
-10.82288
-12.4212
-14.03604
-15.64482
-17.17515
-18.44473
-19.20218
-19.10307
-17.90982
-15.52032
-12.15524
-8.216457
-4.213444
-0.5760918
2.423397
4.701969
6.352921
7.491806
8.234188
8.628803
8.654613
8.317726
7.707401
7.041462
6.592285
6.569553
7.005596
7.729599
8.435818
8.82341
8.76218
8.314949
7.710068
7.135929
6.657551
6.157871
5.482365
4.534687
3.392059
2.215847
1.175434
0.294735
-0.5515671
-1.516701
-2.716614
-4.092155
-5.498943
-6.787796
-7.908943
-8.995796
-10.30113
-12.04314
-14.24566
-16.75122
-19.15771
-20.98352
-21.77751
-21.23903
-19.35776
-16.35322
-12.61937
-8.579655
-4.591724
-0.9546394
2.115093
4.473759
6.086357
7.025421
7.499786
7.746693
7.991905
8.325645
8.683357
8.960037
9.053013
9.035629
9.035309
9.170975
9.445793
9.732914
9.87962
9.792431
9.479454
9.022606
8.536369
8.00211
7.351025
6.442726
5.159519
3.508152
1.567173
-0.4893532
-2.455261
-4.162277
-5.532951
-6.606979
-7.560711
-8.628735
-9.963833
-11.65859
-13.63298
-15.67065
-17.49126
-18.76823
-19.20821
-18.57328
-16.75659
-13.79686
-9.931858
-5.563381
-1.177826
2.727741
5.839191
8.048283
9.401623
10.07608
10.24286
10.02584
9.492863
8.713089
7.784294
6.874092
6.181583
5.875256
5.993748
6.450279
7.049778
7.54575
7.810131
7.785358
7.565418
7.275299
6.999527
6.698517
6.25771
5.503036
4.311436
2.68597
0.704834
-1.423168
-3.511856
-5.405151
-7.110504
-8.684399
-10.28399
-12.05455
-14.06562
-16.32571
-18.74404
-21.11405
-23.09462
-24.30409
-24.34946
-22.95675
-20.07787
-15.96888
-11.15652
-6.241783
-1.760036
1.97319
4.915257
7.159309
8.88765
10.18895
11.1011
11.5762
11.64363
11.37923
10.91524
10.41308
9.979572
9.670334
9.442619
9.281876
9.123898
8.987427
8.906422
8.881195
8.851025
8.764584
8.526964
8.06542
7.348797
6.365774
5.142323
3.691141
2.016743
0.1084747
-1.998547
-4.20956
-6.373112
-8.319883
-9.925722
-11.16324
-12.15563
-13.16316
-14.4579
-16.20686
-18.36636
-20.61851
-22.43466
-23.2425
-22.56121
-20.19869
-16.30946
-11.35905
-5.969591
-0.8297348
3.57284
6.949339
9.255262
10.65814
11.38087
11.68613
11.75966
11.77247
11.81381
11.94058
12.15221
12.39271
12.60738
12.68838
12.61432
12.36653
12.0228
11.65569
11.37282
11.22694
11.18883
11.19559
11.04787
10.59044
9.705109
8.37725
6.684382
4.758311
2.739551
0.7065983
-1.234306
-3.064775
-4.696181
-6.080447
-7.174217
-8.035351
-8.799274
-9.625771
-10.70113
-12.10891
-13.8829
-15.94026
-18.11547
-20.13214
-21.59726
-22.06435
-21.14964
-18.71245
-14.93296
-10.31032
-5.513591
-1.1619
2.354482
4.989195
6.904233
8.303542
9.307425
9.928694
10.16147
10.06892
9.855923
9.730741
9.898323
10.41433
11.17905
11.97216
12.61393
12.96316
12.99551
12.77703
12.36181
11.80585
11.06832
10.11187
8.933153
7.624345
6.325421
5.208791
4.367119
3.7788
3.283255
2.691722
1.859919
0.7533216
-0.5581465
-1.981411
-3.402985
-4.79969
-6.179049
-7.655923
-9.371914
-11.46146
-14.00634
-16.86859
-19.65053
-21.72624
-22.43206
-21.33281
-18.4495
-14.25314
-9.450401
-4.790905
-0.7491159
2.512657
5.063858
7.019193
8.461007
9.382535
9.808134
9.851189
9.6913
9.56925
9.633286
9.920616
10.36723
10.88182
11.38856
11.8518
12.27375
12.64717
12.96358
13.17449
13.18291
12.90547
12.3066
11.38488
10.20831
8.869316
7.434162
5.873743
4.146328
2.201113
0.06279373
-2.167771
-4.385392
-6.504362
-8.506695
-10.4078
-12.22411
-13.8723
-15.30677
-16.54645
-17.75151
-19.22006
-21.18995
-23.64486
-26.21554
-28.16918
-28.66788
-27.12484
-23.41032
-17.92775
-11.50075
-5.057457
0.6696167
5.263245
8.643366
10.96665
12.41887
13.17085
13.40977
13.28444
12.98035
12.7206
12.62634
12.74771
13.0938
13.61345
14.24004
14.91061
15.49257
15.92106
16.13634
16.11436
15.83245
15.27905
14.4549
13.36532
12.0322
10.5427
9.040678
7.658234
6.476652
5.470055
4.474775
3.321125
1.862131
0.07155037
-1.951796
-4.079319
-6.150278
-8.09971
-9.915342
-11.66195
-13.45852
-15.36192
-17.41837
-19.54516
-21.60318
-23.291
-24.2215
-23.97686
-22.26507
-19.06688
-14.66935
-9.609859
-4.481413
0.1794014
4.061893
7.060362
9.19174
10.56779
11.32993
11.62473
11.58219
11.3394
11.01368
10.68491
10.4566
10.37188
10.48519
10.81197
11.31493
11.86051
12.31062
12.5669
12.58668
12.45536
12.25303
12.07323
11.91525
11.75174
11.50527
11.08367
10.3802
9.297144
7.784462
5.804615
3.413296
0.7536802
-1.946838
-4.434719
-6.545387
-8.234314
-9.588639
-10.74593
-11.87275
-13.10109
-14.5133
-16.15883
-18.00762
-19.9117
-21.55708
-22.48608
-22.19154
-20.3853
-17.09044
-12.70824
-7.884274
-3.250328
0.7585325
4.030603
6.630951
8.697748
10.28076
11.34722
11.82382
11.68181
11.05854
10.19687
9.396939
8.87249
8.706645
8.859584
9.198989
9.5632
9.842868
9.989969
9.992322
9.825907
9.46415
8.835066
7.902577
6.722528
5.359792
3.947635
2.584231
1.314176
0.1038418
-1.116863
-2.407031
-3.805077
-5.31125
-6.897752
-8.550348
-10.27158
-12.06549
-13.97414
-16.02676
-18.19764
-20.33368
-22.14248
-23.20395
-23.07656
-21.45052
-18.27988
-13.84271
-8.695828
-3.486453
1.219005
5.083167
7.97468
9.968092
11.22244
11.89131
12.12697
12.02507
11.69254
11.20888
10.66246
10.10768
9.590081
9.166712
8.884233
8.760474
8.821869
9.006878
9.203098
9.275352
9.093714
8.591433
7.769979
6.7346
5.580671
4.424978
3.279224
2.135805
0.9768734
-0.1448288
-1.133343
-1.914402
-2.535355
-3.181181
-4.1094
-5.542091
-7.501617
-9.841328
-12.32694
-14.76897
-17.15745
-19.51534
-21.78119
-23.65824
-24.6299
-24.13276
-21.8056
-17.71617
-12.34327
-6.478615
-0.9261189
3.694685
7.083509
9.254456
10.42199
10.86859
10.86455
10.60336
10.20975
9.748102
9.295382
8.912361
8.638298
8.511803
8.535625
8.675919
8.94628
9.289579
9.645533
9.964872
10.12252
10.04821
9.69371
9.08025
8.282221
7.440176
6.607224
5.752373
4.741928
3.452215
1.842602
-0.01802635
-1.969908
-3.850235
-5.582314
-7.237171
-8.918846
-10.70889
-12.58986
-14.48555
-16.33802
-18.19584
-20.09578
-21.9497
-23.46087
-24.08835
-23.23443
-20.58564
-16.27073
-10.86663
-5.257843
-0.2043648
3.834866
6.754257
8.726021
10.00618
10.70848
10.92493
10.73181
10.27701
9.744915
9.314831
9.026367
8.83453
8.680897
8.480598
8.309418
8.232647
8.293571
8.460449
8.62553
8.661507
8.500771
8.128273
7.602833
7.047218
6.487053
5.852837
5.007214
3.738182
1.967632
-0.229351
-2.620022
-4.943748
-6.964706
-8.604343
-9.941044
-11.09707
-12.19923
-13.31578
-14.46857
-15.66908
-16.93459
-18.16124
-19.16734
-19.62278
-19.15591
-17.49092
-14.57133
-10.59586
-6.020794
-1.402756
2.753109
6.035046
8.268188
9.464741
9.826855
9.63541
9.192089
8.695572
8.256474
7.911903
7.632957
7.461857
7.420589
7.537449
7.760006
7.990795
8.07346
7.944206
7.628731
7.223934
6.91021
6.737675
6.655025
6.45179
5.881466
4.759228
3.088459
1.037613
-1.120579
-3.110996
-4.808567
-6.249374
-7.608421
-9.081207
-10.78719
-12.71956
-14.79463
-16.93605
-19.0968
-21.22286
-23.1571
-24.58422
-25.06208
-24.12956
-21.5629
-17.45481
-12.30122
-6.82486
-1.787258
2.288612
5.200405
7.076027
8.244232
9.016468
9.618687
10.11153
10.42933
10.4947
10.34481
10.09166
9.916534
9.969704
10.29122
10.81014
11.38643
11.86053
12.14253
12.1895
12.00836
11.59267
10.94062
10.08109
9.04467
7.894773
6.664894
5.351879
3.884201
2.17975
0.2190876
-1.937429
-4.122751
-6.184048
-8.02882
-9.670275
-11.13573
-12.50612
-13.8588
-15.29575
-16.94024
-18.8179
-20.80524
-22.52997
-23.47416
-23.12085
-21.17078
-17.70785
-13.19404
-8.316849
-3.699175
0.2508621
3.422743
5.907335
7.796848
9.209408
10.16451
10.68321
10.77975
10.55247
10.13968
9.642345
9.151778
8.666524
8.230297
7.89776
7.795408
7.994037
8.51457
9.23418
9.97175
10.52721
10.75174
10.59917
10.0422
9.112414
7.82111
6.206217
4.290259
2.180664
0.03078842
-2.040545
-3.944025
-5.709486
-7.432126
-9.153905
-10.9187
-12.72127
-14.54344
-16.36398
-18.1674
-19.89402
-21.37352
-22.28668
-22.20612
-20.79007
-17.89477
-13.68704
-8.615784
-3.298972
1.657395
5.84707
9.043859
11.23439
12.47804
12.85379
12.48494
11.52104
10.17298
8.729425
7.498372
6.689955
6.458562
6.808412
7.666118
8.835958
10.11076
11.23413
12.04058
12.42941
12.37145
11.90109
11.07051
9.946592
8.546979
6.912303
5.1009
3.186612
1.270376
-0.5510826
-2.236229
-3.737505
-5.054825
-6.188753
-7.230917
-8.267941
-9.427551
-10.84449
-12.57388
-14.57248
-16.61715
-18.42922
-19.61232
-19.87088
-18.96254
-16.81986
-13.5221
-9.358051
-4.752905
-0.2234077
3.736509
6.800331
8.874779
10.11859
10.77176
11.1483
11.35481
11.41906
11.26278
10.83404
10.19555
9.537659
9.085676
8.968962
9.281784
9.919365
10.6705
11.26513
11.47803
11.18298
10.40856
9.260067
7.836475
6.222809
4.428627
2.433014
0.2780457
-1.937691
-4.021446
-5.80983
-7.168545
-8.136932
-8.842487
-9.491001
-10.24674
-11.18804
-12.37047
-13.80431
-15.55094
-17.589
-19.79918
-21.88737
-23.3594
-23.63572
-22.2154
-18.95771
-14.1289
-8.35112
-2.423309
2.938183
7.248268
10.36041
12.37602
13.52885
14.00613
13.91394
13.31924
12.28576
10.97104
9.641113
8.6548
8.237839
8.460209
9.14381
9.96402
10.62196
10.95657
10.98721
10.88397
10.8159
10.84348
10.85286
10.6865
10.18646
9.320641
8.151733
6.772396
5.257515
3.60228
1.795074
-0.1351585
-2.058163
-3.872414
-5.457977
-6.784019
-7.948677
-9.132446
-10.58145
-12.47247
-14.8797
-17.6188
-20.34206
-22.47882
-23.406
-22.61491
-19.91324
-15.51856
-9.990654
-4.130333
1.301537
5.776939
9.074043
11.28207
12.68741
13.60193
14.25732
14.74818
15.04488
15.07674
14.79709
14.25285
13.55141
12.87476
12.38164
12.11687
12.04924
12.02965
11.94858
11.77045
11.53792
11.32783
11.17522
11.03778
10.81042
10.38734
9.684517
8.767357
7.667091
6.414467
4.972908
3.264023
1.224205
-1.144028
-3.704742
-6.279297
-8.66922
-10.79881
-12.73148
-14.63956
-16.72589
-19.08559
-21.62041
-24.01253
-25.81306
-26.55048
-25.92272
-23.79377
-20.26626
-15.69511
-10.52521
-5.292847
-0.4635468
3.582489
6.627167
8.628494
9.744904
10.22218
10.30982
10.24911
10.15002
10.08566
10.07137
10.13958
10.36581
10.79424
11.4062
12.09431
12.72663
13.1212
13.2234
12.99348
12.52032
11.90531
11.20934
10.45182
9.664223
8.871414
8.058342
7.212463
6.281189
5.168098
3.798866
2.169373
0.347641
-1.487083
-3.209572
-4.789055
-6.297531
-7.914009
-9.837914
-12.22306
-15.08398
-18.26191
-21.38516
-23.9073
-25.19576
-24.72646
-22.26725
-18.01509
-12.5387
-6.665085
-1.149414
3.477966
7.016464
9.584328
11.3986
12.63218
13.32765
13.47698
13.07841
12.23488
11.17823
10.16008
9.442677
9.165241
9.313431
9.75547
10.28432
10.69032
10.82521
10.62106
10.13797
9.480377
8.760044
8.016415
7.192184
6.172382
4.853958
3.230179
1.368874
-0.5925217
-2.578194
-4.567791
-6.625816
-8.805798
-11.10117
-13.45045
-15.77591
-18.01466
-20.19164
-22.36148
-24.50161
-26.4449
-27.78056
-27.96283
-26.484
-23.11713
-18.02852
-11.80087
-5.27615
0.7571564
5.723103
9.366688
11.73932
13.04631
13.54453
13.4768
13.04522
12.40289
11.69743
11.04945
10.5662
10.30009
10.25486
10.38429
10.60011
10.82067
11.00052
11.10949
11.13201
11.01738
10.66498
9.986065
8.984581
7.776863
6.593765
5.643436
4.971298
4.397228
3.60181
2.309647
0.4225044
-1.898552
-4.32793
-6.550056
-8.379959
-9.884552
-11.25983
-12.71367
-14.39371
-16.33434
-18.49645
-20.7452
-22.82088
-24.33691
-24.79786
-23.72426
-20.88071
-16.39335
-10.83788
-5.05426
0.09431076
4.050003
6.690468
8.268597
9.215687
9.888962
10.45292
10.84567
10.96159
10.71893
10.192
9.554718
8.97419
8.550243
8.291214
8.191906
8.238159
8.458405
8.795807
9.147472
9.352146
9.260738
8.849655
8.257587
7.6689
7.251579
7.040688
6.853985
6.427578
5.513165
3.957455
1.820423
-0.6876869
-3.352974
-5.984039
-8.453678
-10.71253
-12.74374
-14.56103
-16.27383
-18.03893
-19.97961
-22.10051
-24.09705
-25.39996
-25.31477
-23.3345
-19.39538
-13.98244
-7.940929
-2.185219
2.56826
6.033062
8.229656
9.348156
9.689236
9.506927
9.019688
8.464237
8.013279
7.774677
7.799622
8.062134
8.438831
8.850319
9.234806
9.516884
9.711285
9.8447
9.983715
10.20633
10.46865
10.6007
10.38076
9.635323
8.335342
6.688293
4.955563
3.375042
2.007488
0.6910057
-0.8145027
-2.655689
-4.805237
-7.056259
-9.065674
-10.62331
-11.68686
-12.45845
-13.26848
-14.40046
-15.89414
-17.51482
-18.78461
-19.14036
-18.2002
-15.86793
-12.36664
-8.151718
-3.743874
0.4456329
4.112804
7.09573
9.29174
10.59307
10.98408
10.59126
9.687103
8.646217
7.851013
7.528191
7.747192
8.41473
9.339268
10.30812
11.13711
11.70264
11.90148
11.68809
11.05655
10.04495
8.753586
7.28632
5.756927
4.191326
2.572182
0.8678055
-0.9653931
-2.890766
-4.77803
-6.465851
-7.832706
-8.893429
-9.822414
-10.84159
-12.1227
-13.72767
-15.61508
-17.677
-19.87718
-22.18735
-24.468
-26.36942
-27.31997
-26.68591
-24.05127
-19.48661
-13.5583
-7.166233
-1.25491
3.541939
6.993298
9.23243
10.6021
11.4157
11.90931
12.17616
12.27774
12.25726
12.18378
12.09919
11.99901
11.93338
11.90996
12.00292
12.23254
12.61943
13.09407
13.55606
13.86508
13.89647
13.60613
12.95773
11.97732
10.67445
9.090557
7.260311
5.223156
3.022896
0.7138214
-1.573338
-3.749912
-5.728531
-7.508472
-9.13916
-10.69102
-12.27322
-13.95026
-15.81034
-17.89028
-20.19094
-22.50374
-24.38003
-25.23241
-24.44036
-21.70562
-17.12174
-11.29356
-5.017197
0.8997803
5.917595
9.80571
12.55139
14.30527
15.23956
15.55328
15.40789
14.96825
14.40741
13.8568
13.41469
13.11427
12.98899
13.01227
13.15099
13.3276
13.45766
13.5191
13.47997
13.35246
13.05875
12.53962
11.69273
10.48496
9.012093
7.447487
6.03759
4.88958
4.004608
3.163971
2.170853
0.8479843
-0.7819748
-2.546638
-4.244583
-5.750786
-7.16317
-8.641613
-10.40225
-12.58577
-15.20018
-18.11686
-21.05296
-23.62164
-25.32541
-25.66555
-24.2441
-20.95694
-16.07143
-10.20531
-4.163956
1.34306
5.805084
9.062317
11.2297
12.57154
13.34967
13.77215
13.91912
13.81114
13.42882
12.75725
11.85575
10.87116
10.05273
9.620525
9.715538
10.25159
10.9723
11.52471
11.61491
11.15054
10.23622
9.108433
7.991627
6.993866
6.0928
5.187256
4.190945
3.094872
1.963627
0.8470917
-0.2647629
-1.432583
-2.778259
-4.357533
-6.176311
-8.169117
-10.27579
-12.46156
-14.73552
-17.11027
-19.44704
-21.43668
-22.60422
-22.43234
-20.56929
-17.02392
-12.15172
-6.623608
-1.204926
3.504612
7.141056
9.600601
10.96549
11.41984
11.20961
10.59541
9.842659
9.158337
8.672512
8.400383
8.337147
8.460667
8.769753
9.303268
10.01178
10.748
11.26864
11.32161
10.81738
9.858921
8.71701
7.598408
6.618931
5.729149
4.780828
3.620373
2.25498
0.7881145
-0.6686077
-2.038578
-3.37582
-4.800072
-6.398832
-8.222717
-10.22808
-12.34743
-14.5333
-16.79778
-19.1475
-21.4993
-23.6184
-25.09926
-25.48261
-24.37664
-21.6596
-17.57823
-12.66597
-7.579135
-2.916111
0.9329662
3.83041
5.825912
7.093701
7.818842
8.193226
8.418056
8.679798
9.12951
9.802869
10.62009
11.44666
12.14709
12.64753
12.97811
13.24936
13.50004
13.69469
13.68071
13.33821
12.6101
11.58333
10.39586
9.11123
7.723258
6.063216
4.011421
1.588697
-0.985235
-3.374618
-5.266368
-6.555926
-7.398727
-8.076104
-8.906436
-10.07648
-11.62312
-13.52457
-15.695
-18.04702
-20.34327
-22.21243
-23.1428
-22.63241
-20.40082
-16.62125
-11.83575
-6.831044
-2.336385
1.212994
3.794066
5.596764
6.937428
8.077393
9.105345
10.01798
10.75921
11.26984
11.50185
11.49108
11.26424
10.89567
10.50615
10.21723
10.10217
10.17588
10.32896
10.38769
10.20792
9.687065
8.84244
7.76535
6.584812
5.404299
4.287577
3.232536
2.2201
1.182808
0.05176163
-1.228735
-2.691
-4.341063
-6.092581
-7.843575
-9.513817
-11.08371
-12.60429
-14.15939
-15.83947
-17.60715
-19.3083
-20.62657
-21.16501
-20.58206
-18.68478
-15.53307
-11.42245
-6.794416
-2.100632
2.258698
6.009773
8.983709
11.11326
12.39216
12.88694
12.73278
12.13083
11.29305
10.42587
9.647469
9.005276
8.524223
8.192204
7.98571
7.848656
7.708549
7.45599
7.00489
6.305916
5.407955
4.460865
3.64196
3.040382
2.616634
2.185482
1.517761
0.4891129
-0.8817062
-2.393364
-3.813885
-5.039539
-6.139946
-7.313549
-8.783009
-10.67611
-12.95264
-15.49347
-18.0632
-20.35383
-22.00309
-22.58583
-21.73197
-19.26057
-15.31945
-10.36615
-5.078701
-0.1350784
3.985806
7.062721
9.096981
10.28489
10.81674
10.85117
10.58581
10.08532
9.442757
8.753376
8.118328
7.678127
7.59486
7.948689
8.673466
9.568485
10.33897
10.74721
10.70374
10.29528
9.691265
9.00034
8.24559
7.317657
6.123863
4.608948
2.856445
1.045265
-0.6461411
-2.119377
-3.400093
-4.614357
-5.924011
-7.393082
-9.077637
-10.92937
-12.80914
-14.64062
-16.3374
-17.83932
-19.12473
-20.0663
-20.41423
-19.90556
-18.31343
-15.57242
-11.9492
-7.943237
-4.098961
-0.8903275
1.465683
3.094093
4.286552
5.362976
6.497253
7.651245
8.668007
9.383514
9.703384
9.625351
9.294937
8.861977
8.496544
8.28286
8.24839
8.37104
8.607483
8.847557
8.99308
8.946869
8.641983
8.103264
7.376961
6.488792
5.417984
4.178398
2.720222
1.066841
-0.7208786
-2.554482
-4.33815
-5.947983
-7.31057
-8.380058
-9.171982
-9.80098
-10.45394
-11.37262
-12.72919
-14.55025
-16.57948
-18.33012
-19.18996
-18.64391
-16.42937
-12.69084
-7.935402
-2.832764
1.95742
5.979523
9.046951
11.17266
12.47871
13.0835
13.01847
12.33366
11.12955
9.649483
8.244682
7.242828
6.828094
6.949165
7.380463
7.81012
8.014267
7.960335
7.75489
7.597679
7.559013
7.594482
7.54184
7.234459
6.607277
5.678444
4.590485
3.435051
2.241905
0.9154358
-0.6536102
-2.515472
-4.582741
-6.652161
-8.508347
-10.01285
-11.1407
-11.97881
-12.67467
-13.36506
-14.1152
-14.91532
-15.70304
-16.29562
-16.43823
-15.77008
-14.04357
-11.16331
-7.385185
-3.217941
0.6667175
3.785782
5.920074
7.223557
8.053596
8.695885
9.289986
9.754654
9.90744
9.643036
9.06134
8.348656
7.762321
7.430298
7.327812
7.306366
7.256111
7.089432
6.865929
6.715538
6.687607
6.731232
6.654907
6.266136
5.393761
4.059776
2.354233
0.4777908
-1.397545
-3.188576
-4.833794
-6.324295
-7.629112
-8.732193
-9.574203
-10.23168
-10.79317
-11.45898
-12.51209
-14.04298
-15.94862
-17.82123
-19.11544
-19.25429
-17.91474
-15.10793
-11.15446
-6.680862
-2.253227
1.678696
4.903198
7.371155
9.201714
10.47301
11.25368
11.55086
11.34704
10.69507
9.704987
8.554283
7.472214
6.651657
6.159599
5.975609
5.99939
6.125702
6.291702
6.430717
6.473686
6.40123
6.156204
5.718391
5.118301
4.408386
3.639732
2.864471
2.066017
1.20192
0.22612
-0.9284515
-2.292679
-3.826599
-5.429382
-6.995674
-8.442055
-9.740211
-10.98783
-12.3544
-14.03079
-16.08127
-18.36134
-20.48679
-21.9454
-22.25591
-21.06741
-18.35281
-14.40603
-9.754471
-5.04174
-0.8258057
2.555191
5.000549
6.62207
7.659302
8.331108
8.776306
9.064713
9.200996
9.189285
9.078316
8.956924
8.909981
9.045723
9.377106
9.892548
10.52995
11.1749
11.70884
12.02007
12.00945
11.58292
10.72675
9.456802
7.887238
6.16272
4.410683
2.710976
1.092827
-0.4426956
-1.877563
-3.185181
-4.336754
-5.350952
-6.314194
-7.336021
-8.489044
-9.798073
-11.27151
-12.93201
-14.79477
-16.84907
-18.9586
-20.79393
-21.88328
-21.75588
-20.1104
-17.01672
-12.87006
-8.273392
-3.835083
-0.0004806519
3.059937
5.348839
6.980965
8.06636
8.689919
8.924187
8.885612
8.749413
8.700027
8.888916
9.351067
9.938698
10.47513
10.81148
10.85129
10.62285
10.20218
9.670799
9.077927
8.446136
7.753639
7.040024
6.321861
5.621704
4.94487
4.251045
3.518044
2.737541
1.909683
1.002884
0.0534668
-0.9610901
-2.046051
-3.204483
-4.466324
-5.836845
-7.334404
-8.991638
-10.90296
-13.11317
-15.59511
-18.12344
-20.22548
-21.30348
-20.80832
-18.49194
-14.54849
-9.616966
-4.542877
-0.08167267
3.310104
5.628181
7.091179
8.037415
8.697273
9.112671
9.237526
9.016708
8.447899
7.651985
6.872208
6.26442
5.924324
5.866631
5.974556
6.155022
6.331406
6.448479
6.466202
6.410866
6.212067
5.816574
5.190109
4.334808
3.31633
2.226311
1.105125
-0.0893631
-1.392441
-2.936646
-4.728607
-6.731003
-8.80909
-10.7709
-12.41666
-13.62956
-14.42468
-14.95881
-15.56916
-16.51417
-17.96993
-19.83351
-21.68996
-22.91537
-22.90359
-21.27277
-17.9586
-13.27264
-7.722832
-1.910439
3.591278
8.351952
12.04759
14.52518
15.73189
15.78635
14.86739
13.3103
11.45823
9.656578
8.210327
7.266106
6.880699
6.925949
7.287491
7.810989
8.452332
9.183846
9.926567
10.55859
10.85686
10.68922
9.992691
8.93425
7.673649
6.379799
5.108822
3.731243
2.112511
0.1518402
-2.04192
-4.284267
-6.344666
-8.131554
-9.693409
-11.12153
-12.57445
-14.09875
-15.70064
-17.29249
-18.85966
-20.33058
-21.6198
-22.49459
-22.56918
-21.43279
-18.78479
-14.71814
-9.662701
-4.363358
0.4526558
4.265404
6.916874
8.566704
9.482239
9.932835
10.06296
9.96983
9.755947
9.539204
9.384331
9.302784
9.233913
9.092133
8.889198
8.721771
8.719715
9.011368
9.60467
10.34913
11.03902
11.49004
11.53283
11.17272
10.46766
9.544731
8.528755
7.481655
6.417484
5.274694
4.01482
2.54801
0.8802795
-0.9817886
-2.985741
-5.048302
-7.095522
-9.062008
-10.93655
-12.75439
-14.59681
-16.52856
-18.52134
-20.38469
-21.80213
-22.39905
-21.83214
-19.96349
-16.8908
-12.92026
-8.475874
-4.023592
0.1010313
3.646574
6.515897
8.665194
10.0777
10.71975
10.61407
9.910092
8.843163
7.745
6.886617
6.446833
6.448277
6.799864
7.332518
7.904906
8.438058
8.838302
9.03837
8.928252
8.497364
7.795425
6.91952
5.988402
5.08142
4.171988
3.163232
1.975175
0.5395393
-1.097639
-2.834045
-4.618155
-6.402355
-8.215366
-10.08703
-12.07177
-14.17288
-16.36653
-18.53654
-20.444
-21.71902
-21.90883
-20.66044
-17.85987
-13.74223
-8.822641
-3.790012
0.7463303
4.421745
7.08382
8.838959
9.848392
10.29004
10.36212
10.25389
10.1306
10.1245
10.28861
10.60538
11.06997
11.66752
12.37051
13.14533
13.86914
14.35489
14.40236
13.91525
12.93678
11.67123
10.33478
9.054955
7.850975
6.602715
5.176804
3.45953
1.43597
-0.8184052
-3.092133
-5.194374
-7.021423
-8.550934
-9.936035
-11.40249
-13.17369
-15.38617
-17.99611
-20.7809
-23.3606
-25.26493
-26.03349
-25.29366
-22.87946
-18.87951
-13.70268
-7.980843
-2.440895
2.298088
5.882042
8.281174
9.68364
10.38309
10.68565
10.8005
10.86757
10.96209
11.1178
11.3689
11.75458
12.28167
12.92741
13.66662
14.41218
15.06224
15.56623
15.89928
16.08644
16.12694
15.98215
15.55735
14.72964
13.39288
11.50219
9.130966
6.411346
3.526825
0.6290207
-2.179802
-4.800903
-7.160713
-9.195869
-10.88701
-12.26819
-13.47768
-14.75654
-16.32098
-18.33502
-20.73522
-23.19164
-25.12344
-25.88714
-24.96604
-22.20667
-17.85619
-12.4729
-6.786774
-1.43161
3.153854
6.773697
9.427124
11.21802
12.29083
12.84508
13.116
13.29853
13.54285
13.85394
14.13734
14.30036
14.30452
14.22429
14.20168
14.34836
14.6776
15.04789
15.29497
15.21824
14.75956
13.95251
12.89236
11.71676
10.49095
9.268333
8.037323
6.786621
5.462662
4.049332
2.51059
0.869812
-0.8335724
-2.595551
-4.384674
-6.197739
-8.050674
-9.971054
-12.00659
-14.20863
-16.61221
-19.1664
-21.70029
-23.86343
-25.18074
-25.16937
-23.5284
-20.24352
-15.62572
-10.22925
-4.665543
0.520813
4.97934
8.510834
11.05988
12.64589
13.34215
13.29631
12.72162
11.87796
11.03589
10.44998
10.27014
10.5439
11.22978
12.16959
13.15858
13.98665
14.49281
14.62883
14.47931
14.17612
13.82465
13.45471
12.92377
12.05411
10.69685
8.785217
6.40239
3.755096
1.032013
-1.593887
-4.018875
-6.202896
-8.121826
-9.779449
-11.22961
-12.58617
-14.00694
-15.65527
-17.52087
-19.36636
-20.77592
-21.17784
-20.10669
-17.40559
-13.26134
-8.192444
-2.876831
2.084244
6.292786
9.561966
11.90344
13.36205
13.97641
13.80859
12.98477
11.72861
10.3573
9.17392
8.384308
8.110474
8.334946
8.972488
9.890259
10.93416
11.86604
12.47943
12.59245
12.15636
11.26306
10.10687
8.885162
7.692291
6.487457
5.133041
3.5271
1.636978
-0.4495239
-2.591324
-4.665634
-6.568726
-8.311569
-9.956406
-11.58662
-13.27972
-15.13426
-17.23645
-19.63287
-22.179
-24.48764
-25.96107
-25.95561
-24.03415
-20.15862
-14.76735
-8.618332
-2.572983
2.719452
6.930389
10.05093
12.25418
13.71091
14.54437
14.85248
14.74025
14.37096
13.90158
13.5002
13.25163
13.1647
13.19272
13.21423
13.18517
13.1006
12.96764
12.81117
12.64313
12.41913
12.12592
11.76447
11.34293
10.90149
10.40544
9.759964
8.806488
7.404297
5.508896
3.237701
0.7838211
-1.639145
-3.903496
-6.019897
-8.050163
-10.11314
-12.27514
-14.59056
-17.09741
-19.78416
-22.55866
-25.1352
-27.093
-27.86075
-26.97348
-24.20757
-19.72752
-14.08974
-8.068756
-2.427292
2.32637
5.952766
8.540558
10.29921
11.46603
12.2149
12.69099
12.97566
13.12786
13.22485
13.23545
13.16301
12.99461
12.76211
12.59013
12.61042
12.88632
13.35564
13.85391
14.12809
13.99066
13.38918
12.41234
11.31315
10.27075
9.425255
8.721069
8.020668
7.100479
5.819611
4.156479
2.167503
0.0009918213
-2.264923
-4.572716
-6.932289
-9.300117
-11.67016
-14.01787
-16.33431
-18.6637
-20.92876
-22.93475
-24.23318
-24.27843
-22.6228
-19.17771
-14.28587
-8.672569
-3.194481
1.455399
4.938622
7.271729
8.714294
9.562042
10.00703
10.10184
9.865173
9.312485
8.594284
7.9366
7.549553
7.531792
7.855614
8.335419
8.721413
8.842873
8.606766
8.131496
7.602474
7.200455
6.973373
6.836224
6.592201
6.045284
5.119606
3.832664
2.358582
0.9067764
-0.3613434
-1.415138
-2.29026
-3.106949
-3.984158
-4.981884
-6.160351
-7.55727
-9.213757
-11.18008
-13.44414
-15.83545
-18.01068
-19.45937
-19.62355
-18.11228
-14.87588
-10.27055
-4.988621
0.1636543
4.489044
7.62904
9.516367
10.38811
10.55064
10.29301
9.848066
9.372467
8.966768
8.704344
8.611776
8.653557
8.799269
8.988058
9.193653
9.445488
9.743154
9.993643
10.059
9.761662
8.954167
7.641354
5.962313
4.137628
2.433225
1.003945
-0.105443
-0.9658387
-1.705648
-2.418778
-3.145425
-3.887254
-4.706588
-5.629755
-6.755604
-8.117366
-9.758554
-11.66856
-13.8342
-16.19334
-18.62867
-20.88129
-22.5225
-23.06701
-22.03426
-19.25364
-14.90213
-9.523193
-3.866148
1.275391
5.313354
7.989075
9.31679
9.578402
9.152205
8.425198
7.700325
7.175034
6.963511
7.084877
7.456373
7.945324
8.453262
8.905205
9.305042
9.700047
10.11517
10.51405
10.79902
10.8156
10.4391
9.661442
8.568008
7.279701
5.939835
4.623695
3.375366
2.181778
1.014122
-0.1921005
-1.50621
-2.962738
-4.59024
-6.288712
-7.973667
-9.510494
-10.87136
-12.08316
-13.28169
-14.60187
-16.09741
-17.67027
-19.00742
-19.69798
-19.28628
-17.50584
-14.3737
-10.25492
-5.72493
-1.408974
2.196045
4.871521
6.61174
7.611916
8.138687
8.43396
8.667641
8.908981
9.150368
9.278122
9.204582
8.870476
8.338295
7.712601
7.114189
6.611076
6.166061
5.739471
5.278748
4.832977
4.532867
4.47509
4.669983
4.951515
5.114342
4.979797
4.528343
3.878136
3.180061
2.524261
1.823212
0.9117126
-0.3797226
-2.059593
-3.98336
-5.886688
-7.538368
-8.809525
-9.713936
-10.43102
-11.15634
-12.04987
-13.22703
-14.64568
-16.10207
-17.25205
-17.64042
-16.84052
-14.67546
-11.25182
-6.983154
-2.504547
1.621429
4.967865
7.356613
8.769058
9.329361
9.186234
8.510529
7.548325
6.526749
5.69899
5.180145
4.957443
4.891815
4.865982
4.81987
4.80043
4.936493
5.281433
5.804672
6.320404
6.625107
6.583023
6.198532
5.593567
4.952621
4.380203
3.880386
3.354782
2.66185
1.680878
0.3866882
-1.163864
-2.855469
-4.569687
-6.200943
-7.702545
-9.054092
-10.2739
-11.42195
-12.58347
-13.8557
-15.32167
-16.96764
-18.61469
-19.95033
-20.47198
-19.74609
-17.5488
-14.00282
-9.543823
-4.789597
-0.3593597
3.285995
5.889191
7.488052
8.221634
8.326324
7.983826
7.386353
6.611557
5.717697
4.751785
3.786087
3.032364
2.681335
2.89032
3.665176
4.818512
6.071548
7.128357
7.838013
8.158722
8.171814
7.911728
7.359879
6.46228
5.169678
3.551193
1.74971
-0.05110168
-1.764847
-3.357986
-4.88295
-6.384048
-7.833298
-9.192429
-10.38318
-11.38637
-12.26028
-13.11946
-14.0799
-15.22656
-16.55899
-17.97897
-19.32632
-20.29482
-20.53523
-19.73776
-17.68561
-14.41576
-10.21063
-5.602875
-1.184875
2.536758
5.333542
7.233749
8.405121
9.116043
9.553818
9.775711
9.721588
9.343323
8.587616
7.520416
6.282349
5.02713
3.938141
3.10643
2.529404
2.173172
1.965195
1.841354
1.81192
1.865219
2.003326
2.235336
2.500397
2.715958
2.830658
2.752167
2.386093
1.7043
0.7020416
-0.5500183
-1.912491
-3.262009
-4.552734
-5.798157
-7.130676
-8.741074
-10.68578
-12.95322
-15.37355
-17.61307
-19.31154
-20.10597
-19.6552
-17.80997
-14.64931
-10.4937
-5.927094
-1.615311
1.931137
4.437714
5.963379
6.814041
7.300964
7.620468
7.837677
7.836517
7.494553
6.824463
5.934662
5.041992
4.384171
4.075363
4.08812
4.286331
4.498062
4.602036
4.600769
4.534836
4.493881
4.512894
4.501938
4.363281
3.996521
3.406418
2.727402
2.116745
1.624008
1.180161
0.6169586
-0.2901611
-1.628036
-3.314087
-5.193756
-7.085754
-8.943481
-10.86211
-12.94217
-15.21674
-17.57428
-19.7113
-21.22913
-21.7493
-20.99669
-18.90071
-15.61685
-11.47263
-6.928055
-2.497986
1.391785
4.472656
6.637619
7.884872
8.299133
7.978409
7.051666
5.698196
4.185272
2.822159
1.931427
1.710632
2.149094
3.035065
4.04155
4.849945
5.254318
5.238281
4.951828
4.596603
4.324402
4.099289
3.765091
3.10083
1.94165
0.2741699
-1.746689
-3.869736
-5.857376
-7.525696
-8.787933
-9.680145
-10.33707
-10.96835
-11.83342
-13.1498
-14.94002
-17.01593
-18.91193
-20.03893
-19.88315
-18.17238
-15.00676
-10.79424
-6.162323
-1.741287
1.943451
4.64212
6.349258
7.197144
7.436111
7.251892
6.812057
6.202316
5.538834
4.924942
4.55455
4.582733
5.068695
5.973648
7.067459
8.064865
8.739014
9.010086
8.905441
8.576965
8.112488
7.482773
6.60173
5.280624
3.424881
1.077408
-1.574142
-4.299255
-6.847
-9.054688
-10.85313
-12.21931
-13.22829
-13.99693
-14.74924
-15.73256
-17.14868
-19.00589
-21.07292
-22.86186
-23.74451
-23.24512
-21.15068
-17.63997
-13.19412
-8.427345
-3.836975
0.2193451
3.555229
6.15226
8.030876
9.289825
10.0639
10.47362
10.658
10.67213
10.51202
10.1238
9.512024
8.735054
7.949272
7.347321
7.09388
7.275963
7.862236
8.770935
9.81366
10.83134
11.62444
12.05299
12.02282
11.51143
10.55017
9.232803
7.600357
5.718971
3.647263
1.465919
-0.6954193
-2.765312
-4.696449
-6.540855
-8.387993
-10.40234
-12.63591
-15.11689
-17.73429
-20.29919
-22.53365
-24.05958
-24.50758
-23.53893
-21.05934
-17.22604
-12.50723
-7.464096
-2.620827
1.655159
5.217155
8.042843
10.18233
11.66821
12.58664
13.04704
13.24956
13.44478
13.81269
14.41478
15.2035
16.03946
16.80404
17.42476
17.8529
18.02113
17.89809
17.40488
16.52182
15.30976
13.86208
12.28831
10.67034
9.068651
7.542294
6.1762
5.050436
4.202224
3.56642
3.002549
2.323176
1.342292
-0.02542686
-1.728629
-3.626451
-5.588513
-7.553828
-9.563065
-11.8
-14.41091
-17.46323
-20.78945
-23.95498
-26.35182
-27.39277
-26.6854
-24.11797
-19.97435
-14.69659
-8.86425
-3.050587
2.25935
6.724026
10.10018
12.37667
13.66946
14.18212
14.17513
13.85197
13.38201
12.86047
12.40808
12.15282
12.26357
12.83294
13.8435
15.15601
16.47209
17.46926
17.89375
17.63687
16.75851
15.43896
13.87598
12.21201
10.56381
8.961681
7.421192
6.000004
4.725353
3.638519
2.73732
1.922958
1.037933
-0.02082825
-1.398308
-3.131866
-5.194252
-7.534981
-10.08384
-12.77499
-15.55096
-18.28218
-20.70432
-22.41206
-22.85886
-21.55382
-18.29489
-13.27463
-7.138741
-0.7825699
4.958763
9.505539
12.66912
14.55457
15.42474
15.48948
14.95567
14.02847
12.90882
11.80877
10.91991
10.33442
10.08662
10.17196
10.51776
11.07159
11.72173
12.33507
12.74072
12.80918
12.51002
11.87424
10.99803
9.92614
8.691063
7.25251
5.59996
3.740707
1.7062
-0.4370956
-2.652206
-4.889351
-7.086044
-9.172401
-11.08344
-12.83896
-14.48899
-16.1477
-17.97425
-20.05581
-22.28909
-24.4484
-26.13073
-26.83347
-26.11034
-23.69462
-19.63049
-14.31968
-8.417725
-2.621765
2.495804
6.617828
9.723869
11.96474
13.55058
14.64504
15.34122
15.67215
15.67942
15.40681
14.93153
14.36908
13.86705
13.5677
13.58159
13.94643
14.57976
15.36145
16.10886
16.69668
17.01606
16.95585
16.47873
15.54858
14.21827
12.59374
10.82174
9.007599
7.190346
5.295952
3.263718
1.056198
-1.264275
-3.548294
-5.640594
-7.424858
-8.865547
-10.0323
-11.12609
-12.36705
-14.01476
-16.24093
-18.9737
-21.91193
-24.51846
-26.14198
-26.20934
-24.44682
-20.93361
-16.08892
-10.53307
-4.906746
0.2831192
4.759865
8.471298
11.46031
13.80701
15.4902
16.44997
16.62787
16.08854
15.02296
13.7464
12.62371
11.93586
11.7863
12.12881
12.76332
13.47618
14.11805
14.55644
14.76756
14.76423
14.53493
14.08566
13.40701
12.47174
11.32022
10.02057
8.631561
7.246429
5.90744
4.57682
3.203339
1.683777
-0.04636383
-2.011627
-4.187103
-6.532944
-8.938171
-11.28793
-13.51461
-15.58536
-17.54004
-19.45847
-21.36937
-23.14851
-24.52453
-25.0271
-24.21188
-21.8357
-17.97787
-13.05849
-7.7117
-2.564194
1.92247
5.54068
8.316406
10.36467
11.86207
12.93767
13.62643
13.92574
13.79317
13.19695
12.21106
11.00706
9.803719
8.855492
8.360085
8.325089
8.64843
9.135269
9.624969
10.00025
10.23422
10.2696
10.02505
9.436722
8.431107
7.085129
5.569611
4.113228
2.855202
1.820381
0.8507767
-0.2566223
-1.604622
-3.187881
-4.867447
-6.505966
-8.066933
-9.658684
-11.45724
-13.60087
-16.07639
-18.66084
-20.9801
-22.55556
-22.99226
-22.03477
-19.64987
-16.05646
-11.62328
-6.855499
-2.20195
1.985519
5.579536
8.556557
10.90591
12.55089
13.35552
13.23772
12.23797
10.62569
8.790825
7.189468
6.185028
5.917831
6.343002
7.276413
8.464317
9.635208
10.58602
11.13598
11.19624
10.77269
9.900932
8.654648
7.103371
5.274452
3.147194
0.7734375
-1.762383
-4.292793
-6.607948
-8.547829
-10.07028
-11.30883
-12.5166
-13.97128
-15.84855
-18.11774
-20.5952
-22.90079
-24.59737
-25.26813
-24.60931
-22.48457
-18.97203
-14.38851
-9.174641
-3.91412
0.9036789
4.885773
7.87339
9.885258
11.04948
11.51431
11.39803
10.82748
9.947563
8.999722
8.239723
7.88726
8.057823
8.677666
9.562317
10.46947
11.20469
11.63662
11.72824
11.52453
11.06401
10.43394
9.662109
8.725529
7.569561
6.122223
4.320824
2.183159
-0.1526108
-2.553402
-4.866676
-7.021778
-9.007767
-10.84757
-12.60371
-14.33111
-16.10575
-17.96612
-19.91674
-21.79184
-23.25951
-23.86134
-23.17205
-21.00039
-17.46814
-12.99518
-8.168922
-3.544186
0.5300369
3.94455
6.718925
8.945969
10.65986
11.84967
12.50663
12.65902
12.38908
11.88578
11.34017
10.93249
10.7681
10.87251
11.14278
11.44028
11.59309
11.47168
11.04749
10.40553
9.668766
8.965931
8.291866
7.531425
6.519794
5.120846
3.261909
1.072769
-1.233467
-3.402885
-5.219841
-6.673634
-7.839424
-8.916107
-10.11451
-11.61302
-13.45444
-15.62615
-17.97857
-20.21824
-21.98739
-22.82391
-22.28064
-20.08518
-16.33195
-11.40297
-6.025581
-0.9442291
3.348125
6.653381
9.101986
10.9934
12.55887
13.84154
14.74212
15.06221
14.7157
13.80486
12.56986
11.35728
10.45605
10.06485
10.22499
10.80755
11.55472
12.18521
12.44405
12.18125
11.34839
10.02597
8.335636
6.428196
4.469944
2.545635
0.730896
-0.9288559
-2.443214
-3.84129
-5.171604
-6.50491
-7.868746
-9.216635
-10.53991
-11.81801
-13.08986
-14.44649
-15.91745
-17.47616
-18.91328
-19.89646
-19.98316
-18.8403
-16.36982
-12.76447
-8.483583
-4.037518
0.1234055
3.734367
6.680073
8.971964
10.5696
11.45411
11.67395
11.33389
10.67311
9.931484
9.290596
8.843439
8.593155
8.496969
8.526609
8.663971
8.843363
8.977978
8.961761
8.666399
8.064854
7.189194
6.168566
5.11463
4.132042
3.228914
2.363144
1.450506
0.4222574
-0.730135
-1.996647
-3.284748
-4.507724
-5.646154
-6.778495
-7.996547
-9.426112
-11.18443
-13.31579
-15.80639
-18.49063
-20.99575
-22.8266
-23.42096
-22.36531
-19.52463
-15.19165
-9.983954
-4.673872
0.06126499
3.844709
6.603646
8.484845
9.695395
10.44925
10.83261
10.92837
10.82568
10.66116
10.54011
10.47956
10.46827
10.40269
10.24466
10.0106
9.819328
9.781885
9.958317
10.31293
10.65515
10.78922
10.52359
9.782505
8.589064
7.090606
5.450368
3.836309
2.377532
1.11095
0.02375478
-0.938069
-1.880712
-2.901285
-4.03498
-5.294028
-6.640415
-8.014061
-9.381951
-10.77535
-12.27504
-14.00846
-16.03909
-18.25439
-20.31001
-21.68771
-21.80338
-20.25591
-17.03142
-12.4956
-7.389706
-2.493869
1.552497
4.445319
6.241931
7.228232
7.733228
7.978265
8.110472
8.161983
8.202878
8.271904
8.457088
8.824944
9.390687
10.07683
10.75159
11.32606
11.77507
12.1705
12.60017
13.09389
13.53602
13.73187
13.41677
12.4219
10.81973
8.839415
6.866177
5.210136
4.033669
3.255531
2.592766
1.762415
0.55299
-1.04837
-2.89521
-4.745193
-6.426659
-7.868193
-9.154259
-10.44015
-11.87057
-13.55655
-15.50516
-17.65991
-19.81751
-21.664
-22.79078
-22.76167
-21.24157
-18.16252
-13.78733
-8.665012
-3.524261
1.003899
4.515064
6.901966
8.330902
9.091084
9.460686
9.611023
9.634392
9.568954
9.473671
9.413971
9.436825
9.546013
9.700115
9.847591
9.981041
10.14264
10.37058
10.65825
10.88576
10.85277
10.37819
9.359127
7.871609
6.134201
4.445019
3.060509
2.161762
1.703766
1.502159
1.258553
0.7120247
-0.2657547
-1.577259
-3.008308
-4.363632
-5.559483
-6.673561
-7.880589
-9.345989
-11.15258
-13.25507
-15.443
-17.40825
-18.78581
-19.18115
-18.29875
-16.0827
-12.72769
-8.748657
-4.74897
-1.216873
1.608002
3.748703
5.353355
6.547028
7.295799
7.520523
7.141296
6.299553
5.30175
4.529427
4.291931
4.674164
5.528656
6.53154
7.386391
7.8853
8.013512
7.844101
7.516663
7.113617
6.649467
6.041626
5.190941
4.009377
2.503021
0.7589798
-1.065422
-2.803246
-4.352257
-5.662674
-6.794121
-7.847542
-8.935013
-10.16806
-11.58332
-13.13036
-14.71961
-16.18859
-17.36299
-18.02011
-17.89107
-16.77258
-14.61501
-11.52206
-7.791229
-3.867485
-0.169548
2.972351
5.431404
7.23439
8.503288
9.315796
9.738937
9.780273
9.457329
8.841606
8.083717
7.364418
6.846397
6.617416
6.596886
6.657509
6.6166
6.348045
5.84761
5.226273
4.624199
4.142082
3.749535
3.29892
2.617607
1.581001
0.1998825
-1.377213
-2.967644
-4.39576
-5.557129
-6.463089
-7.193718
-7.88839
-8.737335
-9.930389
-11.58632
-13.71806
-16.13231
-18.44811
-20.11375
-20.61513
-19.59367
-17.0115
-13.16388
-8.560783
-3.859955
0.3542252
3.664406
5.919296
7.179169
7.711174
7.861229
7.907753
7.980904
8.069611
8.039742
7.813377
7.425659
7.021751
6.791817
6.813126
7.054008
7.320694
7.464432
7.412231
7.264786
7.182816
7.278984
7.487091
7.585358
7.280869
6.374046
4.848808
2.906471
0.8472824
-1.029945
-2.576775
-3.840607
-4.997276
-6.249138
-7.716103
-9.455788
-11.45859
-13.64481
-15.88379
-17.91541
-19.34937
-19.75633
-18.77154
-16.3084
-12.62098
-8.261482
-3.865753
0.02680206
3.142456
5.437645
7.040443
8.083191
8.653084
8.780479
8.516289
8.019783
7.498352
7.200966
7.269356
7.723541
8.401649
9.065849
9.467659
9.450325
9.054031
8.404335
7.698746
7.093971
6.622025
6.213852
5.713631
4.948982
3.811005
2.312424
0.514801
-1.397888
-3.228233
-4.814919
-6.058846
-7.013138
-7.826424
-8.732635
-9.915085
-11.55777
-13.64142
-15.9507
-18.13616
-19.68982
-20.16111
-19.26757
-16.98904
-13.559
-9.460457
-5.193344
-1.197548
2.20327
4.867401
6.804565
8.138008
9.031845
9.667625
10.1002
10.35371
10.42466
10.28767
10.04346
9.799301
9.65229
9.572289
9.397621
8.923889
8.087822
7.025414
5.950203
5.153831
4.682846
4.403931
4.013443
3.189537
1.790184
-0.07562256
-2.137184
-4.077896
-5.65773
-6.799232
-7.586136
-8.196365
-8.85569
-9.762657
-11.03589
-12.68514
-14.58437
-16.40245
-17.73394
-18.15186
-17.29872
-15.09622
-11.66898
-7.41526
-2.874962
1.43174
5.127098
7.986298
9.932434
11.04267
11.33779
10.92999
9.905121
8.445038
6.795059
5.229851
3.979607
3.22551
3.054085
3.43676
4.255348
5.274734
6.232292
6.865906
7.042389
6.727196
6.046928
5.172638
4.145081
2.952805
1.513344
-0.2208252
-2.144386
-4.061394
-5.780289
-7.18792
-8.364578
-9.522629
-10.86764
-12.54577
-14.57423
-16.79649
-18.9906
-20.78986
-21.77276
-21.58418
-20.00824
-17.10643
-13.23341
-8.920326
-4.713524
-1.016647
2.018486
4.405525
6.234383
7.590462
8.487694
8.920753
8.886032
8.497643
7.914268
7.370224
7.077118
7.166306
7.65799
8.440239
9.30751
10.0472
10.54022
10.78497
10.88885
10.94441
10.90973
10.63345
9.852684
8.346001
6.113503
3.351036
0.3913116
-2.43705
-4.928772
-7.062172
-8.916924
-10.6104
-12.25831
-13.93718
-15.71468
-17.6068
-19.49171
-21.0797
-21.93375
-21.58662
-19.76494
-16.49973
-12.17366
-7.339813
-2.568474
1.751228
5.451759
8.501717
10.93987
12.73997
13.83273
14.16033
13.75129
12.75209
11.4614
10.21066
9.28479
8.834152
8.825516
9.0578
9.307594
9.365669
9.148193
8.705795
8.189415
7.67189
7.185562
6.65921
5.985802
5.113708
4.062874
2.868683
1.577606
0.2065506
-1.327324
-3.043518
-4.932793
-6.92469
-8.946327
-10.97575
-13.04028
-15.17965
-17.35467
-19.45467
-21.22459
-22.33171
-22.40496
-21.15557
-18.4836
-14.55052
-9.749489
-4.643715
0.2070656
4.349323
7.559406
9.796314
11.19498
11.90067
12.04772
11.70762
10.94065
9.857288
8.656956
7.564991
6.828987
6.635178
6.993179
7.750278
8.661358
9.443157
9.937267
10.14038
10.1573
10.068
9.834461
9.288769
8.244164
6.636269
4.569225
2.315945
0.1864014
-1.603195
-2.991226
-4.0723
-5.013718
-5.993698
-7.131924
-8.564926
-10.41029
-12.73161
-15.43104
-18.17519
-20.42464
-21.58655
-21.19862
-19.13181
-15.62628
-11.21494
-6.515503
-2.036537
1.933292
5.321987
8.110733
10.28832
11.78
12.48587
12.39812
11.60769
10.34454
8.880251
7.504725
6.400331
5.664045
5.324898
5.354031
5.699045
6.255205
6.88838
7.389299
7.594442
7.344397
6.576168
5.343561
3.795074
2.102198
0.4246616
-1.105602
-2.475901
-3.673496
-4.765636
-5.853061
-7.012525
-8.349436
-9.912744
-11.75972
-13.86788
-16.18487
-18.52067
-20.56492
-21.9136
-22.1411
-20.991
-18.41481
-14.62657
-10.03031
-5.154815
-0.4722998
3.627278
6.920752
9.336357
10.90764
11.7606
12.07975
12.02872
11.74781
11.38495
11.0297
10.78554
10.70392
10.74951
10.78491
10.66858
10.29045
9.686296
9.030431
8.546197
8.352794
8.349722
8.269165
7.774996
6.610641
4.716906
2.222633
-0.5728092
-3.380928
-5.969568
-8.227743
-10.19827
-11.96782
-13.69026
-15.50814
-17.51449
-19.71624
-22.0337
-24.23525
-25.93729
-26.72559
-26.15545
-24.00301
-20.32373
-15.50399
-10.14082
-4.890064
-0.2938538
3.377892
6.041996
7.854507
9.051647
9.894989
10.56734
11.17208
11.72506
12.14539
12.42957
12.58652
12.78536
13.21624
13.96845
15.0017
16.08442
16.94465
17.34394
17.18505
16.51295
15.50793
14.33529
13.04707
11.66319
10.07847
8.258774
6.215172
4.065872
1.937698
-0.04823303
-1.874069
-3.639542
-5.4394
-7.384888
-9.50872
-11.76841
-14.07745
-16.38995
-18.69989
-20.97629
-23.12117
-24.86186
-25.82833
-25.63915
-24.01591
-20.91184
-16.57318
-11.49644
-6.286865
-1.521019
2.442451
5.46331
7.635796
9.2127
10.4161
11.40155
12.18304
12.75528
13.12816
13.37914
13.58192
13.80882
14.01465
14.1009
13.97095
13.55445
12.93858
12.23728
11.56863
10.98942
10.48424
9.951103
9.253937
8.239609
6.767456
4.800865
2.421898
-0.1147995
-2.514015
-4.507439
-5.977859
-7.013763
-7.872948
-8.851189
-10.19766
-12.02861
-14.26634
-16.66283
-18.84885
-20.35542
-20.68829
-19.494
-16.67876
-12.45444
-7.348038
-2.044418
2.896698
7.057632
10.3217
12.68013
14.19951
14.87558
14.71593
13.79715
12.39693
10.95024
9.898117
9.530609
9.829224
10.5995
11.52008
12.33456
12.89645
13.16582
13.19398
13.02144
12.63683
11.98349
11.00168
9.676437
8.100327
6.385803
4.691879
3.152084
1.797638
0.5751038
-0.6694183
-2.041611
-3.643112
-5.507813
-7.597473
-9.885315
-12.38174
-15.14836
-18.21246
-21.51512
-24.79381
-27.55696
-29.18115
-29.04495
-26.81493
-22.5611
-16.82277
-10.39345
-4.094833
1.472733
6.022659
9.529541
12.09497
13.82948
14.8465
15.26816
15.31966
15.26413
15.37183
15.79596
16.58
17.61955
18.72751
19.73076
20.4274
20.68272
20.37189
19.49034
18.12273
16.45198
14.69453
13.02788
11.53137
10.17606
8.860992
7.441162
5.793686
3.849304
1.654037
-0.6587677
-2.86998
-4.809891
-6.403549
-7.734741
-8.977783
-10.35072
-12.03351
-14.07932
-16.47392
-19.10689
-21.8266
-24.34534
-26.2085
-26.8299
-25.69836
-22.56717
-17.62775
-11.49075
-4.991104
1.090515
6.211044
10.17593
13.06239
14.99377
16.0571
16.32083
15.90573
15.05453
14.1355
13.46727
13.24527
13.50075
14.12204
14.95667
15.89319
16.84007
17.73285
18.50565
19.04022
19.23523
18.97423
18.21468
16.8931
15.03751
12.74107
10.23604
7.8582
5.898178
4.515228
3.618744
2.939957
2.133499
0.9576721
-0.6602478
-2.601517
-4.666428
-6.679779
-8.573959
-10.36002
-12.12007
-13.94878
-15.93011
-18.1145
-20.44501
-22.68019
-24.39465
-25.07219
-24.25113
-21.73808
-17.70306
-12.62836
-7.155273
-1.882874
2.804153
6.792526
10.1124
12.84467
14.88882
16.0892
16.29459
15.49739
13.9422
12.03242
10.20792
8.784164
7.910294
7.489227
7.349396
7.350204
7.451218
7.693985
8.130478
8.777542
9.553177
10.34398
10.95668
11.23087
11.07835
10.43344
9.318817
7.799423
5.910095
3.710953
1.291763
-1.205246
-3.599243
-5.707138
-7.474457
-8.957993
-10.35004
-11.88725
-13.74471
-15.96539
-18.34636
-20.49986
-21.86687
-21.92274
-20.29759
-16.94957
-12.19791
-6.661072
-1.118805
3.736572
7.410431
9.73201
10.78673
10.87047
10.37143
9.670563
9.077393
8.756302
8.735222
8.962891
9.341873
9.834412
10.41971
11.07742
11.76356
12.3585
12.71679
12.72015
12.31268
11.52311
10.46485
9.217094
7.831535
6.257439
4.41465
2.246712
-0.2310562
-2.866615
-5.444214
-7.729897
-9.579773
-10.94936
-11.90958
-12.63921
-13.34727
-14.22668
-15.41914
-17.00784
-18.96671
-21.10101
-23.03931
-24.30693
-24.46518
-23.1721
-20.34586
-16.23824
-11.29711
-6.124794
-1.268616
2.880264
6.141556
8.503021
10.06725
10.91285
11.10715
10.71588
9.856812
8.76078
7.726227
7.003975
6.709511
6.824409
7.178986
7.593803
8.017914
8.440041
8.948074
9.556786
10.18247
10.6519
10.73515
10.25031
9.137756
7.470314
5.428017
3.260414
1.154037
-0.748764
-2.395584
-3.795921
-4.991547
-6.078743
-7.206657
-8.601479
-10.46865
-12.94785
-15.99453
-19.27309
-22.26699
-24.3373
-24.95657
-23.84962
-21.07599
-16.98308
-12.12362
-7.058731
-2.243446
1.986732
5.465511
8.103577
9.893364
10.85546
11.08728
10.78618
10.20303
9.611622
9.208256
9.144413
9.406921
9.956963
10.64481
11.31949
11.81121
11.96019
11.67657
10.93453
9.871521
8.62928
7.394176
6.277542
5.277031
4.303024
3.213268
1.918945
0.4393768
-1.128853
-2.706192
-4.205143
-5.588768
-6.896061
-8.125538
-9.324509
-10.49742
-11.69547
-13.01086
-14.53468
-16.25611
-17.97329
-19.30452
-19.75034
-18.93321
-16.66007
-13.13151
-8.804504
-4.307877
-0.2149239
3.107626
5.511669
7.06279
7.922565
8.225948
8.060383
7.499334
6.616968
5.59494
4.711252
4.23016
4.352568
5.07995
6.168816
7.249336
7.976894
8.194851
7.950127
7.491009
7.014679
6.614646
6.251398
5.745267
4.93449
3.762147
2.324805
0.7703085
-0.6899176
-1.987915
-3.110796
-4.055202
-4.872225
-5.579995
-6.259173
-7.06306
-8.22715
-9.953287
-12.30471
-15.06764
-17.76109
-19.79351
-20.57057
-19.73151
-17.26645
-13.47784
-8.901424
-4.185047
0.0466969
3.346115
5.46059
6.466192
6.683548
6.501574
6.301891
6.264027
6.387132
6.509459
6.525709
6.383223
6.19887
6.145539
6.320073
6.714139
7.149266
7.473593
7.54797
7.44441
7.273894
7.144108
7.028141
6.695493
5.872195
4.377078
2.305784
-0.04997826
-2.256896
-4.021105
-5.293837
-6.224092
-7.141806
-8.336333
-10.00222
-12.18744
-14.85274
-17.81031
-20.75607
-23.24553
-24.72705
-24.70358
-22.88014
-19.29719
-14.36583
-8.759793
-3.185568
1.757439
5.721321
8.640905
10.61439
11.83702
12.50838
12.73823
12.61159
12.1626
11.41921
10.41849
9.274611
8.14388
7.219933
6.689465
6.590661
6.830199
7.239331
7.646129
7.943748
8.164961
8.358306
8.506145
8.535013
8.279484
7.580463
6.393354
4.835796
3.074627
1.359539
-0.1558208
-1.394136
-2.410801
-3.380634
-4.528606
-6.081324
-8.149641
-10.72766
-13.69126
-16.82932
-19.85189
-22.42873
-24.15861
-24.6417
-23.55271
-20.80661
-16.65406
-11.62231
-6.444407
-1.765852
1.994394
4.746588
6.631638
7.905523
8.794397
9.394463
9.735483
9.788956
9.567543
9.146791
8.702427
8.459234
8.58131
9.118517
9.943111
10.80634
11.48628
11.82492
11.80928
11.51916
11.07554
10.5382
9.857704
8.92589
7.682083
6.204659
4.631218
3.140894
1.84
0.7133102
-0.3737812
-1.593153
-3.082247
-4.836576
-6.676033
-8.374386
-9.754457
-10.81929
-11.75684
-12.89783
-14.52454
-16.72339
-19.31011
-21.79823
-23.5533
-23.98457
-22.76049
-19.91414
-15.8136
-11.06043
-6.24321
-1.862061
1.783154
4.604237
6.634521
8.008678
8.900043
9.535675
10.06501
10.61697
11.18689
11.6888
12.04184
12.24004
12.33606
12.42851
12.56974
12.76006
12.97032
13.14075
13.23003
13.17272
12.89799
12.3199
11.36593
10.03098
8.442421
6.825306
5.422573
4.394112
3.724297
3.23143
2.687172
1.902977
0.7740898
-0.6259918
-2.176956
-3.717697
-5.182411
-6.543331
-7.818832
-9.082867
-10.41753
-11.93634
-13.73338
-15.82301
-18.02375
-19.98968
-21.23634
-21.30449
-19.94229
-17.2321
-13.52231
-9.344208
-5.249634
-1.612717
1.383514
3.703945
5.446255
6.668041
7.440971
7.880936
8.08923
8.218052
8.398357
8.707527
9.107224
9.537292
9.885334
10.13149
10.32806
10.53576
10.76817
10.97145
10.95097
10.52311
9.575123
8.121346
6.344727
4.515488
2.873402
1.552074
0.5838013
-0.2231369
-1.068535
-2.168579
-3.628925
-5.380802
-7.253586
-9.042461
-10.62603
-11.99869
-13.28805
-14.5918
-15.97313
-17.39806
-18.74822
-19.88843
-20.64932
-20.80276
-20.05514
-18.20383
-15.16345
-11.13199
-6.608818
-2.123398
1.809959
4.947342
7.288139
8.988304
10.17838
10.93482
11.30788
11.34709
11.23273
11.13654
11.25449
11.61352
12.12465
12.61501
12.91957
12.98073
12.81846
12.51245
12.12324
11.71975
11.27712
10.75691
10.12011
9.345352
8.403618
7.3032
6.064262
4.703735
3.314445
1.943787
0.6163864
-0.7008133
-2.08316
-3.656036
-5.471504
-7.49379
-9.566383
-11.49952
-13.12378
-14.35711
-15.30542
-16.19995
-17.32829
-18.85444
-20.75768
-22.73735
-24.30194
-24.89629
-24.07153
-21.67308
-17.91685
-13.26536
-8.29631
-3.544495
0.6480789
4.099091
6.742706
8.618225
9.776497
10.3212
10.42193
10.27415
10.03071
9.785568
9.555321
9.304848
9.045212
8.818748
8.750481
8.944138
9.385132
9.977287
10.52066
10.84408
10.81131
10.41882
9.686012
8.706665
7.568779
6.346031
5.107254
3.926636
2.871635
1.998863
1.303833
0.6946106
0.04885864
-0.7575073
-1.775253
-2.968704
-4.263657
-5.577118
-6.920021
-8.378555
-10.1135
-12.2567
-14.85094
-17.77831
-20.74999
-23.39336
-25.27503
-25.96877
-25.18112
-22.81613
-19.02466
-14.24261
-9.07312
-4.112167
0.1509933
3.486465
5.899391
7.53376
8.558968
9.178276
9.541306
9.741943
9.889748
10.04099
10.21928
10.3856
10.50489
10.54433
10.56333
10.6322
10.79573
11.06925
11.35871
11.49335
11.2934
10.63367
9.519127
8.063126
6.460358
4.927933
3.644966
2.670647
1.934975
1.266991
0.4423523
-0.711525
-2.292709
-4.279228
-6.517555
-8.771622
-10.82932
-12.51121
-13.79321
-14.77371
-15.64754
-16.62505
-17.81477
-19.16467
-20.43004
-21.20206
-21.04932
-19.65804
-16.95728
-13.1683
-8.727783
-4.13311
0.1398773
3.756073
6.534897
8.430328
9.508453
9.913025
9.791229
9.317566
8.63398
7.842819
7.042336
6.352974
5.915718
5.8535
6.239632
6.962044
7.789581
8.455124
8.753448
8.633621
8.198288
7.596207
6.923531
6.175903
5.273766
4.122574
2.717232
1.135227
-0.5035362
-2.108395
-3.643833
-5.149437
-6.692478
-8.30957
-9.992893
-11.72712
-13.47732
-15.22918
-16.97533
-18.63905
-20.06772
-20.98783
-21.06625
-20.0213
-17.72483
-14.25792
-9.929455
-5.192982
-0.5590591
3.52673
6.7747
9.110065
10.55313
11.2373
11.29808
10.84792
9.996181
8.900406
7.716927
6.695885
6.086563
6.02919
6.552719
7.495911
8.590462
9.549397
10.19838
10.41687
10.22803
9.681622
8.810295
7.651165
6.201302
4.490379
2.544476
0.4322395
-1.797989
-4.065651
-6.27187
-8.357332
-10.2141
-11.806
-13.15189
-14.34467
-15.57885
-17.05713
-18.91517
-21.08469
-23.29411
-24.99967
-25.6317
-24.75788
-22.21525
-18.24781
-13.38576
-8.264392
-3.488587
0.5220842
3.612644
5.771627
7.104201
7.809551
8.073933
8.087276
8.019911
8.02883
8.219414
8.683407
9.469452
10.49644
11.69386
12.88932
13.98263
14.85737
15.433
15.66012
15.47812
14.88686
13.8707
12.47775
10.69662
8.566843
6.1327
3.474142
0.7396812
-1.916698
-4.331207
-6.449417
-8.279221
-9.947138
-11.60047
-13.38504
-15.4302
-17.75558
-20.22069
-22.51087
-24.16274
-24.64871
-23.58087
-20.8765
-16.75557
-11.74149
-6.442352
-1.427906
2.960972
6.513565
9.206512
11.07496
12.16473
12.59337
12.46044
11.96428
11.27614
10.64378
10.26991
10.3364
10.85096
11.72001
12.73974
13.64649
14.26746
14.47545
14.27229
13.72385
12.95632
12.05252
11.05223
9.903458
8.501266
6.738266
4.613335
2.290421
0.06517029
-1.725029
-2.95166
-3.721664
-4.410805
-5.53241
-7.450661
-10.29527
-13.86758
-17.73447
-21.32753
-24.07431
-25.4352
-25.07991
-22.88862
-19.0125
-13.92252
-8.251602
-2.696617
2.162926
5.980415
8.650162
10.2365
10.93134
10.99485
10.67749
10.18266
9.698822
9.327911
9.113968
9.07859
9.210983
9.475632
9.868378
10.31963
10.74154
11.07388
11.2552
11.23343
10.94393
10.26843
9.113647
7.412735
5.220978
2.732025
0.2106781
-2.067184
-3.974144
-5.509026
-6.778046
-7.962601
-9.224388
-10.71531
-12.53353
-14.70065
-17.03442
-19.16798
-20.50703
-20.50168
-18.78509
-15.37505
-10.70018
-5.42067
-0.234375
4.345291
8.045853
10.83585
12.74628
13.86424
14.26094
14.05635
13.44229
12.64496
11.9008
11.31924
10.96144
10.83017
10.91266
11.19246
11.61122
12.08707
12.47545
12.69901
12.62267
12.23409
11.53661
10.5619
9.339279
7.8405
6.089249
4.090561
1.991333
-0.06814575
-1.921356
-3.47905
-4.771469
-5.951599
-7.271576
-8.960922
-11.17886
-13.87827
-16.90053
-19.94365
-22.63657
-24.56769
-25.31558
-24.55179
-22.10838
-18.11639
-12.99573
-7.425491
-2.143921
2.299316
5.650574
8.014709
9.711273
11.11581
12.42569
13.6515
14.6274
15.17937
15.28526
15.07539
14.80612
14.73965
15.00011
15.53302
16.14583
16.64888
16.89339
16.8503
16.54765
15.98003
15.09987
13.81786
12.06895
9.912155
7.53688
5.174774
3.051788
1.258865
-0.2500153
-1.60524
-2.935776
-4.336472
-5.847504
-7.484955
-9.343552
-11.5228
-14.11536
-17.06924
-20.13087
-22.79939
-24.44034
-24.46274
-22.49011
-18.57735
-13.19562
-7.091339
-1.084045
4.194031
8.410995
11.54633
13.73544
15.19179
16.0303
16.29529
16.01984
15.28242
14.24713
13.13321
12.14673
11.41931
11.02698
10.88312
10.91472
11.04327
11.19832
11.38019
11.57684
11.74944
11.821
11.66624
11.09244
9.981262
8.32901
6.246536
3.973724
1.810654
-0.02598572
-1.438858
-2.497437
-3.425903
-4.504913
-5.990677
-8.070053
-10.74368
-13.8298
-17.00131
-19.78517
-21.69279
-22.30679
-21.35475
-18.82361
-15.01819
-10.41618
-5.626755
-1.207184
2.469559
5.276566
7.318375
8.784302
9.852295
10.57513
10.94104
10.90886
10.5132
9.921295
9.379303
9.070526
9.051743
9.222443
9.393646
9.442047
9.36557
9.200775
9.000443
8.717712
8.161118
7.128937
5.499069
3.337814
0.9108276
-1.421188
-3.342407
-4.714371
-5.599899
-6.282791
-7.122955
-8.475037
-10.51155
-13.18607
-16.17719
-18.99809
-21.06665
-21.83739
-21.0238
-18.57388
-14.78302
-10.13649
-5.20816
-0.5016327
3.557083
6.760239
9.025116
10.38643
11.01744
11.10852
10.88127
10.4967
10.06618
9.643539
9.311783
9.167862
9.303207
9.814011
10.59364
11.429
12.01019
12.03088
11.34247
9.963501
8.041595
5.78688
3.465332
1.238586
-0.7347717
-2.366867
-3.656464
-4.674271
-5.617783
-6.751038
-8.333282
-10.44952
-13.05092
-15.77086
-18.07339
-19.35899
-19.14731
-17.24992
-13.85818
-9.49472
-4.77298
-0.3034821
3.5271
6.580963
8.804901
10.25121
10.97722
11.06458
10.65895
10.01506
9.371628
8.936203
8.831863
8.994324
9.322449
9.69017
10.00601
10.21839
10.279
10.12951
9.678261
8.863541
7.645256
6.088737
4.329727
2.464127
0.563324
-1.383751
-3.431877
-5.59243
-7.765724
-9.898354
-11.88673
-13.74093
-15.52973
-17.1938
-18.50607
-19.02526
-18.25726
-15.84209
-11.77686
-6.398689
-0.3193054
5.741997
11.21224
15.70395
19.02567
21.1487
22.14201
22.13185
21.29268
19.86697
18.07108
16.20725
14.54366
13.30357
12.59813
12.39846
12.49529
12.5788
12.32575
11.5007
10.08871
8.211914
6.102448
3.966522
1.96093
0.1329346
-1.542404
-3.069778
-4.476555
-5.776756
-7.003616
-8.22966
-9.463066
-10.71062
-11.97104
-13.27038
-14.67464
-16.28271
-18.12622
-20.10344
-21.97036
-23.31542
-23.74448
-22.96787
-20.89269
-17.6101
-13.42537
-8.73827
-4.001522
0.377552
4.127144
7.1287
9.366089
10.90228
11.80142
12.06377
11.75085
11.0083
10.1187
9.403259
9.076599
9.111225
9.316029
9.406654
9.155506
8.585415
7.860735
7.232157
6.849722
6.692999
6.585506
6.35433
5.841358
4.99309
3.876581
2.570698
1.18334
-0.2006035
-1.541071
-2.873953
-4.28132
-5.846481
-7.619417
-9.529418
-11.46859
-13.3246
-14.98582
-16.36909
-17.35005
-17.69315
-17.09246
-15.31183
-12.31973
-8.37401
-4.001799
0.2547214
3.944384
6.868906
9.0541
10.60492
11.63992
12.1683
12.16901
11.64762
10.73343
9.638399
8.588435
7.74329
7.126945
6.64859
6.174103
5.607868
4.934942
4.219372
3.549751
2.947521
2.396551
1.812317
1.061789
0.04774094
-1.299362
-2.973419
-4.823246
-6.620289
-8.160782
-9.274246
-9.982018
-10.48009
-11.07024
-12.03775
-13.55839
-15.58092
-17.86961
-20.04876
-21.68356
-22.36839
-21.82045
-19.91409
-16.72826
-12.58151
-7.957691
-3.385166
0.6753845
3.955505
6.371422
8.016487
9.068504
9.681118
9.944496
9.945736
9.774601
9.576393
9.515999
9.662895
10.02257
10.47239
10.81142
10.80812
10.36127
9.489754
8.374336
7.25061
6.293411
5.535088
4.848969
4.053444
2.959221
1.512238
-0.2210388
-2.065079
-3.794304
-5.244652
-6.353333
-7.214287
-7.976486
-8.824249
-9.921303
-11.38017
-13.18728
-15.25779
-17.38286
-19.16727
-20.20047
-20.00642
-18.29703
-15.07629
-10.69734
-5.76432
-0.9584045
3.173958
6.406738
8.715218
10.28059
11.21854
11.61928
11.50404
10.93639
10.0621
9.088402
8.271393
7.713615
7.409935
7.237389
7.084404
6.922173
6.76767
6.663925
6.601242
6.493607
6.182549
5.601677
4.735687
3.658646
2.493256
1.266991
-0.0426712
-1.454987
-2.977272
-4.512794
-5.908752
-7.067314
-8.018356
-8.890198
-9.898994
-11.21398
-12.90182
-14.93958
-17.19345
-19.40087
-21.21619
-22.21516
-21.94763
-20.14713
-16.79456
-12.24409
-7.103775
-2.07457
2.320313
5.78479
8.325546
10.0746
11.17714
11.70596
11.68274
11.17531
10.29323
9.276093
8.311783
7.579025
7.150711
6.998688
6.993576
6.955673
6.749863
6.269424
5.600113
4.805389
4.06488
3.483536
3.072861
2.756516
2.351715
1.705917
0.7355194
-0.5828705
-2.199448
-3.955292
-5.740753
-7.400375
-8.842255
-10.0425
-11.07025
-12.07228
-13.21165
-14.60588
-16.2137
-17.81859
-19.03546
-19.40198
-18.51434
-16.20532
-12.6118
-8.115677
-3.303391
1.229187
4.986633
7.654663
9.195969
9.712814
9.417984
8.540329
7.325241
5.977783
4.688583
3.619736
2.888733
2.615067
2.799484
3.360672
4.083954
4.768463
5.214767
5.341034
5.1754
4.846085
4.499405
4.206955
3.968796
3.637817
3.05452
2.025543
0.5115662
-1.425079
-3.550797
-5.588562
-7.3647
-8.859482
-10.22527
-11.64374
-13.27699
-15.14383
-17.15855
-19.12175
-20.75182
-21.73412
-21.72722
-20.48833
-17.92021
-14.18823
-9.69841
-5.068726
-0.8903198
2.433395
4.74762
6.159134
6.889572
7.141373
7.090469
6.852219
6.519211
6.162491
5.86763
5.675842
5.589066
5.550095
5.472473
5.306351
5.085846
4.920883
4.921585
5.173599
5.610672
6.070724
6.294388
6.006287
5.044098
3.403244
1.269333
-1.064789
-3.237381
-4.984863
-6.146988
-6.804459
-7.215927
-7.724594
-8.666885
-10.23534
-12.44434
-15.10814
-17.88351
-20.32217
-21.92438
-22.23788
-20.97411
-18.09836
-13.93329
-9.06955
-4.152039
0.2450562
3.80542
6.460083
8.314438
9.5168
10.18449
10.33482
9.999619
9.27005
8.333969
7.486557
6.956146
6.870117
7.18782
7.77002
8.397003
8.883286
9.134583
9.125626
8.905518
8.467316
7.760254
6.774323
5.56427
4.204758
2.817459
1.446991
0.02584839
-1.508423
-3.206223
-5.015862
-6.795174
-8.398521
-9.797546
-11.10883
-12.54998
-14.35578
-16.56732
-19.00831
-21.26688
-22.80368
-23.14097
-21.96088
-19.21575
-15.17806
-10.38454
-5.446022
-0.9151382
2.848053
5.745308
7.822899
9.263756
10.22114
10.7268
10.81756
10.53396
9.971588
9.338287
8.835625
8.586227
8.646599
8.900223
9.147499
9.214455
9.017265
8.585197
8.036026
7.460991
6.854355
6.109993
5.096237
3.718292
2.033531
0.2157593
-1.539925
-3.088814
-4.402985
-5.571365
-6.777016
-8.163727
-9.817017
-11.71944
-13.79315
-15.9331
-17.98926
-19.72427
-20.80163
-20.80467
-19.40664
-16.48293
-12.2289
-7.184303
-2.043167
2.506615
6.010353
8.311325
9.575562
10.06818
10.09374
9.838875
9.418846
8.849388
8.18681
7.481804
6.866009
6.445259
6.252613
6.237106
6.282475
6.257687
6.129162
5.939667
5.748066
5.561852
5.239033
4.583126
3.394047
1.643055
-0.5360069
-2.84227
-4.952045
-6.673252
-8.010223
-9.109261
-10.20761
-11.56067
-13.36774
-15.74775
-18.62748
-21.73239
-24.56372
-26.47977
-26.89679
-25.47716
-22.22246
-17.55324
-12.11499
-6.637064
-1.713695
2.254485
5.1632
7.092867
8.231792
8.872765
9.293211
9.730994
10.27739
10.93289
11.58555
12.13587
12.54812
12.84803
13.16267
13.5561
14.0064
14.37927
14.52758
14.33718
13.82343
13.07694
12.21347
11.28409
10.22181
8.896114
7.209629
5.16584
2.912041
0.6746254
-1.34774
-3.116577
-4.687523
-6.284458
-8.094795
-10.25089
-12.76167
-15.54543
-18.46247
-21.30631
-23.80324
-25.57174
-26.16179
-25.18671
-22.4864
-18.22321
-12.87367
-7.115501
-1.591927
3.239899
7.145538
10.1124
12.23213
13.5899
14.29704
14.44505
14.19288
13.78552
13.46957
13.44347
13.74957
14.31828
14.95442
15.46309
15.72054
15.70586
15.52172
15.28844
15.08617
14.90609
14.66056
14.2298
13.50906
12.41389
10.93958
9.175018
7.219101
5.202782
3.232674
1.356529
-0.4075394
-2.10463
-3.81662
-5.625412
-7.598267
-9.775253
-12.19363
-14.88275
-17.86123
-21.0563
-24.23398
-26.97481
-28.69704
-28.87025
-27.10927
-23.40804
-18.10449
-11.83994
-5.36142
0.7278595
6.004471
10.28549
13.50627
15.69344
16.8889
17.22015
16.83238
15.97299
14.96771
14.08855
13.58411
13.54984
13.96936
14.68884
15.53169
16.29523
16.84703
17.1658
17.2514
17.18428
16.93881
16.43987
15.56976
14.27345
12.60817
10.72595
8.878952
7.192062
5.702469
4.294449
2.823135
1.20787
-0.5380402
-2.331985
-4.154907
-6.01825
-8.041031
-10.3252
-12.9595
-15.93755
-19.15251
-22.41005
-25.366
-27.57265
-28.52318
-27.79633
-25.19402
-20.84317
-15.23694
-9.074875
-3.138382
1.973053
5.967606
8.821152
10.71457
11.87474
12.50639
12.68373
12.44899
11.84801
11.05223
10.34471
10.03391
10.37253
11.42555
13.07352
15.03983
16.97279
18.5602
19.60336
20.00079
19.75471
18.95322
17.70541
16.12744
14.29433
12.20633
9.878143
7.337189
4.675385
2.02327
-0.4784393
-2.737549
-4.738525
-6.550217
-8.298462
-10.10448
-12.09485
-14.3987
-17.08936
-20.13791
-23.37495
-26.40385
-28.63588
-29.41742
-28.23302
-24.91684
-19.77711
-13.49329
-6.953232
-0.9763794
3.91478
7.615997
10.31593
12.32768
13.88039
15.03096
15.76183
16.02852
15.91234
15.60167
15.38358
15.47096
15.93146
16.64798
17.43156
18.11734
18.58598
18.83159
18.87294
18.7504
18.37787
17.689
16.61252
15.13715
13.38972
11.51413
9.637329
7.782043
5.900162
3.850296
1.598465
-0.8440399
-3.380249
-5.831879
-8.065796
-10.00015
-11.62187
-13.06387
-14.50212
-16.13535
-18.16479
-20.63736
-23.34821
-25.8634
-27.58821
-27.91185
-26.44188
-23.11214
-18.20407
-12.31831
-6.207748
-0.5242157
4.269669
7.982239
10.6711
12.49165
13.60002
14.12837
14.17618
13.87724
13.45653
13.16432
13.19678
13.64336
14.40828
15.30133
16.11697
16.7056
17.02293
17.09998
16.98703
16.72791
16.36517
15.84535
15.09181
14.00246
12.54008
10.77429
8.890335
7.061386
5.408493
3.932129
2.517944
1.006439
-0.6918793
-2.530106
-4.376572
-6.044449
-7.482834
-8.76062
-10.06607
-11.66537
-13.78772
-16.49529
-19.68031
-23.00612
-25.94229
-27.88403
-28.26787
-26.7486
-23.29984
-18.22772
-12.08914
-5.60025
0.5763092
5.917465
10.12703
13.13876
15.0226
15.90285
15.95148
15.31149
14.1319
12.63936
11.1333
9.916183
9.236191
9.190811
9.667542
10.46098
11.34729
12.15251
12.81377
13.28526
13.49576
13.38324
12.92694
12.16251
11.20206
10.13423
8.987381
7.675507
6.070663
4.096863
1.774185
-0.7953796
-3.510788
-6.271317
-9.033279
-11.74666
-14.30548
-16.6145
-18.59087
-20.25806
-21.7018
-23.01137
-24.15276
-24.90826
-24.89122
-23.64891
-20.86806
-16.53029
-11.0356
-5.06842
0.5961609
5.326462
8.804047
11.04211
12.28549
12.84395
12.94217
12.66914
12.04404
11.08223
9.920044
8.815125
8.047272
7.826721
8.178436
8.924606
9.802277
10.5164
10.89555
10.92012
10.71368
10.34732
9.839767
9.095657
7.978271
6.371048
4.317596
1.951019
-0.5116882
-2.830414
-4.911224
-6.768509
-8.506699
-10.27083
-12.20871
-14.40878
-16.94006
-19.8072
-22.91071
-26.0713
-28.91703
-30.90751
-31.47606
-30.1762
-26.89371
-21.93546
-15.97941
-9.835327
-4.248566
0.3880844
4.012909
6.758659
8.828461
10.32922
11.2712
11.61003
11.42184
10.86391
10.21535
9.790596
9.780251
10.21493
10.95488
11.76671
12.40546
12.78265
12.89165
12.78747
12.54101
12.11623
11.44296
10.44384
9.11142
7.459679
5.576393
3.54216
1.371948
-0.9041138
-3.263481
-5.622673
-7.899391
-10.0358
-12.05921
-14.03564
-16.0536
-18.18459
-20.45215
-22.82489
-25.18326
-27.29146
-28.73204
-28.9985
-27.61627
-24.3617
-19.39217
-13.26957
-6.828003
-0.8687973
4.04985
7.740326
10.34565
12.10332
13.25099
13.89896
14.0536
13.75808
13.12094
12.32058
11.53626
10.8832
10.3981
10.08336
9.91523
9.934822
10.20597
10.7229
11.41102
12.15871
12.79655
13.20975
13.3035
12.96071
12.05042
10.47884
8.184013
5.261971
1.970856
-1.32515
-4.288338
-6.642509
-8.334648
-9.48008
-10.30993
-11.16122
-12.34193
-14.04706
-16.35717
-19.12715
-21.98962
-24.40777
-25.72273
-25.34521
-22.97656
-18.70165
-13.05627
-6.905884
-1.08017
3.75869
7.344887
9.803009
11.47286
12.68743
13.62193
14.25854
14.42169
14.02656
13.0771
11.77554
10.41898
9.269882
8.477913
8.070747
8.041664
8.340569
8.962448
9.877892
10.95528
12.02128
12.77525
13.00827
12.60064
11.57201
10.06719
8.279205
6.334076
4.304886
2.25705
0.1575089
-1.947464
-4.057777
-6.149727
-8.191628
-10.14063
-11.98969
-13.76468
-15.49608
-17.22013
-18.83366
-20.14309
-20.82261
-20.50661
-18.88547
-15.91335
-11.80997
-6.989738
-2.05706
2.475266
6.22052
8.97683
10.74584
11.60883
11.68401
11.14821
10.17892
8.962372
7.710732
6.616325
5.822777
5.439636
5.492355
5.923119
6.614441
7.359352
7.922501
8.116463
7.853752
7.156853
6.158798
5.036919
3.884754
2.750183
1.573437
0.2827682
-1.128696
-2.580929
-3.956352
-5.14645
-6.137527
-7.019341
-7.941311
-9.029892
-10.35489
-11.90963
-13.67064
-15.59211
-17.52203
-19.20511
-20.24891
-20.19651
-18.69863
-15.6478
-11.28186
-6.139103
-0.9325104
3.665886
7.178139
9.384872
10.36911
10.40121
9.86512
9.139053
8.504688
8.078564
7.901054
7.971268
8.259789
8.759506
9.409042
10.11255
10.73367
11.20344
11.48355
11.61872
11.65568
11.6025
11.42529
11.01914
10.30856
9.263618
7.910236
6.265041
4.379185
2.308273
0.1387024
-2.027943
-4.111923
-6.052601
-7.836235
-9.473995
-11.01727
-12.51311
-14.04598
-15.6833
-17.44212
-19.22826
-20.84688
-21.90821
-22.00465
-20.77509
-18.06247
-14.04278
-9.212709
-4.268097
0.1668243
3.633217
6.011831
7.471094
8.289227
8.774061
9.089314
9.292217
9.386599
9.431705
9.525366
9.789961
10.30021
10.97927
11.65518
12.09984
12.14216
11.76407
11.13429
10.55011
10.27347
10.39836
10.77839
11.07611
10.91793
10.08153
8.537325
6.483141
4.217102
1.978214
-0.1165838
-2.096251
-4.001411
-5.848048
-7.5778
-9.077152
-10.31353
-11.36046
-12.38997
-13.6233
-15.21354
-17.12948
-19.15899
-20.90513
-21.87807
-21.61185
-19.80668
-16.44374
-11.79529
-6.421955
-1.032286
3.742748
7.486448
10.05454
11.60983
12.37506
12.61815
12.50105
