1569656951.59068
1569656951.60631
1569656951.62194
1569656951.63756
1569656951.65319
1569656951.66881
1569656951.68444
1569656951.70006
1569656951.71569
1569656951.73132
1569656951.74694
1569656951.76257
1569656951.77819
1569656951.79382
1569656951.80944
1569656951.82507
1569656951.8407
1569656951.85632
1569656951.87195
1569656951.88757
1569656951.9032
1569656951.91883
1569656951.93445
1569656951.95008
1569656951.9657
1569656951.98133
1569656951.99695
1569656952.01258
1569656952.02821
1569656952.04383
1569656952.05946
1569656952.07508
1569656952.09071
1569656952.10633
1569656952.12196
1569656952.13759
1569656952.15321
1569656952.16884
1569656952.18446
1569656952.20009
1569656952.21571
1569656952.23134
1569656952.24697
1569656952.26259
1569656952.27822
1569656952.29384
1569656952.30947
1569656952.32509
1569656952.34072
1569656952.35635
1569656952.37197
1569656952.3876
1569656952.40322
1569656952.41885
1569656952.43447
1569656952.4501
1569656952.46573
1569656952.48135
1569656952.49698
1569656952.5126
1569656952.52823
1569656952.54385
1569656952.55948
1569656952.57511
1569656952.59073
1569656952.60636
1569656952.62198
1569656952.63761
1569656952.65323
1569656952.66886
1569656952.68449
1569656952.70011
1569656952.71574
1569656952.73136
1569656952.74699
1569656952.76261
1569656952.77824
1569656952.79387
1569656952.80949
1569656952.82512
1569656952.84074
1569656952.85637
1569656952.87199
1569656952.88762
1569656952.90325
1569656952.91887
1569656952.9345
1569656952.95012
1569656952.96575
1569656952.98137
1569656952.997
1569656953.01263
1569656953.02825
1569656953.04388
1569656953.0595
1569656953.07513
1569656953.09075
1569656953.10638
1569656953.12201
1569656953.13763
1569656953.15326
1569656953.16888
1569656953.18451
1569656953.20013
1569656953.21576
1569656953.23139
1569656953.24701
1569656953.26264
1569656953.27826
1569656953.29389
1569656953.30951
1569656953.32514
1569656953.34077
1569656953.35639
1569656953.37202
1569656953.38764
1569656953.40327
1569656953.41889
1569656953.43452
1569656953.45015
1569656953.46577
1569656953.4814
1569656953.49702
1569656953.51265
1569656953.52827
1569656953.5439
1569656953.55953
1569656953.57515
1569656953.59078
1569656953.6064
1569656953.62203
1569656953.63765
1569656953.65328
1569656953.66891
1569656953.68453
1569656953.70016
1569656953.71578
1569656953.73141
1569656953.74703
1569656953.76266
1569656953.77829
1569656953.79391
1569656953.80954
1569656953.82516
1569656953.84079
1569656953.85641
1569656953.87204
1569656953.88767
1569656953.90329
1569656953.91892
1569656953.93454
1569656953.95017
1569656953.96579
1569656953.98142
1569656953.99705
1569656954.01267
1569656954.0283
1569656954.04392
1569656954.05955
1569656954.07518
1569656954.0908
1569656954.10643
1569656954.12205
1569656954.13768
1569656954.1533
1569656954.16893
1569656954.18456
1569656954.20018
1569656954.21581
1569656954.23143
1569656954.24706
1569656954.26268
1569656954.27831
1569656954.29394
1569656954.30956
1569656954.32519
1569656954.34081
1569656954.35644
1569656954.37206
1569656954.38769
1569656954.40332
1569656954.41894
1569656954.43457
1569656954.45019
1569656954.46582
1569656954.48144
1569656954.49707
1569656954.5127
1569656954.52832
1569656954.54395
1569656954.55957
1569656954.5752
1569656954.59082
1569656954.60645
1569656954.62208
1569656954.6377
1569656954.65333
1569656954.66895
1569656954.68458
1569656954.7002
1569656954.71583
1569656954.73146
1569656954.74708
1569656954.76271
1569656954.77833
1569656954.79396
1569656954.80958
1569656954.82521
1569656954.84084
1569656954.85646
1569656954.87209
1569656954.88771
1569656954.90334
1569656954.91896
1569656954.93459
1569656954.95022
1569656954.96584
1569656954.98147
1569656954.99709
1569656955.01272
1569656955.02834
1569656955.04397
1569656955.0596
1569656955.07522
1569656955.09085
1569656955.10647
1569656955.1221
1569656955.13772
1569656955.15335
1569656955.16898
1569656955.1846
1569656955.20023
1569656955.21585
1569656955.23148
1569656955.2471
1569656955.26273
1569656955.27836
1569656955.29398
1569656955.30961
1569656955.32523
1569656955.34086
1569656955.35648
1569656955.37211
1569656955.38774
1569656955.40336
1569656955.41899
1569656955.43461
1569656955.45024
1569656955.46586
1569656955.48149
1569656955.49712
1569656955.51274
1569656955.52837
1569656955.54399
1569656955.55962
1569656955.57524
1569656955.59087
1569656955.6065
1569656955.62212
1569656955.63775
1569656955.65337
1569656955.669
1569656955.68462
1569656955.70025
1569656955.71588
1569656955.7315
1569656955.74713
1569656955.76275
1569656955.77838
1569656955.794
1569656955.80963
1569656955.82526
1569656955.84088
1569656955.85651
1569656955.87213
1569656955.88776
1569656955.90338
1569656955.91901
1569656955.93464
1569656955.95026
1569656955.96589
1569656955.98151
1569656955.99714
1569656956.01276
1569656956.02839
1569656956.04402
1569656956.05964
1569656956.07527
1569656956.09089
1569656956.10652
1569656956.12214
1569656956.13777
1569656956.1534
1569656956.16902
1569656956.18465
1569656956.20027
1569656956.2159
1569656956.23152
1569656956.24715
1569656956.26278
1569656956.2784
1569656956.29403
1569656956.30965
1569656956.32528
1569656956.3409
1569656956.35653
1569656956.37216
1569656956.38778
1569656956.40341
1569656956.41903
1569656956.43466
1569656956.45028
1569656956.46591
1569656956.48154
1569656956.49716
1569656956.51279
1569656956.52841
1569656956.54404
1569656956.55966
1569656956.57529
1569656956.59092
1569656956.60654
1569656956.62217
1569656956.63779
1569656956.65342
1569656956.66904
1569656956.68467
1569656956.7003
1569656956.71592
1569656956.73155
1569656956.74717
1569656956.7628
1569656956.77843
1569656956.79405
1569656956.80968
1569656956.8253
1569656956.84093
1569656956.85655
1569656956.87218
1569656956.88781
1569656956.90343
1569656956.91906
1569656956.93468
1569656956.95031
1569656956.96593
1569656956.98156
1569656956.99719
1569656957.01281
1569656957.02844
1569656957.04406
1569656957.05969
1569656957.07531
1569656957.09094
1569656957.10657
1569656957.12219
1569656957.13782
1569656957.15344
1569656957.16907
1569656957.18469
1569656957.20032
1569656957.21595
1569656957.23157
1569656957.2472
1569656957.26282
1569656957.27845
1569656957.29407
1569656957.3097
1569656957.32533
1569656957.34095
1569656957.35658
1569656957.3722
1569656957.38783
1569656957.40345
1569656957.41908
1569656957.43471
1569656957.45033
1569656957.46596
1569656957.48158
1569656957.49721
1569656957.51283
1569656957.52846
1569656957.54409
1569656957.55971
1569656957.57534
1569656957.59096
1569656957.60659
1569656957.62221
1569656957.63784
1569656957.65347
1569656957.66909
1569656957.68472
1569656957.70034
1569656957.71597
1569656957.73159
1569656957.74722
1569656957.76285
1569656957.77847
1569656957.7941
1569656957.80972
1569656957.82535
1569656957.84097
1569656957.8566
1569656957.87223
1569656957.88785
1569656957.90348
1569656957.9191
1569656957.93473
1569656957.95035
1569656957.96598
1569656957.98161
1569656957.99723
1569656958.01286
1569656958.02848
1569656958.04411
1569656958.05973
1569656958.07536
1569656958.09099
1569656958.10661
1569656958.12224
1569656958.13786
1569656958.15349
1569656958.16911
1569656958.18474
1569656958.20037
1569656958.21599
1569656958.23162
1569656958.24724
1569656958.26287
1569656958.27849
1569656958.29412
1569656958.30975
1569656958.32537
1569656958.341
1569656958.35662
1569656958.37225
1569656958.38787
1569656958.4035
1569656958.41913
1569656958.43475
1569656958.45038
1569656958.466
1569656958.48163
1569656958.49725
1569656958.51288
1569656958.52851
1569656958.54413
1569656958.55976
1569656958.57538
1569656958.59101
1569656958.60663
1569656958.62226
1569656958.63789
1569656958.65351
1569656958.66914
1569656958.68476
1569656958.70039
1569656958.71601
1569656958.73164
1569656958.74727
1569656958.76289
1569656958.77852
1569656958.79414
1569656958.80977
1569656958.82539
1569656958.84102
1569656958.85665
1569656958.87227
1569656958.8879
1569656958.90352
1569656958.91915
1569656958.93478
1569656958.9504
1569656958.96603
1569656958.98165
1569656958.99728
1569656959.0129
1569656959.02853
1569656959.04416
1569656959.05978
1569656959.07541
1569656959.09103
1569656959.10666
1569656959.12228
1569656959.13791
1569656959.15354
1569656959.16916
1569656959.18479
1569656959.20041
1569656959.21604
1569656959.23166
1569656959.24729
1569656959.26292
1569656959.27854
1569656959.29417
1569656959.30979
1569656959.32542
1569656959.34104
1569656959.35667
1569656959.3723
1569656959.38792
1569656959.40355
1569656959.41917
1569656959.4348
1569656959.45042
1569656959.46605
1569656959.48168
1569656959.4973
1569656959.51293
1569656959.52855
1569656959.54418
1569656959.5598
1569656959.57543
1569656959.59106
1569656959.60668
1569656959.62231
1569656959.63793
1569656959.65356
1569656959.66918
1569656959.68481
1569656959.70044
1569656959.71606
1569656959.73169
1569656959.74731
1569656959.76294
1569656959.77856
1569656959.79419
1569656959.80982
1569656959.82544
1569656959.84107
1569656959.85669
1569656959.87232
1569656959.88794
1569656959.90357
1569656959.9192
1569656959.93482
1569656959.95045
1569656959.96607
1569656959.9817
1569656959.99732
1569656960.01295
1569656960.02858
1569656960.0442
1569656960.05983
1569656960.07545
1569656960.09108
1569656960.1067
1569656960.12233
1569656960.13796
1569656960.15358
1569656960.16921
1569656960.18483
1569656960.20046
1569656960.21608
1569656960.23171
1569656960.24734
1569656960.26296
1569656960.27859
1569656960.29421
1569656960.30984
1569656960.32546
1569656960.34109
1569656960.35672
1569656960.37234
1569656960.38797
1569656960.40359
1569656960.41922
1569656960.43484
1569656960.45047
1569656960.4661
1569656960.48172
1569656960.49735
1569656960.51297
1569656960.5286
1569656960.54422
1569656960.55985
1569656960.57548
1569656960.5911
1569656960.60673
1569656960.62235
1569656960.63798
1569656960.6536
1569656960.66923
1569656960.68486
1569656960.70048
1569656960.71611
1569656960.73173
1569656960.74736
1569656960.76298
1569656960.77861
1569656960.79424
1569656960.80986
1569656960.82549
1569656960.84111
1569656960.85674
1569656960.87236
1569656960.88799
1569656960.90362
1569656960.91924
1569656960.93487
1569656960.95049
1569656960.96612
1569656960.98174
1569656960.99737
1569656961.013
1569656961.02862
1569656961.04425
1569656961.05987
1569656961.0755
1569656961.09112
1569656961.10675
1569656961.12238
1569656961.138
1569656961.15363
1569656961.16925
1569656961.18488
1569656961.20051
1569656961.21613
1569656961.23176
1569656961.24738
1569656961.26301
1569656961.27863
1569656961.29426
1569656961.30989
1569656961.32551
1569656961.34114
1569656961.35676
1569656961.37239
1569656961.38801
1569656961.40364
1569656961.41927
1569656961.43489
1569656961.45052
1569656961.46614
1569656961.48177
1569656961.49739
1569656961.51302
1569656961.52865
1569656961.54427
1569656961.5599
1569656961.57552
1569656961.59115
1569656961.60677
1569656961.6224
1569656961.63803
1569656961.65365
1569656961.66928
1569656961.6849
1569656961.70053
1569656961.71615
1569656961.73178
1569656961.74741
1569656961.76303
1569656961.77866
1569656961.79428
1569656961.80991
1569656961.82553
1569656961.84116
1569656961.85679
1569656961.87241
1569656961.88804
1569656961.90366
1569656961.91929
1569656961.93491
1569656961.95054
1569656961.96617
1569656961.98179
1569656961.99742
1569656962.01304
1569656962.02867
1569656962.04429
1569656962.05992
1569656962.07555
1569656962.09117
1569656962.1068
1569656962.12242
1569656962.13805
1569656962.15367
1569656962.1693
1569656962.18493
1569656962.20055
1569656962.21618
1569656962.2318
1569656962.24743
1569656962.26305
1569656962.27868
1569656962.29431
1569656962.30993
1569656962.32556
1569656962.34118
1569656962.35681
1569656962.37243
1569656962.38806
1569656962.40369
1569656962.41931
1569656962.43494
1569656962.45056
1569656962.46619
1569656962.48181
1569656962.49744
1569656962.51307
1569656962.52869
1569656962.54432
1569656962.55994
1569656962.57557
1569656962.59119
1569656962.60682
1569656962.62245
1569656962.63807
1569656962.6537
1569656962.66932
1569656962.68495
1569656962.70057
1569656962.7162
1569656962.73183
1569656962.74745
1569656962.76308
1569656962.7787
1569656962.79433
1569656962.80995
1569656962.82558
1569656962.84121
1569656962.85683
1569656962.87246
1569656962.88808
1569656962.90371
1569656962.91933
1569656962.93496
1569656962.95059
1569656962.96621
1569656962.98184
1569656962.99746
1569656963.01309
1569656963.02871
1569656963.04434
1569656963.05997
1569656963.07559
1569656963.09122
1569656963.10684
1569656963.12247
1569656963.13809
1569656963.15372
1569656963.16935
1569656963.18497
1569656963.2006
1569656963.21622
1569656963.23185
1569656963.24747
1569656963.2631
1569656963.27873
1569656963.29435
1569656963.30998
1569656963.3256
1569656963.34123
1569656963.35685
1569656963.37248
1569656963.38811
1569656963.40373
1569656963.41936
1569656963.43498
1569656963.45061
1569656963.46623
1569656963.48186
1569656963.49749
1569656963.51311
1569656963.52874
1569656963.54436
1569656963.55999
1569656963.57561
1569656963.59124
1569656963.60687
1569656963.62249
1569656963.63812
1569656963.65374
1569656963.66937
1569656963.68499
1569656963.70062
1569656963.71625
1569656963.73187
1569656963.7475
1569656963.76312
1569656963.77875
1569656963.79438
1569656963.81
1569656963.82563
1569656963.84125
1569656963.85688
1569656963.8725
1569656963.88813
1569656963.90376
1569656963.91938
1569656963.93501
1569656963.95063
1569656963.96626
1569656963.98188
1569656963.99751
1569656964.01314
1569656964.02876
1569656964.04439
1569656964.06001
1569656964.07564
1569656964.09126
1569656964.10689
1569656964.12252
1569656964.13814
1569656964.15377
1569656964.16939
1569656964.18502
1569656964.20064
1569656964.21627
1569656964.2319
1569656964.24752
1569656964.26315
1569656964.27877
1569656964.2944
1569656964.31002
1569656964.32565
1569656964.34128
1569656964.3569
1569656964.37253
1569656964.38815
1569656964.40378
1569656964.4194
1569656964.43503
1569656964.45066
1569656964.46628
1569656964.48191
1569656964.49753
1569656964.51316
1569656964.52878
1569656964.54441
1569656964.56004
1569656964.57566
1569656964.59129
1569656964.60691
1569656964.62254
1569656964.63816
1569656964.65379
1569656964.66942
1569656964.68504
1569656964.70067
1569656964.71629
1569656964.73192
1569656964.74754
1569656964.76317
1569656964.7788
1569656964.79442
1569656964.81005
1569656964.82567
1569656964.8413
1569656964.85692
1569656964.87255
1569656964.88818
1569656964.9038
1569656964.91943
1569656964.93505
1569656964.95068
1569656964.9663
1569656964.98193
1569656964.99756
1569656965.01318
1569656965.02881
1569656965.04443
1569656965.06006
1569656965.07568
1569656965.09131
1569656965.10694
1569656965.12256
1569656965.13819
1569656965.15381
1569656965.16944
1569656965.18506
1569656965.20069
1569656965.21632
1569656965.23194
1569656965.24757
1569656965.26319
1569656965.27882
1569656965.29444
1569656965.31007
1569656965.3257
1569656965.34132
1569656965.35695
1569656965.37257
1569656965.3882
1569656965.40382
1569656965.41945
1569656965.43508
1569656965.4507
1569656965.46633
1569656965.48195
1569656965.49758
1569656965.5132
1569656965.52883
1569656965.54446
1569656965.56008
1569656965.57571
1569656965.59133
1569656965.60696
1569656965.62258
1569656965.63821
1569656965.65384
1569656965.66946
1569656965.68509
1569656965.70071
1569656965.71634
1569656965.73196
1569656965.74759
1569656965.76322
1569656965.77884
1569656965.79447
1569656965.81009
1569656965.82572
1569656965.84134
1569656965.85697
1569656965.8726
1569656965.88822
1569656965.90385
1569656965.91947
1569656965.9351
1569656965.95072
1569656965.96635
1569656965.98198
1569656965.9976
1569656966.01323
1569656966.02885
1569656966.04448
1569656966.06011
1569656966.07573
1569656966.09136
1569656966.10698
1569656966.12261
1569656966.13823
1569656966.15386
1569656966.16949
1569656966.18511
1569656966.20074
1569656966.21636
1569656966.23199
1569656966.24761
1569656966.26324
1569656966.27887
1569656966.29449
1569656966.31012
1569656966.32574
1569656966.34137
1569656966.35699
1569656966.37262
1569656966.38825
1569656966.40387
1569656966.4195
1569656966.43512
1569656966.45075
1569656966.46637
1569656966.482
1569656966.49763
1569656966.51325
1569656966.52888
1569656966.5445
1569656966.56013
1569656966.57575
1569656966.59138
1569656966.60701
1569656966.62263
1569656966.63826
1569656966.65388
1569656966.66951
1569656966.68513
1569656966.70076
1569656966.71639
1569656966.73201
1569656966.74764
1569656966.76326
1569656966.77889
1569656966.79451
1569656966.81014
1569656966.82577
1569656966.84139
1569656966.85702
1569656966.87264
1569656966.88827
1569656966.90389
1569656966.91952
1569656966.93515
1569656966.95077
1569656966.9664
1569656966.98202
1569656966.99765
1569656967.01327
1569656967.0289
1569656967.04453
1569656967.06015
1569656967.07578
1569656967.0914
1569656967.10703
1569656967.12265
1569656967.13828
1569656967.15391
1569656967.16953
1569656967.18516
1569656967.20078
1569656967.21641
1569656967.23203
1569656967.24766
1569656967.26329
1569656967.27891
1569656967.29454
1569656967.31016
1569656967.32579
1569656967.34141
1569656967.35704
1569656967.37267
1569656967.38829
1569656967.40392
1569656967.41954
1569656967.43517
1569656967.45079
1569656967.46642
1569656967.48205
1569656967.49767
1569656967.5133
1569656967.52892
1569656967.54455
1569656967.56017
1569656967.5758
1569656967.59143
1569656967.60705
1569656967.62268
1569656967.6383
1569656967.65393
1569656967.66955
1569656967.68518
1569656967.70081
1569656967.71643
1569656967.73206
1569656967.74768
1569656967.76331
1569656967.77893
1569656967.79456
1569656967.81019
1569656967.82581
1569656967.84144
1569656967.85706
1569656967.87269
1569656967.88831
1569656967.90394
1569656967.91957
1569656967.93519
1569656967.95082
1569656967.96644
1569656967.98207
1569656967.99769
1569656968.01332
1569656968.02895
1569656968.04457
1569656968.0602
1569656968.07582
1569656968.09145
1569656968.10707
1569656968.1227
1569656968.13833
1569656968.15395
1569656968.16958
1569656968.1852
1569656968.20083
1569656968.21645
1569656968.23208
1569656968.24771
1569656968.26333
1569656968.27896
1569656968.29458
1569656968.31021
1569656968.32583
1569656968.34146
1569656968.35709
1569656968.37271
1569656968.38834
1569656968.40396
1569656968.41959
1569656968.43522
1569656968.45084
1569656968.46647
1569656968.48209
1569656968.49772
1569656968.51334
1569656968.52897
1569656968.5446
1569656968.56022
1569656968.57585
1569656968.59147
1569656968.6071
1569656968.62272
1569656968.63835
1569656968.65398
1569656968.6696
1569656968.68523
1569656968.70085
1569656968.71648
1569656968.7321
1569656968.74773
1569656968.76336
1569656968.77898
1569656968.79461
1569656968.81023
1569656968.82586
1569656968.84148
1569656968.85711
1569656968.87274
1569656968.88836
1569656968.90399
1569656968.91961
1569656968.93524
1569656968.95086
1569656968.96649
1569656968.98212
1569656968.99774
1569656969.01337
1569656969.02899
1569656969.04462
1569656969.06024
1569656969.07587
1569656969.0915
1569656969.10712
1569656969.12275
1569656969.13837
1569656969.154
1569656969.16962
1569656969.18525
1569656969.20088
1569656969.2165
1569656969.23213
1569656969.24775
1569656969.26338
1569656969.279
1569656969.29463
1569656969.31026
1569656969.32588
1569656969.34151
1569656969.35713
1569656969.37276
1569656969.38838
1569656969.40401
1569656969.41964
1569656969.43526
1569656969.45089
1569656969.46651
1569656969.48214
1569656969.49776
1569656969.51339
1569656969.52902
1569656969.54464
1569656969.56027
1569656969.57589
1569656969.59152
1569656969.60714
1569656969.62277
1569656969.6384
1569656969.65402
1569656969.66965
1569656969.68527
1569656969.7009
1569656969.71652
1569656969.73215
1569656969.74778
1569656969.7634
1569656969.77903
1569656969.79465
1569656969.81028
1569656969.8259
1569656969.84153
1569656969.85716
1569656969.87278
1569656969.88841
1569656969.90403
1569656969.91966
1569656969.93528
1569656969.95091
1569656969.96654
1569656969.98216
1569656969.99779
1569656970.01341
1569656970.02904
1569656970.04466
1569656970.06029
1569656970.07592
1569656970.09154
1569656970.10717
1569656970.12279
1569656970.13842
1569656970.15404
1569656970.16967
1569656970.1853
1569656970.20092
1569656970.21655
1569656970.23217
1569656970.2478
1569656970.26342
1569656970.27905
1569656970.29468
1569656970.3103
1569656970.32593
1569656970.34155
1569656970.35718
1569656970.3728
1569656970.38843
1569656970.40406
1569656970.41968
1569656970.43531
1569656970.45093
1569656970.46656
1569656970.48218
1569656970.49781
1569656970.51344
1569656970.52906
1569656970.54469
1569656970.56031
1569656970.57594
1569656970.59156
1569656970.60719
1569656970.62282
1569656970.63844
1569656970.65407
1569656970.66969
1569656970.68532
1569656970.70094
1569656970.71657
1569656970.7322
1569656970.74782
1569656970.76345
1569656970.77907
1569656970.7947
1569656970.81032
1569656970.82595
1569656970.84158
1569656970.8572
1569656970.87283
1569656970.88845
1569656970.90408
1569656970.91971
1569656970.93533
1569656970.95096
1569656970.96658
1569656970.98221
1569656970.99783
1569656971.01346
1569656971.02909
1569656971.04471
1569656971.06034
1569656971.07596
1569656971.09159
1569656971.10721
1569656971.12284
1569656971.13847
1569656971.15409
1569656971.16972
1569656971.18534
1569656971.20097
1569656971.21659
1569656971.23222
1569656971.24785
1569656971.26347
1569656971.2791
1569656971.29472
1569656971.31035
1569656971.32597
1569656971.3416
1569656971.35723
1569656971.37285
1569656971.38848
1569656971.4041
1569656971.41973
1569656971.43535
1569656971.45098
1569656971.46661
1569656971.48223
1569656971.49786
1569656971.51348
1569656971.52911
1569656971.54473
1569656971.56036
1569656971.57599
1569656971.59161
1569656971.60724
1569656971.62286
1569656971.63849
1569656971.65411
1569656971.66974
1569656971.68537
1569656971.70099
1569656971.71662
1569656971.73224
1569656971.74787
1569656971.76349
1569656971.77912
1569656971.79475
1569656971.81037
1569656971.826
1569656971.84162
1569656971.85725
1569656971.87287
1569656971.8885
1569656971.90413
1569656971.91975
1569656971.93538
1569656971.951
1569656971.96663
1569656971.98225
1569656971.99788
1569656972.01351
1569656972.02913
1569656972.04476
1569656972.06038
1569656972.07601
1569656972.09163
1569656972.10726
1569656972.12289
1569656972.13851
1569656972.15414
1569656972.16976
1569656972.18539
1569656972.20101
1569656972.21664
1569656972.23227
1569656972.24789
1569656972.26352
1569656972.27914
1569656972.29477
1569656972.31039
1569656972.32602
1569656972.34165
1569656972.35727
1569656972.3729
1569656972.38852
1569656972.40415
1569656972.41977
1569656972.4354
1569656972.45103
1569656972.46665
1569656972.48228
1569656972.4979
1569656972.51353
1569656972.52915
1569656972.54478
1569656972.56041
1569656972.57603
1569656972.59166
1569656972.60728
1569656972.62291
1569656972.63853
1569656972.65416
1569656972.66979
1569656972.68541
1569656972.70104
1569656972.71666
1569656972.73229
1569656972.74791
1569656972.76354
1569656972.77917
1569656972.79479
1569656972.81042
1569656972.82604
1569656972.84167
1569656972.85729
1569656972.87292
1569656972.88855
1569656972.90417
1569656972.9198
1569656972.93542
1569656972.95105
1569656972.96667
1569656972.9823
1569656972.99793
1569656973.01355
1569656973.02918
1569656973.0448
1569656973.06043
1569656973.07605
1569656973.09168
1569656973.10731
1569656973.12293
1569656973.13856
1569656973.15418
1569656973.16981
1569656973.18544
1569656973.20106
1569656973.21669
1569656973.23231
1569656973.24794
1569656973.26356
1569656973.27919
1569656973.29482
1569656973.31044
1569656973.32607
1569656973.34169
1569656973.35732
1569656973.37294
1569656973.38857
1569656973.4042
1569656973.41982
1569656973.43545
1569656973.45107
1569656973.4667
1569656973.48232
1569656973.49795
1569656973.51358
1569656973.5292
1569656973.54483
1569656973.56045
1569656973.57608
1569656973.5917
1569656973.60733
1569656973.62296
1569656973.63858
1569656973.65421
1569656973.66983
1569656973.68546
1569656973.70108
1569656973.71671
1569656973.73234
1569656973.74796
1569656973.76359
1569656973.77921
1569656973.79484
1569656973.81046
1569656973.82609
1569656973.84172
1569656973.85734
1569656973.87297
1569656973.88859
1569656973.90422
1569656973.91984
1569656973.93547
1569656973.9511
1569656973.96672
1569656973.98235
1569656973.99797
1569656974.0136
1569656974.02922
1569656974.04485
1569656974.06048
1569656974.0761
1569656974.09173
1569656974.10735
1569656974.12298
1569656974.1386
1569656974.15423
1569656974.16986
1569656974.18548
1569656974.20111
1569656974.21673
1569656974.23236
1569656974.24798
1569656974.26361
1569656974.27924
1569656974.29486
1569656974.31049
1569656974.32611
1569656974.34174
1569656974.35736
1569656974.37299
1569656974.38862
1569656974.40424
1569656974.41987
1569656974.43549
1569656974.45112
1569656974.46674
1569656974.48237
1569656974.498
1569656974.51362
1569656974.52925
1569656974.54487
1569656974.5605
1569656974.57612
1569656974.59175
1569656974.60738
1569656974.623
1569656974.63863
1569656974.65425
1569656974.66988
1569656974.6855
1569656974.70113
1569656974.71676
1569656974.73238
1569656974.74801
1569656974.76363
1569656974.77926
1569656974.79488
1569656974.81051
1569656974.82614
1569656974.84176
1569656974.85739
1569656974.87301
1569656974.88864
1569656974.90426
1569656974.91989
1569656974.93552
1569656974.95114
1569656974.96677
1569656974.98239
1569656974.99802
1569656975.01364
1569656975.02927
1569656975.0449
1569656975.06052
1569656975.07615
1569656975.09177
1569656975.1074
1569656975.12302
1569656975.13865
1569656975.15428
1569656975.1699
1569656975.18553
1569656975.20115
1569656975.21678
1569656975.2324
1569656975.24803
1569656975.26366
1569656975.27928
1569656975.29491
1569656975.31053
1569656975.32616
1569656975.34178
1569656975.35741
1569656975.37304
1569656975.38866
1569656975.40429
1569656975.41991
1569656975.43554
1569656975.45116
1569656975.46679
1569656975.48242
1569656975.49804
1569656975.51367
1569656975.52929
1569656975.54492
1569656975.56054
1569656975.57617
1569656975.5918
1569656975.60742
1569656975.62305
1569656975.63867
1569656975.6543
1569656975.66992
1569656975.68555
1569656975.70118
1569656975.7168
1569656975.73243
1569656975.74805
1569656975.76368
1569656975.77931
1569656975.79493
1569656975.81056
1569656975.82618
1569656975.84181
1569656975.85743
1569656975.87306
1569656975.88869
1569656975.90431
1569656975.91994
1569656975.93556
1569656975.95119
1569656975.96681
1569656975.98244
1569656975.99807
1569656976.01369
1569656976.02932
1569656976.04494
1569656976.06057
1569656976.07619
1569656976.09182
1569656976.10745
1569656976.12307
1569656976.1387
1569656976.15432
1569656976.16995
1569656976.18557
1569656976.2012
1569656976.21683
1569656976.23245
1569656976.24808
1569656976.2637
1569656976.27933
1569656976.29495
1569656976.31058
1569656976.32621
1569656976.34183
1569656976.35746
1569656976.37308
1569656976.38871
1569656976.40433
1569656976.41996
1569656976.43559
1569656976.45121
1569656976.46684
1569656976.48246
1569656976.49809
1569656976.51371
1569656976.52934
1569656976.54497
1569656976.56059
1569656976.57622
1569656976.59184
1569656976.60747
1569656976.62309
1569656976.63872
1569656976.65435
1569656976.66997
1569656976.6856
1569656976.70122
1569656976.71685
1569656976.73247
1569656976.7481
1569656976.76373
1569656976.77935
1569656976.79498
1569656976.8106
1569656976.82623
1569656976.84185
1569656976.85748
1569656976.87311
1569656976.88873
1569656976.90436
1569656976.91998
1569656976.93561
1569656976.95123
1569656976.96686
1569656976.98249
1569656976.99811
1569656977.01374
1569656977.02936
1569656977.04499
1569656977.06061
1569656977.07624
1569656977.09187
1569656977.10749
1569656977.12312
1569656977.13874
1569656977.15437
1569656977.16999
1569656977.18562
1569656977.20125
1569656977.21687
1569656977.2325
1569656977.24812
1569656977.26375
1569656977.27937
1569656977.295
1569656977.31063
1569656977.32625
1569656977.34188
1569656977.3575
1569656977.37313
1569656977.38875
1569656977.40438
1569656977.42001
1569656977.43563
1569656977.45126
1569656977.46688
1569656977.48251
1569656977.49813
1569656977.51376
1569656977.52939
1569656977.54501
1569656977.56064
1569656977.57626
1569656977.59189
1569656977.60751
1569656977.62314
1569656977.63877
1569656977.65439
1569656977.67002
1569656977.68564
1569656977.70127
1569656977.71689
1569656977.73252
1569656977.74815
1569656977.76377
1569656977.7794
1569656977.79502
1569656977.81065
1569656977.82627
1569656977.8419
1569656977.85753
1569656977.87315
1569656977.88878
1569656977.9044
1569656977.92003
1569656977.93565
1569656977.95128
1569656977.96691
1569656977.98253
1569656977.99816
1569656978.01378
1569656978.02941
1569656978.04504
1569656978.06066
1569656978.07629
1569656978.09191
1569656978.10754
1569656978.12316
1569656978.13879
1569656978.15442
1569656978.17004
1569656978.18567
1569656978.20129
1569656978.21692
1569656978.23254
1569656978.24817
1569656978.2638
1569656978.27942
1569656978.29505
1569656978.31067
1569656978.3263
1569656978.34192
1569656978.35755
1569656978.37318
1569656978.3888
1569656978.40443
1569656978.42005
1569656978.43568
1569656978.4513
1569656978.46693
1569656978.48256
1569656978.49818
1569656978.51381
1569656978.52943
1569656978.54506
1569656978.56068
1569656978.57631
1569656978.59194
1569656978.60756
1569656978.62319
1569656978.63881
1569656978.65444
1569656978.67006
1569656978.68569
1569656978.70132
1569656978.71694
1569656978.73257
1569656978.74819
1569656978.76382
1569656978.77944
1569656978.79507
1569656978.8107
1569656978.82632
1569656978.84195
1569656978.85757
1569656978.8732
1569656978.88882
1569656978.90445
1569656978.92008
1569656978.9357
1569656978.95133
1569656978.96695
1569656978.98258
1569656978.9982
1569656979.01383
1569656979.02946
1569656979.04508
1569656979.06071
1569656979.07633
1569656979.09196
1569656979.10758
1569656979.12321
1569656979.13884
1569656979.15446
1569656979.17009
1569656979.18571
1569656979.20134
1569656979.21696
1569656979.23259
1569656979.24822
1569656979.26384
1569656979.27947
1569656979.29509
1569656979.31072
1569656979.32634
1569656979.34197
1569656979.3576
1569656979.37322
1569656979.38885
1569656979.40447
1569656979.4201
1569656979.43572
1569656979.45135
1569656979.46698
1569656979.4826
1569656979.49823
1569656979.51385
1569656979.52948
1569656979.5451
1569656979.56073
1569656979.57636
1569656979.59198
1569656979.60761
1569656979.62323
1569656979.63886
1569656979.65448
1569656979.67011
1569656979.68574
1569656979.70136
1569656979.71699
1569656979.73261
1569656979.74824
1569656979.76386
1569656979.77949
1569656979.79512
1569656979.81074
1569656979.82637
1569656979.84199
1569656979.85762
1569656979.87324
1569656979.88887
1569656979.9045
1569656979.92012
1569656979.93575
1569656979.95137
1569656979.967
1569656979.98262
1569656979.99825
1569656980.01388
1569656980.0295
1569656980.04513
1569656980.06075
1569656980.07638
1569656980.092
1569656980.10763
1569656980.12326
1569656980.13888
1569656980.15451
1569656980.17013
1569656980.18576
1569656980.20139
1569656980.21701
1569656980.23264
1569656980.24826
1569656980.26389
1569656980.27951
1569656980.29514
1569656980.31077
1569656980.32639
1569656980.34202
1569656980.35764
1569656980.37327
1569656980.38889
1569656980.40452
1569656980.42015
1569656980.43577
1569656980.4514
1569656980.46702
1569656980.48265
1569656980.49827
1569656980.5139
1569656980.52953
1569656980.54515
1569656980.56078
1569656980.5764
1569656980.59203
1569656980.60765
1569656980.62328
1569656980.63891
1569656980.65453
1569656980.67016
1569656980.68578
1569656980.70141
1569656980.71703
1569656980.73266
1569656980.74829
1569656980.76391
1569656980.77954
1569656980.79516
1569656980.81079
1569656980.82641
1569656980.84204
1569656980.85767
1569656980.87329
1569656980.88892
1569656980.90454
1569656980.92017
1569656980.93579
1569656980.95142
1569656980.96705
1569656980.98267
1569656980.9983
1569656981.01392
1569656981.02955
1569656981.04517
1569656981.0608
1569656981.07643
1569656981.09205
1569656981.10768
1569656981.1233
1569656981.13893
1569656981.15455
1569656981.17018
1569656981.18581
1569656981.20143
1569656981.21706
1569656981.23268
1569656981.24831
1569656981.26393
1569656981.27956
1569656981.29519
1569656981.31081
1569656981.32644
1569656981.34206
1569656981.35769
1569656981.37331
1569656981.38894
1569656981.40457
1569656981.42019
1569656981.43582
1569656981.45144
1569656981.46707
1569656981.48269
1569656981.49832
1569656981.51395
1569656981.52957
1569656981.5452
1569656981.56082
1569656981.57645
1569656981.59207
1569656981.6077
1569656981.62333
1569656981.63895
1569656981.65458
1569656981.6702
1569656981.68583
1569656981.70145
1569656981.71708
1569656981.73271
1569656981.74833
1569656981.76396
1569656981.77958
1569656981.79521
1569656981.81083
1569656981.82646
1569656981.84209
1569656981.85771
1569656981.87334
1569656981.88896
1569656981.90459
1569656981.92021
1569656981.93584
1569656981.95147
1569656981.96709
1569656981.98272
1569656981.99834
1569656982.01397
1569656982.02959
1569656982.04522
1569656982.06085
1569656982.07647
1569656982.0921
1569656982.10772
1569656982.12335
1569656982.13897
1569656982.1546
1569656982.17023
1569656982.18585
1569656982.20148
1569656982.2171
1569656982.23273
1569656982.24835
1569656982.26398
1569656982.27961
1569656982.29523
1569656982.31086
1569656982.32648
1569656982.34211
1569656982.35773
1569656982.37336
1569656982.38899
1569656982.40461
1569656982.42024
1569656982.43586
1569656982.45149
1569656982.46711
1569656982.48274
1569656982.49837
1569656982.51399
1569656982.52962
1569656982.54524
1569656982.56087
1569656982.57649
1569656982.59212
1569656982.60775
1569656982.62337
1569656982.639
1569656982.65462
1569656982.67025
1569656982.68587
1569656982.7015
1569656982.71713
1569656982.73275
1569656982.74838
1569656982.764
1569656982.77963
1569656982.79525
1569656982.81088
1569656982.82651
1569656982.84213
1569656982.85776
1569656982.87338
1569656982.88901
1569656982.90464
1569656982.92026
1569656982.93589
1569656982.95151
1569656982.96714
1569656982.98276
1569656982.99839
1569656983.01402
1569656983.02964
1569656983.04527
1569656983.06089
1569656983.07652
1569656983.09214
1569656983.10777
1569656983.1234
1569656983.13902
1569656983.15465
1569656983.17027
1569656983.1859
1569656983.20152
1569656983.21715
1569656983.23278
1569656983.2484
1569656983.26403
1569656983.27965
1569656983.29528
1569656983.3109
1569656983.32653
1569656983.34216
1569656983.35778
1569656983.37341
1569656983.38903
1569656983.40466
1569656983.42028
1569656983.43591
1569656983.45154
1569656983.46716
1569656983.48279
1569656983.49841
1569656983.51404
1569656983.52966
1569656983.54529
1569656983.56092
1569656983.57654
1569656983.59217
1569656983.60779
1569656983.62342
1569656983.63904
1569656983.65467
1569656983.6703
1569656983.68592
1569656983.70155
1569656983.71717
1569656983.7328
1569656983.74842
1569656983.76405
1569656983.77968
1569656983.7953
1569656983.81093
1569656983.82655
1569656983.84218
1569656983.8578
1569656983.87343
1569656983.88906
1569656983.90468
1569656983.92031
1569656983.93593
1569656983.95156
1569656983.96718
1569656983.98281
1569656983.99844
1569656984.01406
1569656984.02969
1569656984.04531
1569656984.06094
1569656984.07656
1569656984.09219
1569656984.10782
1569656984.12344
1569656984.13907
1569656984.15469
1569656984.17032
1569656984.18594
1569656984.20157
1569656984.2172
1569656984.23282
1569656984.24845
1569656984.26407
1569656984.2797
1569656984.29532
1569656984.31095
1569656984.32658
1569656984.3422
1569656984.35783
1569656984.37345
1569656984.38908
1569656984.4047
1569656984.42033
1569656984.43596
1569656984.45158
1569656984.46721
1569656984.48283
1569656984.49846
1569656984.51408
1569656984.52971
1569656984.54534
1569656984.56096
1569656984.57659
1569656984.59221
1569656984.60784
1569656984.62346
1569656984.63909
1569656984.65472
1569656984.67034
1569656984.68597
1569656984.70159
1569656984.71722
1569656984.73284
1569656984.74847
1569656984.7641
1569656984.77972
1569656984.79535
1569656984.81097
1569656984.8266
1569656984.84222
1569656984.85785
1569656984.87348
1569656984.8891
1569656984.90473
1569656984.92035
1569656984.93598
1569656984.9516
1569656984.96723
1569656984.98286
1569656984.99848
1569656985.01411
1569656985.02973
1569656985.04536
1569656985.06099
1569656985.07661
1569656985.09224
1569656985.10786
1569656985.12349
1569656985.13911
1569656985.15474
1569656985.17037
1569656985.18599
1569656985.20162
1569656985.21724
1569656985.23287
1569656985.24849
1569656985.26412
1569656985.27975
1569656985.29537
1569656985.311
1569656985.32662
1569656985.34225
1569656985.35787
1569656985.3735
1569656985.38913
1569656985.40475
1569656985.42038
1569656985.436
1569656985.45163
1569656985.46725
1569656985.48288
1569656985.49851
1569656985.51413
1569656985.52976
1569656985.54538
1569656985.56101
1569656985.57663
1569656985.59226
1569656985.60789
1569656985.62351
1569656985.63914
1569656985.65476
1569656985.67039
1569656985.68601
1569656985.70164
1569656985.71727
1569656985.73289
1569656985.74852
1569656985.76414
1569656985.77977
1569656985.79539
1569656985.81102
1569656985.82665
1569656985.84227
1569656985.8579
1569656985.87352
1569656985.88915
1569656985.90477
1569656985.9204
1569656985.93603
1569656985.95165
1569656985.96728
1569656985.9829
1569656985.99853
1569656986.01415
1569656986.02978
1569656986.04541
1569656986.06103
1569656986.07666
1569656986.09228
1569656986.10791
1569656986.12353
1569656986.13916
1569656986.15479
1569656986.17041
1569656986.18604
1569656986.20166
1569656986.21729
1569656986.23291
1569656986.24854
1569656986.26417
1569656986.27979
1569656986.29542
1569656986.31104
1569656986.32667
1569656986.34229
1569656986.35792
1569656986.37355
1569656986.38917
1569656986.4048
1569656986.42042
1569656986.43605
1569656986.45167
1569656986.4673
1569656986.48293
1569656986.49855
1569656986.51418
1569656986.5298
1569656986.54543
1569656986.56105
1569656986.57668
1569656986.59231
1569656986.60793
1569656986.62356
1569656986.63918
1569656986.65481
1569656986.67043
1569656986.68606
1569656986.70169
1569656986.71731
1569656986.73294
1569656986.74856
1569656986.76419
1569656986.77981
1569656986.79544
1569656986.81107
1569656986.82669
1569656986.84232
1569656986.85794
1569656986.87357
1569656986.88919
1569656986.90482
1569656986.92045
1569656986.93607
1569656986.9517
1569656986.96732
1569656986.98295
1569656986.99857
1569656987.0142
1569656987.02983
1569656987.04545
1569656987.06108
1569656987.0767
1569656987.09233
1569656987.10795
1569656987.12358
1569656987.13921
1569656987.15483
1569656987.17046
1569656987.18608
1569656987.20171
1569656987.21733
1569656987.23296
1569656987.24859
1569656987.26421
1569656987.27984
1569656987.29546
1569656987.31109
1569656987.32671
1569656987.34234
1569656987.35797
1569656987.37359
1569656987.38922
1569656987.40484
1569656987.42047
1569656987.4361
1569656987.45172
1569656987.46735
1569656987.48297
1569656987.4986
1569656987.51422
1569656987.52985
1569656987.54548
1569656987.5611
1569656987.57673
1569656987.59235
1569656987.60798
1569656987.6236
1569656987.63923
1569656987.65486
1569656987.67048
1569656987.68611
1569656987.70173
1569656987.71736
1569656987.73298
1569656987.74861
1569656987.76424
1569656987.77986
1569656987.79549
1569656987.81111
1569656987.82674
1569656987.84236
1569656987.85799
1569656987.87362
1569656987.88924
1569656987.90487
1569656987.92049
1569656987.93612
1569656987.95174
1569656987.96737
1569656987.983
1569656987.99862
1569656988.01425
1569656988.02987
1569656988.0455
1569656988.06112
1569656988.07675
1569656988.09238
1569656988.108
1569656988.12363
1569656988.13925
1569656988.15488
1569656988.1705
1569656988.18613
1569656988.20176
1569656988.21738
1569656988.23301
1569656988.24863
1569656988.26426
1569656988.27988
1569656988.29551
1569656988.31114
1569656988.32676
1569656988.34239
1569656988.35801
1569656988.37364
1569656988.38926
1569656988.40489
1569656988.42052
1569656988.43614
1569656988.45177
1569656988.46739
1569656988.48302
1569656988.49864
1569656988.51427
1569656988.5299
1569656988.54552
1569656988.56115
1569656988.57677
1569656988.5924
1569656988.60802
1569656988.62365
1569656988.63928
1569656988.6549
1569656988.67053
1569656988.68615
1569656988.70178
1569656988.7174
1569656988.73303
1569656988.74866
1569656988.76428
1569656988.77991
1569656988.79553
1569656988.81116
1569656988.82678
1569656988.84241
1569656988.85804
1569656988.87366
1569656988.88929
1569656988.90491
1569656988.92054
1569656988.93616
1569656988.95179
1569656988.96742
1569656988.98304
1569656988.99867
1569656989.01429
1569656989.02992
1569656989.04554
1569656989.06117
1569656989.0768
1569656989.09242
1569656989.10805
1569656989.12367
1569656989.1393
1569656989.15492
1569656989.17055
1569656989.18618
1569656989.2018
1569656989.21743
1569656989.23305
1569656989.24868
1569656989.2643
1569656989.27993
1569656989.29556
1569656989.31118
1569656989.32681
1569656989.34243
1569656989.35806
1569656989.37368
1569656989.38931
1569656989.40494
1569656989.42056
1569656989.43619
1569656989.45181
1569656989.46744
1569656989.48306
1569656989.49869
1569656989.51432
1569656989.52994
1569656989.54557
1569656989.56119
1569656989.57682
1569656989.59244
1569656989.60807
1569656989.6237
1569656989.63932
1569656989.65495
1569656989.67057
1569656989.6862
1569656989.70182
1569656989.71745
1569656989.73308
1569656989.7487
1569656989.76433
1569656989.77995
1569656989.79558
1569656989.8112
1569656989.82683
1569656989.84246
1569656989.85808
1569656989.87371
1569656989.88933
1569656989.90496
1569656989.92059
1569656989.93621
1569656989.95184
1569656989.96746
1569656989.98309
1569656989.99871
1569656990.01434
1569656990.02997
1569656990.04559
1569656990.06122
1569656990.07684
1569656990.09247
1569656990.10809
1569656990.12372
1569656990.13935
1569656990.15497
1569656990.1706
1569656990.18622
1569656990.20185
1569656990.21747
1569656990.2331
1569656990.24873
1569656990.26435
1569656990.27998
1569656990.2956
1569656990.31123
1569656990.32685
1569656990.34248
1569656990.35811
1569656990.37373
1569656990.38936
1569656990.40498
1569656990.42061
1569656990.43623
1569656990.45186
1569656990.46749
1569656990.48311
1569656990.49874
1569656990.51436
1569656990.52999
1569656990.54561
1569656990.56124
1569656990.57687
1569656990.59249
1569656990.60812
1569656990.62374
1569656990.63937
1569656990.65499
1569656990.67062
1569656990.68625
1569656990.70187
1569656990.7175
1569656990.73312
1569656990.74875
1569656990.76437
1569656990.78
1569656990.79563
1569656990.81125
1569656990.82688
1569656990.8425
1569656990.85813
1569656990.87375
1569656990.88938
1569656990.90501
1569656990.92063
1569656990.93626
1569656990.95188
1569656990.96751
1569656990.98313
1569656990.99876
1569656991.01439
1569656991.03001
1569656991.04564
1569656991.06126
1569656991.07689
1569656991.09251
1569656991.10814
1569656991.12377
1569656991.13939
1569656991.15502
1569656991.17064
1569656991.18627
1569656991.20189
1569656991.21752
1569656991.23315
1569656991.24877
1569656991.2644
1569656991.28002
1569656991.29565
1569656991.31127
1569656991.3269
1569656991.34253
1569656991.35815
1569656991.37378
1569656991.3894
1569656991.40503
1569656991.42065
1569656991.43628
1569656991.45191
1569656991.46753
1569656991.48316
1569656991.49878
1569656991.51441
1569656991.53003
1569656991.54566
1569656991.56129
1569656991.57691
1569656991.59254
1569656991.60816
1569656991.62379
1569656991.63941
1569656991.65504
1569656991.67067
1569656991.68629
1569656991.70192
1569656991.71754
1569656991.73317
1569656991.74879
1569656991.76442
1569656991.78005
1569656991.79567
1569656991.8113
1569656991.82692
1569656991.84255
1569656991.85817
1569656991.8738
1569656991.88943
1569656991.90505
1569656991.92068
1569656991.9363
1569656991.95193
1569656991.96755
1569656991.98318
1569656991.99881
1569656992.01443
1569656992.03006
1569656992.04568
1569656992.06131
1569656992.07693
1569656992.09256
1569656992.10819
1569656992.12381
1569656992.13944
1569656992.15506
1569656992.17069
1569656992.18632
1569656992.20194
1569656992.21757
1569656992.23319
1569656992.24882
1569656992.26444
1569656992.28007
1569656992.2957
1569656992.31132
1569656992.32695
1569656992.34257
1569656992.3582
1569656992.37382
1569656992.38945
1569656992.40508
1569656992.4207
1569656992.43633
1569656992.45195
1569656992.46758
1569656992.4832
1569656992.49883
1569656992.51446
1569656992.53008
1569656992.54571
1569656992.56133
1569656992.57696
1569656992.59258
1569656992.60821
1569656992.62384
1569656992.63946
1569656992.65509
1569656992.67071
1569656992.68634
1569656992.70196
1569656992.71759
1569656992.73322
1569656992.74884
1569656992.76447
1569656992.78009
1569656992.79572
1569656992.81134
1569656992.82697
1569656992.8426
1569656992.85822
1569656992.87385
1569656992.88947
1569656992.9051
1569656992.92072
1569656992.93635
1569656992.95198
1569656992.9676
1569656992.98323
1569656992.99885
1569656993.01448
1569656993.0301
1569656993.04573
1569656993.06136
1569656993.07698
1569656993.09261
1569656993.10823
1569656993.12386
1569656993.13948
1569656993.15511
1569656993.17074
1569656993.18636
1569656993.20199
1569656993.21761
1569656993.23324
1569656993.24886
1569656993.26449
1569656993.28012
1569656993.29574
1569656993.31137
1569656993.32699
1569656993.34262
1569656993.35824
1569656993.37387
1569656993.3895
1569656993.40512
1569656993.42075
1569656993.43637
1569656993.452
1569656993.46762
1569656993.48325
1569656993.49888
1569656993.5145
1569656993.53013
1569656993.54575
1569656993.56138
1569656993.577
1569656993.59263
1569656993.60826
1569656993.62388
1569656993.63951
1569656993.65513
1569656993.67076
1569656993.68638
1569656993.70201
1569656993.71764
1569656993.73326
1569656993.74889
1569656993.76451
1569656993.78014
1569656993.79576
1569656993.81139
1569656993.82702
1569656993.84264
1569656993.85827
1569656993.87389
1569656993.88952
1569656993.90514
1569656993.92077
1569656993.9364
1569656993.95202
1569656993.96765
1569656993.98327
1569656993.9989
1569656994.01452
1569656994.03015
1569656994.04578
1569656994.0614
1569656994.07703
1569656994.09265
1569656994.10828
1569656994.1239
1569656994.13953
1569656994.15516
1569656994.17078
1569656994.18641
1569656994.20203
1569656994.21766
1569656994.23328
1569656994.24891
1569656994.26454
1569656994.28016
1569656994.29579
1569656994.31141
1569656994.32704
1569656994.34266
1569656994.35829
1569656994.37392
1569656994.38954
1569656994.40517
1569656994.42079
1569656994.43642
1569656994.45204
1569656994.46767
1569656994.4833
1569656994.49892
1569656994.51455
1569656994.53017
1569656994.5458
1569656994.56142
1569656994.57705
1569656994.59268
1569656994.6083
1569656994.62393
1569656994.63955
1569656994.65518
1569656994.6708
1569656994.68643
1569656994.70206
1569656994.71768
1569656994.73331
1569656994.74893
1569656994.76456
1569656994.78019
1569656994.79581
1569656994.81144
1569656994.82706
1569656994.84269
1569656994.85831
1569656994.87394
1569656994.88957
1569656994.90519
1569656994.92082
1569656994.93644
1569656994.95207
1569656994.96769
1569656994.98332
1569656994.99895
1569656995.01457
1569656995.0302
1569656995.04582
1569656995.06145
1569656995.07707
1569656995.0927
1569656995.10833
1569656995.12395
1569656995.13958
1569656995.1552
1569656995.17083
1569656995.18645
1569656995.20208
1569656995.21771
1569656995.23333
1569656995.24896
1569656995.26458
1569656995.28021
1569656995.29583
1569656995.31146
1569656995.32709
1569656995.34271
1569656995.35834
1569656995.37396
1569656995.38959
1569656995.40521
1569656995.42084
1569656995.43647
1569656995.45209
1569656995.46772
1569656995.48334
1569656995.49897
1569656995.51459
1569656995.53022
1569656995.54585
1569656995.56147
1569656995.5771
1569656995.59272
1569656995.60835
1569656995.62397
1569656995.6396
1569656995.65523
1569656995.67085
1569656995.68648
1569656995.7021
1569656995.71773
1569656995.73335
1569656995.74898
1569656995.76461
1569656995.78023
1569656995.79586
1569656995.81148
1569656995.82711
1569656995.84273
1569656995.85836
1569656995.87399
1569656995.88961
1569656995.90524
1569656995.92086
1569656995.93649
1569656995.95211
1569656995.96774
1569656995.98337
1569656995.99899
1569656996.01462
1569656996.03024
1569656996.04587
1569656996.06149
1569656996.07712
1569656996.09275
1569656996.10837
1569656996.124
1569656996.13962
1569656996.15525
1569656996.17087
1569656996.1865
1569656996.20213
1569656996.21775
1569656996.23338
1569656996.249
1569656996.26463
1569656996.28025
1569656996.29588
1569656996.31151
1569656996.32713
1569656996.34276
1569656996.35838
1569656996.37401
1569656996.38963
1569656996.40526
1569656996.42089
1569656996.43651
1569656996.45214
1569656996.46776
1569656996.48339
1569656996.49901
1569656996.51464
1569656996.53027
1569656996.54589
1569656996.56152
1569656996.57714
1569656996.59277
1569656996.60839
1569656996.62402
1569656996.63965
1569656996.65527
1569656996.6709
1569656996.68652
1569656996.70215
1569656996.71777
1569656996.7334
1569656996.74903
1569656996.76465
1569656996.78028
1569656996.7959
1569656996.81153
1569656996.82715
1569656996.84278
1569656996.85841
1569656996.87403
1569656996.88966
1569656996.90528
1569656996.92091
1569656996.93653
1569656996.95216
1569656996.96779
1569656996.98341
1569656996.99904
1569656997.01466
1569656997.03029
1569656997.04592
1569656997.06154
1569656997.07717
1569656997.09279
1569656997.10842
1569656997.12404
1569656997.13967
1569656997.1553
1569656997.17092
1569656997.18655
1569656997.20217
1569656997.2178
1569656997.23342
1569656997.24905
1569656997.26468
1569656997.2803
1569656997.29593
1569656997.31155
1569656997.32718
1569656997.3428
1569656997.35843
1569656997.37406
1569656997.38968
1569656997.40531
1569656997.42093
1569656997.43656
1569656997.45218
1569656997.46781
1569656997.48344
1569656997.49906
1569656997.51469
1569656997.53031
1569656997.54594
1569656997.56156
1569656997.57719
1569656997.59282
1569656997.60844
1569656997.62407
1569656997.63969
1569656997.65532
1569656997.67094
1569656997.68657
1569656997.7022
1569656997.71782
1569656997.73345
1569656997.74907
1569656997.7647
1569656997.78032
1569656997.79595
1569656997.81158
1569656997.8272
1569656997.84283
1569656997.85845
1569656997.87408
1569656997.8897
1569656997.90533
1569656997.92096
1569656997.93658
1569656997.95221
1569656997.96783
1569656997.98346
1569656997.99908
1569656998.01471
1569656998.03034
1569656998.04596
1569656998.06159
1569656998.07721
1569656998.09284
1569656998.10846
1569656998.12409
1569656998.13972
1569656998.15534
1569656998.17097
1569656998.18659
1569656998.20222
1569656998.21784
1569656998.23347
1569656998.2491
1569656998.26472
1569656998.28035
1569656998.29597
1569656998.3116
1569656998.32722
1569656998.34285
1569656998.35848
1569656998.3741
1569656998.38973
1569656998.40535
1569656998.42098
1569656998.4366
1569656998.45223
1569656998.46786
1569656998.48348
1569656998.49911
1569656998.51473
1569656998.53036
1569656998.54598
1569656998.56161
1569656998.57724
1569656998.59286
1569656998.60849
1569656998.62411
1569656998.63974
1569656998.65536
1569656998.67099
1569656998.68662
1569656998.70224
1569656998.71787
1569656998.73349
1569656998.74912
1569656998.76474
1569656998.78037
1569656998.796
1569656998.81162
1569656998.82725
1569656998.84287
1569656998.8585
1569656998.87412
1569656998.88975
1569656998.90538
1569656998.921
1569656998.93663
1569656998.95225
1569656998.96788
1569656998.9835
1569656998.99913
1569656999.01476
1569656999.03038
1569656999.04601
1569656999.06163
1569656999.07726
1569656999.09288
1569656999.10851
1569656999.12414
1569656999.13976
1569656999.15539
1569656999.17101
1569656999.18664
1569656999.20227
1569656999.21789
1569656999.23352
1569656999.24914
1569656999.26477
1569656999.28039
1569656999.29602
1569656999.31165
1569656999.32727
1569656999.3429
1569656999.35852
1569656999.37415
1569656999.38977
1569656999.4054
1569656999.42103
1569656999.43665
1569656999.45228
1569656999.4679
1569656999.48353
1569656999.49915
1569656999.51478
1569656999.53041
1569656999.54603
1569656999.56166
1569656999.57728
1569656999.59291
1569656999.60853
1569656999.62416
1569656999.63979
1569656999.65541
1569656999.67104
1569656999.68666
1569656999.70229
1569656999.71791
1569656999.73354
1569656999.74917
1569656999.76479
1569656999.78042
1569656999.79604
1569656999.81167
1569656999.82729
1569656999.84292
1569656999.85855
1569656999.87417
1569656999.8898
1569656999.90542
1569656999.92105
1569656999.93667
1569656999.9523
1569656999.96793
1569656999.98355
1569656999.99918
1569657000.0148
1569657000.03043
1569657000.04605
1569657000.06168
1569657000.07731
1569657000.09293
1569657000.10856
1569657000.12418
1569657000.13981
1569657000.15543
1569657000.17106
1569657000.18669
1569657000.20231
1569657000.21794
1569657000.23356
1569657000.24919
1569657000.26481
1569657000.28044
1569657000.29607
1569657000.31169
1569657000.32732
1569657000.34294
1569657000.35857
1569657000.37419
1569657000.38982
1569657000.40545
1569657000.42107
1569657000.4367
1569657000.45232
1569657000.46795
1569657000.48357
1569657000.4992
1569657000.51483
1569657000.53045
1569657000.54608
1569657000.5617
1569657000.57733
1569657000.59295
1569657000.60858
1569657000.62421
1569657000.63983
1569657000.65546
1569657000.67108
1569657000.68671
1569657000.70233
1569657000.71796
1569657000.73359
1569657000.74921
1569657000.76484
1569657000.78046
1569657000.79609
1569657000.81171
1569657000.82734
1569657000.84297
1569657000.85859
1569657000.87422
1569657000.88984
1569657000.90547
1569657000.92109
1569657000.93672
1569657000.95235
1569657000.96797
1569657000.9836
1569657000.99922
1569657001.01485
1569657001.03047
1569657001.0461
1569657001.06173
1569657001.07735
1569657001.09298
1569657001.1086
1569657001.12423
1569657001.13985
1569657001.15548
1569657001.17111
1569657001.18673
1569657001.20236
1569657001.21798
1569657001.23361
1569657001.24923
1569657001.26486
1569657001.28049
1569657001.29611
1569657001.31174
1569657001.32736
1569657001.34299
1569657001.35861
1569657001.37424
1569657001.38987
1569657001.40549
1569657001.42112
1569657001.43674
1569657001.45237
1569657001.46799
1569657001.48362
1569657001.49925
1569657001.51487
1569657001.5305
1569657001.54612
1569657001.56175
1569657001.57737
1569657001.593
1569657001.60863
1569657001.62425
1569657001.63988
1569657001.6555
1569657001.67113
1569657001.68675
1569657001.70238
1569657001.71801
1569657001.73363
1569657001.74926
1569657001.76488
1569657001.78051
1569657001.79613
1569657001.81176
1569657001.82739
1569657001.84301
1569657001.85864
1569657001.87426
1569657001.88989
1569657001.90552
1569657001.92114
1569657001.93677
1569657001.95239
1569657001.96802
1569657001.98364
1569657001.99927
1569657002.0149
1569657002.03052
1569657002.04615
1569657002.06177
1569657002.0774
1569657002.09302
1569657002.10865
1569657002.12428
1569657002.1399
1569657002.15553
1569657002.17115
1569657002.18678
1569657002.2024
1569657002.21803
1569657002.23366
1569657002.24928
1569657002.26491
1569657002.28053
1569657002.29616
1569657002.31178
1569657002.32741
1569657002.34304
1569657002.35866
1569657002.37429
1569657002.38991
1569657002.40554
1569657002.42116
1569657002.43679
1569657002.45242
1569657002.46804
1569657002.48367
1569657002.49929
1569657002.51492
1569657002.53054
1569657002.54617
1569657002.5618
1569657002.57742
1569657002.59305
1569657002.60867
1569657002.6243
1569657002.63992
1569657002.65555
1569657002.67118
1569657002.6868
1569657002.70243
1569657002.71805
1569657002.73368
1569657002.7493
1569657002.76493
1569657002.78056
1569657002.79618
1569657002.81181
1569657002.82743
1569657002.84306
1569657002.85868
1569657002.87431
1569657002.88994
1569657002.90556
1569657002.92119
1569657002.93681
1569657002.95244
1569657002.96806
1569657002.98369
1569657002.99932
1569657003.01494
1569657003.03057
1569657003.04619
1569657003.06182
1569657003.07744
1569657003.09307
1569657003.1087
1569657003.12432
1569657003.13995
1569657003.15557
1569657003.1712
1569657003.18682
1569657003.20245
1569657003.21808
1569657003.2337
1569657003.24933
1569657003.26495
1569657003.28058
1569657003.2962
1569657003.31183
1569657003.32746
1569657003.34308
1569657003.35871
1569657003.37433
1569657003.38996
1569657003.40558
1569657003.42121
1569657003.43684
1569657003.45246
1569657003.46809
1569657003.48371
1569657003.49934
1569657003.51496
1569657003.53059
1569657003.54622
1569657003.56184
1569657003.57747
1569657003.59309
1569657003.60872
1569657003.62434
1569657003.63997
1569657003.6556
1569657003.67122
1569657003.68685
1569657003.70247
1569657003.7181
1569657003.73372
1569657003.74935
1569657003.76498
1569657003.7806
1569657003.79623
1569657003.81185
1569657003.82748
1569657003.8431
1569657003.85873
1569657003.87436
1569657003.88998
1569657003.90561
1569657003.92123
1569657003.93686
1569657003.95248
1569657003.96811
1569657003.98374
1569657003.99936
1569657004.01499
1569657004.03061
1569657004.04624
1569657004.06186
1569657004.07749
1569657004.09312
1569657004.10874
1569657004.12437
1569657004.13999
1569657004.15562
1569657004.17125
1569657004.18687
1569657004.2025
1569657004.21812
1569657004.23375
1569657004.24937
1569657004.265
1569657004.28063
1569657004.29625
1569657004.31188
1569657004.3275
1569657004.34313
1569657004.35875
1569657004.37438
1569657004.39001
1569657004.40563
1569657004.42126
1569657004.43688
1569657004.45251
1569657004.46813
1569657004.48376
1569657004.49939
1569657004.51501
1569657004.53064
1569657004.54626
1569657004.56189
1569657004.57751
1569657004.59314
1569657004.60877
1569657004.62439
1569657004.64002
1569657004.65564
1569657004.67127
1569657004.68689
1569657004.70252
1569657004.71815
1569657004.73377
1569657004.7494
1569657004.76502
1569657004.78065
1569657004.79627
1569657004.8119
1569657004.82753
1569657004.84315
1569657004.85878
1569657004.8744
1569657004.89003
1569657004.90565
1569657004.92128
1569657004.93691
1569657004.95253
1569657004.96816
1569657004.98378
1569657004.99941
1569657005.01503
1569657005.03066
1569657005.04629
1569657005.06191
1569657005.07754
1569657005.09316
1569657005.10879
1569657005.12441
1569657005.14004
1569657005.15567
1569657005.17129
1569657005.18692
1569657005.20254
1569657005.21817
1569657005.23379
1569657005.24942
1569657005.26505
1569657005.28067
1569657005.2963
1569657005.31192
1569657005.32755
1569657005.34317
1569657005.3588
1569657005.37443
1569657005.39005
1569657005.40568
1569657005.4213
1569657005.43693
1569657005.45255
1569657005.46818
1569657005.48381
1569657005.49943
1569657005.51506
1569657005.53068
1569657005.54631
1569657005.56193
1569657005.57756
1569657005.59319
1569657005.60881
1569657005.62444
1569657005.64006
1569657005.65569
1569657005.67131
1569657005.68694
1569657005.70257
1569657005.71819
1569657005.73382
1569657005.74944
1569657005.76507
1569657005.78069
1569657005.79632
1569657005.81195
1569657005.82757
1569657005.8432
1569657005.85882
1569657005.87445
1569657005.89007
1569657005.9057
1569657005.92133
1569657005.93695
1569657005.95258
1569657005.9682
1569657005.98383
1569657005.99945
1569657006.01508
1569657006.03071
1569657006.04633
1569657006.06196
1569657006.07758
1569657006.09321
1569657006.10883
1569657006.12446
1569657006.14009
1569657006.15571
1569657006.17134
1569657006.18696
1569657006.20259
1569657006.21821
1569657006.23384
1569657006.24947
1569657006.26509
1569657006.28072
1569657006.29634
1569657006.31197
1569657006.3276
1569657006.34322
1569657006.35885
1569657006.37447
1569657006.3901
1569657006.40572
1569657006.42135
1569657006.43698
1569657006.4526
1569657006.46823
1569657006.48385
1569657006.49948
1569657006.5151
1569657006.53073
1569657006.54636
1569657006.56198
1569657006.57761
1569657006.59323
1569657006.60886
1569657006.62448
1569657006.64011
1569657006.65574
1569657006.67136
1569657006.68699
1569657006.70261
1569657006.71824
1569657006.73386
1569657006.74949
1569657006.76512
1569657006.78074
1569657006.79637
1569657006.81199
1569657006.82762
1569657006.84324
1569657006.85887
1569657006.8745
1569657006.89012
1569657006.90575
1569657006.92137
1569657006.937
1569657006.95262
1569657006.96825
1569657006.98388
1569657006.9995
1569657007.01513
1569657007.03075
1569657007.04638
1569657007.062
1569657007.07763
1569657007.09326
1569657007.10888
1569657007.12451
1569657007.14013
1569657007.15576
1569657007.17138
1569657007.18701
1569657007.20264
1569657007.21826
1569657007.23389
1569657007.24951
1569657007.26514
1569657007.28076
1569657007.29639
1569657007.31202
1569657007.32764
1569657007.34327
1569657007.35889
1569657007.37452
1569657007.39014
1569657007.40577
1569657007.4214
1569657007.43702
1569657007.45265
1569657007.46827
1569657007.4839
1569657007.49952
1569657007.51515
1569657007.53078
1569657007.5464
1569657007.56203
1569657007.57765
1569657007.59328
1569657007.6089
1569657007.62453
1569657007.64016
1569657007.65578
1569657007.67141
1569657007.68703
1569657007.70266
1569657007.71828
1569657007.73391
1569657007.74954
1569657007.76516
1569657007.78079
1569657007.79641
1569657007.81204
1569657007.82766
1569657007.84329
1569657007.85892
1569657007.87454
1569657007.89017
1569657007.90579
1569657007.92142
1569657007.93704
1569657007.95267
1569657007.9683
1569657007.98392
1569657007.99955
1569657008.01517
1569657008.0308
1569657008.04642
1569657008.06205
1569657008.07768
1569657008.0933
1569657008.10893
1569657008.12455
1569657008.14018
1569657008.1558
1569657008.17143
1569657008.18706
1569657008.20268
1569657008.21831
1569657008.23393
1569657008.24956
1569657008.26518
1569657008.28081
1569657008.29644
1569657008.31206
1569657008.32769
1569657008.34331
1569657008.35894
1569657008.37456
1569657008.39019
1569657008.40582
1569657008.42144
1569657008.43707
1569657008.45269
1569657008.46832
1569657008.48394
1569657008.49957
1569657008.5152
1569657008.53082
1569657008.54645
1569657008.56207
1569657008.5777
1569657008.59332
1569657008.60895
1569657008.62458
1569657008.6402
1569657008.65583
1569657008.67145
1569657008.68708
1569657008.7027
1569657008.71833
1569657008.73396
1569657008.74958
1569657008.76521
1569657008.78083
1569657008.79646
1569657008.81208
1569657008.82771
1569657008.84334
1569657008.85896
1569657008.87459
1569657008.89021
1569657008.90584
1569657008.92146
1569657008.93709
1569657008.95272
1569657008.96834
1569657008.98397
1569657008.99959
1569657009.01522
1569657009.03085
1569657009.04647
1569657009.0621
1569657009.07772
1569657009.09335
1569657009.10897
1569657009.1246
1569657009.14023
1569657009.15585
1569657009.17148
1569657009.1871
1569657009.20273
1569657009.21835
1569657009.23398
1569657009.24961
1569657009.26523
1569657009.28086
1569657009.29648
1569657009.31211
1569657009.32773
1569657009.34336
1569657009.35899
1569657009.37461
1569657009.39024
1569657009.40586
1569657009.42149
1569657009.43711
1569657009.45274
1569657009.46837
1569657009.48399
1569657009.49962
1569657009.51524
1569657009.53087
1569657009.54649
1569657009.56212
1569657009.57775
1569657009.59337
1569657009.609
1569657009.62462
1569657009.64025
1569657009.65587
1569657009.6715
1569657009.68713
1569657009.70275
1569657009.71838
1569657009.734
1569657009.74963
1569657009.76525
1569657009.78088
1569657009.79651
1569657009.81213
1569657009.82776
1569657009.84338
1569657009.85901
1569657009.87463
1569657009.89026
1569657009.90589
1569657009.92151
1569657009.93714
1569657009.95276
1569657009.96839
1569657009.98401
1569657009.99964
1569657010.01527
1569657010.03089
1569657010.04652
1569657010.06214
1569657010.07777
1569657010.09339
1569657010.10902
1569657010.12465
1569657010.14027
1569657010.1559
1569657010.17152
1569657010.18715
1569657010.20277
1569657010.2184
1569657010.23403
1569657010.24965
1569657010.26528
1569657010.2809
1569657010.29653
1569657010.31215
1569657010.32778
1569657010.34341
1569657010.35903
1569657010.37466
1569657010.39028
1569657010.40591
1569657010.42153
1569657010.43716
1569657010.45279
1569657010.46841
1569657010.48404
1569657010.49966
1569657010.51529
1569657010.53091
1569657010.54654
1569657010.56217
1569657010.57779
1569657010.59342
1569657010.60904
1569657010.62467
1569657010.64029
1569657010.65592
1569657010.67155
1569657010.68717
1569657010.7028
1569657010.71842
1569657010.73405
1569657010.74967
1569657010.7653
1569657010.78093
1569657010.79655
1569657010.81218
1569657010.8278
1569657010.84343
1569657010.85905
1569657010.87468
1569657010.89031
1569657010.90593
1569657010.92156
1569657010.93718
1569657010.95281
1569657010.96843
1569657010.98406
1569657010.99969
1569657011.01531
1569657011.03094
1569657011.04656
1569657011.06219
1569657011.07781
1569657011.09344
1569657011.10907
1569657011.12469
1569657011.14032
1569657011.15594
1569657011.17157
1569657011.1872
1569657011.20282
1569657011.21845
1569657011.23407
1569657011.2497
1569657011.26532
1569657011.28095
1569657011.29658
1569657011.3122
1569657011.32783
1569657011.34345
1569657011.35908
1569657011.3747
1569657011.39033
1569657011.40596
1569657011.42158
1569657011.43721
1569657011.45283
1569657011.46846
1569657011.48408
1569657011.49971
1569657011.51534
1569657011.53096
1569657011.54659
1569657011.56221
1569657011.57784
1569657011.59346
1569657011.60909
1569657011.62472
1569657011.64034
1569657011.65597
1569657011.67159
1569657011.68722
1569657011.70284
1569657011.71847
1569657011.7341
1569657011.74972
1569657011.76535
1569657011.78097
1569657011.7966
1569657011.81222
1569657011.82785
1569657011.84348
1569657011.8591
1569657011.87473
1569657011.89035
1569657011.90598
1569657011.9216
1569657011.93723
1569657011.95286
1569657011.96848
1569657011.98411
1569657011.99973
1569657012.01536
1569657012.03098
1569657012.04661
1569657012.06224
1569657012.07786
1569657012.09349
1569657012.10911
1569657012.12474
1569657012.14036
1569657012.15599
1569657012.17162
1569657012.18724
1569657012.20287
1569657012.21849
1569657012.23412
1569657012.24974
1569657012.26537
1569657012.281
1569657012.29662
1569657012.31225
1569657012.32787
1569657012.3435
1569657012.35912
1569657012.37475
1569657012.39038
1569657012.406
1569657012.42163
1569657012.43725
1569657012.45288
1569657012.4685
1569657012.48413
1569657012.49976
1569657012.51538
1569657012.53101
1569657012.54663
1569657012.56226
1569657012.57788
1569657012.59351
1569657012.60914
1569657012.62476
1569657012.64039
1569657012.65601
1569657012.67164
1569657012.68726
1569657012.70289
1569657012.71852
1569657012.73414
1569657012.74977
1569657012.76539
1569657012.78102
1569657012.79664
1569657012.81227
1569657012.8279
1569657012.84352
1569657012.85915
1569657012.87477
1569657012.8904
1569657012.90602
1569657012.92165
1569657012.93728
1569657012.9529
1569657012.96853
1569657012.98415
1569657012.99978
1569657013.0154
1569657013.03103
1569657013.04666
1569657013.06228
1569657013.07791
1569657013.09353
1569657013.10916
1569657013.12478
1569657013.14041
1569657013.15604
1569657013.17166
1569657013.18729
1569657013.20291
1569657013.21854
1569657013.23416
1569657013.24979
1569657013.26542
1569657013.28104
1569657013.29667
1569657013.31229
1569657013.32792
1569657013.34354
1569657013.35917
1569657013.3748
1569657013.39042
1569657013.40605
1569657013.42167
1569657013.4373
1569657013.45292
1569657013.46855
1569657013.48418
1569657013.4998
1569657013.51543
1569657013.53105
1569657013.54668
1569657013.5623
1569657013.57793
1569657013.59356
1569657013.60918
1569657013.62481
1569657013.64043
1569657013.65606
1569657013.67168
1569657013.68731
1569657013.70294
1569657013.71856
1569657013.73419
1569657013.74981
1569657013.76544
1569657013.78106
1569657013.79669
1569657013.81232
1569657013.82794
1569657013.84357
1569657013.85919
1569657013.87482
1569657013.89045
1569657013.90607
1569657013.9217
1569657013.93732
1569657013.95295
1569657013.96857
1569657013.9842
1569657013.99983
1569657014.01545
1569657014.03108
1569657014.0467
1569657014.06233
1569657014.07795
1569657014.09358
1569657014.10921
1569657014.12483
1569657014.14046
1569657014.15608
1569657014.17171
1569657014.18733
1569657014.20296
1569657014.21859
1569657014.23421
1569657014.24984
1569657014.26546
1569657014.28109
1569657014.29671
1569657014.31234
1569657014.32797
1569657014.34359
1569657014.35922
1569657014.37484
1569657014.39047
1569657014.40609
1569657014.42172
1569657014.43735
1569657014.45297
1569657014.4686
1569657014.48422
1569657014.49985
1569657014.51547
1569657014.5311
1569657014.54673
1569657014.56235
1569657014.57798
1569657014.5936
1569657014.60923
1569657014.62485
1569657014.64048
1569657014.65611
1569657014.67173
1569657014.68736
1569657014.70298
1569657014.71861
1569657014.73423
1569657014.74986
1569657014.76549
1569657014.78111
1569657014.79674
1569657014.81236
1569657014.82799
1569657014.84361
1569657014.85924
1569657014.87487
1569657014.89049
1569657014.90612
1569657014.92174
1569657014.93737
1569657014.95299
1569657014.96862
1569657014.98425
1569657014.99987
1569657015.0155
1569657015.03112
1569657015.04675
1569657015.06237
1569657015.078
1569657015.09363
1569657015.10925
1569657015.12488
1569657015.1405
1569657015.15613
1569657015.17175
1569657015.18738
1569657015.20301
1569657015.21863
1569657015.23426
1569657015.24988
1569657015.26551
1569657015.28113
1569657015.29676
1569657015.31239
1569657015.32801
1569657015.34364
1569657015.35926
1569657015.37489
1569657015.39051
1569657015.40614
1569657015.42177
1569657015.43739
1569657015.45302
1569657015.46864
1569657015.48427
1569657015.49989
1569657015.51552
1569657015.53115
1569657015.54677
1569657015.5624
1569657015.57802
1569657015.59365
1569657015.60927
1569657015.6249
1569657015.64053
1569657015.65615
1569657015.67178
1569657015.6874
1569657015.70303
1569657015.71865
1569657015.73428
1569657015.74991
1569657015.76553
1569657015.78116
1569657015.79678
1569657015.81241
1569657015.82803
1569657015.84366
1569657015.85929
1569657015.87491
1569657015.89054
1569657015.90616
1569657015.92179
1569657015.93741
1569657015.95304
1569657015.96867
1569657015.98429
1569657015.99992
1569657016.01554
1569657016.03117
1569657016.0468
1569657016.06242
1569657016.07805
1569657016.09367
1569657016.1093
1569657016.12492
1569657016.14055
1569657016.15618
1569657016.1718
1569657016.18743
1569657016.20305
1569657016.21868
1569657016.2343
1569657016.24993
1569657016.26556
1569657016.28118
1569657016.29681
1569657016.31243
1569657016.32806
1569657016.34368
1569657016.35931
1569657016.37494
1569657016.39056
1569657016.40619
1569657016.42181
1569657016.43744
1569657016.45306
1569657016.46869
1569657016.48432
1569657016.49994
1569657016.51557
1569657016.53119
1569657016.54682
1569657016.56244
1569657016.57807
1569657016.5937
1569657016.60932
1569657016.62495
1569657016.64057
1569657016.6562
1569657016.67182
1569657016.68745
1569657016.70308
1569657016.7187
1569657016.73433
1569657016.74995
1569657016.76558
1569657016.7812
1569657016.79683
1569657016.81246
1569657016.82808
1569657016.84371
1569657016.85933
1569657016.87496
1569657016.89058
1569657016.90621
1569657016.92184
1569657016.93746
1569657016.95309
1569657016.96871
1569657016.98434
1569657016.99996
1569657017.01559
1569657017.03122
1569657017.04684
1569657017.06247
1569657017.07809
1569657017.09372
1569657017.10934
1569657017.12497
1569657017.1406
1569657017.15622
1569657017.17185
1569657017.18747
1569657017.2031
1569657017.21872
1569657017.23435
1569657017.24998
1569657017.2656
1569657017.28123
1569657017.29685
1569657017.31248
1569657017.3281
1569657017.34373
1569657017.35936
1569657017.37498
1569657017.39061
1569657017.40623
1569657017.42186
1569657017.43748
1569657017.45311
1569657017.46874
1569657017.48436
1569657017.49999
1569657017.51561
1569657017.53124
1569657017.54686
1569657017.56249
1569657017.57812
1569657017.59374
1569657017.60937
1569657017.62499
1569657017.64062
1569657017.65624
1569657017.67187
1569657017.6875
1569657017.70312
1569657017.71875
1569657017.73437
1569657017.75
1569657017.76562
1569657017.78125
1569657017.79688
1569657017.8125
1569657017.82813
1569657017.84375
1569657017.85938
1569657017.875
1569657017.89063
1569657017.90626
1569657017.92188
1569657017.93751
1569657017.95313
1569657017.96876
1569657017.98438
1569657018.00001
1569657018.01564
1569657018.03126
1569657018.04689
1569657018.06251
1569657018.07814
1569657018.09376
1569657018.10939
1569657018.12502
1569657018.14064
1569657018.15627
1569657018.17189
1569657018.18752
1569657018.20314
1569657018.21877
1569657018.2344
1569657018.25002
1569657018.26565
1569657018.28127
1569657018.2969
1569657018.31253
1569657018.32815
1569657018.34378
1569657018.3594
1569657018.37503
1569657018.39065
1569657018.40628
1569657018.42191
1569657018.43753
1569657018.45316
1569657018.46878
1569657018.48441
1569657018.50003
1569657018.51566
1569657018.53129
1569657018.54691
1569657018.56254
1569657018.57816
1569657018.59379
1569657018.60941
1569657018.62504
1569657018.64067
1569657018.65629
1569657018.67192
1569657018.68754
1569657018.70317
1569657018.71879
1569657018.73442
1569657018.75005
1569657018.76567
1569657018.7813
1569657018.79692
1569657018.81255
1569657018.82817
1569657018.8438
1569657018.85943
1569657018.87505
1569657018.89068
1569657018.9063
1569657018.92193
1569657018.93755
1569657018.95318
1569657018.96881
1569657018.98443
1569657019.00006
1569657019.01568
1569657019.03131
1569657019.04693
1569657019.06256
1569657019.07819
1569657019.09381
1569657019.10944
1569657019.12506
1569657019.14069
1569657019.15631
1569657019.17194
1569657019.18757
1569657019.20319
1569657019.21882
1569657019.23444
1569657019.25007
1569657019.26569
1569657019.28132
1569657019.29695
1569657019.31257
1569657019.3282
1569657019.34382
1569657019.35945
1569657019.37507
1569657019.3907
1569657019.40633
1569657019.42195
1569657019.43758
1569657019.4532
1569657019.46883
1569657019.48445
1569657019.50008
1569657019.51571
1569657019.53133
1569657019.54696
1569657019.56258
1569657019.57821
1569657019.59383
1569657019.60946
1569657019.62509
1569657019.64071
1569657019.65634
1569657019.67196
1569657019.68759
1569657019.70321
1569657019.71884
1569657019.73447
1569657019.75009
1569657019.76572
1569657019.78134
1569657019.79697
1569657019.81259
1569657019.82822
1569657019.84385
1569657019.85947
1569657019.8751
1569657019.89072
1569657019.90635
1569657019.92197
1569657019.9376
1569657019.95323
1569657019.96885
1569657019.98448
1569657020.0001
1569657020.01573
1569657020.03135
1569657020.04698
1569657020.06261
1569657020.07823
1569657020.09386
1569657020.10948
1569657020.12511
1569657020.14073
1569657020.15636
1569657020.17199
1569657020.18761
1569657020.20324
1569657020.21886
1569657020.23449
1569657020.25011
1569657020.26574
1569657020.28137
1569657020.29699
1569657020.31262
1569657020.32824
1569657020.34387
1569657020.35949
1569657020.37512
1569657020.39075
1569657020.40637
1569657020.422
1569657020.43762
1569657020.45325
1569657020.46887
1569657020.4845
1569657020.50013
1569657020.51575
1569657020.53138
1569657020.547
1569657020.56263
1569657020.57825
1569657020.59388
1569657020.60951
1569657020.62513
1569657020.64076
1569657020.65638
1569657020.67201
1569657020.68763
1569657020.70326
1569657020.71889
1569657020.73451
1569657020.75014
1569657020.76576
1569657020.78139
1569657020.79701
1569657020.81264
1569657020.82827
1569657020.84389
1569657020.85952
1569657020.87514
1569657020.89077
1569657020.9064
1569657020.92202
1569657020.93765
1569657020.95327
1569657020.9689
1569657020.98452
1569657021.00015
1569657021.01578
1569657021.0314
1569657021.04703
1569657021.06265
1569657021.07828
1569657021.0939
1569657021.10953
1569657021.12516
1569657021.14078
1569657021.15641
1569657021.17203
1569657021.18766
1569657021.20328
1569657021.21891
1569657021.23454
1569657021.25016
1569657021.26579
1569657021.28141
1569657021.29704
1569657021.31266
1569657021.32829
1569657021.34392
1569657021.35954
1569657021.37517
1569657021.39079
1569657021.40642
1569657021.42204
1569657021.43767
1569657021.4533
1569657021.46892
1569657021.48455
1569657021.50017
1569657021.5158
1569657021.53142
1569657021.54705
1569657021.56268
1569657021.5783
1569657021.59393
1569657021.60955
1569657021.62518
1569657021.6408
1569657021.65643
1569657021.67206
1569657021.68768
1569657021.70331
1569657021.71893
1569657021.73456
1569657021.75018
1569657021.76581
1569657021.78144
1569657021.79706
1569657021.81269
1569657021.82831
1569657021.84394
1569657021.85956
1569657021.87519
1569657021.89082
1569657021.90644
1569657021.92207
1569657021.93769
1569657021.95332
1569657021.96894
1569657021.98457
1569657022.0002
1569657022.01582
1569657022.03145
1569657022.04707
1569657022.0627
1569657022.07832
1569657022.09395
1569657022.10958
1569657022.1252
1569657022.14083
1569657022.15645
1569657022.17208
1569657022.1877
1569657022.20333
1569657022.21896
1569657022.23458
1569657022.25021
1569657022.26583
1569657022.28146
1569657022.29708
1569657022.31271
1569657022.32834
1569657022.34396
1569657022.35959
1569657022.37521
1569657022.39084
1569657022.40646
1569657022.42209
1569657022.43772
1569657022.45334
1569657022.46897
1569657022.48459
1569657022.50022
1569657022.51584
1569657022.53147
1569657022.5471
1569657022.56272
1569657022.57835
1569657022.59397
1569657022.6096
1569657022.62522
1569657022.64085
1569657022.65648
1569657022.6721
1569657022.68773
1569657022.70335
1569657022.71898
1569657022.7346
1569657022.75023
1569657022.76586
1569657022.78148
1569657022.79711
1569657022.81273
1569657022.82836
1569657022.84398
1569657022.85961
1569657022.87524
1569657022.89086
1569657022.90649
1569657022.92211
1569657022.93774
1569657022.95336
1569657022.96899
1569657022.98462
1569657023.00024
1569657023.01587
1569657023.03149
1569657023.04712
1569657023.06274
1569657023.07837
1569657023.094
1569657023.10962
1569657023.12525
1569657023.14087
1569657023.1565
1569657023.17213
1569657023.18775
1569657023.20338
1569657023.219
1569657023.23463
1569657023.25025
1569657023.26588
1569657023.28151
1569657023.29713
1569657023.31276
1569657023.32838
1569657023.34401
1569657023.35963
1569657023.37526
1569657023.39089
1569657023.40651
1569657023.42214
1569657023.43776
1569657023.45339
1569657023.46901
1569657023.48464
1569657023.50027
1569657023.51589
1569657023.53152
1569657023.54714
1569657023.56277
1569657023.57839
1569657023.59402
1569657023.60965
1569657023.62527
1569657023.6409
1569657023.65652
1569657023.67215
1569657023.68777
1569657023.7034
1569657023.71903
1569657023.73465
1569657023.75028
1569657023.7659
1569657023.78153
1569657023.79715
1569657023.81278
1569657023.82841
1569657023.84403
1569657023.85966
1569657023.87528
1569657023.89091
1569657023.90653
1569657023.92216
1569657023.93779
1569657023.95341
1569657023.96904
1569657023.98466
1569657024.00029
1569657024.01591
1569657024.03154
1569657024.04717
1569657024.06279
1569657024.07842
1569657024.09404
1569657024.10967
1569657024.12529
1569657024.14092
1569657024.15655
1569657024.17217
1569657024.1878
1569657024.20342
1569657024.21905
1569657024.23467
1569657024.2503
1569657024.26593
1569657024.28155
1569657024.29718
1569657024.3128
1569657024.32843
1569657024.34405
1569657024.35968
1569657024.37531
1569657024.39093
1569657024.40656
1569657024.42218
1569657024.43781
1569657024.45343
1569657024.46906
1569657024.48469
1569657024.50031
1569657024.51594
1569657024.53156
1569657024.54719
1569657024.56281
1569657024.57844
1569657024.59407
1569657024.60969
1569657024.62532
1569657024.64094
1569657024.65657
1569657024.67219
1569657024.68782
1569657024.70345
1569657024.71907
1569657024.7347
1569657024.75032
1569657024.76595
1569657024.78157
1569657024.7972
1569657024.81283
1569657024.82845
1569657024.84408
1569657024.8597
1569657024.87533
1569657024.89095
1569657024.90658
1569657024.92221
1569657024.93783
1569657024.95346
1569657024.96908
1569657024.98471
1569657025.00033
1569657025.01596
1569657025.03159
1569657025.04721
1569657025.06284
1569657025.07846
1569657025.09409
1569657025.10971
1569657025.12534
1569657025.14097
1569657025.15659
1569657025.17222
1569657025.18784
1569657025.20347
1569657025.21909
1569657025.23472
1569657025.25035
1569657025.26597
1569657025.2816
1569657025.29722
1569657025.31285
1569657025.32848
1569657025.3441
1569657025.35973
1569657025.37535
1569657025.39098
1569657025.4066
1569657025.42223
1569657025.43786
1569657025.45348
1569657025.46911
1569657025.48473
1569657025.50036
1569657025.51598
1569657025.53161
1569657025.54724
1569657025.56286
1569657025.57849
1569657025.59411
1569657025.60974
1569657025.62536
1569657025.64099
1569657025.65662
1569657025.67224
1569657025.68787
1569657025.70349
1569657025.71912
1569657025.73474
1569657025.75037
1569657025.766
1569657025.78162
1569657025.79725
1569657025.81287
1569657025.8285
1569657025.84412
1569657025.85975
1569657025.87538
1569657025.891
1569657025.90663
1569657025.92225
1569657025.93788
1569657025.9535
1569657025.96913
1569657025.98476
1569657026.00038
1569657026.01601
1569657026.03163
1569657026.04726
1569657026.06288
1569657026.07851
1569657026.09414
1569657026.10976
1569657026.12539
1569657026.14101
1569657026.15664
1569657026.17226
1569657026.18789
1569657026.20352
1569657026.21914
1569657026.23477
1569657026.25039
1569657026.26602
1569657026.28164
1569657026.29727
1569657026.3129
1569657026.32852
1569657026.34415
1569657026.35977
1569657026.3754
1569657026.39102
1569657026.40665
1569657026.42228
1569657026.4379
1569657026.45353
1569657026.46915
1569657026.48478
1569657026.5004
1569657026.51603
1569657026.53166
1569657026.54728
1569657026.56291
1569657026.57853
1569657026.59416
1569657026.60978
1569657026.62541
1569657026.64104
1569657026.65666
1569657026.67229
1569657026.68791
1569657026.70354
1569657026.71916
1569657026.73479
1569657026.75042
1569657026.76604
1569657026.78167
1569657026.79729
1569657026.81292
1569657026.82854
1569657026.84417
1569657026.8598
1569657026.87542
1569657026.89105
1569657026.90667
1569657026.9223
1569657026.93792
1569657026.95355
1569657026.96918
1569657026.9848
1569657027.00043
1569657027.01605
1569657027.03168
1569657027.0473
1569657027.06293
1569657027.07856
1569657027.09418
1569657027.10981
1569657027.12543
1569657027.14106
1569657027.15668
1569657027.17231
1569657027.18794
1569657027.20356
1569657027.21919
1569657027.23481
1569657027.25044
1569657027.26606
1569657027.28169
1569657027.29732
1569657027.31294
1569657027.32857
1569657027.34419
1569657027.35982
1569657027.37544
1569657027.39107
1569657027.4067
1569657027.42232
1569657027.43795
1569657027.45357
1569657027.4692
1569657027.48482
1569657027.50045
1569657027.51608
1569657027.5317
1569657027.54733
1569657027.56295
1569657027.57858
1569657027.5942
1569657027.60983
1569657027.62546
1569657027.64108
1569657027.65671
1569657027.67233
1569657027.68796
1569657027.70358
1569657027.71921
1569657027.73484
1569657027.75046
1569657027.76609
1569657027.78171
1569657027.79734
1569657027.81296
1569657027.82859
1569657027.84422
1569657027.85984
1569657027.87547
1569657027.89109
1569657027.90672
1569657027.92234
1569657027.93797
1569657027.9536
1569657027.96922
1569657027.98485
1569657028.00047
1569657028.0161
1569657028.03173
1569657028.04735
1569657028.06298
1569657028.0786
1569657028.09423
1569657028.10985
1569657028.12548
1569657028.14111
1569657028.15673
1569657028.17236
1569657028.18798
1569657028.20361
1569657028.21923
1569657028.23486
1569657028.25049
1569657028.26611
1569657028.28174
1569657028.29736
1569657028.31299
1569657028.32861
1569657028.34424
1569657028.35987
1569657028.37549
1569657028.39112
1569657028.40674
1569657028.42237
1569657028.43799
1569657028.45362
1569657028.46925
1569657028.48487
1569657028.5005
1569657028.51612
1569657028.53175
1569657028.54737
1569657028.563
1569657028.57863
1569657028.59425
1569657028.60988
1569657028.6255
1569657028.64113
1569657028.65675
1569657028.67238
1569657028.68801
1569657028.70363
1569657028.71926
1569657028.73488
1569657028.75051
1569657028.76613
1569657028.78176
1569657028.79739
1569657028.81301
1569657028.82864
1569657028.84426
1569657028.85989
1569657028.87551
1569657028.89114
1569657028.90677
1569657028.92239
1569657028.93802
1569657028.95364
1569657028.96927
1569657028.98489
1569657029.00052
1569657029.01615
1569657029.03177
1569657029.0474
1569657029.06302
1569657029.07865
1569657029.09427
1569657029.1099
1569657029.12553
1569657029.14115
1569657029.15678
1569657029.1724
1569657029.18803
1569657029.20365
1569657029.21928
1569657029.23491
1569657029.25053
1569657029.26616
1569657029.28178
1569657029.29741
1569657029.31303
1569657029.32866
1569657029.34429
1569657029.35991
1569657029.37554
1569657029.39116
1569657029.40679
1569657029.42241
1569657029.43804
1569657029.45367
1569657029.46929
1569657029.48492
1569657029.50054
1569657029.51617
1569657029.53179
1569657029.54742
1569657029.56305
1569657029.57867
1569657029.5943
1569657029.60992
1569657029.62555
1569657029.64117
1569657029.6568
1569657029.67243
1569657029.68805
1569657029.70368
1569657029.7193
1569657029.73493
1569657029.75055
1569657029.76618
1569657029.78181
1569657029.79743
1569657029.81306
1569657029.82868
1569657029.84431
1569657029.85993
1569657029.87556
1569657029.89119
1569657029.90681
1569657029.92244
1569657029.93806
1569657029.95369
1569657029.96931
1569657029.98494
1569657030.00057
1569657030.01619
1569657030.03182
1569657030.04744
1569657030.06307
1569657030.07869
1569657030.09432
1569657030.10995
1569657030.12557
1569657030.1412
1569657030.15682
1569657030.17245
1569657030.18807
1569657030.2037
1569657030.21933
1569657030.23495
1569657030.25058
1569657030.2662
1569657030.28183
1569657030.29746
1569657030.31308
1569657030.32871
1569657030.34433
1569657030.35996
1569657030.37558
1569657030.39121
1569657030.40684
1569657030.42246
1569657030.43809
1569657030.45371
1569657030.46934
1569657030.48496
1569657030.50059
1569657030.51622
1569657030.53184
1569657030.54747
1569657030.56309
1569657030.57872
1569657030.59434
1569657030.60997
1569657030.6256
1569657030.64122
1569657030.65685
1569657030.67247
1569657030.6881
1569657030.70372
1569657030.71935
1569657030.73498
1569657030.7506
1569657030.76623
1569657030.78185
1569657030.79748
1569657030.8131
1569657030.82873
1569657030.84436
1569657030.85998
1569657030.87561
1569657030.89123
1569657030.90686
1569657030.92248
1569657030.93811
1569657030.95374
1569657030.96936
1569657030.98499
1569657031.00061
1569657031.01624
1569657031.03186
1569657031.04749
1569657031.06312
1569657031.07874
1569657031.09437
1569657031.10999
1569657031.12562
1569657031.14124
1569657031.15687
1569657031.1725
1569657031.18812
1569657031.20375
1569657031.21937
1569657031.235
1569657031.25062
1569657031.26625
1569657031.28188
1569657031.2975
1569657031.31313
1569657031.32875
1569657031.34438
1569657031.36
1569657031.37563
1569657031.39126
1569657031.40688
1569657031.42251
1569657031.43813
1569657031.45376
1569657031.46938
1569657031.48501
1569657031.50064
1569657031.51626
1569657031.53189
1569657031.54751
1569657031.56314
1569657031.57876
1569657031.59439
1569657031.61002
1569657031.62564
1569657031.64127
1569657031.65689
1569657031.67252
1569657031.68814
1569657031.70377
1569657031.7194
1569657031.73502
1569657031.75065
1569657031.76627
1569657031.7819
1569657031.79752
1569657031.81315
1569657031.82878
1569657031.8444
1569657031.86003
1569657031.87565
1569657031.89128
1569657031.9069
1569657031.92253
1569657031.93816
1569657031.95378
1569657031.96941
1569657031.98503
1569657032.00066
1569657032.01628
1569657032.03191
1569657032.04754
1569657032.06316
1569657032.07879
1569657032.09441
1569657032.11004
1569657032.12566
1569657032.14129
1569657032.15692
1569657032.17254
1569657032.18817
1569657032.20379
1569657032.21942
1569657032.23504
1569657032.25067
1569657032.2663
1569657032.28192
1569657032.29755
1569657032.31317
1569657032.3288
1569657032.34442
1569657032.36005
1569657032.37568
1569657032.3913
1569657032.40693
1569657032.42255
1569657032.43818
1569657032.4538
1569657032.46943
1569657032.48506
1569657032.50068
1569657032.51631
1569657032.53193
1569657032.54756
1569657032.56318
1569657032.57881
1569657032.59444
1569657032.61006
1569657032.62569
1569657032.64131
1569657032.65694
1569657032.67256
1569657032.68819
1569657032.70382
1569657032.71944
1569657032.73507
1569657032.75069
1569657032.76632
1569657032.78194
1569657032.79757
1569657032.8132
1569657032.82882
1569657032.84445
1569657032.86007
1569657032.8757
1569657032.89133
1569657032.90695
1569657032.92258
1569657032.9382
1569657032.95383
1569657032.96945
1569657032.98508
1569657033.00071
1569657033.01633
1569657033.03196
1569657033.04758
1569657033.06321
1569657033.07883
1569657033.09446
1569657033.11009
1569657033.12571
1569657033.14134
1569657033.15696
1569657033.17259
1569657033.18821
1569657033.20384
1569657033.21947
1569657033.23509
1569657033.25072
1569657033.26634
1569657033.28197
1569657033.29759
1569657033.31322
1569657033.32885
1569657033.34447
1569657033.3601
1569657033.37572
1569657033.39135
1569657033.40697
1569657033.4226
1569657033.43823
1569657033.45385
1569657033.46948
1569657033.4851
1569657033.50073
1569657033.51635
1569657033.53198
1569657033.54761
1569657033.56323
1569657033.57886
1569657033.59448
1569657033.61011
1569657033.62573
1569657033.64136
1569657033.65699
1569657033.67261
1569657033.68824
1569657033.70386
1569657033.71949
1569657033.73511
1569657033.75074
1569657033.76637
1569657033.78199
1569657033.79762
1569657033.81324
1569657033.82887
1569657033.84449
1569657033.86012
1569657033.87575
1569657033.89137
1569657033.907
1569657033.92262
1569657033.93825
1569657033.95387
1569657033.9695
1569657033.98513
1569657034.00075
1569657034.01638
1569657034.032
1569657034.04763
1569657034.06325
1569657034.07888
1569657034.09451
1569657034.11013
1569657034.12576
1569657034.14138
1569657034.15701
1569657034.17263
1569657034.18826
1569657034.20389
1569657034.21951
1569657034.23514
1569657034.25076
1569657034.26639
1569657034.28201
1569657034.29764
1569657034.31327
1569657034.32889
1569657034.34452
1569657034.36014
1569657034.37577
1569657034.39139
1569657034.40702
1569657034.42265
1569657034.43827
1569657034.4539
1569657034.46952
1569657034.48515
1569657034.50077
1569657034.5164
1569657034.53203
1569657034.54765
1569657034.56328
1569657034.5789
1569657034.59453
1569657034.61015
1569657034.62578
1569657034.64141
1569657034.65703
1569657034.67266
1569657034.68828
1569657034.70391
1569657034.71953
1569657034.73516
1569657034.75079
1569657034.76641
1569657034.78204
1569657034.79766
1569657034.81329
1569657034.82891
1569657034.84454
1569657034.86017
1569657034.87579
1569657034.89142
1569657034.90704
1569657034.92267
1569657034.93829
1569657034.95392
1569657034.96955
1569657034.98517
1569657035.0008
1569657035.01642
1569657035.03205
1569657035.04767
1569657035.0633
1569657035.07893
1569657035.09455
1569657035.11018
1569657035.1258
1569657035.14143
1569657035.15706
1569657035.17268
1569657035.18831
1569657035.20393
1569657035.21956
1569657035.23518
1569657035.25081
1569657035.26644
1569657035.28206
1569657035.29769
1569657035.31331
1569657035.32894
1569657035.34456
1569657035.36019
1569657035.37582
1569657035.39144
1569657035.40707
1569657035.42269
1569657035.43832
1569657035.45394
1569657035.46957
1569657035.4852
1569657035.50082
1569657035.51645
1569657035.53207
1569657035.5477
1569657035.56332
1569657035.57895
1569657035.59458
1569657035.6102
1569657035.62583
1569657035.64145
1569657035.65708
1569657035.6727
1569657035.68833
1569657035.70396
1569657035.71958
1569657035.73521
1569657035.75083
1569657035.76646
1569657035.78208
1569657035.79771
1569657035.81334
1569657035.82896
1569657035.84459
1569657035.86021
1569657035.87584
1569657035.89146
1569657035.90709
1569657035.92272
1569657035.93834
1569657035.95397
1569657035.96959
1569657035.98522
1569657036.00084
1569657036.01647
1569657036.0321
1569657036.04772
1569657036.06335
1569657036.07897
1569657036.0946
1569657036.11022
1569657036.12585
1569657036.14148
1569657036.1571
1569657036.17273
1569657036.18835
1569657036.20398
1569657036.2196
1569657036.23523
1569657036.25086
1569657036.26648
1569657036.28211
1569657036.29773
1569657036.31336
1569657036.32898
1569657036.34461
1569657036.36024
1569657036.37586
1569657036.39149
1569657036.40711
1569657036.42274
1569657036.43836
1569657036.45399
1569657036.46962
1569657036.48524
1569657036.50087
1569657036.51649
1569657036.53212
1569657036.54774
1569657036.56337
1569657036.579
1569657036.59462
1569657036.61025
1569657036.62587
1569657036.6415
1569657036.65712
1569657036.67275
1569657036.68838
1569657036.704
1569657036.71963
1569657036.73525
1569657036.75088
1569657036.7665
1569657036.78213
1569657036.79776
1569657036.81338
1569657036.82901
1569657036.84463
1569657036.86026
1569657036.87588
1569657036.89151
1569657036.90714
1569657036.92276
1569657036.93839
1569657036.95401
1569657036.96964
1569657036.98526
1569657037.00089
1569657037.01652
1569657037.03214
1569657037.04777
1569657037.06339
1569657037.07902
1569657037.09464
1569657037.11027
1569657037.1259
1569657037.14152
1569657037.15715
1569657037.17277
1569657037.1884
1569657037.20402
1569657037.21965
1569657037.23528
1569657037.2509
1569657037.26653
1569657037.28215
1569657037.29778
1569657037.31341
1569657037.32903
1569657037.34466
1569657037.36028
1569657037.37591
1569657037.39153
1569657037.40716
1569657037.42279
1569657037.43841
1569657037.45404
1569657037.46966
1569657037.48529
1569657037.50091
1569657037.51654
1569657037.53217
1569657037.54779
1569657037.56342
1569657037.57904
1569657037.59467
1569657037.61029
1569657037.62592
1569657037.64155
1569657037.65717
1569657037.6728
1569657037.68842
1569657037.70405
1569657037.71967
1569657037.7353
1569657037.75093
1569657037.76655
1569657037.78218
1569657037.7978
1569657037.81343
1569657037.82905
1569657037.84468
1569657037.86031
1569657037.87593
1569657037.89156
1569657037.90718
1569657037.92281
1569657037.93843
1569657037.95406
1569657037.96969
1569657037.98531
1569657038.00094
1569657038.01656
1569657038.03219
1569657038.04781
1569657038.06344
1569657038.07907
1569657038.09469
1569657038.11032
1569657038.12594
1569657038.14157
1569657038.15719
1569657038.17282
1569657038.18845
1569657038.20407
1569657038.2197
1569657038.23532
1569657038.25095
1569657038.26657
1569657038.2822
1569657038.29783
1569657038.31345
1569657038.32908
1569657038.3447
1569657038.36033
1569657038.37595
1569657038.39158
1569657038.40721
1569657038.42283
1569657038.43846
1569657038.45408
1569657038.46971
1569657038.48533
1569657038.50096
1569657038.51659
1569657038.53221
1569657038.54784
1569657038.56346
1569657038.57909
1569657038.59471
1569657038.61034
1569657038.62597
1569657038.64159
1569657038.65722
1569657038.67284
1569657038.68847
1569657038.70409
1569657038.71972
1569657038.73535
1569657038.75097
1569657038.7666
1569657038.78222
1569657038.79785
1569657038.81347
1569657038.8291
1569657038.84473
1569657038.86035
1569657038.87598
1569657038.8916
1569657038.90723
1569657038.92285
1569657038.93848
1569657038.95411
1569657038.96973
1569657038.98536
1569657039.00098
1569657039.01661
1569657039.03223
1569657039.04786
1569657039.06349
1569657039.07911
1569657039.09474
1569657039.11036
1569657039.12599
1569657039.14161
1569657039.15724
1569657039.17287
1569657039.18849
1569657039.20412
1569657039.21974
1569657039.23537
1569657039.25099
1569657039.26662
1569657039.28225
1569657039.29787
1569657039.3135
1569657039.32912
1569657039.34475
1569657039.36037
1569657039.376
1569657039.39163
1569657039.40725
1569657039.42288
1569657039.4385
1569657039.45413
1569657039.46975
1569657039.48538
1569657039.50101
1569657039.51663
1569657039.53226
1569657039.54788
1569657039.56351
1569657039.57913
1569657039.59476
1569657039.61039
1569657039.62601
1569657039.64164
1569657039.65726
1569657039.67289
1569657039.68851
1569657039.70414
1569657039.71977
1569657039.73539
1569657039.75102
1569657039.76664
1569657039.78227
1569657039.79789
1569657039.81352
1569657039.82915
1569657039.84477
1569657039.8604
1569657039.87602
1569657039.89165
1569657039.90727
1569657039.9229
1569657039.93853
1569657039.95415
1569657039.96978
1569657039.9854
1569657040.00103
1569657040.01666
1569657040.03228
1569657040.04791
1569657040.06353
1569657040.07916
1569657040.09478
1569657040.11041
1569657040.12604
1569657040.14166
1569657040.15729
1569657040.17291
1569657040.18854
1569657040.20416
1569657040.21979
1569657040.23542
1569657040.25104
1569657040.26667
1569657040.28229
1569657040.29792
1569657040.31354
1569657040.32917
1569657040.3448
1569657040.36042
1569657040.37605
1569657040.39167
1569657040.4073
1569657040.42292
1569657040.43855
1569657040.45418
1569657040.4698
1569657040.48543
1569657040.50105
1569657040.51668
1569657040.5323
1569657040.54793
1569657040.56356
1569657040.57918
1569657040.59481
1569657040.61043
1569657040.62606
1569657040.64168
1569657040.65731
1569657040.67294
1569657040.68856
1569657040.70419
1569657040.71981
1569657040.73544
1569657040.75106
1569657040.76669
1569657040.78232
1569657040.79794
1569657040.81357
1569657040.82919
1569657040.84482
1569657040.86044
1569657040.87607
1569657040.8917
1569657040.90732
1569657040.92295
1569657040.93857
1569657040.9542
1569657040.96982
1569657040.98545
1569657041.00108
1569657041.0167
1569657041.03233
1569657041.04795
1569657041.06358
1569657041.0792
1569657041.09483
1569657041.11046
1569657041.12608
1569657041.14171
1569657041.15733
1569657041.17296
1569657041.18858
1569657041.20421
1569657041.21984
1569657041.23546
1569657041.25109
1569657041.26671
1569657041.28234
1569657041.29796
1569657041.31359
1569657041.32922
1569657041.34484
1569657041.36047
1569657041.37609
1569657041.39172
1569657041.40734
1569657041.42297
1569657041.4386
1569657041.45422
1569657041.46985
1569657041.48547
1569657041.5011
1569657041.51672
1569657041.53235
1569657041.54798
1569657041.5636
1569657041.57923
1569657041.59485
1569657041.61048
1569657041.6261
1569657041.64173
1569657041.65736
1569657041.67298
1569657041.68861
1569657041.70423
1569657041.71986
1569657041.73548
1569657041.75111
1569657041.76674
1569657041.78236
1569657041.79799
1569657041.81361
1569657041.82924
1569657041.84486
1569657041.86049
1569657041.87612
1569657041.89174
1569657041.90737
1569657041.92299
1569657041.93862
1569657041.95424
1569657041.96987
1569657041.9855
1569657042.00112
1569657042.01675
1569657042.03237
1569657042.048
1569657042.06362
1569657042.07925
1569657042.09488
1569657042.1105
1569657042.12613
1569657042.14175
1569657042.15738
1569657042.17301
1569657042.18863
1569657042.20426
1569657042.21988
1569657042.23551
1569657042.25113
1569657042.26676
1569657042.28239
1569657042.29801
1569657042.31364
1569657042.32926
1569657042.34489
1569657042.36051
1569657042.37614
1569657042.39177
1569657042.40739
1569657042.42302
1569657042.43864
1569657042.45427
1569657042.46989
1569657042.48552
1569657042.50115
1569657042.51677
1569657042.5324
1569657042.54802
1569657042.56365
1569657042.57927
1569657042.5949
1569657042.61053
1569657042.62615
1569657042.64178
1569657042.6574
1569657042.67303
1569657042.68865
1569657042.70428
1569657042.71991
1569657042.73553
1569657042.75116
1569657042.76678
1569657042.78241
1569657042.79803
1569657042.81366
1569657042.82929
1569657042.84491
1569657042.86054
1569657042.87616
1569657042.89179
1569657042.90741
1569657042.92304
1569657042.93867
1569657042.95429
1569657042.96992
1569657042.98554
1569657043.00117
1569657043.01679
1569657043.03242
1569657043.04805
1569657043.06367
1569657043.0793
1569657043.09492
1569657043.11055
1569657043.12617
1569657043.1418
1569657043.15743
1569657043.17305
1569657043.18868
1569657043.2043
1569657043.21993
1569657043.23555
1569657043.25118
1569657043.26681
1569657043.28243
1569657043.29806
1569657043.31368
1569657043.32931
1569657043.34493
1569657043.36056
1569657043.37619
1569657043.39181
1569657043.40744
1569657043.42306
1569657043.43869
1569657043.45431
1569657043.46994
1569657043.48557
1569657043.50119
1569657043.51682
1569657043.53244
1569657043.54807
1569657043.56369
1569657043.57932
1569657043.59495
1569657043.61057
1569657043.6262
1569657043.64182
1569657043.65745
1569657043.67307
1569657043.6887
1569657043.70433
1569657043.71995
1569657043.73558
1569657043.7512
1569657043.76683
1569657043.78245
1569657043.79808
1569657043.81371
1569657043.82933
1569657043.84496
1569657043.86058
1569657043.87621
1569657043.89183
1569657043.90746
1569657043.92309
1569657043.93871
1569657043.95434
1569657043.96996
1569657043.98559
1569657044.00121
1569657044.01684
1569657044.03247
1569657044.04809
1569657044.06372
1569657044.07934
1569657044.09497
1569657044.11059
1569657044.12622
1569657044.14185
1569657044.15747
1569657044.1731
1569657044.18872
1569657044.20435
1569657044.21997
1569657044.2356
1569657044.25123
1569657044.26685
1569657044.28248
1569657044.2981
1569657044.31373
1569657044.32935
1569657044.34498
1569657044.36061
1569657044.37623
1569657044.39186
1569657044.40748
1569657044.42311
1569657044.43874
1569657044.45436
1569657044.46999
1569657044.48561
1569657044.50124
1569657044.51686
1569657044.53249
1569657044.54812
1569657044.56374
1569657044.57937
1569657044.59499
1569657044.61062
1569657044.62624
1569657044.64187
1569657044.6575
1569657044.67312
1569657044.68875
1569657044.70437
1569657044.72
1569657044.73562
1569657044.75125
1569657044.76688
1569657044.7825
1569657044.79813
1569657044.81375
1569657044.82938
1569657044.845
1569657044.86063
1569657044.87626
1569657044.89188
1569657044.90751
1569657044.92313
1569657044.93876
1569657044.95438
1569657044.97001
1569657044.98564
1569657045.00126
1569657045.01689
1569657045.03251
1569657045.04814
1569657045.06376
1569657045.07939
1569657045.09502
1569657045.11064
1569657045.12627
1569657045.14189
1569657045.15752
1569657045.17314
1569657045.18877
1569657045.2044
1569657045.22002
1569657045.23565
1569657045.25127
1569657045.2669
1569657045.28252
1569657045.29815
1569657045.31378
1569657045.3294
1569657045.34503
1569657045.36065
1569657045.37628
1569657045.3919
1569657045.40753
1569657045.42316
1569657045.43878
1569657045.45441
1569657045.47003
1569657045.48566
1569657045.50128
1569657045.51691
1569657045.53254
1569657045.54816
1569657045.56379
1569657045.57941
1569657045.59504
1569657045.61066
1569657045.62629
1569657045.64192
1569657045.65754
1569657045.67317
1569657045.68879
1569657045.70442
1569657045.72004
1569657045.73567
1569657045.7513
1569657045.76692
1569657045.78255
1569657045.79817
1569657045.8138
1569657045.82942
1569657045.84505
1569657045.86068
1569657045.8763
1569657045.89193
1569657045.90755
1569657045.92318
1569657045.9388
1569657045.95443
1569657045.97006
1569657045.98568
1569657046.00131
1569657046.01693
1569657046.03256
1569657046.04818
1569657046.06381
1569657046.07944
1569657046.09506
1569657046.11069
1569657046.12631
1569657046.14194
1569657046.15756
1569657046.17319
1569657046.18882
1569657046.20444
1569657046.22007
1569657046.23569
1569657046.25132
1569657046.26694
1569657046.28257
1569657046.2982
1569657046.31382
1569657046.32945
1569657046.34507
1569657046.3607
1569657046.37632
1569657046.39195
1569657046.40758
1569657046.4232
1569657046.43883
1569657046.45445
1569657046.47008
1569657046.4857
1569657046.50133
1569657046.51696
1569657046.53258
1569657046.54821
1569657046.56383
1569657046.57946
1569657046.59508
1569657046.61071
1569657046.62634
1569657046.64196
1569657046.65759
1569657046.67321
1569657046.68884
1569657046.70446
1569657046.72009
1569657046.73572
1569657046.75134
1569657046.76697
1569657046.78259
1569657046.79822
1569657046.81384
1569657046.82947
1569657046.8451
1569657046.86072
1569657046.87635
1569657046.89197
1569657046.9076
1569657046.92322
1569657046.93885
1569657046.95448
1569657046.9701
1569657046.98573
1569657047.00135
1569657047.01698
1569657047.03261
1569657047.04823
1569657047.06386
1569657047.07948
1569657047.09511
1569657047.11073
1569657047.12636
1569657047.14199
1569657047.15761
1569657047.17324
1569657047.18886
1569657047.20449
1569657047.22011
1569657047.23574
1569657047.25137
1569657047.26699
1569657047.28262
1569657047.29824
1569657047.31387
1569657047.32949
1569657047.34512
1569657047.36075
1569657047.37637
1569657047.392
1569657047.40762
1569657047.42325
1569657047.43887
1569657047.4545
1569657047.47013
1569657047.48575
1569657047.50138
1569657047.517
1569657047.53263
1569657047.54825
1569657047.56388
1569657047.57951
1569657047.59513
1569657047.61076
1569657047.62638
1569657047.64201
1569657047.65763
1569657047.67326
1569657047.68889
1569657047.70451
1569657047.72014
1569657047.73576
1569657047.75139
1569657047.76701
1569657047.78264
1569657047.79827
1569657047.81389
1569657047.82952
1569657047.84514
1569657047.86077
1569657047.87639
1569657047.89202
1569657047.90765
1569657047.92327
1569657047.9389
1569657047.95452
1569657047.97015
1569657047.98577
1569657048.0014
1569657048.01703
1569657048.03265
1569657048.04828
1569657048.0639
1569657048.07953
1569657048.09515
1569657048.11078
1569657048.12641
1569657048.14203
1569657048.15766
1569657048.17328
1569657048.18891
1569657048.20453
1569657048.22016
1569657048.23579
1569657048.25141
1569657048.26704
1569657048.28266
1569657048.29829
1569657048.31391
1569657048.32954
1569657048.34517
1569657048.36079
1569657048.37642
1569657048.39204
1569657048.40767
1569657048.42329
1569657048.43892
1569657048.45455
1569657048.47017
1569657048.4858
1569657048.50142
1569657048.51705
1569657048.53267
1569657048.5483
1569657048.56393
1569657048.57955
1569657048.59518
1569657048.6108
1569657048.62643
1569657048.64205
1569657048.65768
1569657048.67331
1569657048.68893
1569657048.70456
1569657048.72018
1569657048.73581
1569657048.75143
1569657048.76706
1569657048.78269
1569657048.79831
1569657048.81394
1569657048.82956
1569657048.84519
1569657048.86081
1569657048.87644
1569657048.89207
1569657048.90769
1569657048.92332
1569657048.93894
1569657048.95457
1569657048.97019
1569657048.98582
1569657049.00145
1569657049.01707
1569657049.0327
1569657049.04832
1569657049.06395
1569657049.07957
1569657049.0952
1569657049.11083
1569657049.12645
1569657049.14208
1569657049.1577
1569657049.17333
1569657049.18895
1569657049.20458
1569657049.22021
1569657049.23583
1569657049.25146
1569657049.26708
1569657049.28271
1569657049.29834
1569657049.31396
1569657049.32959
1569657049.34521
1569657049.36084
1569657049.37646
1569657049.39209
1569657049.40772
1569657049.42334
1569657049.43897
1569657049.45459
1569657049.47022
1569657049.48584
1569657049.50147
1569657049.5171
1569657049.53272
1569657049.54835
1569657049.56397
1569657049.5796
1569657049.59522
1569657049.61085
1569657049.62648
1569657049.6421
1569657049.65773
1569657049.67335
1569657049.68898
1569657049.7046
1569657049.72023
1569657049.73586
1569657049.75148
1569657049.76711
1569657049.78273
1569657049.79836
1569657049.81398
1569657049.82961
1569657049.84524
1569657049.86086
1569657049.87649
1569657049.89211
1569657049.90774
1569657049.92336
1569657049.93899
1569657049.95462
1569657049.97024
1569657049.98587
1569657050.00149
1569657050.01712
1569657050.03274
1569657050.04837
1569657050.064
1569657050.07962
1569657050.09525
1569657050.11087
1569657050.1265
1569657050.14212
1569657050.15775
1569657050.17338
1569657050.189
1569657050.20463
1569657050.22025
1569657050.23588
1569657050.2515
1569657050.26713
1569657050.28276
1569657050.29838
1569657050.31401
1569657050.32963
1569657050.34526
1569657050.36088
1569657050.37651
1569657050.39214
1569657050.40776
1569657050.42339
1569657050.43901
1569657050.45464
1569657050.47026
1569657050.48589
1569657050.50152
1569657050.51714
1569657050.53277
1569657050.54839
1569657050.56402
1569657050.57964
1569657050.59527
1569657050.6109
1569657050.62652
1569657050.64215
1569657050.65777
1569657050.6734
1569657050.68902
1569657050.70465
1569657050.72028
1569657050.7359
1569657050.75153
1569657050.76715
1569657050.78278
1569657050.7984
1569657050.81403
1569657050.82966
1569657050.84528
1569657050.86091
1569657050.87653
1569657050.89216
1569657050.90778
1569657050.92341
1569657050.93904
1569657050.95466
1569657050.97029
1569657050.98591
1569657051.00154
1569657051.01716
1569657051.03279
1569657051.04842
1569657051.06404
1569657051.07967
1569657051.09529
1569657051.11092
1569657051.12654
1569657051.14217
1569657051.1578
1569657051.17342
1569657051.18905
1569657051.20467
1569657051.2203
1569657051.23592
1569657051.25155
1569657051.26718
1569657051.2828
1569657051.29843
1569657051.31405
1569657051.32968
1569657051.3453
1569657051.36093
1569657051.37656
1569657051.39218
1569657051.40781
1569657051.42343
1569657051.43906
1569657051.45468
1569657051.47031
1569657051.48594
1569657051.50156
1569657051.51719
1569657051.53281
1569657051.54844
1569657051.56406
1569657051.57969
1569657051.59532
1569657051.61094
1569657051.62657
1569657051.64219
1569657051.65782
1569657051.67344
1569657051.68907
1569657051.7047
1569657051.72032
1569657051.73595
1569657051.75157
1569657051.7672
1569657051.78282
1569657051.79845
1569657051.81408
1569657051.8297
1569657051.84533
1569657051.86095
1569657051.87658
1569657051.89221
1569657051.90783
1569657051.92346
1569657051.93908
1569657051.95471
1569657051.97033
1569657051.98596
1569657052.00159
1569657052.01721
1569657052.03284
1569657052.04846
1569657052.06409
1569657052.07971
1569657052.09534
1569657052.11097
1569657052.12659
1569657052.14222
1569657052.15784
1569657052.17347
1569657052.18909
1569657052.20472
1569657052.22035
1569657052.23597
1569657052.2516
1569657052.26722
1569657052.28285
1569657052.29847
1569657052.3141
1569657052.32973
1569657052.34535
1569657052.36098
1569657052.3766
1569657052.39223
1569657052.40785
1569657052.42348
1569657052.43911
1569657052.45473
1569657052.47036
1569657052.48598
1569657052.50161
1569657052.51723
1569657052.53286
1569657052.54849
1569657052.56411
1569657052.57974
1569657052.59536
1569657052.61099
1569657052.62661
1569657052.64224
1569657052.65787
1569657052.67349
1569657052.68912
1569657052.70474
1569657052.72037
1569657052.73599
1569657052.75162
1569657052.76725
1569657052.78287
1569657052.7985
1569657052.81412
1569657052.82975
1569657052.84537
1569657052.861
1569657052.87663
1569657052.89225
1569657052.90788
1569657052.9235
1569657052.93913
1569657052.95475
1569657052.97038
1569657052.98601
1569657053.00163
1569657053.01726
1569657053.03288
1569657053.04851
1569657053.06413
1569657053.07976
1569657053.09539
1569657053.11101
1569657053.12664
1569657053.14226
1569657053.15789
1569657053.17351
1569657053.18914
1569657053.20477
1569657053.22039
1569657053.23602
1569657053.25164
1569657053.26727
1569657053.28289
1569657053.29852
1569657053.31415
1569657053.32977
1569657053.3454
1569657053.36102
1569657053.37665
1569657053.39227
1569657053.4079
1569657053.42353
1569657053.43915
1569657053.45478
1569657053.4704
1569657053.48603
1569657053.50165
1569657053.51728
1569657053.53291
1569657053.54853
1569657053.56416
1569657053.57978
1569657053.59541
1569657053.61103
1569657053.62666
1569657053.64229
1569657053.65791
1569657053.67354
1569657053.68916
1569657053.70479
1569657053.72041
1569657053.73604
1569657053.75167
1569657053.76729
1569657053.78292
1569657053.79854
1569657053.81417
1569657053.82979
1569657053.84542
1569657053.86105
1569657053.87667
1569657053.8923
1569657053.90792
1569657053.92355
1569657053.93917
1569657053.9548
1569657053.97043
1569657053.98605
1569657054.00168
1569657054.0173
1569657054.03293
1569657054.04855
1569657054.06418
1569657054.07981
1569657054.09543
1569657054.11106
1569657054.12668
1569657054.14231
1569657054.15794
1569657054.17356
1569657054.18919
1569657054.20481
1569657054.22044
1569657054.23606
1569657054.25169
1569657054.26732
1569657054.28294
1569657054.29857
1569657054.31419
1569657054.32982
1569657054.34544
1569657054.36107
1569657054.3767
1569657054.39232
1569657054.40795
1569657054.42357
1569657054.4392
1569657054.45482
1569657054.47045
1569657054.48608
1569657054.5017
1569657054.51733
1569657054.53295
1569657054.54858
1569657054.5642
1569657054.57983
1569657054.59546
1569657054.61108
1569657054.62671
1569657054.64233
1569657054.65796
1569657054.67358
1569657054.68921
1569657054.70484
1569657054.72046
1569657054.73609
1569657054.75171
1569657054.76734
1569657054.78296
1569657054.79859
1569657054.81422
1569657054.82984
1569657054.84547
1569657054.86109
1569657054.87672
1569657054.89234
1569657054.90797
1569657054.9236
1569657054.93922
1569657054.95485
1569657054.97047
1569657054.9861
1569657055.00172
1569657055.01735
1569657055.03298
1569657055.0486
1569657055.06423
1569657055.07985
1569657055.09548
1569657055.1111
1569657055.12673
1569657055.14236
1569657055.15798
1569657055.17361
1569657055.18923
1569657055.20486
1569657055.22048
1569657055.23611
1569657055.25174
1569657055.26736
1569657055.28299
1569657055.29861
1569657055.31424
1569657055.32986
1569657055.34549
1569657055.36112
1569657055.37674
1569657055.39237
1569657055.40799
1569657055.42362
1569657055.43924
1569657055.45487
1569657055.4705
1569657055.48612
1569657055.50175
1569657055.51737
1569657055.533
1569657055.54862
1569657055.56425
1569657055.57988
1569657055.5955
1569657055.61113
1569657055.62675
1569657055.64238
1569657055.658
1569657055.67363
1569657055.68926
1569657055.70488
1569657055.72051
1569657055.73613
1569657055.75176
1569657055.76738
1569657055.78301
1569657055.79864
1569657055.81426
1569657055.82989
1569657055.84551
1569657055.86114
1569657055.87676
1569657055.89239
1569657055.90802
1569657055.92364
1569657055.93927
1569657055.95489
1569657055.97052
1569657055.98614
1569657056.00177
1569657056.0174
1569657056.03302
1569657056.04865
1569657056.06427
1569657056.0799
1569657056.09552
1569657056.11115
1569657056.12678
1569657056.1424
1569657056.15803
1569657056.17365
1569657056.18928
1569657056.2049
1569657056.22053
1569657056.23616
1569657056.25178
1569657056.26741
1569657056.28303
1569657056.29866
1569657056.31429
1569657056.32991
1569657056.34554
1569657056.36116
1569657056.37679
1569657056.39241
1569657056.40804
1569657056.42367
1569657056.43929
1569657056.45492
1569657056.47054
1569657056.48617
1569657056.50179
1569657056.51742
1569657056.53305
1569657056.54867
1569657056.5643
1569657056.57992
1569657056.59555
1569657056.61117
1569657056.6268
1569657056.64243
1569657056.65805
1569657056.67368
1569657056.6893
1569657056.70493
1569657056.72055
1569657056.73618
1569657056.75181
1569657056.76743
1569657056.78306
1569657056.79868
1569657056.81431
1569657056.82993
1569657056.84556
1569657056.86119
1569657056.87681
1569657056.89244
1569657056.90806
1569657056.92369
1569657056.93931
1569657056.95494
1569657056.97057
1569657056.98619
1569657057.00182
1569657057.01744
1569657057.03307
1569657057.04869
1569657057.06432
1569657057.07995
1569657057.09557
1569657057.1112
1569657057.12682
1569657057.14245
1569657057.15807
1569657057.1737
1569657057.18933
1569657057.20495
1569657057.22058
1569657057.2362
1569657057.25183
1569657057.26745
1569657057.28308
1569657057.29871
1569657057.31433
1569657057.32996
1569657057.34558
1569657057.36121
1569657057.37683
1569657057.39246
1569657057.40809
1569657057.42371
1569657057.43934
1569657057.45496
1569657057.47059
1569657057.48621
1569657057.50184
1569657057.51747
1569657057.53309
1569657057.54872
1569657057.56434
1569657057.57997
1569657057.59559
1569657057.61122
1569657057.62685
1569657057.64247
1569657057.6581
1569657057.67372
1569657057.68935
1569657057.70497
1569657057.7206
1569657057.73623
1569657057.75185
1569657057.76748
1569657057.7831
1569657057.79873
1569657057.81435
1569657057.82998
1569657057.84561
1569657057.86123
1569657057.87686
1569657057.89248
1569657057.90811
1569657057.92373
1569657057.93936
1569657057.95499
1569657057.97061
1569657057.98624
1569657058.00186
1569657058.01749
1569657058.03311
1569657058.04874
1569657058.06437
1569657058.07999
1569657058.09562
1569657058.11124
1569657058.12687
1569657058.14249
1569657058.15812
1569657058.17375
1569657058.18937
1569657058.205
1569657058.22062
1569657058.23625
1569657058.25187
1569657058.2675
1569657058.28313
1569657058.29875
1569657058.31438
1569657058.33
1569657058.34563
1569657058.36125
1569657058.37688
1569657058.39251
1569657058.40813
1569657058.42376
1569657058.43938
1569657058.45501
1569657058.47063
1569657058.48626
1569657058.50189
1569657058.51751
1569657058.53314
1569657058.54876
1569657058.56439
1569657058.58001
1569657058.59564
1569657058.61127
1569657058.62689
1569657058.64252
1569657058.65814
1569657058.67377
1569657058.68939
1569657058.70502
1569657058.72065
1569657058.73627
1569657058.7519
1569657058.76752
1569657058.78315
1569657058.79877
1569657058.8144
1569657058.83003
1569657058.84565
1569657058.86128
1569657058.8769
1569657058.89253
1569657058.90815
1569657058.92378
1569657058.93941
1569657058.95503
1569657058.97066
1569657058.98628
1569657059.00191
1569657059.01754
1569657059.03316
1569657059.04879
1569657059.06441
1569657059.08004
1569657059.09566
1569657059.11129
1569657059.12692
1569657059.14254
1569657059.15817
1569657059.17379
1569657059.18942
1569657059.20504
1569657059.22067
1569657059.2363
1569657059.25192
1569657059.26755
1569657059.28317
1569657059.2988
1569657059.31442
1569657059.33005
1569657059.34568
1569657059.3613
1569657059.37693
1569657059.39255
1569657059.40818
1569657059.4238
1569657059.43943
1569657059.45506
1569657059.47068
1569657059.48631
1569657059.50193
1569657059.51756
1569657059.53318
1569657059.54881
1569657059.56444
1569657059.58006
1569657059.59569
1569657059.61131
1569657059.62694
1569657059.64256
1569657059.65819
1569657059.67382
1569657059.68944
1569657059.70507
1569657059.72069
1569657059.73632
1569657059.75194
1569657059.76757
1569657059.7832
1569657059.79882
1569657059.81445
1569657059.83007
1569657059.8457
1569657059.86132
1569657059.87695
1569657059.89258
1569657059.9082
1569657059.92383
1569657059.93945
1569657059.95508
1569657059.9707
1569657059.98633
1569657060.00196
1569657060.01758
1569657060.03321
1569657060.04883
1569657060.06446
1569657060.08008
1569657060.09571
1569657060.11134
1569657060.12696
1569657060.14259
1569657060.15821
1569657060.17384
1569657060.18946
1569657060.20509
1569657060.22072
1569657060.23634
1569657060.25197
1569657060.26759
1569657060.28322
1569657060.29884
1569657060.31447
1569657060.3301
1569657060.34572
1569657060.36135
1569657060.37697
1569657060.3926
1569657060.40822
1569657060.42385
1569657060.43948
1569657060.4551
1569657060.47073
1569657060.48635
1569657060.50198
1569657060.5176
1569657060.53323
1569657060.54886
1569657060.56448
1569657060.58011
1569657060.59573
1569657060.61136
1569657060.62698
1569657060.64261
1569657060.65824
1569657060.67386
1569657060.68949
1569657060.70511
1569657060.72074
1569657060.73636
1569657060.75199
1569657060.76762
1569657060.78324
1569657060.79887
1569657060.81449
1569657060.83012
1569657060.84574
1569657060.86137
1569657060.877
1569657060.89262
1569657060.90825
1569657060.92387
1569657060.9395
1569657060.95512
1569657060.97075
1569657060.98638
1569657061.002
1569657061.01763
1569657061.03325
1569657061.04888
1569657061.0645
1569657061.08013
1569657061.09576
1569657061.11138
1569657061.12701
1569657061.14263
1569657061.15826
1569657061.17388
1569657061.18951
1569657061.20514
1569657061.22076
1569657061.23639
1569657061.25201
1569657061.26764
1569657061.28327
1569657061.29889
1569657061.31452
1569657061.33014
1569657061.34577
1569657061.36139
1569657061.37702
1569657061.39265
1569657061.40827
1569657061.4239
1569657061.43952
1569657061.45515
1569657061.47077
1569657061.4864
1569657061.50203
1569657061.51765
1569657061.53328
1569657061.5489
1569657061.56453
1569657061.58015
1569657061.59578
1569657061.61141
1569657061.62703
1569657061.64266
1569657061.65828
1569657061.67391
1569657061.68953
1569657061.70516
1569657061.72079
1569657061.73641
1569657061.75204
1569657061.76766
1569657061.78329
1569657061.79891
1569657061.81454
1569657061.83017
1569657061.84579
1569657061.86142
1569657061.87704
1569657061.89267
1569657061.90829
1569657061.92392
1569657061.93955
1569657061.95517
1569657061.9708
1569657061.98642
1569657062.00205
1569657062.01767
1569657062.0333
1569657062.04893
1569657062.06455
1569657062.08018
1569657062.0958
1569657062.11143
1569657062.12705
1569657062.14268
1569657062.15831
1569657062.17393
1569657062.18956
1569657062.20518
1569657062.22081
1569657062.23643
1569657062.25206
1569657062.26769
1569657062.28331
1569657062.29894
1569657062.31456
1569657062.33019
1569657062.34581
1569657062.36144
1569657062.37707
1569657062.39269
1569657062.40832
1569657062.42394
1569657062.43957
1569657062.45519
1569657062.47082
1569657062.48645
1569657062.50207
1569657062.5177
1569657062.53332
1569657062.54895
1569657062.56457
1569657062.5802
1569657062.59583
